649.826
647.123
641.198
646.219
650.553
640.162
638.409
643.790
643.433
646.342
633.439
644.535
630.529
629.105
634.359
627.684
623.399
634.074
623.012
623.124
618.884
628.335
631.266
628.843
620.837
615.062
616.889
611.523
619.148
616.006
609.396
616.572
608.316
609.668
602.526
609.263
609.426
599.169
605.588
604.213
603.590
592.780
606.736
599.404
603.141
591.879
588.328
599.971
588.563
593.926
587.528
585.967
594.858
582.790
577.877
576.298
577.156
581.399
572.386
585.910
572.824
578.265
578.947
573.153
570.068
571.952
572.376
575.968
574.673
566.119
563.270
569.358
555.023
554.028
565.670
553.088
563.647
556.832
547.709
559.827
552.900
552.009
550.494
550.716
555.150
546.777
547.740
544.054
545.316
538.683
534.513
542.591
534.902
540.380
536.695
541.573
535.108
526.638
523.526
533.122
534.023
532.804
527.463
521.689
524.603
522.852
517.499
524.630
518.271
523.112
508.539
521.968
515.980
518.833
505.916
503.519
503.703
500.651
502.780
501.165
500.125
496.346
500.351
504.269
496.477
490.182
493.523
487.813
497.674
485.242
484.860
483.451
488.680
487.575
479.775
484.886
483.830
487.272
478.275
484.226
483.847
479.816
479.306
475.427
468.460
467.562
472.496
469.831
471.370
463.926
468.784
471.216
472.562
457.308
466.127
455.101
463.551
460.653
458.329
450.900
458.225
449.179
452.072
444.890
442.447
453.136
444.410
451.793
443.624
451.742
450.193
438.312
441.015
433.409
431.544
435.147
431.210
442.219
437.472
430.799
436.489
430.717
442.298
430.172
445.068
436.744
447.869
441.398
446.198
447.605
446.720
455.552
453.084
448.329
452.223
452.015
461.456
460.919
459.757
454.859
468.379
458.170
462.440
463.125
459.486
471.682
476.767
470.255
472.250
466.745
476.677
474.730
477.086
482.565
476.273
477.271
481.492
483.947
485.692
484.807
485.118
492.587
494.983
489.543
493.993
494.508
494.460
494.198
492.906
499.157
498.372
500.819
506.471
511.937
509.380
511.302
511.921
512.692
506.163
508.597
521.070
525.654
526.530
514.006
524.532
524.642
518.137
522.882
524.277
529.011
535.242
524.531
536.553
535.906
533.373
534.280
540.857
533.657
548.641
538.667
539.014
543.683
549.567
556.196
553.081
558.285
552.730
549.016
557.058
563.750
554.383
555.802
556.532
567.498
561.221
569.288
570.263
566.017
571.844
575.692
568.414
572.018
582.247
575.144
574.227
571.628
587.849
589.132
577.991
585.472
583.988
588.113
585.442
588.403
593.812
594.953
598.424
601.609
592.366
597.509
599.332
601.992
607.404
602.430
599.427
608.504
608.980
606.749
613.233
620.170
618.576
620.708
621.064
623.215
618.669
613.784
622.801
631.552
629.482
627.644
628.949
622.373
628.927
630.493
632.283
633.771
640.432
633.008
641.834
636.199
636.485
647.962
638.385
650.873
649.055
650.874
644.932
649.606
649.304
652.257
656.053
664.069
653.853
666.755
668.740
665.480
665.200
668.979
673.965
675.323
676.390
664.733
673.567
675.893
667.360
677.252
671.891
682.621
684.936
686.835
681.188
685.982
691.559
684.472
683.442
686.821
694.832
688.876
701.884
698.319
698.793
701.570
696.812
693.435
702.907
702.278
712.876
712.183
705.548
702.164
705.728
700.800
700.929
699.581
698.369
691.070
684.979
680.530
692.803
678.430
674.167
680.748
667.326
663.974
661.488
665.087
669.342
664.174
664.397
661.612
653.230
641.176
648.557
648.457
635.928
643.091
633.900
638.044
621.994
633.642
619.615
628.127
610.787
618.751
606.585
614.975
608.732
599.280
608.863
598.968
600.936
591.050
584.255
592.668
578.847
574.970
576.256
574.298
573.740
573.897
570.309
567.941
562.425
567.608
552.000
550.480
547.093
544.170
550.447
546.339
547.158
531.873
530.227
537.282
528.765
526.689
528.313
517.113
512.096
520.703
516.126
508.941
503.385
505.674
509.518
493.894
501.927
498.077
498.026
488.629
481.037
490.974
473.315
483.486
474.640
477.226
474.335
473.225
459.245
462.303
456.967
451.260
460.377
449.489
440.419
443.886
442.111
442.148
438.007
441.343
436.712
432.308
417.955
416.134
419.417
422.121
410.915
415.767
403.722
410.932
403.830
396.186
400.767
402.108
400.458
387.609
388.570
384.347
389.199
384.162
376.770
370.213
366.536
361.201
370.673
368.719
366.607
355.716
354.116
359.054
348.217
353.616
344.023
342.750
339.765
339.363
329.395
322.392
318.747
330.167
321.734
325.933
315.734
320.584
311.115
312.424
302.280
307.054
296.034
291.560
297.440
293.336
288.107
279.710
281.018
281.859
282.713
276.317
276.433
276.102
266.842
256.916
260.346
261.268
251.888
250.807
250.348
251.062
237.784
244.472
234.508
229.736
239.915
230.937
231.618
223.484
228.717
226.716
211.148
210.178
210.179
215.154
202.088
206.686
204.800
203.810
194.165
190.875
186.459
188.688
189.613
180.099
182.963
169.396
177.414
170.200
168.559
160.252
161.459
161.796
150.448
162.050
161.283
163.782
161.532
155.189
162.859
152.654
156.560
155.999
155.620
157.955
150.754
150.425
159.298
145.350
148.629
155.808
149.905
152.690
155.039
151.032
143.329
146.479
144.265
146.907
148.744
147.718
144.836
149.781
141.415
143.645
135.882
137.657
147.015
145.172
146.277
138.234
134.266
135.468
136.490
146.658
132.949
145.895
132.663
136.584
131.450
143.383
132.569
132.296
132.873
134.040
141.239
140.322
127.429
139.018
136.563
129.157
129.057
125.183
123.169
129.001
136.770
134.907
123.946
127.547
132.511
120.045
133.323
120.056
132.109
120.670
124.497
131.062
120.941
125.657
115.794
123.979
129.330
116.024
122.288
127.069
117.991
120.460
119.228
116.573
122.188
125.584
122.608
114.543
113.253
115.988
121.339
121.559
112.884
109.676
117.828
110.291
114.710
118.740
107.424
117.583
115.430
111.551
109.910
114.741
110.686
106.254
104.270
108.033
105.275
107.875
107.899
103.897
108.710
109.922
98.754
100.445
102.754
101.076
101.783
97.983
97.785
109.141
98.496
99.969
101.856
94.999
97.794
96.506
334.484
308.063
314.624
313.339
301.482
312.874
297.318
299.022
329.821
313.321
288.512
296.489
285.181
296.750
278.074
287.529
298.980
313.414
276.760
275.415
270.265
302.682
262.895
306.714
265.115
306.087
284.647
283.763
270.791
249.988
291.284
291.739
262.215
265.827
280.022
249.998
246.724
256.682
259.114
275.033
247.793
268.773
273.278
242.477
242.757
273.486
227.307
226.963
269.417
269.646
253.599
242.690
248.205
239.329
232.661
256.878
241.515
246.287
225.933
208.879
205.988
222.436
246.527
210.385
218.713
218.771
195.593
238.947
219.884
236.843
225.896
201.903
218.432
224.986
218.879
193.947
219.081
223.547
228.000
191.112
207.256
229.316
223.600
225.870
220.799
230.660
241.872
203.045
231.303
227.567
198.834
198.850
240.481
225.617
195.093
210.762
219.434
229.546
231.368
210.609
206.741
222.428
213.270
211.429
213.527
197.867
221.651
205.456
208.144
220.136
218.515
195.630
202.603
194.447
214.569
214.827
234.571
204.532
238.961
223.051
217.613
204.380
203.894
207.436
214.223
220.664
231.212
227.110
229.065
224.717
218.037
203.616
236.778
228.960
193.238
233.589
217.015
213.165
239.011
210.315
239.001
199.838
203.911
238.704
237.085
226.610
229.974
219.001
199.276
197.867
191.646
222.126
192.496
229.513
221.003
219.109
215.129
241.382
237.392
193.081
206.987
195.304
240.124
233.703
220.322
233.576
196.487
226.495
221.727
196.287
192.957
238.019
190.745
202.112
201.095
235.446
232.936
192.666
218.290
191.933
241.441
226.418
229.706
198.999
199.407
217.021
227.807
215.789
231.896
194.489
194.062
222.258
240.794
198.849
239.257
194.131
217.643
224.205
231.595
214.760
217.238
234.277
190.353
215.890
215.482
194.701
237.507
212.117
223.305
233.025
239.139
233.212
222.346
199.587
231.502
207.304
197.562
193.254
202.321
224.725
219.600
194.648
239.867
226.533
240.720
221.072
222.781
196.808
223.287
208.647
195.795
219.314
225.977
239.012
220.772
198.387
202.355
195.094
233.474
191.994
238.174
209.047
200.164
197.619
194.082
205.531
217.533
230.930
214.711
217.893
238.575
219.356
192.320
192.684
230.449
208.687
199.085
209.462
205.616
229.063
241.447
214.607
237.303
194.500
232.580
218.147
197.857
240.049
240.444
116.236
118.648
134.162
118.457
135.821
109.151
143.017
155.453
115.507
143.089
124.660
118.555
118.519
115.705
117.795
152.357
144.789
143.029
148.560
110.351
110.612
149.188
145.143
144.573
117.814
116.077
154.686
144.662
106.364
126.864
119.482
122.220
111.469
146.427
142.899
156.362
156.128
150.081
126.793
147.905
107.715
149.801
117.817
154.492
141.657
114.360
147.351
105.142
116.833
111.244
105.615
143.940
148.316
107.810
107.166
145.941
108.849
142.483
152.275
111.059
144.900
141.266
140.336
124.869
138.802
105.402
151.693
151.868
133.776
143.765
125.050
151.921
104.088
135.116
146.431
107.272
121.446
147.268
105.996
147.581
142.863
103.868
151.042
120.081
103.260
113.744
109.639
133.419
144.582
122.296
132.619
138.587
139.065
117.137
133.191
110.204
141.069
115.392
112.727
102.571
120.176
139.482
114.428
150.808
121.555
148.373
109.298
150.809
140.096
145.474
117.696
110.722
102.680
123.081
137.271
125.536
131.625
111.764
147.475
135.800
108.362
122.609
151.083
125.514
117.643
150.784
141.908
150.209
142.677
146.105
144.557
103.248
123.288
117.271
124.252
102.386
99.434
115.696
126.409
101.343
135.322
108.052
147.620
119.124
122.898
148.695
145.760
119.463
99.837
113.741
113.197
125.234
148.716
105.193
145.740
144.390
112.512
126.388
119.790
139.591
113.818
146.455
146.981
132.716
115.188
110.224
123.686
105.444
121.856
101.061
104.128
100.481
127.121
137.354
122.943
135.650
115.496
127.845
136.619
138.373
133.538
114.989
123.194
146.192
121.049
106.346
141.410
117.392
130.175
143.741
113.869
131.793
110.648
97.429
134.246
130.806
131.391
96.294
109.588
102.143
115.059
134.159
115.181
119.136
97.514
123.463
143.360
111.137
144.370
108.228
129.548
105.773
116.225
106.557
132.521
121.510
95.101
111.524
99.201
136.247
105.827
122.855
98.831
98.666
109.066
107.110
97.565
141.030
127.988
113.854
107.684
116.308
140.139
106.993
134.318
132.121
120.512
116.929
102.987
125.748
95.568
127.842
141.814
140.731
117.611
145.976
126.895
134.287
101.514
117.891
125.491
131.126
97.839
132.042
119.093
122.220
107.526
115.082
116.850
138.931
136.205
133.989
127.742
129.911
108.534
108.521
144.234
126.715
107.579
105.653
96.090
129.307
122.391
96.142
142.132
96.254
132.287
140.484
132.855
137.582
140.467
104.210
101.101
111.619
140.466
99.400
100.233
99.294
114.537
112.839
96.337
143.926
113.675
140.929
113.980
121.043
114.086
143.371
144.297
140.343
104.459
106.375
107.412
116.739
142.304
112.024
95.530
107.780
124.761
94.983
98.738
114.995
139.778
137.088
108.284
95.434
141.007
144.784
118.584
111.183
108.604
110.223
123.083
113.109
95.623
108.935
98.584
98.420
115.523
118.709
142.471
97.970
105.948
97.656
120.279
144.402
124.410
139.626
132.230
138.784
146.459
139.172
116.988
95.692
107.076
136.734
102.849
130.050
118.801
122.844
113.558
135.224
101.770
101.725
129.414
104.312
139.001
121.283
105.883
140.242
103.956
100.356
118.968
131.798
119.749
106.420
116.958
127.511
117.727
120.607
140.341
96.450
141.768
114.267
102.710
129.179
111.758
107.965
117.845
115.469
132.813
121.293
145.338
99.039
135.522
142.152
143.399
144.791
131.319
121.969
129.151
137.075
114.550
131.031
97.342
121.719
142.560
131.924
135.658
121.412
111.825
117.849
135.033
137.904
125.519
138.759
122.127
124.311
105.663
140.825
96.786
107.478
138.527
99.185
106.556
100.166
145.596
127.550
131.448
120.172
132.684
137.938
105.592
131.351
130.504
134.034
113.368
133.818
109.214
133.674
132.113
96.469
126.734
136.915
144.196
128.465
94.504
94.755
129.515
130.155
110.387
134.732
131.990
96.997
112.536
144.603
101.418
99.967
118.304
139.728
125.687
139.183
126.168
117.037
136.087
143.891
125.587
125.703
133.571
136.508
127.369
122.733
140.904
93.425
121.420
125.328
115.659
102.254
125.521
129.425
114.477
110.946
126.142
96.799
114.389
132.696
110.385
109.495
140.469
129.821
115.827
92.678
98.016
127.988
119.923
98.200
118.119
103.561
99.496
106.299
101.297
142.782
103.615
138.496
92.211
99.464
108.713
134.390
125.222
123.481
92.707
113.492
96.010
133.694
100.090
107.889
135.020
113.002
108.068
140.318
115.788
140.780
131.748
122.379
124.997
107.713
124.031
138.481
142.507
140.644
117.703
117.014
98.420
131.594
140.510
132.297
126.672
94.859
142.306
142.098
91.948
142.101
119.156
133.436
114.903
97.368
101.741
137.449
140.354
116.481
99.040
96.758
109.616
98.391
124.792
105.467
122.018
97.352
134.018
118.042
106.195
140.403
95.974
91.802
133.635
121.160
118.147
102.917
133.931
89.894
110.339
130.786
126.279
105.391
102.100
123.773
127.929
97.550
100.516
139.327
102.004
101.581
127.378
105.659
92.771
137.665
134.386
104.071
109.353
93.146
106.181
96.631
100.608
118.231
108.221
112.287
130.288
103.283
108.862
101.295
107.685
103.807
109.980
100.551
131.353
132.448
107.701
114.786
122.179
135.934
104.498
123.297
140.360
108.632
120.437
93.077
93.759
113.460
99.750
108.193
118.420
105.455
117.866
137.398
116.357
110.749
105.861
107.256
124.830
128.193
126.870
104.833
112.708
119.398
120.559
101.767
131.210
112.862
114.428
90.692
101.409
101.411
102.511
127.515
125.916
112.713
113.053
105.460
100.191
132.692
111.289
128.734
98.838
124.249
108.939
124.301
96.711
102.407
133.164
132.710
101.114
91.223
128.215
121.075
101.182
109.035
142.064
122.803
105.406
129.557
97.204
102.526
99.228
97.278
95.028
101.070
127.396
140.900
92.648
115.325
102.213
111.251
120.887
97.729
117.739
122.028
129.079
132.406
137.409
105.458
126.571
109.561
94.335
118.703
135.728
140.288
135.993
109.242
138.335
114.967
140.594
105.192
119.766
108.772
110.703
133.643
105.278
98.230
141.430
94.869
105.883
133.687
122.517
101.607
99.172
133.166
138.496
121.202
102.394
108.160
103.860
130.563
121.172
110.729
136.941
126.087
140.569
130.048
139.816
93.934
140.857
142.710
114.775
111.594
118.204
94.275
103.526
112.771
143.383
107.737
122.892
144.085
121.992
127.036
106.440
120.468
111.562
135.340
124.794
128.179
139.458
95.839
135.670
94.181
117.266
99.207
142.356
101.596
143.323
115.271
125.792
140.540
126.443
127.037
127.898
104.630
112.705
143.447
113.027
141.310
126.162
114.066
111.143
97.160
105.758
129.383
130.621
113.513
117.593
108.172
116.343
126.721
144.992
107.411
99.548
126.471
94.723
129.141
124.944
116.992
121.266
110.329
111.802
124.534
124.580
109.689
128.561
133.374
110.316
140.363
98.480
120.767
101.796
139.935
138.343
129.059
143.869
140.806
142.386
103.634
141.107
115.949
95.559
126.734
102.588
109.911
100.631
97.971
102.511
129.393
105.389
130.535
130.442
142.769
140.608
113.544
107.343
146.673
113.464
117.046
144.520
95.004
126.292
114.377
130.510
98.179
130.951
117.410
119.088
118.777
123.272
128.277
107.016
142.894
111.487
115.288
114.388
142.779
127.071
146.421
103.034
103.534
115.437
115.822
101.312
116.352
121.539
127.794
113.413
127.019
140.389
124.947
115.487
112.630
96.637
106.920
128.111
98.894
134.402
101.839
110.198
99.687
98.188
119.665
138.014
94.829
144.332
141.776
140.074
108.933
132.514
96.963
105.375
131.603
114.978
106.250
144.114
96.477
108.355
105.326
101.560
143.913
97.076
101.547
137.098
118.239
130.086
143.363
122.270
144.353
131.916
101.214
106.359
146.107
120.874
117.710
144.086
122.488
117.402
102.436
130.135
107.354
132.733
107.089
113.113
94.924
141.273
141.197
99.293
112.617
101.848
138.904
97.998
134.310
140.249
117.869
124.027
110.388
121.711
111.071
96.280
144.312
107.325
100.288
108.748
131.951
100.783
125.608
98.655
111.977
135.732
95.751
112.405
99.766
119.106
144.551
114.027
95.010
125.640
110.178
138.410
107.783
118.699
104.343
119.618
121.915
94.777
131.222
116.809
96.409
96.624
108.915
119.964
146.589
143.017
133.263
100.372
118.297
96.831
127.111
121.893
129.642
109.898
134.351
123.157
119.418
112.988
113.263
122.859
106.999
111.575
145.223
116.344
96.183
111.956
97.386
98.736
98.556
95.456
140.772
105.073
124.337
146.706
110.062
142.194
98.561
104.601
101.605
127.806
120.539
126.882
129.717
122.434
114.381
105.249
128.640
95.750
97.553
133.072
139.740
109.139
135.734
145.306
136.925
100.243
126.300
99.804
135.830
118.915
126.687
120.563
136.086
129.583
130.254
117.794
143.675
114.572
137.644
104.754
138.837
145.405
