922.303
916.301
920.056
908.297
916.269
911.317
916.050
910.525
912.694
916.291
913.412
916.924
905.325
907.322
901.856
906.930
902.624
910.445
902.035
901.005
905.808
896.450
904.053
909.855
904.064
897.466
900.472
895.817
900.283
901.282
892.835
891.258
896.833
899.892
887.942
894.260
885.701
891.132
889.584
890.578
890.294
886.159
884.260
884.914
885.825
886.916
888.568
892.931
877.136
880.428
880.222
889.766
885.820
878.908
881.297
873.140
885.776
874.525
879.102
874.454
873.469
875.544
879.172
867.707
865.928
866.478
867.374
866.432
873.719
869.667
870.517
876.032
864.706
860.345
859.086
865.113
866.915
866.149
857.114
865.976
858.871
863.999
857.696
868.402
862.754
853.355
866.308
863.945
860.033
849.164
863.734
858.682
848.147
852.753
854.143
847.772
855.944
849.563
848.734
845.965
854.627
852.492
850.851
839.305
845.131
844.870
848.736
837.088
846.087
838.143
839.011
834.151
837.881
832.787
836.958
846.362
836.916
834.241
843.425
843.118
835.354
833.107
832.876
831.027
838.182
837.451
830.827
825.865
822.208
834.482
821.271
820.200
821.598
826.326
830.587
827.446
823.939
825.728
828.379
815.933
824.165
819.994
813.747
817.749
821.594
810.258
815.010
816.975
819.665
807.371
821.906
814.154
804.844
810.391
811.726
815.903
821.454
821.193
816.672
819.177
815.666
825.353
824.841
817.669
819.246
825.310
823.108
825.751
835.620
840.646
840.595
833.086
842.482
841.963
836.998
839.587
837.648
852.809
841.314
850.820
854.800
851.055
855.997
853.075
859.363
865.836
855.978
862.025
871.299
858.862
861.351
873.841
865.138
866.762
881.069
882.738
880.147
882.186
883.529
881.339
882.019
891.791
883.207
892.925
890.975
888.591
887.994
885.879
903.050
899.060
904.166
904.272
903.027
906.726
902.620
902.568
905.375
912.387
903.220
906.327
909.916
914.038
916.570
915.974
923.725
924.942
919.538
920.115
926.277
927.910
935.666
929.688
931.705
939.024
936.894
945.151
933.862
942.687
943.015
949.983
937.416
944.346
950.603
951.784
945.729
947.656
955.547
948.478
955.571
963.462
968.005
957.226
961.718
961.130
967.569
973.557
968.067
967.333
978.306
981.808
970.959
978.758
977.071
984.462
988.812
991.289
978.567
986.751
987.280
982.888
989.594
992.702
1000.702
996.720
999.822
1001.698
1004.548
1009.485
1007.424
1012.053
1014.916
1015.802
1008.468
1019.392
1017.941
1013.337
1017.992
1018.124
1016.273
1022.345
1015.989
1019.533
1018.844
1021.822
1026.186
1034.076
1033.836
1038.842
1041.349
1034.046
1044.691
1036.099
1036.581
1049.995
1040.737
1044.913
1039.972
1048.803
1049.850
1053.304
1055.338
1059.678
1064.648
1054.953
1055.307
1057.464
1059.032
1068.447
1066.282
1066.902
1070.214
1068.697
1069.999
1071.217
1070.015
1069.892
1086.432
1085.643
1080.961
1080.288
1086.331
1088.942
1089.241
1091.442
1097.775
1086.583
1096.586
1100.730
1100.145
1092.390
1100.873
1095.316
1099.045
1109.171
1106.527
1114.891
1106.406
1105.604
1110.601
1106.790
1109.700
1121.086
1117.347
1115.317
1124.191
1122.393
1118.692
1113.144
1124.963
1126.428
1111.917
1116.754
1117.173
1112.911
1109.954
1123.600
1120.920
1116.224
1108.379
1110.262
1105.563
1104.774
1118.311
1109.259
1112.344
1113.933
1113.092
1108.135
1109.828
1109.612
1109.679
1103.400
1105.095
1098.468
1103.509
1107.387
1102.365
1100.592
1096.726
1099.787
1107.614
1104.141
1096.259
1094.542
1095.675
1090.543
1092.852
1093.561
1098.657
1092.503
1089.045
1101.099
1091.219
1085.766
1096.895
1093.852
1083.548
1084.333
1086.413
1085.872
1094.618
1087.190
1094.371
1079.305
1085.722
1082.474
1086.485
1087.086
1091.489
1088.686
1085.812
1089.635
1088.644
1085.980
1084.259
1084.638
1074.394
1079.233
1081.371
1076.291
1074.120
1068.580
1076.694
1068.220
1066.691
1081.735
1068.344
1068.420
1069.889
1079.302
1075.138
1064.028
1066.653
1075.523
1073.628
1068.444
1062.413
1070.475
1058.956
1072.937
1072.724
1071.452
1063.689
1059.316
1068.348
1058.361
1057.730
1064.474
1063.187
1054.450
1066.275
1063.056
1058.367
1060.338
1057.097
1051.389
1061.287
1055.018
1053.780
1053.108
1058.845
1046.175
1044.149
1056.023
1043.911
1047.544
1049.747
1042.872
1055.480
1051.369
1050.438
1051.600
1045.363
1039.022
1049.852
1047.745
1051.475
1037.858
1049.341
1043.600
1043.191
1034.196
1038.350
1037.749
1032.500
1032.179
1044.202
1033.842
1043.071
1037.062
1038.513
1029.047
1038.699
1037.573
1025.125
1038.763
1033.021
1036.309
1032.570
1037.746
1033.502
1036.556
1021.655
1031.972
1032.890
1031.262
1029.776
1025.248
1022.942
1020.934
1028.885
1021.872
1020.546
1017.577
1026.948
1018.348
1019.416
1012.339
1026.066
1020.408
1025.031
1023.786
1013.453
1008.734
1011.520
1016.381
1017.190
1006.835
1016.133
1004.691
1007.338
1014.928
1009.099
1006.785
1001.915
1007.773
1008.066
999.455
1000.287
1004.223
1007.589
1002.022
1003.957
999.783
1000.153
998.011
1007.685
1005.389
1004.336
1004.060
999.172
1000.161
987.832
995.643
989.604
996.181
991.096
988.688
980.443
979.775
992.294
991.735
977.888
973.568
974.939
986.208
980.180
974.478
979.058
981.868
971.691
967.644
968.441
972.252
971.032
970.851
968.387
958.938
959.266
963.247
960.348
967.509
968.107
962.550
951.431
963.702
957.127
958.127
958.031
950.985
959.158
947.764
952.124
945.489
952.655
937.675
946.668
937.250
934.375
940.585
946.138
945.609
939.346
934.659
932.688
931.463
931.558
932.140
928.046
934.297
931.655
924.635
919.276
931.859
919.018
915.422
925.507
916.114
926.739
923.803
917.288
909.446
917.357
910.467
910.577
905.787
908.632
914.585
911.096
900.257
906.809
910.116
899.077
904.738
899.401
897.256
896.011
905.544
901.069
893.826
893.437
899.807
884.792
899.285
891.497
883.290
888.434
886.636
885.785
890.848
881.946
881.536
881.868
881.382
884.788
877.800
870.709
875.886
868.863
872.008
870.164
867.943
867.425
863.945
864.822
871.148
871.288
860.984
859.387
865.763
863.915
865.464
864.723
853.998
863.660
856.765
861.641
858.436
847.858
851.063
855.182
844.914
844.651
849.272
838.396
848.042
842.912
845.213
845.178
834.417
834.495
836.655
829.945
831.875
830.918
834.444
838.189
829.542
830.770
825.739
820.321
830.572
827.228
818.940
820.789
821.147
820.475
813.384
821.559
824.234
814.828
809.182
807.610
819.283
808.527
815.682
804.166
809.625
808.449
812.372
811.270
802.481
796.360
793.856
807.074
797.765
790.792
804.060
800.462
794.637
791.032
793.403
790.890
784.282
793.406
789.982
792.606
783.062
784.191
780.761
788.713
786.043
777.347
782.536
62.598
77.199
54.292
65.354
55.418
74.024
80.764
65.456
69.045
74.848
71.292
61.642
63.567
74.540
57.110
53.596
71.116
57.072
71.956
53.537
69.963
75.547
76.031
73.118
55.827
77.379
79.739
79.948
70.132
63.701
74.563
66.334
58.790
60.357
73.069
72.363
70.236
53.764
68.316
60.060
78.400
72.837
66.421
71.190
57.790
78.845
243.534
256.142
189.603
189.956
254.495
194.180
220.256
259.569
179.155
185.258
260.066
191.188
243.220
189.000
186.075
250.769
195.534
212.124
170.692
177.627
180.371
217.443
249.243
199.781
242.299
257.120
245.360
232.186
250.286
205.532
241.859
227.117
255.169
246.339
240.543
256.267
210.454
174.155
185.890
254.458
211.119
259.160
217.613
244.461
196.581
200.265
204.497
183.569
213.881
197.232
207.941
178.411
257.772
190.595
99.540
136.156
116.727
102.533
97.602
137.852
138.426
97.350
125.612
135.477
109.475
109.373
111.853
141.537
134.378
108.594
126.556
114.610
134.373
135.793
122.354
99.854
134.650
105.766
135.849
119.281
97.287
101.633
132.042
134.888
109.130
135.703
113.601
90.796
129.195
134.003
100.421
131.832
134.893
120.918
121.280
127.429
91.302
104.154
109.925
124.347
128.520
122.099
129.853
133.012
113.011
133.650
96.046
133.261
119.944
127.827
105.847
137.631
137.954
109.358
131.127
103.256
119.198
141.397
125.045
106.098
136.303
135.891
99.032
132.065
121.967
131.960
97.911
89.902
100.403
130.656
97.374
89.361
118.570
137.908
124.809
96.018
105.462
135.797
100.896
92.571
126.895
93.621
115.794
101.583
136.841
90.658
90.493
130.212
117.233
91.910
108.833
116.064
109.136
98.509
125.087
115.633
121.773
131.141
102.659
122.445
98.975
133.607
126.818
103.604
125.403
107.158
113.416
108.196
138.854
131.620
139.092
122.253
90.864
133.056
138.254
94.755
101.516
98.094
139.868
111.186
103.455
102.545
104.819
109.220
113.055
119.961
112.648
118.251
108.322
103.101
106.378
90.103
140.369
97.767
103.827
116.399
96.836
94.680
137.036
126.752
139.382
111.423
117.659
137.387
115.073
120.622
95.985
132.739
130.337
119.118
102.504
120.713
121.175
92.231
121.815
120.529
108.663
90.744
120.859
128.836
126.270
129.938
90.661
111.713
108.513
128.086
123.366
97.169
105.481
113.882
97.640
112.764
142.052
131.363
138.320
108.373
108.312
105.468
121.963
117.061
113.158
109.784
97.104
95.236
94.891
130.046
95.446
92.644
111.923
93.865
130.681
127.253
121.275
95.166
126.309
130.217
104.263
112.715
111.341
92.747
107.326
114.987
117.621
132.011
138.477
106.181
92.302
127.061
119.740
115.612
94.475
118.472
109.092
121.928
99.944
130.142
124.270
135.608
117.080
111.748
141.781
104.566
134.450
132.493
101.666
95.241
94.740
133.384
100.285
101.538
94.282
126.239
136.971
99.743
124.680
114.854
104.193
136.412
129.306
117.389
93.906
111.620
101.013
99.976
140.511
115.287
133.155
106.630
137.859
101.649
131.710
138.506
112.487
99.103
136.156
126.986
137.757
119.183
123.381
131.154
144.661
121.610
134.905
112.844
118.388
96.285
113.612
142.358
116.189
115.679
116.345
97.079
142.252
100.041
111.152
138.497
114.019
144.340
104.481
95.966
130.996
128.717
105.641
123.410
143.557
99.855
123.179
115.815
140.202
107.411
119.882
129.592
129.037
142.696
136.369
122.893
126.726
102.023
108.106
130.807
120.714
108.541
100.752
120.377
100.496
125.842
98.159
105.771
107.944
135.060
132.154
103.890
102.613
100.526
137.326
142.518
101.768
119.199
103.922
135.106
131.025
124.643
121.574
109.300
124.750
139.183
122.281
118.508
126.272
95.268
111.286
128.181
146.202
139.045
131.317
137.918
108.181
121.175
97.172
98.769
124.403
134.953
127.338
106.121
135.425
145.698
125.977
134.790
107.863
128.389
146.119
104.020
104.068
132.942
101.347
113.795
142.634
98.854
125.865
106.681
103.038
141.845
144.050
123.227
96.524
135.047
127.759
98.711
124.436
102.525
103.416
139.221
137.170
134.596
115.803
99.262
146.643
136.318
144.160
114.986
139.401
123.027
126.156
99.198
141.989
106.397
130.313
96.077
128.328
144.846
118.970
145.547
126.047
117.461
143.733
144.524
122.808
127.802
105.211
123.799
146.405
126.467
112.711
111.734
123.836
111.088
121.824
103.507
109.387
121.504
134.285
104.056
103.992
145.811
105.944
94.990
123.377
110.233
94.897
143.507
143.972
128.201
108.164
114.231
127.537
104.522
142.721
140.051
111.075
129.996
123.601
129.810
124.822
132.026
125.124
95.093
100.740
96.547
118.346
126.819
122.097
132.760
113.151
132.248
115.400
96.655
124.128
112.332
133.324
128.391
119.427
108.361
131.520
128.482
139.927
115.055
126.471
142.417
104.501
144.661
141.280
111.365
138.095
121.082
105.649
139.833
135.788
130.141
101.575
99.933
131.965
103.313
136.104
102.755
142.478
100.327
127.579
130.267
123.763
103.350
130.970
146.643
112.340
121.419
138.392
119.330
100.490
115.222
104.370
133.161
116.522
145.050
142.703
100.357
124.833
103.895
129.445
103.966
126.205
113.430
136.392
146.560
137.660
145.834
118.535
101.753
95.998
137.808
143.503
124.581
130.803
119.618
145.520
104.149
132.129
131.070
138.045
101.715
135.778
96.833
138.751
142.585
101.814
123.056
97.841
128.494
102.995
107.838
136.181
132.308
103.321
128.681
111.891
100.137
106.681
113.961
136.726
103.203
123.366
129.771
101.022
134.296
100.287
127.010
131.040
112.218
110.485
137.906
130.434
146.403
107.733
96.718
97.377
141.984
130.970
131.518
99.860
139.234
129.910
104.484
137.959
98.372
132.327
133.637
115.915
117.716
139.838
144.425
146.046
100.109
119.912
113.284
107.888
100.928
144.488
144.501
130.507
111.534
105.313
115.404
143.112
125.549
115.306
95.561
129.035
135.500
132.483
106.438
131.195
95.801
95.121
131.642
100.444
111.920
105.632
97.397
135.436
127.358
140.541
140.372
120.085
135.162
130.236
119.447
131.031
139.938
121.259
109.378
105.775
133.779
102.907
133.656
102.418
102.074
124.655
142.726
110.961
143.893
136.000
120.140
104.321
105.615
118.900
110.424
132.537
101.364
106.884
130.657
134.401
114.391
127.817
133.507
132.736
146.581
132.854
118.226
114.496
102.694
101.953
108.122
140.199
102.495
121.522
137.897
134.619
106.558
128.555
108.064
100.113
125.967
140.800
127.860
99.428
140.544
124.696
113.554
132.351
113.686
127.111
105.378
128.991
113.998
144.471
137.148
144.236
135.360
107.196
136.869
145.090
101.916
122.807
119.284
104.835
145.211
108.895
102.239
133.498
117.568
127.939
132.493
115.265
123.788
125.009
106.145
111.164
144.642
132.328
123.271
114.002
127.127
130.335
104.636
107.828
123.257
120.062
140.715
115.211
143.909
136.105
102.108
123.332
100.037
121.004
124.243
128.614
106.367
145.233
131.825
101.319
108.511
99.772
109.225
133.593
142.164
119.905
124.430
103.675
131.662
123.254
117.717
120.625
100.836
137.013
142.482
117.616
111.710
141.041
114.654
106.338
131.016
112.442
136.308
145.718
124.982
126.721
134.851
103.471
137.517
116.551
129.309
142.776
136.674
129.452
138.709
116.059
141.738
131.993
114.451
104.174
130.539
116.107
146.360
133.306
116.672
139.976
129.992
140.218
116.875
145.682
104.245
95.164
117.104
128.864
108.182
125.720
144.910
116.679
137.615
96.830
141.305
107.210
107.663
114.586
102.377
122.315
134.540
113.303
124.661
102.777
94.801
101.852
98.552
132.091
138.296
98.551
109.445
101.919
137.676
108.363
109.818
125.445
112.021
121.740
141.257
137.765
144.592
120.122
123.959
120.753
118.323
128.617
121.432
126.474
106.195
102.296
134.818
121.962
97.431
143.277
95.926
136.916
126.370
110.718
98.187
137.730
144.354
124.170
112.896
106.428
133.978
104.146
139.528
133.392
97.172
108.504
106.097
140.011
95.996
103.987
145.438
103.862
144.239
137.214
107.124
105.800
101.475
140.859
116.009
128.634
113.981
107.605
144.898
134.009
128.331
144.104
136.177
134.601
117.909
106.949
106.367
111.330
141.801
114.192
127.774
143.349
128.132
119.827
129.991
124.600
97.557
133.506
131.457
106.369
144.380
96.518
103.299
126.701
143.954
142.585
125.558
145.938
113.886
132.641
100.481
98.830
109.401
115.010
115.684
145.086
104.409
123.890
120.910
100.239
111.836
119.209
131.410
140.876
113.209
103.735
125.106
136.744
124.162
121.639
129.624
96.958
101.036
98.082
130.618
119.607
126.893
138.698
117.840
136.889
125.199
128.516
139.871
99.444
133.469
144.928
121.376
146.100
106.245
108.904
136.106
99.430
134.609
109.224
107.733
99.101
139.607
134.952
111.929
99.039
140.046
98.965
134.895
97.951
119.875
109.180
124.255
110.257
137.473
110.940
141.265
107.811
99.785
130.684
112.935
99.259
103.144
112.905
140.769
141.162
139.213
103.110
129.452
104.252
108.777
100.097
133.796
136.177
115.589
108.490
94.881
141.434
96.734
100.132
118.056
125.039
118.776
112.882
136.414
97.672
136.204
136.927
98.578
128.625
106.245
124.331
135.045
113.101
100.338
96.870
97.445
108.603
112.165
122.538
145.421
123.053
143.165
126.862
126.661
108.891
95.682
110.771
141.413
140.288
111.494
104.981
125.866
146.682
135.445
141.498
117.686
122.824
135.838
135.858
144.980
101.035
101.597
140.070
144.867
114.248
124.457
114.963
109.816
146.032
104.306
130.383
134.492
107.979
119.159
143.966
116.571
131.674
127.215
118.104
111.772
145.888
131.287
100.888
135.400
118.649
119.395
115.648
116.033
124.121
107.177
95.589
142.599
143.349
129.599
119.127
118.104
108.884
103.858
121.772
137.060
123.892
132.108
141.486
104.217
95.087
117.938
121.879
128.431
106.851
106.392
110.139
97.688
130.411
99.082
99.826
130.032
113.749
136.488
144.247
133.916
130.286
134.172
142.474
94.946
95.558
121.308
112.051
131.609
146.065
124.327
134.405
99.822
121.750
103.636
102.663
115.095
97.380
142.871
132.962
146.607
140.548
132.297
134.254
118.216
138.623
106.411
122.682
145.199
121.486
127.118
139.540
109.278
129.198
98.222
144.721
105.510
105.378
138.364
125.694
145.996
140.550
100.893
110.744
116.488
145.442
125.466
145.236
136.590
110.172
138.994
105.492
100.134
145.994
123.469
127.497
119.245
119.495
140.484
95.472
138.277
146.047
142.431
98.002
145.250
96.347
116.752
140.478
109.914
109.355
138.971
141.007
123.511
125.271
142.740
126.030
143.451
104.037
110.143
143.883
115.386
98.973
128.614
