560.769
560.651
554.830
565.171
558.821
560.057
561.900
556.981
571.931
560.612
568.809
570.448
569.938
569.842
568.319
571.046
576.301
578.219
582.769
580.668
570.490
572.340
574.297
579.458
586.853
574.579
575.412
582.111
585.540
586.354
587.848
585.973
587.018
584.894
593.064
597.001
585.306
594.963
588.996
592.798
593.094
598.046
591.612
594.497
597.390
601.222
605.022
601.932
602.644
612.087
600.929
606.564
610.468
603.250
610.840
606.475
611.926
613.285
607.544
621.738
621.871
614.497
617.311
623.736
615.720
619.486
622.329
623.170
621.172
619.922
628.830
619.659
623.913
622.659
624.452
623.835
625.078
626.863
632.262
631.350
629.034
642.117
641.453
632.446
646.867
642.387
641.180
649.878
635.843
640.269
640.407
647.561
645.114
652.357
653.368
644.326
646.805
654.328
653.937
659.763
657.280
655.534
655.526
654.848
650.278
660.520
663.051
655.148
656.364
660.246
655.935
655.904
657.882
671.553
668.525
665.822
672.127
660.051
661.785
672.420
668.634
663.292
676.551
669.485
679.382
670.915
672.978
678.645
673.837
683.091
674.216
681.110
676.532
686.047
685.874
689.301
681.929
685.185
692.415
693.649
680.663
688.786
691.782
685.769
687.043
686.931
696.141
699.201
698.888
695.100
701.636
703.811
700.852
699.052
705.043
692.558
703.671
699.651
706.811
696.321
705.447
703.039
711.565
712.153
713.541
711.935
710.480
711.422
715.688
713.521
713.991
711.197
713.682
720.039
722.518
716.694
713.231
715.064
711.878
712.716
712.558
717.765
719.029
721.313
717.589
719.111
720.877
725.580
720.690
724.889
734.342
723.010
726.302
734.214
727.367
739.070
739.942
736.364
741.798
743.782
731.424
733.060
740.628
731.626
741.112
743.024
739.510
738.435
750.188
741.879
751.581
746.951
739.806
751.104
748.549
750.261
748.424
756.108
750.517
753.062
761.405
762.629
751.256
755.535
756.773
751.009
757.986
756.654
756.900
760.742
764.574
763.437
763.488
762.570
764.800
763.581
770.241
775.529
765.261
761.962
765.872
769.174
773.610
780.316
778.555
774.989
770.148
769.877
775.407
779.068
783.811
781.266
786.157
784.939
780.374
787.492
784.767
779.782
783.804
787.594
794.906
781.098
783.190
795.225
793.100
794.339
788.703
790.909
798.374
799.042
792.650
799.450
789.714
799.098
799.078
796.190
795.363
801.577
809.143
809.300
798.900
805.397
813.282
809.926
807.131
805.390
806.016
802.532
808.722
802.846
808.699
803.224
804.934
818.829
810.137
815.404
817.373
814.509
814.901
808.904
808.954
806.892
812.084
813.135
810.611
821.121
816.134
815.443
818.041
814.259
813.710
808.279
814.876
811.147
809.962
822.472
815.529
814.886
822.007
809.980
821.884
808.897
812.486
819.275
813.372
815.760
818.219
812.013
810.630
819.844
824.861
822.256
822.239
815.216
816.224
817.120
823.670
814.428
818.492
818.377
820.335
823.845
825.444
827.376
820.010
817.373
814.324
824.291
821.593
827.946
825.961
823.644
823.433
825.554
826.966
830.659
815.953
830.220
828.259
824.619
829.745
827.468
831.934
820.466
833.226
829.128
823.989
831.242
832.379
829.187
820.095
821.266
819.384
827.427
821.989
832.877
825.469
829.780
828.061
826.822
833.488
831.386
828.814
829.590
837.320
836.687
829.014
827.997
823.024
827.424
824.958
825.908
823.496
838.202
832.037
839.720
830.080
834.341
839.786
836.061
831.826
832.176
833.843
834.635
829.679
835.101
827.749
837.714
832.568
835.018
834.788
839.109
831.809
835.578
830.276
834.311
842.819
844.221
835.164
843.685
830.332
830.894
842.471
838.188
836.933
830.049
832.478
844.263
832.520
832.784
831.202
839.948
845.131
844.319
844.130
836.851
837.058
840.158
835.512
837.441
843.772
840.174
835.000
839.911
842.394
848.571
840.253
836.226
848.232
850.797
843.419
845.330
836.749
836.815
848.053
839.423
850.917
842.903
837.747
841.296
849.822
840.523
849.976
843.652
847.827
839.778
841.548
850.298
841.436
852.483
843.266
848.249
847.690
851.197
842.153
853.277
841.600
856.369
843.850
850.473
845.131
848.440
848.005
848.053
854.180
856.929
857.865
857.403
851.776
849.387
841.255
841.032
850.012
838.592
853.589
851.721
848.761
841.179
843.344
849.264
848.954
834.886
838.516
833.420
838.685
839.990
838.085
832.436
836.701
837.034
837.401
833.821
828.928
842.511
827.393
839.322
831.689
827.013
824.078
836.370
833.041
825.738
835.730
831.294
823.420
830.718
819.815
827.897
824.896
825.340
831.524
820.063
829.454
816.226
826.719
819.090
815.960
825.368
819.353
816.369
813.889
824.019
818.718
810.718
814.096
817.795
814.288
815.013
814.604
809.964
812.310
814.196
810.938
817.984
811.644
808.312
811.013
810.406
806.064
803.386
812.644
807.308
804.080
807.301
808.826
800.857
806.293
797.354
801.216
798.156
803.219
806.025
805.788
797.763
793.056
793.280
804.175
795.209
802.410
799.284
790.198
789.433
801.057
794.186
794.454
786.850
788.568
786.576
797.495
785.998
788.068
782.719
783.996
781.663
786.466
793.794
790.553
793.663
786.849
783.236
777.658
786.979
784.377
790.022
787.909
783.015
773.932
776.726
779.355
779.158
777.191
778.927
774.428
769.783
784.376
781.443
770.601
778.311
770.875
777.519
781.137
777.897
768.326
764.536
769.248
772.651
774.709
775.673
769.651
767.796
769.922
765.800
762.255
763.164
767.102
770.610
758.981
771.308
758.861
763.407
754.280
754.761
754.293
757.208
760.551
752.717
765.916
755.740
757.246
762.350
762.299
751.107
756.400
760.143
749.555
752.437
758.275
758.325
746.441
746.780
751.042
748.694
754.373
743.727
754.882
744.104
748.423
745.805
746.901
746.896
745.907
738.240
745.645
738.988
742.313
734.425
740.445
734.210
743.066
740.729
735.921
739.710
744.059
731.970
728.648
731.838
738.422
731.339
736.997
734.693
744.940
737.652
736.243
744.288
743.106
740.130
745.854
743.348
752.979
753.505
745.873
752.913
747.605
756.692
744.491
751.147
752.136
758.864
762.787
755.170
763.471
756.744
758.040
758.293
764.928
765.649
766.810
771.965
761.526
773.449
770.977
760.995
773.338
767.386
777.157
765.962
772.760
767.190
772.894
770.253
772.752
778.711
779.166
777.004
779.871
783.819
780.189
777.377
778.149
781.089
793.870
785.375
785.442
782.073
788.590
790.561
791.749
798.438
792.027
794.557
791.611
794.195
789.989
802.670
798.810
800.124
793.595
802.841
801.657
811.429
801.048
806.800
813.538
808.395
802.544
817.380
809.254
808.005
811.554
808.975
819.745
822.085
811.522
823.847
816.537
823.783
814.130
819.236
825.198
820.420
825.714
830.377
820.264
824.394
823.187
823.448
828.136
832.607
827.520
826.748
834.809
831.201
839.569
837.212
832.992
842.632
836.658
833.941
840.078
838.681
837.015
838.795
842.046
841.115
849.532
853.443
844.009
843.322
844.214
858.248
847.989
855.102
848.292
850.842
851.088
851.117
857.315
852.935
864.188
868.427
865.300
868.333
862.232
863.073
872.122
865.785
868.199
863.689
873.747
877.575
873.423
873.568
867.335
867.289
881.332
874.676
873.223
871.011
875.346
882.071
879.320
880.078
876.337
891.159
881.940
888.418
882.064
883.290
891.913
888.598
883.215
895.707
885.008
891.915
891.190
896.766
894.740
900.379
898.892
894.115
903.471
903.512
899.565
896.872
903.755
907.454
913.753
900.379
900.702
915.615
903.937
914.340
918.903
907.351
918.517
918.119
919.636
920.912
917.618
923.501
918.965
915.752
923.560
929.521
918.757
928.869
920.662
930.983
931.130
926.077
924.885
921.861
926.767
921.448
928.641
914.965
927.488
919.735
913.783
926.977
916.699
917.982
917.901
920.070
919.626
910.356
920.432
914.472
910.613
920.330
923.670
909.284
910.292
912.684
911.060
917.882
915.799
911.029
913.814
916.923
908.912
909.339
907.867
916.956
918.763
904.980
903.854
909.820
903.742
910.938
909.366
916.213
907.695
904.322
905.605
915.009
906.718
906.832
901.554
908.765
911.953
910.252
909.712
912.346
897.699
907.854
901.668
902.717
904.805
904.226
908.739
906.272
909.715
909.044
905.416
894.478
900.528
894.448
899.957
901.106
898.987
897.911
898.128
890.836
893.420
893.537
893.591
897.525
893.287
895.737
891.522
901.734
890.436
888.714
889.226
886.300
898.544
899.252
891.777
889.888
885.264
893.806
888.680
891.191
897.680
890.816
890.687
890.459
891.048
894.240
886.037
884.840
894.543
886.049
883.383
891.479
887.348
891.291
887.823
887.996
885.334
879.893
880.460
886.867
888.184
882.299
888.483
876.221
890.148
879.768
878.524
880.941
889.446
875.689
884.305
874.652
876.385
884.932
879.250
877.973
884.742
878.460
872.368
876.232
882.039
873.563
874.311
870.214
877.892
871.382
869.468
882.201
872.448
868.413
881.399
870.155
880.164
867.285
872.258
865.423
875.279
865.761
873.211
865.097
869.271
869.370
877.552
868.258
867.328
865.772
872.811
871.149
865.505
863.703
874.736
859.478
862.999
871.798
867.228
868.711
861.552
861.499
865.570
863.223
856.955
865.284
863.160
870.468
861.936
865.746
855.320
853.536
855.503
863.864
856.133
856.687
858.049
854.861
858.264
855.975
859.954
861.628
855.506
858.310
849.292
850.065
858.383
858.025
857.797
856.464
858.097
850.601
857.218
854.307
856.445
855.015
839.682
845.096
840.109
847.864
840.688
839.402
843.117
833.946
847.067
840.428
835.653
832.093
840.705
831.584
831.791
829.986
827.652
836.567
835.115
823.660
832.469
827.993
822.401
819.072
820.614
822.127
831.085
819.537
815.848
822.744
814.250
827.081
811.503
818.921
811.703
821.083
817.306
819.681
809.691
818.958
817.842
817.815
804.767
802.751
810.800
812.585
800.343
800.987
798.687
808.131
795.691
798.225
799.858
797.451
803.241
803.572
796.038
791.262
796.898
790.770
793.405
787.098
785.833
787.859
787.554
791.083
783.495
791.222
780.875
792.174
782.478
781.025
785.202
787.628
773.817
781.555
784.021
774.859
775.102
783.338
773.733
780.265
781.430
765.948
767.863
769.751
772.533
767.225
774.715
768.505
768.328
762.602
769.131
756.849
764.151
761.075
763.347
755.105
756.076
751.856
756.517
760.362
759.154
755.552
755.778
753.052
748.759
753.328
746.111
754.669
751.011
750.047
753.605
753.859
743.390
751.556
740.545
737.804
734.475
748.702
738.289
747.685
730.895
742.037
739.607
737.033
733.654
738.902
729.641
730.568
736.575
733.536
734.345
731.502
730.553
725.717
724.074
727.585
722.375
716.659
720.957
724.727
726.978
727.838
719.426
720.817
720.085
708.992
713.485
711.076
711.874
709.505
713.709
711.996
704.507
708.386
703.283
704.525
705.675
699.302
697.092
696.332
695.426
698.138
695.156
701.299
693.785
702.954
700.017
690.948
698.122
701.878
689.056
694.780
685.176
697.435
685.159
694.522
688.572
690.086
688.438
690.607
677.849
681.648
680.227
683.189
686.980
676.570
677.585
686.906
677.979
684.125
682.637
676.036
679.927
679.539
679.952
691.647
691.010
683.891
681.761
692.416
694.559
698.323
695.967
688.584
690.586
688.646
695.115
701.335
696.615
690.907
696.260
704.682
704.899
697.256
702.138
704.108
704.500
710.402
699.865
710.128
711.293
702.798
707.675
707.665
713.526
706.792
712.114
715.130
717.603
712.746
722.300
720.537
722.837
728.093
723.301
721.160
721.885
728.579
725.358
730.071
725.153
727.268
736.195
729.580
731.568
733.007
730.300
735.769
738.614
728.708
742.650
729.210
740.220
741.922
735.809
737.469
747.860
748.001
747.277
740.342
738.129
752.879
753.935
745.070
750.938
746.867
746.723
750.682
758.363
757.095
748.326
759.950
748.918
761.754
764.810
761.715
753.178
762.935
763.423
755.497
768.658
761.793
764.878
760.887
760.895
768.570
764.465
771.716
763.752
773.016
773.206
772.226
780.489
778.452
783.974
775.026
781.844
780.349
779.106
785.326
776.492
776.498
778.302
786.888
785.885
783.967
793.112
793.825
785.433
784.693
783.765
796.007
799.419
786.629
794.192
788.498
804.872
800.395
804.779
804.890
806.616
796.182
803.080
798.845
805.309
802.298
807.841
814.844
808.424
809.929
816.345
806.829
804.336
814.439
817.510
814.280
819.580
821.975
819.901
812.608
817.485
826.275
821.640
816.772
824.860
817.438
831.062
823.178
820.163
826.059
821.725
825.035
838.035
824.569
834.384
827.104
831.047
829.874
837.186
841.998
833.613
837.534
838.705
845.497
837.549
850.434
839.570
851.093
843.979
854.365
855.343
852.693
851.418
853.901
859.025
856.503
860.730
851.120
848.273
852.070
851.983
861.844
855.165
854.082
860.518
866.479
863.217
866.708
856.498
864.251
859.714
870.241
874.205
867.576
865.516
873.519
868.580
876.535
883.208
885.918
877.306
878.624
890.041
890.184
889.872
889.263
884.087
897.776
889.020
897.593
899.305
892.485
899.212
892.935
897.564
896.909
902.392
904.003
913.149
906.331
912.182
911.964
902.674
906.476
920.923
911.825
924.120
915.841
923.164
912.804
927.671
917.641
928.658
932.352
923.970
935.821
927.137
936.854
930.084
930.114
942.020
934.219
931.596
944.398
941.661
934.355
937.777
937.980
952.202
940.334
951.062
957.793
948.090
958.540
947.350
955.681
963.656
951.902
960.798
963.619
954.899
958.062
967.891
960.541
965.676
972.769
976.783
970.557
971.472
974.768
980.721
978.928
979.851
978.923
976.625
975.411
991.238
984.195
981.590
988.393
990.114
996.824
995.826
991.618
994.043
996.003
999.221
1001.329
1005.926
999.525
1004.958
1007.065
1004.106
1015.047
1012.217
1008.782
1006.936
1009.318
1015.643
1013.100
1024.530
1014.531
1024.807
1026.407
1029.154
1029.383
1021.257
1027.764
1029.460
1030.276
1026.860
1024.534
1029.110
1030.135
1031.856
1032.363
1033.567
1043.639
1040.988
1042.977
1050.564
1051.007
1050.318
1050.958
1053.259
1059.199
1050.811
1053.822
1059.049
1059.924
1059.314
1057.799
1060.938
1069.370
1058.939
1072.170
1066.305
1070.678
1076.329
1078.213
1066.296
1079.970
1081.301
1074.464
1077.359
1072.086
1079.544
1085.622
1080.859
1090.200
1089.381
1085.143
1094.686
1083.072
1093.028
1099.522
1100.958
1089.406
1091.980
1100.102
1096.391
1102.401
1099.325
1106.084
1106.308
1106.826
1110.468
1104.740
1104.146
1118.715
1119.650
1121.428
1121.287
1125.187
1114.439
1127.035
1115.963
1115.229
1120.574
1128.967
1133.034
1122.088
1122.145
1133.812
1128.400
1133.748
1135.297
1142.670
57.060
80.390
80.520
56.880
72.341
77.242
78.665
84.181
58.213
80.210
79.648
79.951
73.212
59.967
65.038
72.130
77.094
77.502
80.701
74.233
67.443
66.363
70.948
75.662
77.860
64.327
59.020
56.360
60.429
73.273
68.099
79.613
66.050
81.469
73.303
64.283
63.379
61.810
81.227
66.108
83.096
82.812
72.450
80.992
75.786
81.664
78.190
59.691
64.570
207.564
208.834
217.873
210.274
229.690
254.908
238.000
260.158
257.168
238.510
210.274
213.491
203.214
206.654
267.754
245.155
201.419
236.456
198.242
232.840
220.085
206.423
218.785
211.260
216.969
207.129
216.365
235.003
212.465
248.774
214.994
231.289
236.199
224.828
272.578
274.158
223.742
258.810
235.416
236.967
210.537
264.053
258.867
190.515
218.872
208.726
201.386
246.585
226.990
271.753
217.303
138.956
146.478
128.890
150.979
110.949
125.397
103.991
128.781
144.658
136.472
111.169
114.950
116.155
102.073
118.699
106.894
120.195
150.322
108.002
110.964
146.252
150.325
149.307
151.608
135.691
103.037
119.117
152.409
119.638
107.342
115.705
127.482
119.805
150.315
114.593
107.505
118.712
105.116
138.076
127.164
138.384
127.958
152.596
118.509
105.859
143.141
113.315
127.768
123.274
113.672
121.100
132.751
143.701
124.299
149.623
139.700
110.005
144.600
101.516
111.661
130.678
104.942
140.792
113.242
112.395
119.727
115.310
110.218
115.269
109.988
149.780
121.895
109.410
133.620
107.441
122.221
146.597
149.349
135.246
117.246
137.384
138.768
131.264
140.896
149.172
124.952
122.843
136.469
112.635
113.826
109.954
140.034
135.547
148.131
153.048
110.016
121.943
130.226
143.601
111.646
127.453
122.491
150.238
129.044
125.803
118.386
124.979
115.113
123.014
122.124
143.348
117.014
136.470
119.013
110.936
133.797
122.267
142.812
105.704
106.747
105.926
102.980
124.172
104.765
147.061
146.044
113.354
102.250
120.168
125.981
126.582
142.815
124.951
144.094
127.917
122.509
102.653
143.437
137.355
144.232
119.081
121.661
142.166
125.950
149.448
103.406
151.687
105.224
145.381
107.851
107.831
116.652
135.686
134.311
145.652
128.690
105.095
141.849
132.917
117.263
150.433
144.340
103.113
114.835
127.932
111.778
125.228
108.436
151.506
111.273
109.097
133.615
107.986
122.127
145.286
127.575
110.029
150.514
104.323
103.722
147.536
118.531
119.876
104.190
102.055
139.348
107.064
151.817
140.253
150.892
102.484
149.764
105.328
111.395
115.920
114.368
132.723
151.973
103.938
101.844
143.623
141.855
124.142
150.617
147.671
141.146
111.709
102.959
103.436
144.900
127.303
102.655
126.192
142.977
