650.522
642.791
652.034
652.987
648.498
645.763
651.151
650.667
652.978
651.776
664.969
655.004
661.960
661.229
661.230
660.761
661.212
663.221
670.763
669.484
673.373
665.053
674.337
671.634
672.415
679.429
672.673
682.792
675.021
674.271
676.467
674.021
688.238
677.669
689.454
685.318
684.950
692.610
690.629
691.095
684.914
696.193
690.849
687.338
699.000
701.832
688.475
690.659
695.673
692.035
693.959
705.579
697.065
708.250
704.611
711.930
705.715
706.937
700.779
715.623
710.448
712.166
717.320
706.073
706.677
711.789
713.293
720.731
720.537
712.261
715.664
726.651
728.492
724.307
732.223
729.093
724.122
727.234
733.709
731.484
724.737
730.532
735.556
740.958
732.480
738.494
730.915
743.556
740.083
739.457
742.470
735.236
747.112
743.180
751.475
741.858
753.578
741.585
751.626
743.490
744.633
749.276
748.663
758.752
749.978
762.856
762.039
756.494
755.996
768.542
768.028
758.437
757.953
760.749
768.727
764.630
764.226
765.438
767.936
764.594
775.934
780.115
768.874
772.610
772.218
784.700
774.322
783.271
785.123
776.908
782.384
777.585
784.117
785.729
790.738
781.143
782.934
787.961
793.922
797.173
797.172
788.206
794.007
802.159
798.498
796.010
804.647
795.456
794.607
802.603
810.883
804.036
805.366
803.826
801.505
810.308
815.932
804.840
817.712
810.887
810.851
810.666
823.209
825.557
813.409
825.536
825.129
824.465
829.312
823.299
816.693
824.745
832.574
828.392
828.323
833.464
833.665
825.654
832.110
823.948
828.020
838.165
837.406
828.332
833.025
839.659
836.531
837.053
838.035
834.893
843.625
841.938
830.705
842.733
837.611
836.681
843.441
837.494
846.737
835.737
847.351
842.744
840.915
845.127
843.318
840.464
849.727
852.223
840.530
848.267
843.765
857.488
843.973
857.079
852.852
847.758
852.648
857.208
848.415
862.272
858.686
854.335
850.244
861.329
862.923
865.325
853.219
867.889
864.385
855.349
862.092
869.751
862.454
859.541
871.384
859.023
873.172
861.494
864.487
869.919
870.922
871.825
871.350
862.752
867.435
874.153
878.327
874.812
868.087
880.633
874.722
883.168
874.535
883.566
880.230
884.693
879.672
885.635
876.299
882.952
880.326
889.354
875.760
881.556
890.269
878.080
890.317
893.208
883.144
890.631
884.314
883.674
882.755
893.080
883.272
885.706
886.447
889.875
892.626
896.570
900.108
890.789
889.432
897.075
903.382
899.315
894.011
898.571
892.041
901.194
907.730
908.196
899.454
907.916
909.303
898.852
906.542
904.061
903.830
902.065
913.715
909.975
912.480
915.307
910.083
909.981
904.038
916.219
913.054
918.505
913.602
910.120
912.065
912.640
908.105
909.613
918.377
921.123
912.263
925.254
912.337
927.909
924.593
926.866
919.245
930.247
922.227
919.975
924.234
932.267
924.131
932.786
933.112
921.682
936.062
926.434
933.240
937.668
934.133
924.035
929.999
925.904
930.196
936.593
940.986
930.946
930.588
934.639
932.071
941.310
943.851
943.551
936.371
945.348
943.128
940.527
938.592
947.143
942.039
941.041
949.968
952.680
951.099
952.256
950.529
951.732
951.550
953.559
955.590
955.149
951.968
943.393
952.398
938.717
951.540
940.017
938.394
950.629
948.362
939.540
946.602
942.344
941.254
945.478
932.547
939.167
941.310
931.815
930.756
935.213
939.920
934.865
928.999
934.033
924.514
933.849
927.430
923.275
933.014
935.285
931.856
924.877
926.513
930.192
927.554
928.879
924.281
917.573
923.719
924.781
926.891
916.719
911.622
920.012
918.408
915.494
910.806
923.293
912.134
921.972
921.616
919.562
908.987
910.898
913.641
905.520
904.549
910.785
907.475
902.392
910.671
900.701
904.912
908.602
905.703
909.185
907.313
895.838
901.833
902.027
907.266
895.458
897.895
903.917
900.905
895.272
888.545
888.962
902.036
891.663
899.081
895.136
895.591
894.349
889.950
894.954
889.572
892.949
882.298
890.685
882.750
886.765
881.027
876.935
879.261
875.556
874.632
878.125
883.616
874.578
887.293
876.968
877.363
875.779
878.636
869.670
879.047
877.191
875.442
869.778
879.041
872.397
875.728
872.823
872.299
864.929
861.349
862.703
870.940
861.507
872.122
870.618
870.849
869.200
857.842
857.642
864.535
854.299
855.626
857.235
856.466
852.955
850.549
849.678
858.749
853.858
849.717
855.694
853.101
855.354
851.926
847.972
843.163
844.808
847.972
846.271
846.377
853.813
840.305
847.732
838.357
843.825
837.516
848.219
843.403
841.425
841.082
846.096
846.771
838.124
840.073
834.273
840.650
830.035
832.519
829.527
825.785
839.328
829.563
832.189
834.157
823.455
825.989
833.146
827.878
833.888
830.027
824.039
830.723
825.764
823.368
824.289
829.391
829.584
823.740
813.003
826.238
822.416
813.655
819.025
822.554
814.848
813.312
812.523
813.047
819.008
819.289
818.167
808.890
809.927
808.928
812.263
812.818
822.295
820.842
818.475
823.467
831.446
822.044
823.834
835.279
830.062
826.502
830.252
841.588
837.184
832.275
847.246
845.611
846.577
839.174
846.203
851.887
855.662
851.872
858.397
858.087
852.002
854.423
864.373
862.500
867.012
859.556
860.640
874.648
862.349
874.893
875.295
868.538
867.693
878.034
883.574
886.732
879.959
883.032
884.862
892.809
883.302
882.598
890.131
899.327
889.953
893.458
902.996
903.873
895.290
908.312
900.794
912.156
906.656
903.080
913.335
906.706
914.405
918.062
910.969
909.166
920.906
917.760
921.388
918.858
920.185
934.102
929.640
936.198
933.460
932.047
926.584
942.541
931.119
933.760
936.617
944.534
942.435
942.482
943.429
950.030
947.684
943.460
950.428
954.259
958.332
949.784
960.713
967.632
969.304
958.037
973.171
972.519
970.220
974.678
965.693
971.007
970.450
977.933
971.789
980.896
984.934
977.848
975.885
978.770
985.734
991.769
996.053
993.375
993.595
999.513
989.733
1004.690
1004.565
1004.522
1001.430
1000.286
1005.927
1005.943
1013.519
1007.720
1019.452
1016.093
1007.554
1012.908
1016.195
1016.496
1026.600
1017.753
1023.941
1027.349
1035.121
1031.119
1025.094
1028.042
1034.454
1033.054
1036.215
1042.165
1032.509
1044.776
1043.556
1051.988
1042.294
1040.550
1056.262
1051.556
1058.631
1056.339
1051.854
1059.433
1060.560
1054.289
1059.319
1058.156
1058.320
1069.551
1075.217
1076.711
1071.398
1078.594
1066.815
1081.540
1081.145
1073.902
1085.911
1088.699
1087.100
1083.097
1083.400
1094.479
1091.355
1084.782
1097.082
1087.560
1094.308
1100.801
1099.344
1092.769
1100.472
1108.469
1098.781
1104.217
1114.502
1104.733
1107.261
1115.212
1107.194
1118.947
1118.809
1126.262
1127.525
1122.063
1123.976
1117.705
1128.176
1120.084
1124.129
1115.553
1124.262
1113.468
1116.273
1122.107
1122.250
1118.916
1118.744
1120.682
1117.937
1109.692
1111.923
1103.661
1103.781
1103.336
1106.858
1114.010
1102.220
1112.812
1106.459
1109.581
1107.924
1100.668
1105.463
1103.706
1103.261
1100.787
1106.294
1100.812
1104.189
1102.356
1107.668
1095.550
1104.903
1092.972
1101.882
1091.490
1089.852
1101.104
1091.860
1093.071
1098.660
1094.672
1094.199
1095.636
1090.062
1090.204
1090.739
1095.241
1083.132
1082.232
1092.836
1090.314
1084.798
1092.470
1085.530
1082.062
1091.172
1083.391
1078.599
1085.861
1087.114
1088.638
1086.942
1087.786
1081.151
1074.261
1077.864
1073.630
1071.587
1081.979
1078.812
1069.354
1075.039
1081.050
1067.644
1070.627
1069.411
1077.236
1067.741
1063.120
1066.842
1066.576
1061.877
1073.524
1070.152
1073.082
1070.987
1070.178
1059.212
1065.771
1070.727
1059.434
1070.492
1057.676
1056.975
1058.319
1061.156
1052.419
1057.091
1055.932
1056.182
1055.018
1057.665
1062.907
1053.569
1060.313
1050.707
1053.004
1053.819
1050.127
1047.192
1058.271
1055.288
1044.840
1054.568
1045.270
1051.320
1055.568
1043.173
1047.649
1040.559
1049.210
1039.957
1041.913
1041.922
1036.294
1049.683
1046.239
1034.125
1042.003
1047.295
1038.481
1038.528
1032.253
1034.553
1034.537
1036.566
1029.871
1030.832
1029.066
1039.837
1037.669
1036.713
1037.631
1026.012
1026.654
1038.031
1032.528
1033.840
1031.680
1025.211
1033.169
1031.641
1034.122
1028.355
1024.132
1022.695
1017.696
1015.914
1022.444
1029.442
1018.042
1022.179
1023.256
1014.370
1013.711
1020.030
1023.047
1011.513
1017.023
1009.428
1021.994
1013.111
1013.856
1020.400
1007.433
1008.060
1010.898
1004.709
1012.813
1011.796
1010.078
1010.971
1003.172
1005.484
1011.919
1009.154
999.617
1000.358
999.558
999.043
997.081
1002.148
1006.418
1004.665
997.456
994.342
1006.026
1002.714
988.851
991.094
998.542
986.386
992.902
988.760
990.903
980.408
994.806
983.711
982.239
982.180
988.421
987.549
976.167
982.124
972.139
983.539
976.270
977.213
972.276
979.241
977.461
965.562
976.629
971.587
962.900
965.378
963.150
958.302
960.280
962.443
955.179
955.917
960.778
964.221
952.508
959.534
958.754
950.275
945.877
954.869
951.622
941.431
940.531
938.922
939.287
940.919
938.983
934.502
946.380
934.491
936.552
931.439
942.837
940.971
938.106
925.032
931.528
925.760
927.062
932.757
921.118
928.215
931.647
916.923
914.243
916.095
918.483
911.595
918.613
908.861
921.593
911.326
915.881
917.507
918.432
905.528
905.101
914.380
900.396
907.345
907.001
897.643
906.019
895.842
898.897
901.410
891.424
899.973
895.562
890.208
896.410
885.870
882.812
885.572
881.115
881.061
890.231
879.225
889.625
885.769
888.670
884.251
885.309
879.787
878.065
877.757
875.779
868.843
876.670
876.586
866.117
863.919
861.066
861.600
859.432
861.813
866.172
863.276
869.228
865.825
861.203
865.023
862.314
849.397
847.531
845.906
848.879
850.165
844.977
855.267
849.914
848.603
844.105
845.044
847.741
837.842
844.614
846.630
845.570
834.673
830.166
832.974
835.568
828.144
827.331
834.867
825.447
822.003
835.273
821.667
822.223
823.798
829.839
822.634
822.547
818.711
821.468
824.239
815.958
813.498
808.330
809.921
811.659
808.671
813.468
812.821
809.443
806.593
807.282
811.171
800.732
802.200
800.666
806.070
795.780
804.876
795.911
798.131
796.848
795.132
788.039
795.198
787.616
788.797
792.104
781.476
785.378
780.708
781.906
777.276
777.918
782.219
776.985
768.770
775.879
769.528
774.167
767.108
763.233
766.030
765.117
750.943
754.060
760.162
744.598
741.603
740.094
738.600
735.482
738.398
735.178
741.950
727.808
727.435
733.959
731.157
721.417
725.229
727.327
718.562
720.781
720.034
717.599
713.080
703.138
708.248
698.248
702.725
697.988
691.304
689.333
692.557
693.489
683.101
689.330
679.100
682.726
684.754
682.302
669.520
667.519
663.432
674.247
672.311
671.465
659.539
658.402
664.590
659.784
659.292
645.093
642.522
642.335
649.066
639.173
631.907
638.193
634.507
636.933
631.016
625.533
630.403
624.432
614.771
619.571
610.537
609.724
617.736
604.647
601.463
613.441
599.032
603.032
602.506
590.808
593.587
598.245
585.847
591.548
583.349
588.048
575.349
579.172
585.888
583.390
579.606
568.272
563.951
562.947
569.856
556.889
557.594
560.923
558.275
550.126
553.593
545.731
541.315
545.681
549.796
543.005
535.885
541.363
538.505
524.650
529.955
532.987
532.318
516.173
519.710
519.008
511.872
518.751
505.668
503.230
507.087
505.902
501.746
500.357
494.234
496.647
489.869
486.298
484.577
488.419
484.125
488.430
474.336
486.939
475.627
482.327
479.821
471.439
471.803
464.121
470.334
466.125
467.032
459.067
448.464
447.947
447.853
444.939
449.265
446.089
435.438
446.905
441.740
441.256
440.065
434.065
434.288
434.040
427.913
417.842
414.564
421.157
415.116
418.769
417.917
408.215
403.121
398.158
402.817
397.786
399.357
398.740
399.276
391.753
387.547
380.236
391.544
388.922
381.781
379.173
374.655
376.186
366.904
363.939
365.571
368.391
355.196
358.215
358.610
363.133
359.990
353.938
353.373
353.520
347.700
342.741
340.963
339.524
335.212
329.100
340.878
331.206
328.197
337.604
328.016
329.729
330.428
324.725
317.175
322.458
317.058
319.863
318.841
315.327
315.339
310.116
306.702
310.110
313.656
304.234
301.635
311.996
308.089
300.763
295.833
300.413
298.998
300.223
300.480
288.289
298.437
299.748
288.352
289.597
285.641
289.314
288.798
290.103
287.415
284.674
274.213
277.913
276.418
283.109
279.022
270.258
270.207
274.849
269.537
273.175
275.192
267.682
261.107
256.498
256.064
261.697
268.215
257.426
252.761
259.811
257.956
248.228
256.563
254.150
246.437
247.303
246.400
245.823
247.914
240.528
243.529
233.720
236.220
235.191
242.317
233.903
229.131
231.485
227.244
230.053
230.650
228.042
221.946
225.498
225.886
222.646
222.428
219.243
210.458
220.965
212.119
221.039
209.237
208.378
207.873
212.820
211.015
208.634
199.674
196.989
198.188
200.882
191.725
198.708
194.447
200.758
196.986
189.253
196.497
194.008
183.977
186.520
181.440
190.458
186.146
179.808
188.508
180.116
172.582
177.739
180.366
177.595
167.245
165.635
175.786
176.476
163.333
173.635
171.865
162.166
165.289
167.185
161.300
540.005
491.174
508.383
500.032
519.959
503.473
499.736
475.860
498.046
501.154
448.161
470.262
442.421
437.037
461.246
440.079
457.182
464.836
436.508
438.422
405.426
420.097
410.467
413.344
426.417
423.075
407.775
407.257
402.122
410.525
410.345
395.139
356.536
395.904
353.643
353.353
358.537
345.901
356.270
360.209
337.266
336.177
314.707
309.738
330.651
305.487
312.393
321.045
302.453
319.090
286.859
296.646
279.466
265.033
306.520
259.974
261.557
266.616
277.117
258.788
265.836
238.590
262.065
235.713
125.417
134.790
135.394
104.623
111.177
124.081
132.566
103.508
126.618
145.187
138.040
123.025
121.826
137.715
113.910
104.821
123.950
95.079
109.602
110.134
131.375
119.782
130.874
122.720
100.787
129.143
131.601
130.595
100.454
134.420
109.425
126.810
112.304
101.262
122.279
126.117
108.989
112.266
105.862
99.065
125.508
143.355
106.018
123.772
110.236
118.167
105.374
142.627
101.533
139.551
133.668
101.101
123.452
109.560
120.117
144.457
134.098
113.390
111.155
146.080
138.832
110.613
95.301
139.939
94.897
97.349
112.133
107.253
106.661
123.626
129.344
119.317
123.228
103.074
122.086
123.817
134.562
142.936
101.703
146.378
115.110
104.255
101.204
126.211
145.220
123.234
112.601
145.582
113.246
110.693
130.854
115.156
115.027
106.784
104.131
107.388
133.109
120.065
129.869
130.080
144.506
139.199
139.226
101.059
106.899
143.172
139.630
117.196
127.836
95.355
137.466
105.893
112.784
137.375
136.676
141.822
124.210
115.853
117.417
126.441
128.427
108.640
141.680
110.978
113.826
121.534
100.032
114.719
123.640
105.185
103.154
106.446
99.752
130.962
143.437
97.119
133.862
122.304
104.225
135.927
127.331
135.979
124.910
115.525
132.709
120.661
129.873
99.137
94.936
129.509
117.658
132.843
97.781
136.850
115.838
108.041
118.593
125.721
135.144
122.100
134.781
121.819
109.157
105.400
139.227
135.624
145.541
134.856
123.937
113.110
102.080
96.696
130.302
130.182
105.387
140.152
134.030
104.514
143.870
98.084
137.551
103.104
132.532
126.472
113.403
134.471
143.234
108.836
101.071
128.626
119.060
116.714
124.029
145.046
121.001
137.903
102.996
97.892
126.003
135.245
137.102
133.512
139.181
135.640
111.676
142.762
130.925
134.673
139.412
136.759
114.813
125.677
114.829
100.820
142.029
99.788
134.845
132.849
129.245
130.613
139.117
104.299
124.419
120.422
129.501
116.029
96.526
141.551
145.089
133.950
118.053
136.935
117.108
130.466
134.895
137.592
123.411
121.105
98.716
131.611
105.723
128.094
102.927
98.345
107.447
95.377
134.591
96.837
131.442
142.010
107.452
143.981
111.634
135.580
144.259
111.006
96.746
123.807
139.064
141.347
116.687
140.974
135.520
110.502
126.692
113.910
130.972
120.268
137.754
118.295
116.316
115.373
141.343
143.006
128.816
124.567
115.854
121.422
122.997
135.488
98.905
110.384
121.944
107.141
146.726
112.223
113.227
141.234
123.880
115.771
144.695
142.222
95.895
112.855
128.595
128.645
144.759
110.977
103.240
114.273
139.867
96.174
120.906
98.309
107.442
132.023
127.390
115.470
107.915
126.860
102.248
115.885
111.367
112.584
116.904
142.365
131.796
111.458
123.358
131.236
140.797
99.383
103.753
126.690
126.294
110.367
130.595
108.016
118.529
103.060
109.293
127.497
133.754
97.588
112.363
108.561
120.256
138.511
129.840
106.784
135.537
133.197
118.507
104.001
97.630
133.134
137.892
100.234
132.172
141.693
104.828
105.164
118.251
134.508
105.751
143.220
107.417
104.791
132.751
98.432
116.465
111.262
138.414
102.208
116.768
102.679
112.101
117.106
122.706
110.827
138.268
125.199
106.929
98.010
99.670
121.050
118.197
104.147
104.241
96.726
134.135
115.970
138.961
102.279
142.136
136.812
117.694
145.101
103.407
114.181
126.305
108.811
134.448
107.563
140.067
140.583
130.427
100.557
132.815
105.548
129.457
135.536
122.101
120.862
108.340
99.281
144.156
105.216
126.016
124.961
95.937
110.973
103.970
110.478
120.570
130.985
108.979
105.112
103.262
117.788
122.525
122.024
119.831
136.121
98.223
101.489
127.718
115.665
138.607
143.674
94.894
107.228
