1049.263
1042.419
1050.059
1055.663
1054.007
1048.850
1057.949
1058.619
1061.207
1050.786
1061.403
1063.070
1058.180
1064.326
1074.131
1074.375
1071.926
1073.182
1071.414
1075.626
1067.958
1078.226
1083.656
1072.751
1083.211
1090.537
1089.356
1085.238
1086.981
1087.099
1086.296
1096.963
1089.422
1089.247
1096.684
1103.581
1102.847
1103.381
1096.808
1099.416
1113.297
1115.069
1102.738
1111.963
1107.240
1110.177
1108.084
1122.203
1119.446
1113.925
1125.303
1120.744
1126.059
1118.400
1126.192
1120.299
1124.604
1115.625
1122.956
1123.208
1120.453
1117.520
1115.880
1110.503
1121.754
1112.382
1109.303
1109.961
1119.356
1111.829
1106.605
1115.111
1109.599
1104.297
1109.569
1112.922
1114.163
1108.891
1110.569
1104.204
1101.188
1097.134
1105.299
1104.806
1100.019
1096.103
1107.913
1095.234
1097.471
1096.849
1091.318
1100.522
1105.056
1090.499
1103.313
1087.611
1086.943
1087.568
1095.397
1090.314
1091.906
1099.174
1093.527
1085.539
1091.290
1092.905
1091.048
1087.346
1088.767
1092.504
1092.269
1089.370
1087.412
1087.108
1076.063
1087.173
1087.410
1078.253
1086.503
1082.086
1088.299
1084.853
1083.327
1071.012
1081.574
1075.341
1074.038
1074.146
1070.708
1068.247
1073.627
1069.108
1074.230
1067.601
1064.129
1079.256
1066.651
1066.128
1069.142
1074.308
1074.650
1074.968
1061.849
1071.339
1064.259
1069.771
1057.128
1060.961
1067.218
1063.965
1067.807
1063.180
1065.708
1061.686
1059.939
1057.439
1055.149
1059.675
1052.806
1055.384
1057.894
1052.814
1057.948
1062.796
1051.735
1061.261
1059.688
1046.529
1057.801
1047.708
1055.666
1055.145
1044.639
1053.967
1054.730
1042.743
1054.466
1049.298
1052.420
1037.986
1038.280
1038.768
1041.261
1035.572
1049.982
1034.940
1042.467
1041.848
1043.860
1044.169
1046.679
1035.702
1040.303
1042.836
1041.863
1042.732
1042.481
1038.601
1030.372
1027.086
1031.886
1028.912
1026.247
1037.679
1037.661
1036.072
1024.175
1032.038
1031.287
1021.625
1029.550
1029.909
1019.481
1026.268
1026.272
1029.484
1021.184
1030.374
1014.667
1023.158
1024.406
1015.702
1012.280
1026.104
1012.290
1019.886
1016.626
1009.226
1014.946
1019.167
1022.178
1017.435
1017.333
1020.678
1011.154
1011.204
1011.153
1003.858
1015.584
1016.079
1005.674
1003.737
1001.116
1005.565
1011.943
1013.261
1000.236
1011.036
998.961
1008.072
1001.714
996.310
999.804
1004.408
992.288
989.622
997.734
990.064
999.027
992.436
992.881
982.626
995.269
987.192
992.043
993.149
990.828
988.485
981.188
978.483
986.309
981.302
982.694
974.759
977.489
981.976
969.574
964.597
970.333
973.676
976.439
973.117
961.721
958.846
969.347
963.768
954.639
967.808
956.112
956.117
965.374
960.741
951.330
958.967
947.004
960.338
945.049
943.091
952.168
950.266
948.070
951.454
944.878
937.790
935.733
933.835
934.412
934.540
945.272
934.825
935.730
937.340
939.464
935.989
937.781
925.353
928.294
934.114
920.059
923.280
918.359
923.532
923.140
920.752
922.717
912.680
923.348
914.806
914.457
917.170
912.426
910.074
908.458
917.049
911.803
906.703
907.169
907.519
911.486
900.640
897.796
902.078
893.435
894.413
893.787
900.914
901.184
900.245
893.240
891.200
891.126
894.299
891.579
881.498
887.276
882.406
876.466
888.328
875.654
878.652
875.599
883.802
872.972
880.845
877.956
873.069
869.427
875.083
864.208
865.699
868.111
865.016
864.394
870.189
858.489
861.613
856.906
858.789
861.021
851.037
864.789
855.436
846.880
848.062
855.843
849.496
843.496
846.768
851.910
846.441
851.633
845.815
843.476
844.980
841.085
832.436
846.066
843.203
833.371
827.948
834.326
833.227
824.898
823.590
832.411
826.810
819.695
827.283
830.995
831.640
824.994
816.682
821.463
817.349
820.313
814.907
821.021
817.126
818.599
819.002
815.749
817.897
801.752
810.859
812.254
808.653
801.879
810.262
795.204
799.702
799.406
796.395
798.302
796.463
802.771
791.090
786.839
786.650
786.720
796.335
790.936
789.492
784.889
783.024
782.304
790.397
784.035
782.144
777.291
785.609
778.042
777.718
780.461
772.357
762.552
767.365
757.543
757.750
760.626
760.755
762.365
747.196
745.001
753.177
746.901
752.980
735.075
745.297
735.230
729.724
733.683
728.233
732.535
723.494
729.934
720.842
724.424
712.533
724.170
720.017
708.625
706.612
700.910
711.714
708.360
705.765
698.473
693.266
690.167
696.777
695.837
690.185
687.109
683.885
674.629
672.399
682.821
671.943
671.003
669.049
670.523
672.339
656.811
658.669
665.233
656.886
652.606
651.746
646.018
649.871
644.089
637.247
641.486
635.620
637.747
636.234
637.294
627.844
636.428
631.987
618.574
624.058
618.455
620.748
621.241
608.406
609.526
608.857
611.905
605.608
607.831
602.146
594.338
603.141
601.084
588.620
583.727
582.219
590.378
581.436
577.988
573.762
568.614
566.383
566.332
568.387
572.389
567.293
559.941
560.721
560.365
558.538
547.481
554.904
548.095
543.209
552.458
539.051
544.805
539.181
532.454
530.420
525.632
523.479
533.448
528.691
529.393
515.317
511.458
513.793
519.786
512.137
501.826
505.259
502.907
509.884
498.053
495.655
498.353
488.912
493.914
491.970
482.682
480.212
484.956
481.574
472.588
472.585
478.329
470.631
471.300
462.588
469.803
458.922
465.873
466.416
463.926
461.502
458.765
450.339
446.391
447.990
445.520
436.107
434.484
437.934
442.146
439.534
433.199
432.761
433.031
418.908
427.897
412.239
411.197
412.496
414.430
413.581
403.986
410.545
399.940
400.238
399.632
396.595
399.446
394.796
396.132
385.753
386.302
382.159
383.818
373.530
378.444
372.758
365.756
365.041
373.167
371.582
365.494
356.922
362.968
352.138
356.995
354.762
343.853
352.170
343.744
348.777
343.264
341.226
74.423
68.678
55.524
68.718
78.518
78.810
53.671
58.142
73.605
72.608
69.737
54.385
71.314
70.125
79.223
66.142
60.045
62.686
80.499
57.834
64.884
71.252
61.721
62.556
77.556
80.520
77.869
67.456
54.511
64.889
220.391
179.393
258.125
199.300
231.189
260.018
178.857
217.805
206.021
225.434
181.886
216.284
216.954
262.818
248.613
245.392
260.068
198.007
184.314
246.196
212.291
218.176
192.381
186.036
218.230
180.214
224.246
182.814
217.287
210.512
191.577
199.570
185.388
188.448
180.005
208.409
249.958
239.618
182.868
238.657
237.185
200.395
245.489
178.609
262.936
220.457
175.352
245.743
207.396
204.813
199.292
194.419
212.053
243.313
236.983
178.080
207.553
259.048
229.393
184.424
226.063
259.509
238.062
242.295
179.221
219.845
231.503
218.769
188.643
215.541
118.967
128.856
131.637
125.934
140.427
97.198
119.678
105.167
130.556
125.561
125.089
128.316
105.402
122.180
132.135
98.818
132.220
115.243
118.895
125.801
106.984
143.989
115.432
133.889
123.451
133.056
128.455
130.413
124.821
113.431
118.294
143.408
123.723
117.250
105.435
109.705
121.201
140.956
102.405
140.605
135.596
138.137
108.800
136.769
108.301
145.275
120.881
104.207
106.030
103.187
125.475
127.367
143.969
140.891
138.492
96.195
112.811
134.731
123.702
107.231
118.422
101.262
124.195
146.606
104.226
144.938
116.747
117.412
130.996
146.189
125.647
112.583
141.024
142.838
109.019
122.613
125.865
111.392
105.744
99.730
103.432
118.044
105.822
112.206
136.737
126.676
144.040
102.358
125.610
113.065
133.113
103.902
125.244
120.511
108.837
117.924
116.476
110.326
124.610
137.481
117.476
114.164
132.395
108.006
103.608
116.621
118.224
96.422
118.740
137.262
129.777
131.094
138.159
112.316
115.038
140.750
113.932
96.245
122.887
123.039
99.134
117.471
115.383
131.445
145.539
123.911
100.219
109.387
137.296
130.629
117.451
114.729
141.228
104.533
102.290
118.618
100.098
122.815
138.448
135.306
137.502
114.583
129.653
119.932
111.984
108.204
111.420
140.338
108.984
135.413
116.268
104.641
144.319
129.982
135.379
133.462
131.388
139.371
135.869
99.557
98.362
138.618
107.371
143.311
124.271
102.900
111.404
100.132
115.958
97.527
142.464
106.563
128.227
108.216
99.663
136.175
141.012
142.461
145.930
124.675
103.301
102.998
140.018
133.979
116.928
115.564
105.143
131.671
120.491
142.234
102.012
134.809
145.602
132.429
142.310
106.635
117.156
107.162
122.804
119.102
125.916
111.447
135.515
122.142
144.086
141.395
103.258
126.243
98.723
106.541
112.683
136.965
140.335
100.770
135.063
98.451
122.905
116.176
139.672
126.934
114.250
138.981
146.327
122.601
121.643
137.466
141.922
143.428
105.946
113.637
125.339
104.368
127.093
119.125
108.467
96.678
142.236
139.206
104.692
146.494
95.439
135.881
139.933
112.087
145.032
136.644
121.067
145.876
145.017
97.274
104.512
119.548
131.106
110.712
117.995
96.735
135.830
105.552
123.438
125.558
132.988
121.233
96.622
123.763
133.932
130.245
123.193
124.011
106.606
125.475
144.759
100.641
116.000
136.077
112.605
116.423
145.335
142.028
130.702
126.822
122.279
136.367
143.429
135.689
113.703
120.087
113.780
119.867
116.649
123.614
141.066
128.101
124.815
145.741
103.740
128.072
105.488
137.007
110.763
137.116
140.584
141.801
135.636
102.859
108.014
127.128
121.564
96.351
110.472
138.062
138.730
115.931
126.935
108.685
120.704
120.813
124.590
139.055
126.917
107.252
139.911
144.307
119.468
133.110
132.189
123.977
99.451
132.935
100.862
98.536
110.396
109.704
111.494
123.655
105.457
110.527
138.274
96.554
140.914
100.737
125.741
96.146
101.224
120.918
114.909
123.630
134.873
145.764
102.375
121.865
108.696
112.461
104.625
127.404
134.524
137.398
134.682
135.905
100.936
125.598
103.713
143.092
126.605
143.134
119.477
145.209
137.347
122.936
123.941
138.070
112.669
141.643
107.441
111.303
140.452
118.651
145.575
102.627
119.488
116.351
106.939
100.164
96.172
139.676
139.989
126.411
130.022
137.081
114.121
101.928
115.847
125.988
124.877
122.002
106.191
126.376
117.893
118.964
145.894
145.260
138.638
117.106
119.904
121.289
119.468
105.112
141.850
101.230
137.593
112.888
139.186
101.268
105.130
100.387
102.476
124.639
140.318
120.546
111.987
124.140
95.461
138.001
145.429
139.313
106.948
103.363
101.766
118.524
145.551
129.181
109.648
131.085
105.386
96.787
139.885
109.288
110.460
103.987
110.344
109.444
119.096
130.303
141.955
105.915
107.243
112.002
144.083
143.871
128.423
109.439
138.312
140.608
117.304
108.145
125.884
123.490
128.288
95.276
130.714
127.313
115.335
104.024
105.054
145.410
118.929
107.057
99.163
118.544
121.819
109.291
138.391
144.263
146.207
113.854
120.382
145.011
143.454
126.438
111.891
135.935
138.000
112.713
102.901
116.167
131.487
123.456
138.676
117.018
103.518
98.209
113.947
94.816
138.928
139.022
117.666
101.158
129.708
120.296
139.281
140.069
95.670
130.501
96.688
113.793
120.136
146.211
103.941
126.659
138.229
103.202
141.496
131.055
102.516
108.072
100.168
123.054
136.415
104.630
137.611
131.547
137.235
124.874
97.725
106.824
95.194
96.638
137.091
146.116
126.180
143.857
98.995
139.420
141.399
98.438
127.934
102.120
102.545
128.644
105.160
112.577
121.543
119.071
100.376
123.921
131.419
135.183
118.037
138.846
102.685
133.112
126.686
128.754
117.417
133.960
108.631
117.399
122.662
99.196
103.067
101.078
95.282
111.406
121.541
117.830
136.765
107.343
94.800
109.647
137.018
140.939
105.758
101.879
129.950
95.726
138.355
124.124
108.097
134.156
102.783
123.663
139.951
135.091
139.319
128.245
104.351
94.910
127.875
100.973
145.925
145.235
139.569
97.891
109.780
122.789
98.186
122.617
95.239
95.575
114.192
135.830
106.160
95.908
103.643
103.652
106.492
119.145
107.761
95.569
117.587
115.762
123.368
125.387
116.833
95.429
133.817
99.250
126.491
115.704
120.768
135.486
121.301
103.566
121.451
99.124
105.063
134.403
103.072
121.259
108.922
133.466
121.885
115.480
137.183
103.650
121.542
102.286
138.248
127.160
112.140
104.688
101.303
126.725
123.478
110.759
132.474
95.142
110.160
98.785
143.936
116.043
109.017
109.995
113.079
139.318
146.104
140.927
132.794
133.400
104.082
145.166
137.614
136.931
103.272
137.078
135.798
146.116
118.390
108.157
129.776
106.756
134.693
139.498
101.862
135.230
131.819
126.356
142.763
145.511
94.881
140.557
145.630
123.673
104.578
110.031
125.983
134.630
141.595
116.626
141.417
102.301
139.446
125.958
118.015
117.203
111.637
103.836
140.481
95.550
103.672
125.601
121.609
99.108
97.010
128.619
131.867
101.768
123.493
143.379
106.315
102.848
134.877
120.984
95.840
129.173
146.685
121.819
102.563
96.755
132.546
96.412
106.769
115.128
145.338
106.123
108.393
100.863
106.204
135.649
112.941
142.302
98.881
109.253
127.587
99.686
135.604
95.886
124.801
122.214
139.535
113.761
136.976
105.649
139.862
146.196
141.045
112.009
124.313
126.561
117.478
106.835
113.065
104.965
118.630
114.608
134.486
105.593
122.333
125.356
130.144
115.871
142.579
127.937
130.128
106.751
138.566
136.086
108.582
100.710
116.013
145.246
124.534
114.915
115.002
100.898
127.670
110.103
144.544
98.426
107.859
136.219
129.070
116.714
109.037
130.359
110.627
110.668
102.492
122.301
97.675
106.000
138.476
119.862
98.779
124.643
140.927
125.132
143.036
108.142
136.568
120.013
136.094
99.734
104.256
128.769
119.689
121.731
97.124
136.306
126.317
96.965
101.100
120.581
120.056
111.147
100.873
109.551
112.910
117.381
103.329
116.985
123.007
119.399
128.630
105.565
132.655
99.771
141.106
138.615
139.810
119.213
101.841
104.332
102.577
111.058
141.728
110.938
95.448
139.458
108.016
125.972
142.805
139.215
120.800
125.777
140.409
140.545
119.872
143.817
134.015
105.192
127.225
132.684
137.219
107.101
124.979
137.535
142.422
128.386
125.858
130.534
130.834
100.821
109.366
118.236
114.762
122.355
106.033
126.561
124.659
107.737
135.583
134.323
141.226
109.470
97.341
115.585
99.626
108.073
118.743
121.175
146.542
140.134
114.671
128.905
128.813
139.224
116.347
133.982
138.222
120.631
128.364
117.406
109.369
115.868
109.276
138.058
132.145
95.564
101.255
111.756
116.480
98.079
107.029
126.445
112.154
135.857
145.554
131.632
122.666
108.841
120.660
97.482
118.049
108.364
120.310
123.978
110.348
113.679
124.906
132.834
137.207
106.430
119.080
125.837
122.254
118.279
138.128
114.554
131.312
138.539
104.153
144.137
95.794
122.138
106.303
144.487
139.837
101.342
121.166
133.398
144.220
107.466
117.650
145.385
140.694
108.857
126.559
141.643
124.304
94.533
139.082
121.641
144.492
131.936
107.811
116.209
106.516
131.898
138.105
99.109
142.481
127.786
136.202
103.726
128.417
115.601
139.626
98.440
103.660
106.414
112.424
137.110
124.301
97.809
102.073
141.128
137.358
100.796
100.624
108.571
139.874
105.137
110.842
131.283
137.978
122.701
108.856
97.156
97.511
97.674
106.002
124.181
110.557
126.682
108.500
120.441
134.936
102.082
122.157
99.625
125.638
115.910
110.416
137.265
93.163
92.463
117.201
113.036
93.475
114.109
101.232
125.604
108.252
95.967
93.462
104.281
122.331
112.168
117.035
121.505
113.417
121.775
129.601
102.582
93.664
138.668
98.913
109.111
107.298
130.538
131.674
95.603
123.792
120.910
95.955
118.339
124.250
107.403
116.841
111.456
95.780
123.535
110.067
99.666
113.755
116.942
120.793
126.475
101.255
113.588
140.163
135.642
96.035
130.215
128.194
110.044
106.991
98.603
124.520
99.123
127.898
123.858
98.511
117.577
116.927
105.148
99.809
101.467
114.635
134.356
100.513
97.533
109.440
136.290
96.701
139.498
115.050
120.516
99.705
103.785
135.919
128.068
114.619
93.079
115.926
103.100
139.269
95.613
117.944
132.636
124.393
111.722
138.604
110.548
100.797
108.637
111.332
92.591
135.970
136.287
138.044
106.607
90.935
126.437
140.405
108.022
101.428
116.987
92.249
131.379
130.929
136.582
124.957
99.383
133.560
112.112
97.163
124.604
105.831
98.419
117.943
138.551
103.682
127.773
91.945
139.225
118.677
132.931
112.812
112.676
113.246
128.531
99.961
101.680
108.549
95.112
133.548
106.193
105.527
93.736
108.787
116.555
141.433
112.744
139.667
138.163
129.320
117.537
142.835
96.491
98.518
95.900
111.049
121.491
133.575
101.011
99.409
108.438
124.266
111.499
110.531
103.790
138.457
124.936
124.860
142.657
127.404
114.241
99.610
105.668
105.935
136.708
136.588
112.156
127.506
142.834
116.463
130.048
106.859
145.269
126.659
130.191
101.152
132.814
131.610
105.167
117.847
142.724
98.839
145.791
138.945
113.939
133.137
119.198
101.304
137.682
141.731
143.899
132.069
138.265
119.145
135.144
132.500
119.798
143.659
127.787
120.563
145.239
109.018
103.751
142.295
105.034
131.583
134.827
111.490
120.953
106.975
147.237
122.299
106.076
117.229
110.132
148.661
143.000
146.654
151.261
138.703
148.297
146.621
118.451
113.539
127.316
134.122
130.550
133.230
143.929
152.365
122.980
149.306
116.765
150.325
113.464
121.671
144.006
145.960
106.288
115.307
139.713
113.574
122.564
