755.145
755.167
746.056
749.869
749.047
751.905
757.144
753.292
745.263
746.508
758.456
752.911
743.857
752.927
753.267
756.585
760.811
757.045
751.822
750.301
761.928
759.359
755.189
749.226
750.173
750.271
761.562
757.552
760.723
757.045
759.179
765.290
761.967
754.215
761.955
760.205
763.769
760.270
767.102
756.919
764.428
764.856
760.292
761.118
767.734
755.310
766.200
756.024
763.732
761.344
760.443
760.858
765.875
770.697
763.125
765.825
759.151
766.071
769.216
773.858
767.174
770.739
761.019
775.795
775.291
772.797
764.647
772.286
776.670
775.687
765.229
773.254
776.868
768.836
775.344
764.307
765.945
774.977
776.908
777.979
768.078
774.455
773.370
778.035
778.023
770.398
767.804
774.081
783.417
774.500
777.548
775.833
771.499
771.227
776.423
781.096
778.170
773.927
777.017
786.279
780.771
783.584
776.520
773.397
789.168
778.688
774.499
783.407
776.934
786.428
785.464
781.920
779.611
784.177
782.614
781.070
789.880
785.718
786.244
788.890
790.724
792.685
793.063
781.790
789.826
790.763
794.440
792.245
784.770
794.527
796.591
793.953
792.716
785.996
788.784
791.926
787.233
791.191
789.959
787.966
797.501
794.835
789.045
801.923
791.157
794.564
801.115
795.240
795.231
795.030
802.793
803.914
802.574
796.545
792.527
806.608
805.536
798.732
793.743
794.919
797.768
800.287
800.081
810.346
809.201
805.376
807.706
808.686
804.075
800.789
805.342
800.591
808.895
811.911
807.266
811.331
804.357
815.948
816.088
814.529
808.866
817.165
815.840
810.957
819.866
807.048
816.154
815.428
815.571
807.972
809.962
819.687
814.476
813.006
815.730
816.711
813.115
820.274
820.652
825.412
816.648
812.632
816.246
821.011
817.219
820.669
827.822
823.220
827.900
824.696
821.267
816.748
831.752
831.570
822.112
822.928
828.388
824.666
822.057
823.418
833.757
833.436
836.346
825.128
832.464
828.648
825.449
831.089
839.182
833.697
829.555
834.091
829.412
826.375
827.474
834.017
840.695
841.780
839.147
842.642
830.315
832.434
843.304
835.084
832.176
844.079
837.710
841.874
833.336
834.521
847.444
841.640
846.480
836.804
842.155
843.322
841.477
850.164
843.986
851.100
844.314
838.377
847.676
844.527
844.101
848.097
844.416
844.849
845.311
853.368
855.379
853.553
843.314
856.243
850.191
848.947
845.912
855.387
845.503
846.823
852.320
860.145
849.847
850.919
850.475
862.851
861.534
859.465
863.330
856.366
860.625
852.607
851.526
856.862
855.860
867.574
858.776
860.396
864.867
863.995
865.268
866.585
858.347
864.265
859.539
859.899
868.999
858.622
870.387
858.603
862.045
867.384
864.696
868.618
873.150
872.471
864.449
866.952
863.591
870.444
875.768
870.942
869.900
878.419
872.762
879.454
870.256
866.441
876.238
874.467
877.920
879.837
875.295
871.477
874.407
872.436
881.710
883.594
884.944
873.567
877.846
882.751
875.813
878.674
876.876
877.527
876.540
874.544
880.033
870.946
875.129
880.841
870.146
875.279
881.915
874.081
876.443
866.623
870.709
874.024
866.220
871.228
876.939
870.808
866.804
866.841
875.975
867.332
872.486
868.649
874.244
877.813
878.995
870.185
867.979
875.439
875.489
864.755
867.792
864.827
872.107
871.333
868.957
871.441
873.116
870.107
877.019
867.386
869.446
862.143
866.525
871.967
875.516
863.694
875.788
863.247
863.950
861.262
867.035
871.589
873.754
873.157
870.308
868.067
859.734
861.650
861.598
872.218
874.194
870.232
858.918
869.586
869.984
868.510
860.906
863.478
870.692
857.185
872.079
859.376
869.140
869.948
871.584
867.954
864.860
856.035
871.630
858.863
870.545
864.061
855.536
865.511
863.993
869.796
856.252
855.326
867.553
857.918
867.018
869.519
863.506
864.294
857.338
856.546
868.630
866.956
860.995
855.943
867.129
854.003
864.739
857.053
853.840
857.671
854.482
860.880
858.560
851.671
856.308
857.152
855.425
865.673
851.173
853.314
851.321
860.588
851.636
860.073
864.343
860.043
851.373
862.072
861.577
856.877
850.513
852.535
859.314
849.690
849.458
847.490
852.577
856.792
851.184
855.703
857.195
851.330
853.120
862.158
861.026
861.742
850.163
861.030
857.455
853.793
849.512
846.491
857.094
853.662
852.398
850.009
858.835
852.676
849.828
851.182
844.307
854.489
854.229
848.006
851.749
843.941
858.291
844.097
854.138
851.266
842.449
847.013
846.618
854.005
842.942
853.315
847.157
844.840
846.304
852.598
851.417
855.454
851.935
853.875
844.672
844.673
844.654
846.205
853.918
844.050
853.981
842.818
845.427
847.734
840.191
847.998
849.432
844.956
837.496
839.875
850.120
838.443
843.569
851.022
843.078
841.680
838.639
842.331
844.439
839.749
833.788
839.289
833.297
833.274
837.804
844.661
840.473
846.545
833.852
831.959
834.679
838.090
841.129
832.954
841.906
839.180
838.695
841.294
838.927
836.232
843.041
828.377
827.360
838.272
836.778
840.934
826.141
835.229
836.468
825.397
835.436
832.693
834.905
826.326
836.611
827.188
826.568
828.299
829.605
828.834
826.150
834.043
827.693
834.602
827.618
823.018
832.970
829.833
826.317
820.238
818.832
827.009
826.613
827.372
819.326
833.053
820.294
826.605
830.531
828.290
830.716
826.013
821.898
815.584
821.887
815.872
817.988
814.602
822.660
821.398
828.605
819.373
825.522
812.712
817.558
822.936
813.290
817.015
816.090
816.091
812.232
812.134
818.987
824.500
819.102
816.504
818.956
808.666
816.622
808.499
822.134
806.695
811.499
812.673
806.436
818.536
817.211
810.099
817.109
814.214
808.911
812.775
806.344
808.188
811.411
817.757
812.470
817.370
812.276
808.880
804.077
816.343
800.528
809.762
810.298
803.956
814.196
807.622
812.904
814.184
810.362
812.085
803.682
805.241
798.033
811.882
801.268
801.348
809.189
805.063
807.087
806.963
805.357
799.669
806.053
802.844
794.924
796.604
798.279
806.904
795.411
805.195
802.051
800.514
794.173
793.500
790.918
801.958
793.941
800.104
789.570
801.502
795.239
801.166
799.182
787.830
798.322
801.542
790.051
786.744
789.842
792.186
794.342
799.597
792.329
799.595
791.194
784.365
784.958
788.980
784.411
790.408
785.481
783.571
788.340
793.697
791.662
787.745
784.961
788.093
782.201
786.234
788.805
782.382
780.595
790.317
790.829
776.295
779.071
774.721
775.821
780.573
781.976
772.885
774.839
771.036
781.166
777.807
776.584
777.655
780.424
773.583
770.548
779.741
770.389
774.128
762.794
763.470
774.300
772.214
765.981
767.463
762.018
760.654
763.581
766.707
768.439
755.621
761.867
764.426
765.848
762.251
760.649
758.615
753.638
757.259
760.773
760.826
746.491
756.524
749.229
744.684
752.224
748.100
752.911
745.513
746.099
745.437
744.457
748.412
745.138
745.760
737.175
745.289
737.919
739.280
734.507
736.856
737.719
730.851
733.097
735.862
740.577
731.773
740.281
732.618
726.385
729.325
732.729
725.867
725.896
726.079
728.451
721.973
721.628
732.061
722.272
719.274
715.540
724.275
715.536
715.309
714.164
724.649
725.336
714.249
718.333
722.314
717.845
710.606
718.827
710.633
719.391
708.112
710.635
716.943
705.531
713.936
712.944
707.455
710.710
709.876
706.625
710.824
702.970
701.571
701.629
699.527
704.389
691.228
693.507
698.238
698.937
699.899
702.315
699.002
691.568
693.976
687.594
685.231
697.866
692.888
695.866
680.491
691.892
693.682
681.657
680.315
691.804
689.778
686.690
679.074
675.357
683.464
672.382
681.004
677.705
669.650
678.781
674.764
673.479
675.990
674.258
678.427
676.965
667.361
673.042
662.251
669.198
665.873
671.423
673.093
664.496
662.275
661.311
656.095
657.139
662.828
657.260
661.866
654.006
659.231
651.265
652.515
652.332
661.023
656.606
657.076
656.949
647.873
653.742
647.759
648.586
652.307
649.620
655.069
655.570
651.941
653.641
648.752
649.986
645.252
650.308
646.010
643.608
633.388
639.113
634.873
631.162
645.218
630.211
638.719
639.637
639.902
637.017
640.934
632.741
628.100
632.771
632.499
642.469
631.433
635.870
631.048
634.598
628.084
627.525
634.059
626.237
632.348
629.773
637.577
634.981
627.382
629.960
637.712
630.339
627.568
634.866
639.092
628.223
635.929
625.353
631.877
638.945
638.621
627.529
638.812
625.094
633.171
627.881
638.943
625.338
633.699
624.155
631.608
633.352
635.909
628.236
631.994
623.357
634.093
630.699
626.125
628.700
628.579
625.028
628.148
628.062
636.480
634.491
632.625
637.615
627.086
636.799
624.677
636.586
632.686
633.805
633.145
629.176
628.598
627.008
631.655
621.807
636.253
630.481
631.234
634.748
621.093
634.192
627.533
622.404
627.128
629.443
633.963
634.616
626.932
626.012
627.440
620.478
624.359
630.174
625.618
624.996
621.713
631.471
627.991
622.764
632.905
620.794
621.148
620.974
630.538
628.325
632.749
625.200
619.317
618.263
622.831
630.292
631.084
631.183
624.469
623.411
618.555
618.608
622.733
626.281
622.416
626.794
629.300
623.838
630.208
625.367
626.194
617.633
624.061
620.716
625.722
628.557
628.162
621.144
618.138
631.359
626.465
617.901
626.973
620.159
617.327
624.181
618.678
622.296
629.085
625.865
625.982
618.323
621.364
618.796
615.608
618.290
630.160
627.682
624.967
615.985
620.283
615.160
627.206
617.333
625.710
618.881
624.485
617.845
625.545
617.628
617.275
613.182
624.632
625.139
623.360
614.672
618.441
615.916
617.791
613.969
625.945
624.090
624.990
624.594
612.309
612.873
616.857
622.134
623.326
617.463
627.082
622.888
616.763
611.785
615.507
622.377
625.236
615.085
619.563
616.323
617.149
626.035
616.187
621.263
621.245
614.458
617.988
621.242
617.101
620.842
622.547
628.240
622.253
622.930
631.461
621.607
625.994
623.867
628.939
633.347
630.790
634.419
644.472
645.011
641.108
641.052
635.247
642.049
651.400
651.604
650.714
644.945
644.324
651.414
651.392
653.173
656.196
662.532
653.309
663.407
661.961
655.823
669.660
662.380
668.417
670.424
676.551
671.953
665.404
680.718
680.948
676.184
677.697
681.382
686.529
684.110
677.989
683.580
678.893
678.107
694.454
686.986
696.096
697.776
698.062
694.445
691.637
701.836
700.815
704.609
696.930
706.897
702.254
712.115
708.600
700.029
703.336
708.614
702.885
717.696
707.201
709.852
719.515
716.640
723.736
716.019
723.574
723.397
726.576
722.403
730.305
721.727
725.536
723.313
732.185
725.772
732.485
740.482
733.025
739.622
739.335
748.175
743.723
739.762
744.283
740.715
739.682
752.591
753.119
745.392
746.944
757.233
762.504
762.242
758.257
766.634
765.394
759.492
758.285
761.440
764.171
760.575
776.293
762.910
766.773
768.262
767.108
775.197
778.978
770.518
775.701
784.393
783.411
779.533
790.547
783.494
781.826
787.219
791.361
784.230
795.480
786.264
794.732
793.207
800.721
806.226
802.162
794.862
797.281
799.922
810.476
814.028
815.674
804.095
814.147
806.316
820.448
810.964
808.028
820.034
824.811
824.532
824.088
815.794
823.448
825.002
818.731
829.596
830.203
822.826
827.163
839.085
841.039
828.526
842.187
830.031
840.684
838.417
845.406
846.141
844.313
843.049
842.378
851.887
846.208
847.212
859.838
856.975
859.691
854.302
854.386
860.733
862.535
869.234
859.509
857.570
867.492
865.895
869.444
864.278
866.669
879.633
873.009
874.316
871.736
869.499
875.614
874.264
873.174
878.158
877.757
880.921
872.589
879.958
880.205
868.324
870.040
864.201
871.337
870.170
870.631
860.777
868.019
866.864
868.894
869.659
867.449
867.015
864.837
867.312
858.390
863.305
861.923
860.511
853.931
857.248
853.183
850.815
846.998
844.765
848.897
856.005
847.466
847.913
841.095
840.215
849.441
840.336
839.173
844.091
847.750
838.811
843.187
835.032
842.265
845.073
844.703
843.423
833.444
838.558
839.334
834.414
828.479
828.350
823.356
831.406
836.537
836.602
822.005
822.388
830.375
831.419
821.868
817.851
826.262
818.437
815.474
817.530
818.862
811.910
810.371
818.894
812.587
812.231
814.054
811.554
805.097
805.590
817.957
809.885
813.010
804.789
814.948
812.892
812.526
805.813
811.311
797.949
796.467
799.470
801.640
792.919
791.162
799.916
803.967
798.088
795.082
801.778
786.397
792.622
785.899
788.701
787.418
791.330
789.493
794.661
792.375
785.662
784.826
781.100
786.310
780.305
776.544
780.744
777.830
782.048
780.395
771.467
783.481
770.475
779.590
770.846
778.640
777.573
775.521
770.966
763.107
767.571
762.934
769.689
760.458
764.276
772.108
761.857
759.066
758.295
753.792
759.562
764.773
762.325
763.392
755.364
763.064
760.847
749.852
755.413
757.062
755.566
748.146
749.922
745.799
741.909
754.169
745.187
740.933
741.689
736.942
744.959
744.878
744.887
734.629
735.378
744.870
734.092
743.467
740.994
728.254
729.466
738.012
726.098
739.545
732.660
724.328
729.327
733.712
723.608
730.197
730.284
727.125
718.849
720.294
723.127
714.981
719.485
721.959
721.513
718.241
711.134
719.860
721.816
718.987
719.176
718.341
713.605
707.607
705.443
707.816
70.820
75.918
80.686
77.808
80.322
70.949
64.151
65.038
64.510
84.278
76.321
74.655
84.669
84.786
66.801
86.427
82.012
71.323
90.396
85.682
83.477
66.276
74.633
65.384
62.858
72.416
62.061
74.628
79.292
72.414
88.662
78.120
72.937
72.297
66.588
79.343
76.157
72.181
65.195
80.579
82.265
62.648
88.558
70.846
89.387
75.319
69.901
217.721
229.554
198.266
254.362
282.906
231.859
200.792
260.212
226.607
232.035
228.119
210.613
273.500
205.425
208.481
282.451
197.516
237.673
274.171
215.398
242.455
231.304
211.249
270.789
229.084
270.143
258.977
218.270
203.852
268.025
224.832
197.355
197.013
227.538
281.279
237.252
260.089
194.666
214.273
232.654
252.782
205.360
234.416
205.161
231.810
227.297
195.977
255.499
200.074
243.734
232.321
195.231
276.808
147.111
155.367
120.335
117.925
112.150
141.885
140.756
106.051
121.634
125.319
140.178
149.970
113.924
115.039
143.799
105.140
105.773
124.660
115.485
142.688
134.025
108.066
115.821
134.902
128.562
108.368
120.677
103.329
105.648
123.017
103.247
143.497
147.237
114.936
132.221
103.767
107.749
119.527
123.477
110.546
152.159
103.504
148.806
101.420
136.599
140.455
105.173
111.983
119.369
121.078
147.304
142.233
128.344
103.393
128.732
123.151
116.741
133.745
136.133
114.420
102.159
110.219
104.707
128.473
116.624
101.409
129.457
148.533
138.425
112.657
121.608
118.767
118.981
130.700
110.270
105.153
119.404
124.526
114.534
126.851
108.417
126.239
135.833
105.388
98.339
118.330
109.982
135.358
143.757
131.320
96.461
129.043
112.733
121.847
143.036
104.902
142.374
144.323
140.620
142.641
127.040
142.234
102.307
108.646
112.918
129.867
101.218
141.575
102.580
101.879
132.290
117.918
118.880
98.927
105.103
114.589
106.035
117.321
112.672
105.314
107.897
99.241
109.512
100.332
103.195
95.959
106.559
136.474
123.075
107.963
140.587
98.815
145.546
112.934
98.558
139.560
99.021
114.294
146.419
125.198
127.042
99.234
138.527
101.884
133.419
120.575
122.776
102.026
114.581
115.403
126.486
126.664
97.142
104.365
133.021
140.630
123.447
120.865
109.656
112.690
105.580
117.929
100.243
110.094
104.596
123.647
98.643
141.582
104.910
120.319
96.985
110.549
142.192
123.313
146.251
140.283
119.405
128.549
135.393
96.067
134.931
105.338
140.251
119.675
111.738
126.128
131.026
127.447
140.059
132.925
146.329
117.302
131.632
129.411
130.757
100.974
98.159
140.142
113.632
117.650
145.369
142.756
134.864
96.962
115.499
117.560
146.491
99.541
138.505
111.564
118.529
95.979
130.023
111.346
100.206
122.187
114.572
118.819
113.634
117.813
134.715
143.469
138.193
120.773
111.110
130.494
128.668
103.062
127.537
129.512
117.334
104.125
99.445
139.362
136.491
117.455
125.786
110.010
111.316
95.923
96.800
105.326
124.865
113.284
98.872
98.167
105.520
109.882
101.363
119.810
101.887
123.762
95.515
126.186
102.075
96.815
102.167
122.603
126.891
140.380
95.062
97.737
137.690
121.424
106.944
144.023
111.203
97.699
135.227
111.252
129.036
145.060
133.124
139.475
134.188
108.317
105.814
121.858
116.734
114.357
106.613
119.303
126.134
140.810
110.468
138.951
103.261
114.146
145.425
115.764
97.661
124.466
103.581
123.538
103.626
101.260
139.822
139.492
106.786
113.694
127.376
107.453
118.484
141.855
140.203
98.871
139.740
110.681
100.562
117.308
117.365
145.871
115.896
146.434
126.241
110.993
95.549
112.006
134.044
140.141
101.021
138.047
117.018
119.355
99.457
103.317
140.960
139.675
140.869
111.397
119.095
109.497
145.510
127.378
144.156
119.455
118.051
132.239
113.338
120.142
128.552
122.659
114.013
133.187
135.492
118.318
138.652
106.949
120.497
110.954
139.189
99.822
104.009
120.372
108.646
138.995
100.467
115.877
130.086
125.288
129.771
111.204
137.997
116.943
