762.360
776.241
762.456
767.812
762.699
761.146
773.265
761.850
761.616
771.803
770.452
761.936
762.196
765.438
770.964
769.915
765.903
765.847
761.198
773.367
767.426
776.709
773.173
768.977
775.529
773.390
762.330
771.427
769.225
763.147
766.770
770.461
761.697
776.607
767.599
766.922
774.901
763.539
773.726
761.891
775.896
764.563
768.246
772.804
770.102
763.523
773.889
763.891
773.400
770.913
772.685
765.102
768.184
767.638
765.608
765.678
765.013
777.071
767.709
777.210
764.924
767.894
765.870
769.861
764.552
761.793
769.370
772.063
767.878
764.874
775.408
770.240
764.231
765.346
777.584
774.971
762.742
772.641
772.949
768.938
773.682
770.266
763.912
773.566
772.168
775.976
772.423
777.465
762.348
767.990
777.414
768.047
767.363
770.476
764.751
776.558
763.351
769.721
766.547
765.418
766.822
768.287
763.817
774.142
763.704
772.253
776.412
770.447
769.695
765.512
775.663
763.305
767.287
774.687
772.908
772.502
768.375
773.339
773.450
768.765
773.787
770.016
767.315
772.237
776.419
771.480
773.364
765.300
767.417
762.799
764.493
776.384
765.073
769.187
765.729
765.063
767.431
774.423
779.122
768.395
772.655
777.309
774.891
770.486
770.849
771.024
785.265
771.578
786.738
772.096
775.111
781.205
783.380
774.989
781.108
784.991
779.783
785.655
779.956
787.678
783.102
792.566
790.674
790.088
782.029
783.812
786.081
788.923
783.736
789.601
797.527
785.489
788.265
786.131
799.986
790.350
803.156
798.443
803.030
800.428
791.605
799.803
793.800
796.628
792.784
800.259
803.629
798.313
810.453
800.582
805.530
808.827
812.627
808.423
798.460
805.539
808.999
815.199
806.806
811.692
807.943
813.962
808.107
808.224
819.273
819.020
815.409
813.563
821.458
812.655
812.136
815.527
818.586
809.794
825.402
820.095
821.143
817.318
822.211
823.239
816.542
819.334
815.658
824.052
827.562
829.690
821.030
822.916
821.881
823.878
821.756
829.638
834.485
825.968
826.767
827.880
837.489
838.080
834.790
831.026
831.782
836.176
841.573
833.979
828.383
828.355
842.953
831.939
834.340
842.823
838.609
832.512
832.512
836.898
837.102
838.594
844.041
837.242
835.894
846.590
839.994
844.432
838.576
850.819
855.104
850.239
853.227
841.173
853.423
848.111
848.894
854.765
849.153
848.656
858.409
848.336
849.075
860.540
855.767
856.018
859.081
857.326
857.348
858.385
865.152
860.433
866.678
854.695
856.630
863.376
860.289
866.372
870.376
869.428
871.157
868.435
870.490
865.028
865.928
868.601
874.978
866.480
864.117
869.850
873.281
864.482
866.237
871.670
878.091
871.346
876.543
872.638
874.769
870.274
883.384
880.454
881.917
878.659
884.778
886.353
883.354
879.427
874.635
884.225
890.152
889.224
889.027
877.047
880.886
885.520
880.563
891.277
886.499
895.565
892.323
894.523
887.800
882.771
884.323
889.131
887.432
892.523
891.002
880.731
883.623
881.287
894.996
882.581
884.199
889.704
881.888
894.222
887.436
880.083
894.155
893.130
889.861
889.302
893.271
893.423
894.867
884.146
885.407
885.979
884.537
891.647
887.971
889.956
882.672
893.530
880.898
881.522
883.187
892.266
892.407
885.201
887.029
888.875
893.533
886.080
880.639
888.556
894.807
883.348
887.182
890.128
885.563
892.668
896.178
894.018
894.132
891.387
893.096
896.299
891.301
887.027
887.146
890.118
896.142
881.981
896.302
890.717
881.346
883.152
881.990
890.614
892.149
888.827
885.663
890.846
881.661
893.700
893.286
889.330
888.539
890.895
890.953
896.659
884.624
887.871
890.341
895.218
893.559
890.610
882.585
894.104
894.004
890.358
884.993
890.049
883.963
888.863
890.910
881.637
884.679
883.778
882.218
896.050
891.074
882.490
889.662
881.770
893.359
883.074
895.624
895.405
883.977
882.596
887.218
886.760
891.981
890.295
889.817
893.499
891.968
895.479
892.150
886.680
894.639
893.796
887.357
897.529
896.014
882.762
895.358
882.365
887.204
893.270
895.720
894.019
889.920
895.174
882.925
890.383
886.496
892.146
887.725
884.881
882.473
888.861
889.984
891.025
893.294
885.736
898.005
893.449
883.161
888.731
894.902
886.054
883.113
896.177
888.231
893.421
893.251
883.626
896.148
896.614
888.605
895.693
890.460
886.252
898.149
889.479
897.177
887.521
898.955
894.927
888.642
892.848
893.998
885.775
889.359
886.780
892.686
897.325
896.863
898.008
894.958
885.767
889.116
891.534
897.706
884.409
895.661
888.325
893.060
893.671
895.520
893.000
885.107
887.335
895.850
899.080
883.982
890.848
888.716
883.892
884.806
886.606
893.750
883.773
895.035
898.821
894.486
896.392
894.219
887.265
898.626
889.351
896.588
896.167
887.867
886.209
886.554
883.560
896.564
898.890
885.204
894.944
892.648
884.350
885.882
885.180
885.401
884.744
895.611
890.626
893.240
890.683
896.650
898.047
888.605
887.977
891.629
896.313
898.165
889.836
887.877
883.488
896.511
893.216
898.134
884.023
889.166
889.118
898.554
892.603
883.219
886.008
897.396
897.980
895.454
896.132
885.400
891.620
895.628
894.318
886.043
887.653
891.664
889.307
897.461
898.112
898.675
889.947
887.854
884.719
895.149
897.245
893.051
896.585
889.535
889.478
898.333
896.854
897.725
883.615
889.266
889.691
898.229
892.972
889.287
895.819
889.383
894.552
886.095
895.915
889.971
883.887
885.821
884.648
889.172
889.517
897.253
887.493
897.877
893.646
893.853
887.167
892.787
898.121
887.629
886.211
892.968
887.305
889.813
889.165
889.691
897.488
897.435
891.091
883.577
896.896
892.813
886.629
895.040
885.706
883.509
888.155
887.532
886.448
885.516
897.577
883.184
882.550
895.156
890.118
891.143
891.790
885.912
898.022
897.909
893.483
888.007
897.272
886.997
894.129
885.823
896.028
885.272
892.421
895.553
883.287
887.850
885.429
883.926
882.373
897.982
883.237
889.601
883.851
894.698
887.543
897.199
897.476
882.312
882.845
896.831
882.346
895.153
892.539
892.768
891.122
886.624
883.568
887.811
888.463
892.366
893.402
895.490
886.507
897.712
895.286
890.246
893.847
882.571
891.919
891.819
892.553
894.839
885.563
893.209
886.760
895.032
896.191
883.250
891.820
890.225
885.503
894.536
883.361
885.058
897.030
891.457
884.312
883.830
890.134
896.400
889.696
894.735
898.798
885.538
891.766
894.860
898.223
893.151
900.450
887.067
901.217
888.285
900.905
894.198
897.533
902.672
890.667
901.361
901.384
902.091
902.236
899.493
893.800
899.461
896.902
905.858
899.142
899.059
893.221
898.261
891.734
907.506
903.385
896.079
897.054
908.148
907.838
907.987
902.543
895.071
900.753
899.890
910.106
906.670
903.626
896.766
899.481
905.445
906.032
906.031
910.036
904.035
910.253
901.683
899.300
899.392
900.694
911.163
913.922
908.211
903.840
910.232
907.898
911.677
914.416
910.004
915.164
901.570
905.513
909.251
903.527
903.088
911.049
909.701
911.870
906.480
904.700
916.013
904.569
909.740
916.647
912.831
921.194
919.910
913.097
917.647
922.514
918.118
910.775
908.720
923.753
921.839
918.279
915.503
911.964
924.924
913.241
909.766
912.747
922.740
914.031
916.065
912.892
925.750
925.261
916.965
922.427
927.632
913.292
916.448
921.860
918.667
919.741
920.602
917.719
922.666
925.686
923.400
931.388
930.302
922.843
929.780
920.692
920.545
924.626
920.852
928.905
927.247
922.723
929.567
932.896
925.975
928.614
920.490
926.546
928.080
931.703
935.705
931.851
924.008
931.799
924.546
925.524
926.648
927.479
934.129
929.392
930.725
938.187
931.891
931.944
930.648
927.925
933.633
939.432
932.672
938.050
931.410
938.039
936.819
930.712
936.789
943.508
930.474
940.724
932.465
936.896
936.432
941.219
939.969
932.499
938.035
932.728
943.787
935.063
937.618
933.889
932.720
945.682
939.251
940.358
946.973
939.869
944.206
937.672
938.244
946.079
944.664
945.878
942.606
943.931
939.123
938.985
937.913
944.560
943.921
942.906
947.658
946.946
948.244
937.724
942.373
940.166
936.390
931.984
933.251
932.616
942.609
933.903
932.808
932.901
935.790
935.300
937.789
925.511
925.354
937.358
936.728
935.806
928.200
937.310
934.025
933.069
924.964
919.805
930.573
926.193
918.509
920.504
925.736
921.784
917.579
928.209
917.302
923.063
922.385
922.020
925.341
922.238
911.709
913.065
914.850
922.387
919.821
908.901
923.312
907.860
912.699
919.358
915.028
914.578
910.283
913.312
918.562
917.770
909.594
906.169
914.266
912.806
908.254
900.335
907.077
909.045
913.071
902.265
901.039
900.975
901.835
907.813
910.392
901.359
909.210
908.044
907.648
896.026
905.212
904.477
905.726
900.001
898.177
895.773
901.754
890.494
899.811
888.849
894.396
886.081
886.903
893.173
888.915
894.126
883.555
889.100
894.936
895.212
888.460
882.377
883.425
886.180
890.959
887.171
878.798
876.253
878.686
890.710
882.336
885.439
879.417
884.852
880.294
872.984
876.811
877.582
875.797
881.969
870.840
871.800
875.752
868.203
867.637
866.617
865.909
866.524
877.066
871.162
866.343
865.589
862.686
875.168
869.120
865.930
860.851
871.256
873.736
870.336
873.167
872.477
866.005
864.833
864.320
867.622
863.402
861.277
868.538
863.709
861.425
859.352
854.598
856.465
851.796
851.131
860.960
853.900
852.021
854.636
848.143
849.500
850.553
847.068
858.712
845.798
846.621
854.846
857.809
844.770
844.206
841.213
847.845
853.177
842.270
853.472
850.504
851.329
850.284
847.502
843.229
850.667
847.365
844.750
838.380
843.778
833.729
835.817
836.646
832.810
838.284
836.526
842.937
832.757
837.057
841.794
839.738
840.341
834.912
833.364
839.951
828.336
830.172
826.390
827.552
827.104
838.752
831.797
837.610
825.489
824.851
834.995
838.311
836.510
830.442
829.413
826.121
826.348
823.620
836.527
825.220
823.731
828.854
831.014
829.529
834.100
823.713
830.196
832.967
826.082
836.858
834.858
834.291
827.177
823.381
834.421
826.643
820.707
827.221
821.487
827.481
827.496
831.685
821.678
826.668
822.243
825.213
827.082
826.119
823.888
826.584
819.381
827.922
824.958
833.755
832.303
823.883
827.511
820.067
818.612
828.810
827.260
818.201
830.534
833.220
827.846
831.878
825.781
820.360
830.961
820.329
828.336
830.182
826.127
822.326
818.228
827.158
831.096
829.461
830.722
820.718
825.172
821.941
819.478
815.639
830.068
819.985
824.746
822.604
817.329
828.412
814.979
827.169
822.022
829.699
815.918
826.747
822.962
821.529
816.103
822.304
814.570
825.115
825.946
817.312
818.735
827.150
827.352
822.035
821.857
819.696
813.148
811.821
811.955
811.795
822.149
815.063
822.891
822.593
814.501
814.809
825.106
811.144
822.090
825.568
814.250
815.640
823.182
814.218
815.442
812.617
823.981
813.637
810.955
822.066
809.488
819.263
814.033
809.283
820.297
813.787
812.571
823.147
817.383
823.348
820.396
808.256
821.730
822.370
814.944
813.951
809.338
822.124
809.437
807.479
813.664
806.682
818.281
811.419
809.264
819.218
808.814
807.328
814.326
811.061
810.986
821.202
812.766
819.667
805.913
814.236
817.467
819.468
817.913
816.719
814.840
813.112
815.365
815.321
810.796
804.246
810.264
813.687
809.912
817.795
818.847
810.993
802.847
816.462
812.926
812.228
808.625
808.414
815.253
816.440
802.715
816.489
807.879
811.892
814.273
799.102
809.536
802.281
790.532
792.859
796.246
791.978
777.991
778.633
783.845
769.803
774.917
762.739
758.580
767.599
762.503
762.888
755.832
758.478
740.156
740.919
749.798
736.737
742.746
727.527
736.358
721.928
720.701
725.378
721.183
720.409
711.077
701.457
710.903
703.543
696.920
697.808
685.368
684.697
683.293
679.453
677.306
673.248
679.380
663.288
672.929
664.979
654.691
655.415
657.508
649.265
647.109
642.434
638.433
645.222
638.950
627.198
626.510
626.686
618.512
629.951
615.271
608.223
612.382
612.902
608.098
596.254
598.398
605.414
587.425
584.594
592.923
579.916
576.641
578.472
572.513
566.972
564.498
574.110
558.447
561.580
560.935
549.783
555.083
545.497
550.970
535.500
538.309
536.907
531.501
524.972
524.317
529.930
527.627
510.286
517.793
514.905
504.329
498.237
505.573
506.139
499.169
492.021
489.001
493.305
486.688
487.556
477.845
469.689
478.080
463.298
463.586
469.370
454.461
451.536
448.262
442.712
447.937
441.824
443.718
439.190
430.845
429.857
420.979
430.283
423.168
417.282
421.695
420.923
416.219
405.322
401.636
394.660
390.824
398.336
397.184
386.417
386.811
390.427
379.405
381.139
369.895
378.354
372.831
369.840
355.158
361.183
356.572
347.026
356.773
348.538
338.294
332.678
339.147
335.860
329.194
321.579
328.766
318.028
325.405
307.299
313.757
303.960
298.683
306.761
298.623
297.742
293.087
286.310
279.892
276.543
287.371
278.326
280.750
278.651
262.563
258.425
262.353
260.720
254.749
259.296
243.235
254.658
241.156
247.625
233.760
239.216
238.489
224.902
218.519
222.777
225.442
220.377
217.946
211.189
201.129
207.166
194.300
191.854
188.631
198.050
187.503
201.398
190.711
197.309
188.954
188.511
190.521
187.593
186.875
197.873
190.246
182.322
196.713
189.952
180.684
183.027
194.195
185.917
190.192
179.889
186.545
182.384
176.667
184.069
183.645
190.906
178.080
175.722
181.331
176.887
187.641
183.153
183.787
181.840
182.297
180.197
185.803
180.455
184.603
180.945
177.502
172.932
167.549
170.528
167.636
175.464
168.047
176.079
168.418
174.099
167.262
172.738
165.731
175.900
174.168
174.161
168.553
170.814
174.100
164.973
173.104
173.786
165.490
158.718
158.101
165.636
170.634
161.385
166.713
158.761
154.718
159.016
162.569
156.672
154.434
166.231
165.905
166.521
165.591
151.814
155.323
152.004
154.988
153.660
160.304
151.308
158.291
152.131
149.335
155.595
149.045
148.049
150.087
159.770
144.804
157.099
149.403
152.039
155.619
146.339
152.612
150.964
140.022
140.666
146.289
140.065
142.421
144.732
149.885
145.047
138.507
148.973
144.785
148.429
140.894
137.202
147.957
148.630
134.673
144.371
135.475
476.632
435.477
465.799
472.773
447.651
454.687
445.202
437.043
446.133
461.257
459.035
425.170
410.421
428.223
421.193
431.761
426.433
433.225
419.364
414.083
411.251
443.844
435.761
399.744
391.009
427.810
404.608
424.982
414.898
408.797
425.119
414.059
391.690
413.515
394.196
423.948
406.245
401.711
404.557
396.234
375.225
379.137
407.610
372.299
373.068
389.865
402.519
399.971
371.925
384.201
372.018
372.539
368.646
359.977
360.804
373.082
377.986
389.534
346.439
339.221
379.983
347.771
338.922
363.146
332.063
330.246
328.616
335.908
340.122
327.735
366.147
342.982
342.244
337.881
347.920
317.135
341.209
158.041
164.021
149.220
129.988
135.863
140.259
121.845
160.898
126.142
148.674
160.502
139.923
127.641
120.121
142.664
149.981
152.806
120.895
146.340
135.921
125.735
120.799
159.261
154.285
163.176
143.572
162.736
139.050
136.519
128.223
119.859
160.581
137.757
111.228
117.858
140.180
146.854
114.895
145.058
125.832
129.113
148.318
143.229
140.814
134.150
131.196
127.636
149.845
154.053
118.988
120.758
127.450
131.228
125.493
131.275
153.119
151.532
123.836
124.194
142.073
115.279
151.784
111.996
151.226
133.364
147.915
139.653
146.641
138.945
145.262
158.210
142.233
139.258
149.598
107.709
139.307
155.027
112.204
128.240
138.790
116.114
124.705
135.005
137.857
147.562
114.248
116.765
128.515
149.701
150.477
115.736
138.407
134.003
136.102
118.976
124.891
138.697
154.907
141.000
136.623
133.851
121.152
127.939
128.556
127.744
109.838
132.346
138.722
154.937
127.353
131.418
106.226
132.360
116.236
124.471
136.242
145.125
112.120
137.181
105.642
130.101
112.540
128.513
149.053
141.658
128.895
113.852
118.494
115.226
118.883
115.710
153.199
153.126
149.591
133.614
123.457
129.431
101.775
118.296
109.576
102.114
144.338
110.959
120.367
139.441
101.150
108.592
126.401
138.359
131.927
117.282
103.849
104.926
131.143
122.126
131.418
121.550
149.551
141.314
126.894
105.592
137.937
123.706
99.084
147.015
139.909
119.539
110.836
136.474
133.084
141.243
148.465
140.316
123.522
116.721
128.907
97.340
136.162
104.470
125.801
99.665
100.883
133.481
111.638
113.615
115.337
114.136
127.600
103.645
136.858
141.747
113.714
112.057
125.410
114.596
120.894
129.934
100.470
123.403
120.717
133.669
101.354
131.428
128.850
117.194
137.459
131.674
120.599
95.359
105.290
133.330
136.701
99.707
124.446
123.613
142.931
128.913
136.803
111.101
130.278
130.176
130.192
114.412
112.382
103.899
94.822
107.273
125.059
110.965
99.334
101.386
142.855
117.596
122.780
105.460
131.750
101.728
128.243
143.198
101.748
141.559
144.643
142.267
136.405
131.128
117.763
130.109
144.516
98.151
114.397
105.425
98.442
143.127
115.752
143.003
135.382
139.349
103.808
140.576
128.049
131.222
96.364
124.612
127.684
128.481
119.705
94.965
