1102.409
1108.554
1101.914
1115.904
1107.184
1099.845
1108.177
1103.193
1099.362
1112.270
1111.109
1109.054
1110.602
1097.643
1105.406
1102.231
1107.281
1107.754
1106.374
1093.688
1102.624
1098.808
1096.018
1093.725
1100.725
1087.468
1101.530
1090.602
1101.303
1087.025
1097.815
1084.536
1092.940
1096.331
1097.924
1097.353
1090.355
1086.292
1083.016
1083.222
1092.107
1083.609
1081.110
1089.408
1089.436
1087.486
1078.918
1075.299
1074.833
1087.569
1076.830
1072.751
1078.562
1075.751
1077.195
1075.347
1073.259
1079.717
1080.465
1079.958
1069.806
1076.996
1068.024
1075.552
1077.804
1079.348
1065.937
1076.094
1068.350
1061.604
1075.865
1064.041
1072.138
1071.668
1067.001
1063.574
1057.540
1063.572
1057.946
1062.287
1059.019
1060.319
1064.891
1057.251
1062.694
1063.089
1053.939
1061.312
1053.556
1062.536
1053.907
1061.643
1059.133
1057.975
1055.635
1054.313
1060.697
1057.105
1045.554
1046.282
1050.277
1049.301
1049.767
1047.145
1040.794
1045.399
1046.856
1045.656
1045.087
1042.715
1050.567
1051.139
1047.213
1046.597
1037.797
1043.831
1046.874
1034.935
1044.656
1032.642
1037.544
1035.804
1038.286
1042.307
1041.746
1032.920
1038.796
1039.446
1039.607
1029.562
1032.022
1035.134
1028.101
1037.073
1031.643
1026.471
1024.870
1022.041
1033.899
1022.078
1026.736
1023.233
1027.241
1020.516
1024.121
1025.750
1025.787
1029.186
1014.419
1017.184
1019.911
1022.201
1012.482
1016.906
1017.688
1023.199
1012.422
1013.256
1021.499
1019.268
1011.238
1017.082
1019.421
1017.827
1018.776
1011.145
1014.055
1005.765
1016.694
1008.357
1003.218
1009.417
1002.037
1010.065
1000.648
1005.775
1011.178
996.936
1007.550
1002.531
1000.974
997.208
1002.598
997.191
990.784
1002.521
997.163
992.603
1000.978
999.903
992.606
985.919
993.986
995.403
982.502
993.505
989.432
985.498
988.340
977.704
982.697
971.340
973.912
979.942
972.765
980.124
973.470
969.719
964.964
966.149
962.156
972.089
967.256
960.587
962.917
968.976
966.063
964.164
963.092
953.205
955.994
958.283
956.459
951.523
956.502
950.572
952.282
950.988
949.423
951.276
939.920
950.058
937.453
937.515
942.371
946.158
944.638
946.733
941.956
932.996
930.437
941.597
927.319
932.239
930.935
930.095
928.121
935.537
919.655
924.567
926.263
920.487
920.333
927.981
919.129
913.725
918.280
921.578
909.506
921.198
917.618
904.584
918.257
909.758
907.567
907.787
899.889
901.534
897.870
896.347
904.822
903.560
905.063
900.837
900.787
889.276
894.284
899.779
895.049
885.874
891.501
886.956
891.815
890.518
882.208
889.463
888.751
880.406
882.376
878.351
872.024
880.630
872.947
874.893
871.052
877.899
876.313
870.259
867.815
863.880
873.845
861.805
859.177
862.401
867.128
857.118
859.239
862.461
864.273
860.711
860.462
861.780
850.050
847.193
848.693
857.814
844.120
848.318
848.719
846.792
838.838
845.586
849.270
840.827
835.832
840.882
843.788
833.305
840.982
838.881
830.828
838.180
835.048
829.455
833.024
830.833
834.719
824.224
830.868
825.498
823.367
826.596
824.785
814.344
816.573
813.843
808.998
815.131
812.782
808.572
816.988
817.590
813.068
813.683
806.456
807.928
807.525
800.782
798.657
802.142
805.528
800.937
802.177
801.639
802.657
789.665
792.025
785.945
788.375
789.778
791.470
794.470
792.750
785.403
787.364
781.708
782.872
781.947
785.998
779.069
781.140
772.950
776.854
763.890
768.152
766.275
759.336
756.637
753.911
757.577
751.591
754.704
759.293
749.987
740.488
743.327
740.015
736.943
732.601
742.224
726.771
735.896
729.881
729.339
726.248
727.306
724.607
722.347
709.595
717.934
708.120
711.400
700.751
710.753
709.136
701.345
704.428
689.457
694.726
693.448
693.454
683.062
691.216
682.734
684.121
686.519
677.068
668.643
669.783
672.010
675.615
658.762
662.722
657.796
662.678
654.030
660.652
648.485
654.358
646.299
648.983
640.623
634.394
646.152
633.612
639.251
638.427
634.777
635.275
628.250
628.333
619.758
616.622
612.501
610.389
619.466
614.163
609.966
599.582
603.718
599.259
592.396
604.746
592.291
586.627
597.755
595.921
582.745
588.639
585.005
587.385
572.274
582.034
571.324
567.291
573.051
565.244
562.815
554.916
555.822
561.451
549.220
560.394
544.020
545.728
542.377
549.861
549.208
544.958
540.024
533.949
541.959
528.717
534.527
533.169
530.022
526.002
528.625
518.324
511.248
517.492
509.161
509.749
500.055
505.125
497.581
502.978
495.812
488.971
493.466
494.740
487.896
481.229
486.327
484.318
488.673
484.313
469.817
467.376
467.160
473.088
472.239
468.371
463.520
457.739
462.842
457.365
447.028
452.502
449.744
449.909
447.635
436.015
434.677
447.247
433.996
439.969
439.348
428.445
430.605
419.211
421.175
425.348
423.940
414.102
409.786
412.259
415.556
412.028
409.793
396.273
406.053
400.949
392.344
399.751
396.354
396.173
396.212
380.894
377.715
384.103
386.474
378.693
381.487
373.340
371.825
361.078
374.109
371.714
369.780
357.545
362.642
352.974
348.247
352.131
345.579
351.482
339.896
348.464
341.772
345.472
330.786
334.067
337.792
330.412
331.976
332.320
330.837
333.053
326.690
327.895
328.072
317.905
315.756
314.509
325.265
325.105
318.976
317.080
317.410
304.231
313.781
315.158
313.503
312.962
304.392
300.499
298.648
297.590
298.611
294.141
304.274
297.569
297.861
288.461
284.367
285.083
285.256
291.701
288.015
278.269
281.462
281.502
276.917
276.205
284.145
284.112
280.719
273.091
273.540
279.079
273.239
264.327
275.632
264.910
260.309
262.023
263.851
254.129
257.963
261.990
256.917
256.118
259.565
252.614
255.848
247.446
256.681
248.539
251.076
252.531
251.621
241.530
239.635
233.044
240.549
245.422
238.009
236.716
239.549
237.819
238.533
234.933
235.881
226.685
225.265
229.988
221.426
225.129
217.670
227.141
211.111
209.778
209.196
214.532
211.135
207.032
207.424
201.592
212.484
213.161
201.018
200.100
195.145
198.981
203.595
193.119
192.510
189.054
189.163
196.295
191.987
196.984
184.193
190.939
182.038
184.698
188.699
187.806
182.072
172.632
184.471
182.015
168.448
179.089
169.963
167.350
176.899
172.345
169.732
166.963
172.429
158.863
158.644
162.902
163.446
166.623
153.192
153.080
159.734
156.772
147.653
148.202
156.023
155.483
144.625
152.253
146.622
148.338
145.134
135.157
143.632
133.694
128.382
136.735
131.450
127.383
128.142
133.518
120.992
133.143
119.063
118.832
121.908
118.024
123.996
120.156
124.294
115.547
107.801
116.455
111.093
111.311
102.598
104.557
102.847
112.774
106.674
102.513
96.794
100.711
100.152
105.353
100.929
90.607
100.702
90.801
86.832
84.700
94.456
82.191
90.969
78.093
78.663
77.945
80.249
71.924
70.408
82.285
70.291
191.139
200.840
170.084
220.979
221.059
183.333
171.994
211.287
161.600
228.630
180.013
219.306
232.958
163.451
231.215
224.022
184.002
185.738
228.516
201.683
165.062
226.429
228.977
227.947
223.422
167.965
170.803
231.799
165.893
241.049
191.186
192.959
230.879
199.174
181.149
219.672
176.145
202.611
242.869
181.972
174.633
184.998
190.808
225.490
206.527
197.571
222.341
234.077
169.338
230.639
236.066
198.512
167.157
229.520
224.352
240.432
198.886
186.492
211.994
178.847
211.517
182.492
191.032
193.958
219.633
165.853
234.617
162.786
179.915
215.352
229.073
214.316
187.623
236.801
196.272
222.139
191.596
181.591
234.993
220.863
197.010
229.478
173.560
180.469
186.258
219.625
231.952
196.574
214.072
176.036
235.666
173.499
229.144
162.523
215.547
162.475
200.167
165.820
229.645
173.387
95.876
132.509
90.578
105.150
95.187
99.660
132.286
90.707
99.727
113.562
94.242
96.593
120.814
113.677
123.524
105.913
101.633
128.817
114.150
109.788
117.101
101.772
100.755
131.530
101.310
94.283
105.333
116.057
120.060
131.735
116.941
91.761
119.701
124.874
119.724
134.258
99.393
126.171
108.335
94.800
100.699
126.697
103.314
117.581
114.622
105.671
96.152
107.514
110.484
102.531
96.667
127.452
133.683
121.934
96.927
104.963
108.806
96.631
106.539
126.036
104.812
113.711
115.818
111.556
133.819
124.684
102.897
90.399
113.035
112.046
126.925
102.003
89.960
135.183
92.759
102.563
126.468
122.464
103.317
124.681
119.141
99.150
97.503
94.671
134.047
91.798
133.560
102.123
104.942
129.906
114.045
95.580
130.348
132.206
97.754
114.208
129.517
96.830
134.910
122.746
119.061
95.445
119.650
131.202
127.199
122.369
113.546
91.473
102.060
104.136
115.052
129.742
114.845
110.211
120.765
124.068
105.363
89.993
115.981
92.951
95.424
122.277
126.107
100.152
123.237
117.492
122.083
93.493
125.823
120.131
97.965
103.196
107.678
90.256
126.138
119.811
109.993
125.815
133.687
112.571
109.458
123.394
130.190
104.424
126.295
124.790
123.864
104.082
121.806
107.524
95.139
108.370
114.269
132.872
96.726
114.573
96.044
117.821
110.384
105.317
91.312
99.370
96.501
94.653
96.066
112.725
106.059
120.953
124.407
106.298
115.127
125.698
118.986
105.226
116.721
93.959
123.249
103.098
89.648
112.610
89.878
103.228
121.631
91.575
114.412
129.742
124.172
91.382
120.417
96.142
109.543
117.935
121.908
115.406
107.719
109.011
130.137
98.190
127.663
91.906
131.957
126.308
98.909
95.366
92.084
108.629
105.345
117.877
95.015
125.492
93.292
90.375
89.659
112.247
114.409
99.092
116.697
119.745
113.739
102.248
118.035
91.883
114.545
127.831
110.641
102.943
104.750
90.826
89.988
98.843
132.748
100.735
129.745
105.012
122.307
114.959
119.202
118.440
106.647
90.968
118.172
120.866
96.103
94.915
98.525
124.999
128.464
116.917
108.442
129.143
99.293
91.535
111.655
89.680
121.158
113.527
119.483
129.915
128.715
108.077
100.535
99.386
106.999
133.229
135.301
113.337
92.465
91.420
92.709
128.232
108.896
100.730
106.530
126.794
93.025
126.494
110.732
128.950
108.379
117.543
133.172
112.165
102.345
99.951
125.069
98.832
114.084
109.028
117.594
124.643
118.019
93.053
100.736
98.437
117.633
129.563
135.055
103.932
133.478
132.220
132.821
96.516
106.175
102.731
123.587
114.842
98.895
108.232
127.852
113.736
104.917
133.083
125.243
108.454
116.455
130.997
104.537
126.023
94.806
111.560
116.211
126.642
126.474
94.781
118.716
128.662
121.744
107.062
92.143
107.482
125.095
112.410
122.499
96.190
98.031
90.236
91.864
126.831
124.201
101.120
102.823
92.952
128.817
117.725
127.957
101.474
106.853
120.878
117.784
118.750
128.545
108.477
94.076
134.567
128.802
116.800
126.507
120.838
99.460
112.718
115.523
115.147
116.094
130.972
116.237
122.290
128.735
124.444
92.105
112.614
129.145
116.888
92.267
103.797
90.925
100.832
134.167
114.179
134.876
127.895
129.836
108.772
98.510
114.755
117.633
135.094
100.203
103.560
119.917
129.750
124.906
95.464
132.468
110.554
129.698
135.118
91.090
119.585
119.394
123.749
103.506
122.491
131.224
102.165
118.308
126.245
122.279
93.305
110.735
105.830
118.505
105.023
95.508
110.908
131.921
132.756
110.636
132.272
101.470
126.196
119.025
119.129
101.202
101.627
133.164
128.344
132.658
104.171
92.800
124.503
106.655
105.898
115.868
111.482
99.263
97.701
95.323
90.047
100.163
118.864
114.650
93.345
121.169
124.471
92.954
130.931
128.896
122.197
106.430
104.321
105.612
114.132
90.531
123.431
91.089
111.327
118.093
122.650
119.383
123.328
96.322
118.551
109.620
94.047
133.112
120.083
118.255
120.633
110.044
118.019
122.066
91.683
134.366
108.004
101.242
107.196
101.527
118.358
119.784
124.591
96.872
128.614
93.610
124.189
107.525
99.198
131.107
115.759
109.154
96.527
105.079
124.399
98.154
112.340
107.075
106.329
110.534
103.047
93.446
131.293
122.101
134.917
134.342
94.125
92.683
98.560
122.378
132.896
123.137
91.739
101.948
120.328
89.871
135.156
119.852
93.211
97.484
96.465
114.554
100.673
127.680
96.189
111.289
134.368
122.426
124.667
120.982
131.883
113.545
109.579
92.059
98.347
134.609
103.898
92.098
119.538
117.025
95.119
111.418
129.363
113.853
105.082
119.329
109.510
128.142
126.347
127.736
119.752
101.108
126.398
131.040
123.448
91.694
123.126
115.793
100.541
91.190
100.865
108.467
113.424
117.700
100.315
103.255
96.431
126.974
116.408
120.017
105.963
97.427
108.294
126.487
91.943
116.909
123.159
90.466
120.747
134.827
128.385
119.416
90.077
100.111
114.188
123.598
118.191
122.521
101.682
115.813
94.026
125.845
104.558
102.863
123.919
133.622
92.218
118.502
101.775
97.993
102.474
90.182
113.617
134.513
97.558
122.811
121.784
126.262
108.990
91.625
93.448
96.721
108.225
130.526
125.152
94.654
102.314
95.804
111.926
110.318
125.830
97.041
105.476
125.197
118.554
99.511
105.677
89.586
106.797
122.167
92.774
97.968
134.507
131.285
130.332
123.665
105.562
120.892
119.126
91.474
111.203
105.348
101.592
113.436
109.358
103.721
132.069
91.263
120.939
114.374
120.988
133.208
90.850
120.478
134.600
111.978
123.075
111.441
111.355
104.110
108.937
108.713
108.369
131.184
132.885
111.983
108.375
91.456
124.277
96.205
100.617
130.730
89.978
111.644
108.164
95.064
103.433
108.492
114.532
105.125
120.136
94.358
118.393
94.482
120.675
112.620
133.014
121.292
126.352
112.635
104.556
105.892
107.449
114.931
98.394
128.257
123.191
97.563
132.713
126.589
96.150
102.014
107.626
129.655
113.532
134.122
127.707
115.012
91.320
117.238
110.800
114.916
113.143
118.021
96.446
113.363
106.849
129.237
104.079
106.497
110.227
123.495
119.175
123.784
130.014
128.419
96.717
116.560
109.155
95.673
94.959
93.135
128.881
134.937
129.136
92.364
113.893
133.757
125.512
93.724
112.561
127.882
96.758
128.644
91.773
121.297
112.298
126.652
96.919
92.330
129.871
94.558
132.896
108.871
123.768
105.869
114.067
100.343
127.208
109.928
134.028
93.376
129.831
122.546
123.167
112.031
107.254
119.014
97.350
115.310
135.007
99.889
125.250
109.421
129.688
93.398
109.417
109.434
134.745
130.472
105.595
101.378
100.314
129.272
127.904
102.981
111.500
126.482
94.681
124.183
110.911
134.408
121.395
132.713
92.196
105.478
92.143
112.411
109.279
125.292
115.652
113.118
129.434
121.236
120.774
110.022
108.085
102.234
90.764
119.785
129.623
99.363
112.846
109.186
107.387
123.423
124.158
131.874
105.769
108.085
132.225
119.355
93.334
99.287
130.770
130.906
97.035
101.178
100.741
128.625
90.314
130.247
116.060
96.557
112.486
119.320
108.267
134.636
113.125
135.003
132.314
121.913
99.590
124.026
113.533
111.742
129.241
111.159
129.367
125.515
123.251
112.006
99.466
94.580
92.961
117.213
125.719
126.066
114.033
124.925
113.584
112.815
104.928
132.496
122.205
91.458
113.249
102.270
100.572
108.701
135.205
110.331
130.522
128.730
127.757
104.695
96.844
108.164
116.951
128.592
129.916
124.977
129.772
116.187
128.831
115.893
117.185
114.833
93.462
132.459
111.139
98.610
129.762
110.974
104.159
133.958
111.294
96.810
132.721
110.887
104.824
106.295
107.647
110.743
96.797
93.847
102.076
109.122
129.067
114.239
133.011
105.108
113.140
113.436
120.154
120.112
126.075
109.582
102.302
99.149
110.745
134.345
103.272
119.153
128.268
110.651
99.348
120.633
97.163
94.222
104.192
89.767
105.962
126.178
102.730
111.909
102.730
130.223
102.145
97.838
90.612
94.027
96.775
133.978
95.773
127.090
111.032
123.114
123.875
130.528
92.903
113.100
130.353
111.327
126.276
115.710
132.437
130.695
129.827
128.236
94.246
110.452
113.859
113.216
121.158
103.587
112.790
90.421
131.780
130.524
119.024
107.085
121.457
101.936
89.956
128.890
90.636
107.512
110.472
102.839
92.640
122.466
123.846
134.391
129.644
92.047
111.893
132.402
108.774
125.054
117.452
92.098
114.539
125.663
107.018
105.085
106.213
117.327
126.896
122.874
135.385
135.298
113.490
120.046
132.746
125.673
112.845
114.267
98.315
116.109
127.695
101.187
104.762
123.471
125.199
99.769
110.454
97.456
122.465
111.026
93.895
89.810
98.936
127.947
90.625
89.554
133.628
118.496
134.495
118.392
127.045
102.256
108.157
107.503
111.560
104.963
135.292
114.935
125.331
118.875
134.669
98.859
131.457
128.446
128.014
101.603
134.160
117.218
96.998
100.265
119.667
118.598
93.453
109.302
128.171
120.151
105.428
130.190
128.663
92.895
117.200
133.097
117.815
110.366
92.904
120.810
109.379
125.083
100.053
135.459
134.745
106.123
135.147
94.574
119.594
125.152
94.477
100.970
99.670
107.972
126.567
116.737
93.947
117.706
134.389
103.040
114.459
129.038
101.306
128.430
121.768
126.060
104.090
89.471
129.219
92.995
123.002
125.244
92.231
114.616
134.099
134.270
104.487
134.209
92.731
128.186
98.272
128.169
128.922
105.221
94.800
125.306
108.393
93.845
111.179
94.630
117.290
124.496
105.884
96.236
107.274
117.780
123.332
