975.726
976.687
970.262
965.568
968.672
978.499
977.860
967.844
981.891
982.165
973.222
977.597
984.326
980.224
979.755
986.000
976.968
977.519
974.207
979.226
983.459
982.187
981.425
982.587
983.528
982.212
990.068
989.606
995.218
983.554
997.631
987.950
997.153
988.748
995.584
995.974
993.494
998.282
988.415
997.549
995.369
1004.962
998.795
1006.072
1003.404
994.752
996.848
1002.499
1007.073
999.813
1011.362
1004.217
1004.341
1010.370
1004.219
1008.872
1009.245
1016.129
1014.155
1008.143
1003.897
1008.022
1014.350
1014.630
1012.122
1012.505
1016.338
1023.585
1020.607
1013.862
1015.532
1018.504
1026.338
1021.739
1015.368
1026.483
1016.295
1016.758
1023.371
1018.453
1025.194
1018.573
1025.905
1033.889
1023.056
1022.272
1025.664
1027.841
1035.625
1031.056
1038.905
1026.133
1031.860
1031.201
1031.440
1032.520
1040.340
1037.843
1039.773
1032.361
1041.847
1034.874
1043.228
1033.777
1045.455
1043.006
1039.292
1041.588
1040.530
1039.357
1040.184
1039.994
1054.453
1054.270
1050.995
1052.343
1044.047
1044.982
1052.136
1053.385
1054.154
1052.670
1051.445
1055.940
1054.482
1063.245
1065.726
1064.371
1053.475
1066.200
1061.138
1061.727
1066.531
1069.577
1067.114
1055.108
1053.145
1064.745
1060.615
1061.422
1051.703
1052.940
1048.472
1049.000
1051.237
1050.904
1042.318
1048.281
1038.542
1039.701
1040.864
1030.808
1030.749
1029.621
1033.765
1024.670
1026.678
1030.151
1027.375
1022.551
1017.472
1023.035
1022.052
1017.031
1010.969
1014.122
1022.186
1009.985
1006.789
1007.941
1013.482
1008.929
1013.180
997.037
1006.223
1007.501
996.874
1000.269
1001.958
996.940
994.891
987.244
996.613
997.025
994.271
982.726
990.742
979.407
977.278
976.470
976.299
969.903
977.626
979.486
975.843
965.013
973.789
960.857
967.232
963.001
956.297
964.315
967.781
954.121
965.841
953.590
961.417
959.639
948.303
944.419
945.200
944.130
938.533
952.242
942.173
934.811
939.023
943.083
932.994
937.901
931.707
926.839
938.462
927.549
929.285
924.102
929.766
916.685
923.861
918.744
920.136
923.831
908.783
914.011
914.546
909.154
910.498
909.360
899.670
900.959
902.037
904.370
901.982
906.771
900.001
898.464
893.158
894.810
884.578
890.222
890.660
887.472
887.400
890.961
884.696
887.137
874.218
872.558
873.903
872.401
879.372
867.149
873.411
863.837
862.841
870.160
870.561
861.511
859.539
866.635
860.968
861.577
858.623
860.705
847.963
847.003
844.165
843.524
849.875
837.609
842.303
839.717
846.225
845.685
836.867
828.487
831.048
840.801
825.313
826.628
822.191
824.798
827.309
830.382
824.628
826.278
813.795
814.623
812.274
817.391
807.378
809.073
803.325
809.819
814.323
809.570
806.409
800.547
802.173
802.942
805.711
796.219
797.177
801.802
787.244
798.640
787.842
795.259
779.302
786.008
789.150
788.184
787.445
778.386
770.511
778.427
780.743
766.081
766.892
766.446
769.079
761.427
758.578
767.328
769.613
762.128
758.569
763.610
756.523
763.384
751.879
763.049
755.373
761.701
757.232
756.779
757.798
751.132
754.717
753.155
756.046
758.618
751.079
748.816
754.786
745.758
743.556
752.829
739.960
749.514
748.827
736.150
749.986
734.797
742.874
733.050
744.351
744.817
731.644
737.672
741.774
733.350
729.518
737.166
741.812
726.625
738.369
725.415
731.825
726.154
734.394
727.997
729.193
730.103
730.024
727.568
721.757
724.362
723.847
731.664
718.064
719.228
719.518
723.525
724.035
724.353
716.288
723.538
710.197
718.076
721.477
719.171
714.296
718.494
719.452
713.414
711.948
713.280
714.279
715.809
710.451
712.652
702.460
711.362
699.834
703.008
705.015
710.848
708.281
706.167
697.446
697.454
698.794
701.415
700.170
707.006
698.629
691.025
691.080
696.823
703.649
691.809
688.087
696.919
700.705
697.908
697.734
685.560
695.961
690.173
685.998
694.153
689.272
679.555
685.382
687.827
685.394
690.252
688.105
687.551
676.118
675.937
676.104
679.981
677.213
674.758
672.427
673.447
668.524
671.229
671.252
677.479
679.020
673.572
679.718
669.333
669.497
670.905
676.515
670.415
667.596
663.686
661.404
660.144
668.567
660.733
671.198
661.580
667.433
663.415
658.446
664.784
662.758
656.664
664.855
663.255
652.267
658.608
651.677
650.662
662.069
645.700
654.594
655.988
656.399
644.653
654.625
643.673
655.943
643.822
641.538
648.952
645.621
649.036
640.109
644.463
635.655
635.749
636.569
646.721
638.596
632.016
645.412
634.799
630.975
640.539
643.304
627.988
628.904
628.810
638.040
636.694
636.884
629.310
627.077
633.571
633.010
633.269
632.249
625.683
630.722
624.331
631.910
621.862
623.460
625.494
622.883
629.122
632.673
628.453
628.364
628.686
638.359
636.253
635.603
627.729
638.701
637.600
631.566
636.942
633.795
636.079
650.321
644.311
651.370
647.858
650.368
645.941
641.961
654.288
652.508
657.360
655.923
656.819
658.988
660.870
661.394
660.255
654.811
667.278
661.812
656.839
659.972
668.269
667.450
674.110
663.928
670.307
667.561
666.155
671.169
667.248
676.301
675.753
673.279
683.369
682.362
686.644
684.475
691.824
682.383
685.281
680.758
687.849
691.459
683.321
692.954
684.886
696.947
689.730
696.667
699.880
702.680
691.627
705.242
700.475
704.290
697.789
705.809
702.555
711.475
714.987
706.792
716.979
707.134
714.727
707.913
710.583
718.849
709.754
719.100
724.923
724.549
719.695
727.680
719.728
720.815
728.461
726.382
727.219
730.659
725.349
733.486
724.204
729.826
726.800
741.872
736.739
736.955
736.650
735.462
732.832
736.809
740.110
740.760
748.822
753.597
743.277
746.276
746.213
742.670
753.124
752.208
752.579
758.257
757.947
759.783
761.133
756.301
762.025
756.771
768.418
765.425
765.392
766.181
771.853
768.439
776.302
770.664
764.226
770.593
767.712
769.240
780.890
774.048
781.782
785.081
777.873
777.753
779.364
788.007
776.870
787.789
793.732
782.680
786.817
791.029
792.131
784.377
785.498
802.194
791.672
796.539
794.953
793.246
803.948
800.515
805.522
807.411
797.759
798.046
809.830
801.817
806.851
809.537
817.997
815.740
810.425
809.642
812.893
812.296
822.671
813.761
821.052
817.220
828.003
830.686
818.490
818.543
822.499
834.538
826.062
826.563
823.818
835.618
832.463
829.453
842.553
834.128
839.960
845.848
841.631
842.871
840.220
846.182
845.587
846.014
844.939
849.789
843.606
855.723
853.757
850.422
852.601
857.167
857.947
859.585
858.544
851.125
863.285
861.683
855.606
867.787
866.418
859.394
871.124
858.926
862.497
867.830
862.499
875.969
873.136
868.065
878.041
873.817
876.930
871.414
872.588
873.470
884.184
874.464
883.078
887.183
885.131
876.975
880.561
878.966
882.675
891.207
881.992
892.641
893.468
899.752
891.450
902.099
892.862
903.491
899.642
904.595
900.680
895.999
900.454
904.775
908.334
910.798
905.170
910.438
916.115
905.831
904.327
903.705
911.250
915.296
908.229
921.401
909.276
923.440
919.413
924.754
923.507
923.559
928.393
924.564
927.512
927.433
933.804
931.007
932.066
930.073
933.529
929.775
940.394
933.916
931.338
931.487
945.549
932.988
942.087
946.073
935.879
946.888
948.203
947.061
952.119
948.407
949.668
945.739
954.428
958.418
959.608
947.381
948.498
959.059
954.217
951.563
959.909
956.561
960.764
959.327
966.805
964.624
965.716
965.456
965.084
961.426
974.392
973.767
970.441
979.586
973.195
974.731
975.169
980.457
984.870
972.845
979.745
983.817
986.753
974.800
983.852
986.709
988.777
981.603
984.214
990.130
983.791
988.390
998.554
988.438
993.024
994.228
992.447
998.578
1006.320
996.454
995.919
1007.551
1005.544
1001.349
1008.939
1006.782
1012.777
1013.626
1009.337
1008.380
1008.159
1013.984
1005.783
1022.105
1017.915
1016.594
1015.267
1025.135
1022.919
1020.711
1019.200
1015.936
1017.276
1032.138
1033.584
1029.627
1034.185
1025.037
1028.146
1035.136
1039.593
1039.279
1040.052
1035.608
1036.051
1033.646
1039.663
1044.742
1032.728
1035.472
1039.934
1035.576
1042.516
1047.661
1041.777
1050.635
1044.055
1047.788
1044.301
1054.379
1056.772
1050.874
1048.086
1050.027
1053.035
1047.551
1045.881
1040.114
1035.925
1045.367
1034.767
1037.776
1035.964
1040.224
1028.918
1034.566
1033.927
1031.067
1037.090
1026.202
1025.085
1024.555
1022.631
1032.769
1028.022
1023.221
1022.743
1027.030
1025.712
1025.160
1027.892
1019.499
1023.185
1014.903
1023.350
1023.607
1016.362
1008.755
1020.429
1008.037
1018.540
1009.358
1012.083
1004.057
1006.522
1003.365
1000.157
1002.788
1009.190
1007.732
1001.239
1003.862
994.526
993.754
993.970
995.311
996.738
998.625
994.247
988.752
997.888
990.945
991.420
993.193
989.028
990.945
979.595
981.563
983.109
982.311
973.078
982.655
979.139
983.089
982.188
979.224
977.233
975.248
965.139
969.461
968.973
964.889
961.131
971.173
968.890
964.149
971.983
970.480
961.929
968.586
967.348
963.645
963.737
953.720
957.527
955.829
960.627
960.097
952.130
949.138
947.264
949.432
947.856
942.619
952.978
946.814
938.292
938.720
950.315
945.928
940.597
948.096
942.674
934.244
933.065
936.582
942.170
935.539
940.606
932.406
923.182
935.811
924.694
921.929
934.485
932.446
926.990
931.323
919.383
922.679
918.287
916.263
913.618
912.629
917.366
922.175
913.229
910.129
905.750
908.035
916.198
903.652
909.591
903.846
909.774
900.458
908.035
908.837
908.641
900.972
907.984
905.543
896.622
897.115
896.942
899.758
890.911
898.247
888.025
884.294
895.410
888.784
887.210
892.080
887.424
891.822
877.754
890.807
889.500
877.329
886.817
886.504
884.544
874.781
884.145
875.777
870.192
878.980
870.196
878.863
866.025
868.420
873.541
871.949
864.942
866.841
861.809
870.308
857.744
857.232
854.464
858.795
859.339
851.746
853.431
854.665
858.584
850.851
848.418
77.176
65.258
57.705
69.176
74.951
72.131
69.413
54.769
65.343
65.373
62.890
70.345
77.702
63.722
53.084
64.182
78.675
65.024
53.457
72.612
70.955
64.485
70.077
56.930
62.847
55.522
73.650
56.761
73.221
63.487
55.342
53.133
74.157
53.808
76.783
74.442
77.248
69.976
66.128
62.531
64.013
53.635
53.149
77.461
61.438
53.100
59.767
179.652
208.676
175.116
179.291
190.155
208.858
234.421
190.840
201.274
183.071
172.034
255.865
227.787
263.842
210.715
196.403
205.523
253.243
257.972
220.633
232.313
234.507
250.049
263.980
217.962
224.487
171.836
195.791
240.577
229.909
230.214
250.736
193.471
186.420
241.694
180.358
200.446
195.523
260.279
258.968
224.102
173.080
258.430
175.939
257.485
174.420
207.279
227.096
215.002
220.165
189.636
214.857
255.941
121.045
132.738
123.430
111.170
143.388
145.613
140.270
138.966
105.804
114.578
139.875
105.270
104.323
122.054
145.449
107.707
104.828
111.885
126.971
110.145
119.652
130.480
142.963
116.956
124.125
104.502
112.352
140.913
105.031
126.177
129.021
142.540
118.631
129.127
133.377
119.263
135.358
102.129
142.782
129.673
109.322
136.135
141.585
98.206
114.267
144.399
134.651
130.501
120.713
133.468
113.867
136.072
141.102
119.316
132.722
115.631
139.791
127.342
145.422
132.192
100.017
111.309
131.124
144.852
125.727
101.202
121.099
120.919
116.521
97.314
110.834
140.647
141.813
133.623
122.636
104.883
110.501
110.748
101.187
124.791
116.091
97.510
137.743
105.188
107.385
126.107
121.959
114.740
120.202
113.054
136.742
134.171
100.864
105.259
131.159
146.529
111.848
135.132
121.986
100.718
129.947
115.171
104.961
115.980
97.405
120.520
104.905
145.077
112.534
111.984
104.346
112.907
115.760
138.893
107.568
124.243
133.166
125.690
95.532
112.454
145.228
103.521
106.801
113.767
138.333
126.954
124.741
99.034
103.461
142.202
145.651
127.077
127.985
115.483
138.365
95.642
120.112
105.183
111.579
143.768
134.922
146.061
131.005
127.478
107.883
145.030
134.225
143.132
137.926
104.294
144.891
137.887
120.608
145.255
95.321
99.868
134.886
110.471
107.749
96.970
107.486
125.213
105.623
144.014
108.926
139.330
110.201
106.822
122.442
115.154
110.840
100.528
126.469
127.084
133.045
146.590
103.733
124.427
144.363
129.503
118.755
110.684
120.487
118.644
134.534
105.118
139.695
140.694
123.999
111.847
116.754
110.116
137.241
124.464
142.471
109.327
143.851
126.288
98.532
107.207
134.413
126.855
144.008
133.278
104.956
98.061
144.452
102.881
146.769
129.421
98.516
111.460
142.750
110.377
137.555
101.135
96.856
143.202
113.747
99.355
128.456
132.349
106.779
99.083
114.867
98.403
115.831
128.773
104.469
97.654
143.324
122.111
108.527
135.978
101.605
107.989
107.394
129.585
126.480
115.786
111.244
101.079
101.042
137.206
100.301
145.053
127.153
135.234
100.782
117.747
108.047
103.999
130.004
101.072
138.397
112.027
135.045
99.396
123.086
96.853
145.928
103.457
140.380
139.969
123.289
127.372
109.884
131.788
119.165
106.263
141.065
131.519
97.689
109.186
131.624
139.750
110.378
96.682
111.838
116.511
143.233
111.128
102.957
121.364
122.580
105.823
133.807
113.612
94.814
108.675
122.486
134.315
134.917
124.550
103.919
113.504
125.079
113.946
132.971
132.767
102.565
140.188
126.231
113.474
98.817
103.056
124.269
122.354
124.261
122.723
99.444
118.948
139.839
123.890
134.250
123.178
121.740
109.021
120.505
104.795
144.830
103.584
128.603
141.088
107.042
131.346
123.105
137.888
145.504
112.193
108.799
145.076
120.897
99.512
108.939
137.323
97.063
126.955
131.459
126.253
141.226
100.921
99.487
134.335
115.863
129.712
101.834
107.272
104.549
134.514
110.752
130.085
126.722
143.394
140.738
136.459
131.829
109.692
115.520
139.081
103.686
130.360
128.730
100.792
145.789
136.745
116.188
119.366
103.778
134.413
101.498
98.775
96.627
106.136
145.879
133.328
142.368
138.672
141.670
107.339
99.003
102.833
95.314
124.956
120.436
134.824
137.654
136.964
111.883
146.133
126.310
144.148
138.530
108.083
123.734
101.487
111.797
106.751
137.711
119.644
141.730
143.870
96.464
126.546
128.650
146.750
136.460
100.786
115.086
138.640
107.112
105.803
134.694
108.033
132.624
144.392
113.671
105.273
144.453
95.033
125.055
99.441
117.374
118.056
131.859
125.506
105.026
122.707
139.274
116.118
140.184
109.039
102.593
145.980
142.809
103.181
134.147
121.088
111.273
107.681
127.146
116.809
130.923
134.728
109.680
118.764
109.949
112.876
122.740
94.989
114.849
118.641
144.436
108.975
125.918
126.800
129.787
115.573
115.179
104.091
98.952
131.712
119.635
106.825
110.695
136.272
140.227
111.537
110.506
103.317
127.284
138.444
110.383
129.344
133.661
143.901
96.863
105.138
120.663
117.821
131.876
117.218
109.916
117.205
138.342
139.889
135.397
126.335
99.100
114.610
130.567
137.072
118.858
119.723
127.981
100.080
105.998
123.279
120.041
117.543
134.234
105.363
101.709
101.740
146.254
111.618
119.761
122.011
128.853
109.915
124.234
124.217
95.646
143.644
120.373
96.244
115.348
97.430
139.021
135.887
140.186
116.404
118.607
130.399
100.988
110.979
98.151
115.573
145.249
126.034
115.745
122.433
110.077
94.785
98.439
108.076
127.418
129.526
146.419
96.487
105.530
142.428
117.672
121.570
110.542
98.836
143.546
132.082
128.275
124.319
113.594
142.748
124.966
134.438
105.647
110.056
136.958
103.158
131.389
145.229
123.191
145.815
141.553
118.949
110.735
110.874
129.442
131.331
106.112
130.794
138.813
104.981
130.559
99.371
96.200
129.202
138.830
101.626
113.550
100.827
104.195
136.089
144.186
107.734
98.876
120.822
120.269
127.678
119.708
126.771
114.678
134.538
99.755
143.328
119.745
145.874
145.620
143.119
138.375
126.071
120.564
103.900
108.473
115.639
114.648
106.576
123.462
127.599
132.870
101.253
103.454
131.739
117.581
141.404
130.150
96.973
114.898
95.193
102.373
118.188
132.183
132.334
101.602
117.043
104.791
98.812
97.857
115.016
144.851
112.977
111.294
123.338
99.685
138.249
112.697
128.480
146.323
106.851
130.240
104.892
119.245
98.480
137.608
128.439
128.945
128.216
96.285
139.368
131.598
141.781
137.543
125.709
125.507
135.022
145.569
141.148
115.073
106.912
132.957
116.321
118.685
97.631
131.085
96.369
117.924
121.034
101.261
103.379
120.170
105.936
117.107
138.915
133.588
104.727
100.872
132.426
97.586
105.336
145.584
138.447
124.095
119.141
113.665
111.546
105.003
136.587
142.926
135.782
142.642
132.909
133.739
111.030
119.570
100.967
122.804
131.476
142.313
110.289
116.942
136.965
140.091
100.628
132.292
131.540
132.948
140.813
133.333
109.291
113.540
122.774
133.351
127.387
110.001
132.201
108.760
121.375
121.624
98.715
112.618
112.850
109.545
102.330
137.824
99.187
105.581
134.967
96.470
139.144
102.903
111.642
107.555
124.260
98.878
106.972
122.182
94.834
111.695
125.801
117.353
126.937
132.061
100.619
130.932
119.810
135.989
133.194
123.870
146.049
144.118
123.393
122.937
134.529
117.330
99.754
116.121
116.476
105.260
111.380
122.988
121.353
113.499
145.414
108.121
138.408
144.991
106.717
