934.988
941.117
939.169
939.047
938.930
941.335
935.267
940.392
938.847
934.829
937.393
933.875
925.005
919.754
930.190
925.998
917.482
924.224
914.724
72.786
81.113
66.719
67.834
55.756
71.648
74.072
61.680
67.247
59.937
78.944
55.113
70.020
75.049
74.847
70.414
68.182
64.886
58.920
53.763
53.158
61.478
75.825
63.696
81.083
63.604
55.743
66.895
62.429
56.148
59.516
54.895
71.342
77.675
79.196
64.349
69.861
67.768
59.589
69.714
52.747
57.452
67.230
54.696
64.414
54.378
53.176
57.496
79.691
57.446
225.652
181.494
180.590
220.953
182.749
203.998
195.863
209.430
195.146
202.649
213.362
194.699
223.328
227.893
240.674
229.681
194.193
243.256
224.116
249.909
235.476
174.906
209.362
231.678
236.262
204.464
222.639
234.109
193.038
207.282
200.998
175.235
235.141
185.282
234.175
186.720
229.205
176.975
245.033
216.448
215.483
216.101
203.718
225.735
202.826
221.292
244.203
246.732
253.029
182.070
98.101
124.333
138.979
114.771
131.433
126.240
110.626
123.504
123.827
95.589
103.188
138.174
127.364
125.716
110.929
116.922
109.594
103.573
107.133
105.831
130.024
146.607
143.894
122.163
126.259
122.666
108.457
144.756
106.278
137.698
98.092
138.130
115.147
140.207
111.030
141.557
146.060
129.983
117.195
139.080
128.820
135.822
133.532
128.688
128.253
131.150
137.693
126.516
99.738
123.187
132.596
98.897
116.383
143.283
107.620
98.306
117.679
100.513
105.446
99.817
117.519
138.654
135.548
123.894
126.281
110.850
128.800
123.694
141.123
137.404
136.138
132.746
127.364
143.132
134.225
95.996
108.354
120.985
133.190
140.676
105.605
99.136
125.181
132.290
142.554
129.186
143.854
114.848
117.463
126.469
101.282
123.778
116.249
113.999
110.091
101.603
119.435
145.865
121.172
108.872
104.970
110.973
132.959
136.792
136.569
100.168
136.978
120.309
111.220
118.861
135.082
117.333
106.502
129.759
115.932
100.831
137.463
102.622
131.357
106.769
121.491
118.919
141.583
123.013
112.983
136.312
120.290
95.304
135.831
101.913
105.233
140.197
105.429
114.980
142.251
113.815
130.991
97.740
103.617
97.304
114.713
126.705
120.563
120.060
113.291
115.003
102.954
117.886
122.377
134.957
135.517
117.396
136.112
130.432
97.512
131.479
145.988
99.817
119.089
141.155
119.238
112.724
129.829
96.586
102.854
110.084
112.729
100.726
113.036
104.492
118.933
136.959
115.987
96.057
127.149
144.684
137.949
103.974
108.877
125.124
125.599
132.238
139.542
110.783
129.607
102.956
133.630
144.038
96.330
134.296
120.581
137.172
115.379
140.593
107.323
126.677
95.377
100.911
97.917
118.582
141.230
98.034
137.993
130.649
142.838
132.441
108.520
94.942
137.345
96.464
132.122
131.885
115.163
122.411
133.462
95.934
106.690
137.308
127.370
143.126
110.965
135.156
107.181
103.155
103.458
119.783
133.194
115.615
111.991
103.676
136.874
132.763
143.042
126.207
97.856
145.685
100.700
143.576
132.338
144.188
103.585
138.696
95.992
116.317
123.572
132.543
141.939
112.630
112.507
107.225
107.763
146.052
111.717
145.809
132.871
126.760
103.290
139.860
114.547
104.260
115.281
133.816
133.850
105.781
141.240
99.323
117.820
109.022
98.851
119.766
127.788
128.357
98.686
117.140
119.424
115.032
96.063
131.251
96.172
116.995
102.277
130.937
98.038
121.804
140.265
139.501
117.930
133.148
137.324
129.330
144.136
102.698
110.990
99.654
126.676
126.981
95.014
106.340
134.106
115.321
127.467
122.646
109.964
129.036
105.264
135.997
138.947
126.608
123.562
133.224
131.115
129.190
110.536
97.324
107.879
116.184
114.318
117.868
109.821
114.565
95.795
141.002
140.135
135.407
128.443
131.772
140.718
130.304
98.509
115.640
120.670
130.361
125.101
94.895
108.490
100.897
94.825
136.517
95.893
111.018
112.302
108.521
117.843
131.009
126.556
125.095
100.746
93.399
109.088
96.971
115.763
116.230
138.323
144.066
107.128
138.400
130.544
129.400
110.819
121.412
104.123
97.234
113.017
111.527
96.743
129.054
128.582
102.427
140.009
124.497
110.811
137.060
111.531
137.412
101.993
138.606
121.727
122.300
102.710
105.149
121.466
100.577
110.237
108.181
123.369
120.415
137.240
111.021
143.328
124.233
134.138
126.322
120.932
117.296
92.241
126.123
116.960
96.303
142.839
130.635
126.015
121.618
102.334
109.491
122.600
129.823
130.985
141.105
133.655
115.251
98.077
122.975
132.694
119.505
133.021
97.080
137.742
127.780
128.772
110.436
120.721
112.702
114.103
94.457
93.722
141.381
134.837
132.627
93.149
104.810
141.883
113.158
134.997
103.354
91.903
92.349
99.543
102.063
91.859
116.503
108.590
103.839
105.796
101.881
110.331
141.226
91.070
135.858
114.945
123.069
99.373
127.314
128.584
90.236
138.366
126.826
110.929
107.356
93.050
112.878
100.832
130.420
138.274
125.629
130.166
127.558
141.459
125.551
97.338
116.846
105.904
108.006
96.970
124.033
119.391
126.298
125.000
119.719
109.582
116.828
122.597
131.405
91.533
123.882
99.658
91.986
97.055
134.269
97.138
101.656
98.636
101.194
123.754
102.711
99.233
136.018
118.373
114.977
130.922
137.145
132.202
116.433
128.417
136.400
90.889
116.800
133.662
114.796
127.345
137.101
123.981
111.222
98.595
102.818
114.963
95.779
92.385
136.259
124.725
103.700
103.127
102.352
121.588
114.318
137.174
95.275
93.652
99.266
130.592
138.810
136.597
92.117
103.453
90.755
119.321
130.220
88.966
135.160
100.010
130.008
117.979
104.491
125.436
135.134
124.408
101.746
127.225
96.383
90.365
122.828
90.899
118.984
107.453
117.551
108.111
133.647
108.174
139.581
126.560
89.242
103.473
128.124
128.778
103.733
99.456
133.239
114.850
121.661
134.069
97.416
122.054
100.446
137.802
89.450
95.202
116.593
115.650
101.514
106.882
98.915
97.387
106.904
103.186
135.334
113.986
116.066
116.822
129.195
116.952
122.277
125.980
102.486
101.879
107.218
99.212
97.388
92.871
133.167
114.993
97.349
132.865
131.648
104.084
107.086
139.437
89.216
135.783
90.087
120.365
105.263
120.019
108.953
129.077
110.212
105.544
130.713
121.913
94.039
112.067
123.884
100.357
113.945
102.462
124.056
132.452
111.572
138.604
128.036
96.848
103.204
95.383
101.240
109.367
97.754
119.549
89.453
127.767
96.568
135.999
106.691
94.574
139.703
110.582
106.077
128.448
93.526
101.361
139.614
109.760
91.009
122.873
138.224
92.617
112.585
92.589
121.094
116.830
93.655
132.964
109.499
97.750
105.513
96.136
107.451
127.998
105.864
107.266
135.112
135.913
118.687
107.734
93.579
91.913
118.478
99.828
90.149
121.729
115.546
123.836
107.617
139.325
134.565
104.610
120.935
94.598
119.880
107.350
137.021
97.019
138.517
124.265
135.878
131.806
91.972
109.590
111.093
123.070
122.144
123.159
101.585
111.684
115.984
132.806
136.336
92.205
112.755
106.792
122.523
102.672
127.129
123.116
104.200
117.051
123.517
91.234
138.399
95.686
92.621
103.495
106.002
110.734
113.797
100.311
125.920
132.345
99.165
124.235
101.166
130.679
110.520
109.418
109.741
109.040
93.926
101.179
125.283
118.643
111.843
112.986
92.287
135.897
128.460
119.528
97.230
115.918
115.672
106.246
103.475
135.990
133.245
139.634
141.449
113.578
110.747
139.189
130.090
115.573
119.079
127.403
124.990
117.407
104.917
101.886
125.830
106.012
94.923
132.825
117.903
127.016
92.489
91.979
125.211
130.827
108.545
94.434
101.622
140.912
115.365
128.116
137.892
128.889
121.968
130.165
92.247
133.248
133.191
97.224
93.892
97.726
132.670
122.978
133.358
115.913
111.093
125.385
103.485
118.844
110.151
96.306
115.876
100.323
122.333
128.052
105.349
124.100
112.546
97.106
112.899
102.223
117.407
100.413
108.024
141.943
129.494
96.122
102.066
130.590
94.661
114.504
121.086
115.477
133.108
114.692
130.229
110.945
140.185
130.491
139.711
118.281
124.214
102.400
127.291
130.533
133.325
110.047
135.379
94.576
112.724
94.041
106.957
134.204
103.017
127.488
122.965
141.752
125.266
94.031
100.694
125.279
118.016
123.144
143.162
101.971
141.682
125.613
107.268
136.175
109.008
99.004
143.145
128.154
139.831
127.329
125.215
117.348
105.425
135.926
103.790
104.286
128.096
122.753
103.337
97.730
144.238
138.110
115.036
145.406
97.189
141.026
137.543
108.813
97.752
111.218
133.349
128.264
123.348
132.197
117.950
100.488
100.309
111.248
118.141
141.714
100.097
128.821
128.970
138.660
109.097
102.439
119.515
108.965
139.352
103.834
118.907
113.740
111.067
114.599
140.913
96.966
103.080
129.568
118.104
108.189
95.144
127.246
111.253
119.485
122.722
120.299
111.735
122.006
130.595
114.125
101.303
126.874
111.965
101.808
140.493
121.225
106.822
106.359
142.904
111.408
94.292
114.246
104.989
142.906
130.591
94.916
94.193
93.644
134.060
130.648
142.196
96.899
104.461
112.162
144.770
133.736
96.170
123.475
97.630
95.568
137.888
103.633
96.973
141.400
141.939
138.140
123.399
109.979
131.113
116.675
93.704
93.476
98.483
138.332
106.564
105.643
136.906
108.549
107.973
135.085
126.510
106.963
121.709
142.277
113.274
125.154
114.807
106.142
101.027
108.529
96.512
113.690
107.760
97.036
132.224
132.664
106.333
97.234
137.912
99.392
106.768
108.911
129.910
141.659
98.636
106.712
131.724
95.693
110.179
121.698
102.918
104.927
142.144
116.200
129.933
133.104
109.267
95.797
101.281
137.378
107.556
113.201
106.708
122.642
120.702
102.494
108.756
141.172
114.124
133.416
99.753
99.932
115.456
110.275
129.306
133.252
98.018
122.529
140.266
120.196
104.724
131.560
119.145
101.699
118.749
116.018
91.226
137.299
117.516
135.040
114.978
127.846
99.013
118.439
123.270
91.956
139.169
117.024
139.539
109.557
109.622
137.202
132.768
119.911
129.178
114.954
141.251
117.582
90.712
116.946
118.421
119.763
116.562
112.182
116.341
134.997
121.938
112.820
115.762
99.301
131.993
91.324
120.332
100.984
133.677
119.979
128.592
110.642
140.246
118.532
109.433
132.031
140.438
127.334
91.404
132.004
92.236
91.024
102.187
116.806
117.635
130.437
112.358
126.858
103.744
120.136
140.318
93.750
136.500
89.952
121.334
111.707
125.260
97.846
91.869
119.183
115.573
121.876
111.544
130.643
93.271
96.005
98.656
102.190
112.206
91.602
103.134
95.454
121.507
98.410
90.377
112.043
117.112
113.917
105.971
99.549
135.888
89.821
136.439
122.798
132.483
136.248
125.408
124.603
99.523
119.201
105.368
127.716
130.086
127.323
94.278
129.983
105.907
118.954
136.457
99.456
112.533
105.435
139.704
121.292
110.834
114.929
124.547
111.792
121.904
124.710
123.653
105.027
136.437
124.671
115.624
95.840
110.186
135.424
131.204
96.111
116.785
99.658
97.193
96.971
114.495
121.760
132.942
117.456
123.907
115.394
96.099
128.431
106.082
129.031
132.072
112.900
111.650
134.320
140.426
121.831
111.949
142.844
119.002
109.174
110.136
139.371
92.677
122.127
92.894
91.693
96.053
94.770
131.761
123.340
104.530
105.836
99.955
91.854
109.711
92.395
142.891
115.793
100.389
110.923
135.070
142.958
99.664
140.584
122.058
137.619
109.713
111.969
120.855
118.878
107.109
109.815
102.117
104.535
94.115
101.058
118.933
117.627
106.513
109.343
97.447
123.042
129.788
125.710
106.121
115.620
133.258
144.274
137.692
138.417
117.375
138.501
133.106
112.919
117.679
141.209
139.935
125.242
136.368
99.792
129.051
117.204
134.013
138.275
129.353
105.991
129.718
130.888
108.631
127.771
128.369
141.050
124.112
109.491
102.942
125.649
104.729
124.856
118.157
106.521
118.737
98.771
142.058
128.108
131.124
113.137
121.554
97.344
119.125
134.167
125.118
105.541
121.524
107.475
119.676
124.635
126.492
126.571
138.124
120.055
119.696
125.237
107.096
120.397
98.249
100.799
127.616
129.878
143.427
144.248
105.298
102.916
105.073
115.287
117.855
123.745
120.308
95.850
108.884
131.762
120.442
116.937
99.495
112.036
113.515
109.512
103.665
111.495
105.444
111.536
104.119
108.307
95.175
142.337
143.959
105.117
122.652
117.321
131.611
103.891
102.930
115.320
117.107
123.884
145.386
130.182
99.809
110.193
115.256
129.910
122.915
111.365
108.850
121.530
135.618
99.309
146.118
110.898
145.924
96.924
131.393
118.408
121.391
136.641
126.541
135.398
125.560
130.702
114.759
105.196
102.207
100.472
104.627
99.974
96.453
109.334
103.893
130.639
127.988
141.529
120.672
100.330
138.867
107.255
114.014
122.630
116.644
116.119
117.007
113.391
108.904
135.259
115.521
127.487
115.693
98.355
121.873
120.518
144.661
100.941
117.711
125.261
108.222
100.429
143.061
95.658
98.301
133.093
134.949
105.317
125.535
133.524
140.994
97.269
116.110
127.609
138.081
112.398
131.964
121.308
124.348
137.675
115.717
102.338
123.994
99.888
107.569
125.078
122.198
112.507
135.615
146.608
99.914
122.569
105.888
99.672
140.698
137.031
132.984
107.778
124.266
105.703
141.754
135.773
143.190
129.103
130.248
114.435
110.747
128.266
97.066
138.314
122.591
138.875
128.563
99.446
126.469
141.003
118.796
104.997
120.682
138.638
138.051
101.155
98.729
143.231
130.699
102.956
99.020
113.181
117.168
111.747
144.540
129.782
141.074
126.535
97.227
134.957
136.824
135.688
116.536
141.030
123.961
112.810
96.229
116.966
137.824
110.836
111.281
144.949
140.442
121.128
106.816
137.771
106.809
122.316
108.708
145.559
121.912
131.827
142.790
133.514
134.728
139.673
137.810
124.240
106.172
133.353
133.134
135.780
128.922
139.266
103.590
141.428
141.647
126.915
115.043
108.918
138.568
108.258
101.513
121.145
137.271
102.676
135.427
108.193
110.203
97.164
139.073
129.288
134.670
142.880
110.804
98.963
139.149
132.095
97.084
112.828
119.345
137.822
121.012
95.476
97.938
115.828
107.306
94.752
95.030
137.368
120.043
103.726
110.525
105.069
97.770
110.549
105.456
134.820
106.408
98.101
97.976
99.824
125.823
143.791
114.436
126.601
119.595
107.499
137.832
135.826
110.076
123.600
94.692
109.204
117.410
108.003
131.029
125.819
137.705
137.751
135.034
135.686
98.109
130.115
112.200
108.974
104.290
108.892
97.019
130.218
94.128
143.283
131.908
132.675
125.333
115.990
123.325
139.385
100.720
107.809
140.459
117.345
101.665
107.038
111.314
101.971
138.598
133.231
99.995
97.162
132.941
95.022
115.743
112.170
130.308
110.481
110.641
129.353
132.112
102.127
137.209
97.623
92.252
133.708
106.556
140.613
129.358
99.969
105.051
93.886
107.847
118.840
123.144
129.183
118.052
92.490
122.134
93.117
95.409
107.646
130.663
126.438
96.026
121.527
99.132
127.711
115.602
123.523
99.935
136.742
113.412
108.360
123.704
126.640
112.592
112.664
111.035
103.482
113.030
127.656
127.607
93.346
133.530
106.629
113.749
103.937
115.738
99.938
106.741
116.207
138.262
90.603
139.818
98.039
136.803
132.551
101.193
91.717
109.455
127.871
110.038
109.999
109.539
132.608
132.864
117.416
138.604
105.715
90.388
99.966
95.684
121.712
104.662
100.903
127.714
118.378
97.839
101.920
132.028
97.591
105.069
98.674
103.437
98.814
116.429
107.796
116.335
106.155
124.353
106.789
126.223
90.106
107.696
121.383
114.407
131.019
110.122
111.186
106.979
89.776
129.551
101.461
128.058
104.716
132.065
138.183
97.429
90.791
107.492
89.132
108.135
113.251
92.937
120.706
114.540
108.698
129.893
108.078
118.969
91.430
100.758
120.899
112.318
136.249
100.831
91.657
120.527
136.913
125.471
116.393
122.667
109.585
138.498
121.913
103.516
115.657
118.097
135.831
103.522
139.827
126.691
93.121
120.922
116.777
142.114
135.925
100.417
101.163
102.319
105.053
118.866
127.032
137.342
127.748
113.228
104.115
123.339
100.169
125.676
98.398
128.395
124.237
137.553
141.342
142.532
99.291
118.659
118.229
135.153
119.709
96.788
98.777
113.701
113.649
100.813
101.846
120.838
131.513
127.276
104.709
133.903
107.507
131.095
135.671
101.560
141.197
98.736
120.369
112.448
136.467
131.419
142.998
125.552
126.467
97.745
108.533
133.951
111.606
125.109
111.039
93.214
129.530
132.099
124.014
101.099
98.902
135.582
117.922
92.445
117.328
95.898
135.699
92.448
125.979
130.207
123.367
134.083
142.661
137.811
110.486
125.265
120.905
95.233
108.246
125.360
120.699
101.874
104.496
123.042
137.353
143.257
102.448
139.063
109.278
98.906
127.008
123.201
113.789
99.231
120.119
129.128
129.897
100.817
132.830
97.745
135.715
98.207
111.038
118.875
94.075
144.897
125.020
131.040
118.288
120.973
123.488
98.239
144.964
143.099
98.670
105.173
117.583
135.423
115.544
101.468
117.535
97.575
94.487
145.090
121.018
