817.450
807.972
808.563
810.726
808.715
813.573
802.682
803.199
801.760
800.211
792.802
795.675
796.566
789.936
790.364
797.083
797.656
783.418
788.116
789.540
784.532
789.029
792.558
781.574
781.694
778.131
772.574
778.575
772.965
782.283
779.416
781.185
768.381
764.439
763.670
770.623
773.260
772.252
756.974
761.869
764.129
758.198
760.511
751.024
751.071
748.409
761.915
760.971
749.795
750.415
755.157
746.989
742.337
749.433
741.959
747.893
741.654
746.743
744.080
739.549
733.827
742.176
734.504
725.695
724.913
729.888
731.032
733.295
723.412
725.512
729.303
721.010
717.717
723.177
717.878
719.073
723.825
713.879
712.896
713.888
708.728
706.902
707.691
714.837
699.997
698.144
709.789
709.128
704.653
696.740
704.287
702.022
691.643
697.009
690.563
694.032
690.983
683.576
684.105
689.324
679.719
684.691
686.909
680.251
688.165
677.382
680.209
684.221
670.840
672.364
670.000
678.880
669.803
676.999
674.227
674.999
668.325
667.093
662.942
670.683
665.883
666.990
662.218
660.985
651.685
658.745
648.557
648.205
651.175
656.189
642.175
651.724
645.660
652.106
646.002
655.339
648.595
661.684
653.111
664.476
657.205
656.523
659.014
669.055
659.297
664.673
667.843
671.048
676.531
668.799
669.011
671.823
681.307
685.327
678.125
688.367
686.879
689.703
682.666
691.834
689.604
694.292
690.562
691.219
693.700
705.435
707.060
708.857
699.288
700.681
708.530
717.326
708.721
717.354
711.641
718.257
722.891
716.500
723.353
723.927
724.365
719.778
731.532
723.139
728.894
734.100
732.878
738.776
738.659
743.583
732.327
738.811
737.995
741.017
742.810
742.404
748.271
751.068
753.804
759.752
754.027
751.889
764.825
764.048
766.814
768.893
761.674
760.685
766.234
772.947
777.792
779.578
772.419
782.418
780.282
783.799
783.142
787.299
785.419
786.130
792.229
783.010
790.389
792.754
795.090
789.008
802.342
801.149
794.346
808.567
800.920
805.278
812.172
814.768
805.407
817.274
817.831
821.667
820.934
814.603
823.411
818.637
829.431
818.451
833.064
829.326
829.820
827.247
838.135
829.970
829.201
833.405
847.049
833.903
837.266
843.743
840.580
841.207
849.564
851.255
859.536
850.975
860.546
861.724
864.602
863.430
868.830
862.402
857.478
868.229
871.293
866.893
865.244
873.383
879.900
875.823
877.162
884.589
876.026
882.058
885.665
878.568
882.929
894.548
894.224
888.069
898.223
896.695
902.638
903.506
894.322
903.162
898.295
899.985
905.208
909.706
902.903
907.108
915.964
908.835
923.513
910.155
925.668
927.650
919.803
918.004
924.283
931.021
923.209
929.995
935.906
939.460
942.983
939.642
935.094
940.167
935.082
948.203
939.264
941.181
952.991
954.462
956.666
955.123
960.214
959.040
950.454
954.244
968.799
960.880
959.510
972.984
967.020
969.792
965.279
967.571
971.024
959.274
961.703
955.149
963.390
962.422
963.804
949.772
954.116
951.976
960.016
947.850
956.052
952.066
945.361
942.460
942.621
953.116
942.469
951.636
951.970
946.791
938.344
941.467
941.220
940.973
941.996
943.340
929.579
928.715
932.561
932.957
936.487
938.959
927.210
927.527
922.482
935.076
921.537
930.755
916.779
919.930
921.938
921.018
917.786
913.391
919.755
918.751
915.154
913.931
909.042
918.246
913.544
917.742
914.551
902.352
903.985
900.100
913.928
911.433
907.866
900.668
904.889
908.040
902.552
897.392
896.784
895.864
894.999
902.408
892.197
899.757
900.665
891.065
894.960
884.480
896.409
883.989
888.220
893.075
882.325
880.659
885.081
879.552
876.848
887.721
877.438
873.233
876.398
871.389
875.889
868.814
865.369
871.709
867.091
877.183
868.907
865.375
865.983
863.555
864.817
867.983
863.601
865.738
853.176
854.616
858.892
857.458
858.702
854.781
860.698
849.455
851.786
851.754
850.557
843.175
849.290
844.958
852.846
841.508
849.096
849.910
846.550
844.136
840.583
841.034
845.779
843.848
834.777
834.487
832.801
828.324
838.106
833.368
826.309
830.651
829.793
825.816
834.219
833.409
826.468
828.197
823.972
824.937
813.772
821.363
827.102
820.391
810.227
810.942
816.215
809.723
815.560
805.150
819.519
807.720
810.463
809.520
803.282
812.393
811.548
802.255
801.477
798.422
808.836
793.758
806.379
793.870
790.031
802.965
799.485
793.089
786.856
791.764
791.645
798.417
784.818
791.261
791.795
779.754
786.603
792.026
790.278
779.414
776.844
785.761
775.165
779.298
771.655
782.707
783.801
769.974
780.674
773.337
775.567
770.188
774.947
764.447
763.431
774.706
767.148
773.288
769.657
773.431
769.436
759.607
769.337
761.562
763.889
766.259
767.630
770.067
768.462
768.687
769.325
766.989
759.022
758.946
756.531
758.849
755.843
761.757
754.541
755.041
757.392
752.066
750.990
759.914
760.704
758.013
748.238
760.534
757.374
752.539
755.664
757.701
750.039
749.008
750.689
745.015
756.875
746.882
751.535
747.244
743.561
751.846
743.459
746.562
743.472
747.340
752.572
741.983
743.348
744.187
749.809
738.868
735.136
738.178
733.343
738.805
740.236
732.015
732.262
746.816
743.697
738.312
731.356
742.860
738.683
742.401
736.697
742.977
732.078
729.706
733.606
727.152
734.766
737.955
724.446
726.491
723.711
726.770
725.558
730.403
731.129
733.559
721.585
733.048
722.760
720.721
730.334
729.818
726.337
726.436
719.032
719.217
715.929
723.019
729.079
720.399
719.794
713.354
728.445
727.166
717.814
718.577
717.353
717.745
719.994
722.585
720.239
710.416
709.361
707.527
714.195
707.049
712.647
720.992
711.271
719.440
720.048
708.633
717.266
715.223
710.730
710.349
703.449
704.462
714.136
708.309
706.691
707.151
703.803
706.533
702.495
708.290
711.640
708.411
711.088
706.908
708.356
701.215
694.167
693.516
695.884
692.595
694.107
692.241
705.172
700.398
698.285
703.221
694.819
703.189
694.047
690.183
697.969
692.842
700.088
691.717
693.293
690.786
691.844
685.748
684.316
692.422
690.368
694.595
684.729
684.067
692.623
690.977
690.369
694.075
687.364
679.438
682.658
685.646
682.899
681.123
680.739
688.085
688.628
684.826
685.615
685.859
683.481
686.051
683.606
685.566
682.720
677.429
676.456
682.254
669.594
683.245
680.382
669.145
672.360
677.952
677.206
673.249
665.161
662.340
665.506
669.605
664.963
670.094
655.592
655.962
658.794
657.604
659.625
653.890
647.506
657.298
656.621
654.512
647.343
642.898
647.522
650.155
645.165
643.710
634.467
639.077
643.702
630.765
638.202
641.868
633.273
634.745
627.972
623.979
624.192
620.894
621.669
624.280
630.473
629.887
617.420
626.216
614.339
620.016
616.620
618.843
610.932
613.638
617.338
616.300
608.630
615.705
609.908
604.097
604.926
596.413
608.437
609.535
601.573
605.549
593.251
601.062
589.761
588.567
597.632
584.522
584.922
593.987
589.834
581.724
589.941
587.330
580.896
575.927
588.262
578.192
581.414
576.507
582.508
576.559
572.047
577.185
566.074
563.374
571.947
570.134
572.615
566.402
570.457
565.025
560.389
561.071
554.229
557.716
552.597
549.266
548.670
559.820
549.232
543.777
542.665
550.306
547.298
551.175
549.295
542.529
546.008
547.022
533.545
533.472
534.915
533.724
531.667
540.807
538.975
525.981
526.679
532.586
527.497
522.966
530.993
518.303
528.041
523.434
514.398
520.413
516.017
523.596
519.439
520.971
512.688
511.196
512.781
510.186
511.544
506.723
506.609
507.200
509.082
496.532
500.131
507.277
500.805
493.494
489.368
499.908
494.870
496.965
494.637
497.386
481.359
494.769
490.391
487.454
479.069
481.738
476.072
477.504
481.940
472.210
480.383
473.596
477.949
468.639
471.216
464.356
468.856
475.241
474.161
469.133
467.144
457.727
460.298
452.480
462.841
458.953
460.403
461.416
455.622
446.472
446.091
453.520
451.626
446.190
446.518
450.069
441.435
436.021
441.103
439.105
434.632
432.746
442.791
438.895
442.164
426.864
436.093
435.151
427.742
439.594
432.963
434.347
435.761
438.405
440.568
452.046
444.839
444.729
448.998
446.081
450.265
456.446
447.502
451.949
454.913
450.554
451.975
463.591
467.318
466.674
463.648
461.682
475.464
466.120
473.101
474.770
466.841
470.591
474.787
474.801
473.706
478.622
487.155
487.801
491.670
486.716
487.437
486.098
489.130
486.304
494.438
490.163
502.626
502.177
495.112
492.365
500.513
506.848
507.470
499.266
501.971
512.135
515.257
516.230
520.076
509.047
522.301
522.506
516.387
522.147
526.164
522.021
528.876
525.033
531.003
528.498
527.246
533.159
524.555
536.493
542.405
536.508
531.701
536.683
537.340
537.928
541.510
549.534
548.574
548.455
549.004
551.903
544.820
554.889
549.966
557.019
556.578
553.037
565.854
556.527
568.550
568.025
561.645
568.755
562.945
570.187
574.652
567.058
573.727
577.788
570.563
571.871
573.107
581.564
587.042
583.989
578.940
580.131
585.243
592.472
596.272
584.712
599.417
602.211
589.604
593.301
592.595
593.794
598.966
607.495
601.331
613.148
608.884
611.997
611.121
613.944
613.395
617.742
620.422
615.097
612.695
618.983
627.597
624.261
630.178
620.091
628.002
628.707
624.626
635.111
629.011
630.733
637.591
637.436
630.448
633.633
647.451
644.538
644.753
637.075
642.018
641.482
650.105
645.616
651.582
645.047
659.052
650.847
655.155
662.333
657.110
655.524
663.149
662.639
668.079
668.310
664.901
671.935
672.232
667.556
667.043
669.293
678.218
676.425
682.495
677.933
687.377
684.714
680.153
691.871
680.953
683.781
695.939
686.234
693.004
690.370
693.579
695.494
691.501
702.961
704.706
710.670
708.298
713.248
705.612
710.093
704.880
705.958
700.509
695.620
698.059
690.018
700.231
685.313
695.422
690.905
677.297
676.652
681.513
673.859
677.942
673.216
670.219
657.441
663.655
664.469
651.516
650.914
653.884
649.410
647.343
634.423
634.904
629.565
625.963
625.533
625.016
628.709
624.763
620.187
611.890
607.121
604.735
608.737
607.150
595.283
598.967
595.469
589.952
595.000
589.233
581.829
575.077
574.334
576.203
581.865
577.693
569.086
560.521
562.847
564.839
560.579
556.506
554.280
546.670
543.492
550.843
536.282
532.239
543.265
526.420
531.591
533.096
519.664
516.508
520.759
523.113
521.609
513.315
505.820
509.799
509.328
502.442
494.314
494.102
493.489
494.745
482.719
485.217
473.233
470.486
478.596
467.189
466.896
473.069
468.413
453.966
463.004
457.888
453.372
447.513
441.789
447.875
443.916
433.000
441.535
429.236
428.638
430.974
425.512
425.815
412.600
418.915
412.337
415.148
416.452
412.231
410.779
398.021
404.999
388.998
400.211
386.961
389.387
388.217
378.724
372.688
372.829
368.580
367.588
361.858
370.493
359.767
355.454
360.873
359.107
352.426
351.880
353.124
338.125
345.172
343.533
329.989
329.134
322.767
330.377
317.199
319.517
316.128
309.727
311.385
310.190
304.931
297.837
303.154
300.174
298.195
287.413
282.820
287.221
285.062
276.944
285.659
276.325
280.583
275.940
267.447
270.672
256.917
261.302
255.535
260.275
245.024
256.172
243.293
250.385
239.785
235.796
243.473
231.771
236.057
230.305
230.460
229.151
220.104
220.653
215.804
204.961
214.245
203.197
204.167
197.921
192.521
190.883
186.225
193.890
178.381
186.286
187.998
172.219
176.694
179.480
170.089
160.269
160.167
158.569
159.258
159.178
162.040
150.327
158.264
162.715
156.376
153.185
161.734
157.769
160.643
158.612
159.874
152.997
157.456
155.359
150.709
158.025
153.951
149.655
146.227
142.523
144.475
143.234
143.601
143.774
143.828
139.127
153.485
147.595
143.625
151.798
143.629
145.176
148.244
143.240
136.305
145.186
137.644
142.311
141.911
139.922
131.902
462.186
444.091
447.388
459.979
450.589
457.286
424.927
449.670
435.522
434.121
442.588
440.626
452.125
443.822
405.371
443.160
434.730
407.676
406.743
409.350
427.276
399.832
433.839
431.910
426.022
391.748
412.047
390.750
419.985
433.124
383.191
402.068
423.153
395.015
405.622
379.577
397.369
377.653
388.926
368.007
380.977
364.107
388.404
373.293
375.954
386.201
380.858
372.209
359.655
361.820
376.746
395.541
355.614
348.369
366.786
344.640
370.648
341.989
382.630
376.794
342.988
339.527
366.605
377.023
375.115
331.314
334.240
355.196
326.510
343.361
360.492
329.359
343.457
323.214
316.564
357.528
358.957
341.628
317.625
308.709
326.927
316.296
327.865
308.855
334.559
334.256
337.919
301.911
331.421
324.554
315.578
316.858
306.943
305.533
329.471
316.139
281.908
306.746
287.841
290.851
319.374
310.410
275.124
315.244
318.814
296.812
302.260
295.913
294.224
295.860
304.909
283.101
306.468
299.612
265.048
264.714
265.135
283.636
264.702
278.367
293.077
272.698
251.628
281.629
246.780
289.546
288.107
284.483
278.136
279.001
246.916
238.659
250.198
251.698
248.595
245.658
268.117
222.878
223.459
248.549
230.657
217.068
233.240
214.440
211.017
222.639
221.291
252.710
217.114
215.850
214.981
241.303
249.364
219.331
221.541
232.878
195.433
196.875
217.143
219.011
191.525
206.843
232.243
241.503
207.815
213.116
235.880
208.781
232.919
213.305
213.654
212.656
219.732
235.253
200.620
233.362
197.739
235.925
229.234
222.014
222.953
216.704
205.941
224.481
220.993
193.412
234.656
227.389
206.650
213.466
233.703
210.785
191.495
210.169
233.208
223.541
194.636
234.514
192.010
207.532
194.079
192.739
209.413
210.640
210.844
220.244
193.297
221.714
195.626
228.065
233.776
238.699
201.360
219.941
235.957
196.017
218.966
235.394
190.622
227.085
197.428
200.466
206.712
193.520
212.467
229.706
213.678
203.043
233.219
224.075
240.366
208.906
227.157
232.373
214.536
235.852
218.415
237.270
235.907
216.808
203.844
200.315
224.066
208.551
202.919
224.736
206.160
217.812
225.826
207.351
222.332
217.593
238.705
199.994
222.247
197.893
235.071
199.678
192.808
214.432
217.713
195.928
241.835
205.347
199.949
241.753
234.407
210.156
202.692
196.591
238.105
232.597
217.711
191.663
198.666
196.418
223.572
206.097
200.865
231.218
214.082
228.699
224.847
216.587
199.066
218.249
230.604
204.957
217.702
234.385
227.533
222.029
215.845
216.830
227.274
214.776
213.149
237.435
235.822
218.214
209.438
229.147
191.732
221.691
213.799
237.599
235.989
204.125
209.118
229.000
204.475
202.387
220.958
235.228
224.579
202.619
236.774
222.520
218.831
231.000
198.405
210.144
236.812
238.145
192.743
210.018
196.961
228.630
197.266
231.435
220.421
240.513
197.556
200.400
229.392
230.386
223.412
212.588
228.344
238.933
202.189
232.643
203.345
213.009
238.315
240.624
242.011
213.823
205.858
226.625
201.398
218.856
226.349
205.376
240.297
210.056
237.744
98.014
132.558
134.127
121.223
105.880
95.724
98.659
135.661
132.801
123.976
124.605
140.951
110.607
109.389
111.836
141.742
106.361
145.469
121.551
99.478
132.440
136.514
112.451
101.209
106.305
138.390
121.744
107.034
99.846
119.827
100.605
110.798
140.188
99.504
106.597
100.273
133.241
126.224
106.507
145.492
146.349
97.031
119.045
125.350
112.710
112.523
95.909
111.955
103.079
124.515
97.166
117.885
126.578
126.510
144.803
137.699
120.839
139.901
117.886
141.261
123.642
119.860
131.130
125.623
132.379
122.060
125.907
142.294
143.053
94.925
124.525
129.005
100.203
95.271
115.468
117.264
119.126
129.850
135.699
112.839
121.245
134.256
100.955
123.355
117.529
140.652
116.492
125.052
138.375
133.415
138.876
132.073
141.954
117.039
136.368
134.320
104.461
128.225
110.550
104.367
141.238
132.625
131.010
110.764
122.072
107.327
130.733
131.785
120.301
122.037
113.662
141.197
98.634
110.743
118.020
101.187
117.348
96.666
145.526
140.740
105.304
125.342
113.628
113.260
106.649
120.084
100.161
134.911
106.229
126.873
106.633
125.392
138.164
143.428
109.216
143.508
111.974
126.832
122.210
109.617
110.094
97.619
99.480
132.291
128.142
103.654
110.588
145.317
105.787
107.311
94.995
112.923
135.966
128.506
112.439
138.946
124.073
138.418
142.036
113.107
142.803
123.767
117.940
135.227
132.019
112.082
136.719
99.256
110.461
128.468
119.481
112.218
111.148
116.083
132.069
116.942
116.394
109.588
117.891
127.205
128.165
117.870
107.280
130.689
138.864
115.475
120.625
118.605
128.610
94.986
102.202
107.188
99.672
95.396
128.568
97.088
146.769
142.898
116.985
139.220
126.756
138.515
121.010
101.513
112.050
130.228
115.612
122.425
119.812
103.269
144.467
113.487
141.549
112.182
136.115
105.081
133.434
145.253
112.872
138.011
131.499
103.691
129.550
129.565
126.493
134.729
118.501
135.177
127.265
124.308
115.700
116.654
137.637
130.428
116.563
123.217
140.797
107.872
119.822
139.536
143.359
117.429
132.908
131.841
134.611
133.189
136.188
108.254
131.427
94.773
102.133
104.806
114.263
95.299
124.361
111.749
139.833
110.434
125.303
123.825
113.155
135.225
104.407
122.188
137.789
104.966
101.368
119.627
