253.969
261.304
262.622
269.433
261.154
268.594
267.036
264.165
268.170
273.902
271.588
281.066
271.828
274.390
271.007
286.565
278.111
286.150
283.847
279.752
283.029
288.361
279.882
290.118
289.874
286.416
296.822
295.119
298.710
291.202
301.211
305.248
305.372
298.811
295.804
306.048
302.590
308.631
307.733
308.218
315.779
313.148
303.579
314.546
318.464
319.520
313.288
321.486
313.328
322.102
318.914
315.083
318.888
321.997
321.160
334.626
322.283
328.126
337.923
327.109
324.783
332.477
342.199
334.955
331.333
332.724
340.739
335.183
341.024
342.266
349.545
340.025
346.931
341.622
344.213
346.629
350.639
350.736
356.299
355.766
360.778
354.509
362.617
359.422
363.385
363.291
365.056
371.600
371.780
367.536
361.483
369.709
364.969
376.102
372.798
368.938
372.132
364.903
369.946
378.632
376.636
373.571
368.166
376.562
375.454
372.647
376.359
376.219
374.855
383.749
380.358
376.979
385.694
389.239
385.795
391.381
379.993
389.322
390.944
393.121
396.220
383.219
396.941
397.610
391.887
399.214
392.119
399.224
397.340
387.889
402.741
389.567
393.246
397.405
405.072
400.885
403.048
407.505
398.564
407.249
398.170
405.049
408.230
403.699
402.689
408.601
411.930
409.523
403.979
403.363
410.173
416.190
414.220
405.788
406.635
411.428
416.964
419.629
416.897
413.890
424.030
415.021
425.117
419.542
420.813
418.371
417.575
420.645
418.195
430.169
418.455
428.743
424.699
431.903
429.876
430.914
425.288
426.618
432.644
429.630
438.016
440.835
438.327
435.109
441.040
441.867
433.680
445.555
439.987
435.391
433.683
436.296
433.878
442.261
442.899
444.955
441.642
447.678
449.219
451.911
442.136
455.772
455.072
449.892
457.284
446.454
451.277
455.002
455.824
453.463
460.837
448.729
454.634
449.627
457.693
456.094
461.375
452.741
463.870
460.172
467.538
456.759
456.908
462.719
463.712
457.994
459.860
468.743
473.279
470.681
475.815
474.564
475.361
469.533
475.228
467.941
480.977
469.954
473.671
470.530
475.517
471.934
479.814
475.863
480.031
479.047
478.748
478.008
486.086
489.113
491.759
478.046
485.933
486.755
491.910
494.607
484.368
484.550
493.801
483.983
495.509
491.849
488.679
485.982
487.201
491.779
500.278
497.139
497.419
501.698
506.546
495.304
495.886
503.199
505.428
498.408
495.956
509.784
507.526
507.714
503.151
502.627
508.325
512.754
515.276
505.564
506.973
508.664
521.571
511.262
526.102
521.222
524.069
522.762
532.637
523.417
535.411
533.329
541.874
542.774
549.714
538.562
540.214
543.434
550.341
561.636
548.769
556.163
554.563
564.700
566.044
569.588
576.631
575.439
567.255
570.769
582.375
585.494
582.829
589.772
587.418
591.899
599.878
599.091
592.994
606.458
600.685
599.963
605.311
602.976
613.083
619.408
615.655
616.899
625.537
627.903
629.183
629.664
627.744
635.383
638.667
639.295
643.867
641.031
650.075
649.435
653.591
651.835
648.669
651.612
648.804
653.997
666.740
669.793
665.877
670.831
665.813
671.104
676.037
669.538
678.128
677.287
688.303
691.945
691.770
686.987
700.153
697.974
696.850
692.597
700.878
701.878
713.786
717.235
710.564
715.026
719.795
715.193
716.884
723.389
727.601
725.261
722.064
724.458
740.156
737.871
741.604
738.918
750.115
738.168
749.400
755.602
745.698
751.349
759.676
758.632
769.806
770.628
761.394
767.200
774.633
777.934
775.508
770.563
785.197
781.217
787.035
787.349
782.061
791.286
798.134
796.940
792.621
797.029
806.444
810.832
806.754
809.538
808.864
806.662
817.442
821.255
818.910
824.393
824.261
834.287
834.341
833.315
838.817
844.442
837.916
835.597
838.534
846.377
847.902
848.254
853.441
859.617
850.110
863.561
867.394
859.532
873.701
862.086
875.851
876.249
879.957
871.876
874.869
891.023
884.592
887.584
886.273
899.277
896.785
895.525
893.715
898.734
909.239
901.711
905.046
904.470
918.144
917.731
917.166
920.467
915.457
922.715
931.691
926.433
934.013
926.308
934.965
937.766
945.026
947.593
945.363
954.383
942.307
953.826
952.594
959.474
961.062
961.292
968.308
959.830
964.277
959.669
968.607
960.735
961.095
960.644
952.021
950.286
963.282
958.601
949.177
959.514
949.550
944.553
945.251
939.453
939.729
948.397
938.398
939.318
936.748
941.731
937.366
934.570
938.033
936.901
933.236
929.042
927.934
926.164
920.052
917.443
918.684
922.962
911.417
923.498
917.301
919.148
910.714
912.195
910.175
903.893
899.450
905.218
902.811
904.399
898.151
903.440
898.360
902.297
900.193
892.160
886.302
895.916
895.549
892.881
888.286
882.649
882.606
884.080
883.843
876.105
877.978
880.373
872.472
872.269
869.557
864.127
860.058
859.355
859.287
863.974
859.287
862.500
855.004
864.653
858.667
862.408
855.557
859.320
845.382
843.649
850.334
853.023
844.157
839.304
837.583
844.522
835.312
844.276
831.582
826.353
838.267
823.995
826.431
828.963
826.998
822.160
823.271
821.957
818.540
827.512
819.864
808.760
815.866
810.379
818.312
810.586
809.285
806.387
812.369
804.471
806.667
809.853
806.958
804.981
798.302
799.736
801.814
787.854
799.287
790.791
787.960
790.616
790.236
776.579
779.886
775.108
784.762
771.142
769.403
768.661
776.165
779.729
775.380
768.429
763.490
771.587
769.700
766.914
765.821
760.714
755.438
758.547
750.796
758.700
746.997
755.780
750.913
747.449
746.604
748.690
752.824
746.433
748.324
732.728
736.617
740.482
729.930
740.327
739.146
725.951
722.262
734.369
723.778
723.144
721.902
724.431
717.924
715.595
720.963
715.045
711.011
720.561
706.988
710.586
711.135
715.592
707.984
708.435
707.690
709.419
696.438
705.934
702.155
688.573
698.897
692.379
699.664
693.406
690.844
680.529
680.659
692.651
677.511
674.903
688.016
681.352
680.303
676.409
667.366
672.530
680.003
677.321
680.041
674.602
672.388
685.847
682.831
679.148
675.350
688.484
689.586
679.220
691.552
684.020
679.963
694.626
692.202
684.479
685.220
692.534
695.584
690.723
686.829
692.823
703.445
689.555
695.425
696.971
693.625
699.033
697.602
696.378
709.465
696.341
700.782
698.050
702.628
703.580
710.919
710.658
704.104
716.524
715.012
708.358
709.656
719.557
706.287
712.007
715.885
711.652
711.396
725.210
712.503
713.139
726.476
727.830
718.337
724.135
717.262
722.100
726.986
729.837
724.072
723.250
724.701
732.983
735.139
725.198
736.473
729.931
738.117
728.191
731.165
728.738
730.970
741.947
731.699
744.742
745.549
743.031
745.754
735.381
740.194
740.406
744.455
752.316
740.576
753.935
754.288
743.756
755.082
743.809
756.402
750.998
746.762
754.272
752.569
755.008
762.278
757.873
761.906
754.689
756.975
761.173
766.083
759.110
767.648
768.518
767.845
768.293
761.550
771.382
762.311
759.936
764.696
770.306
774.690
767.794
765.168
771.684
767.362
772.500
780.464
777.147
778.425
778.949
778.325
784.152
780.945
784.408
788.603
779.490
781.694
791.600
788.788
786.764
785.572
791.725
781.202
795.506
783.930
787.419
795.607
795.040
793.856
787.170
798.366
801.489
796.375
803.241
805.204
794.264
805.879
796.675
801.156
805.035
804.246
796.758
808.018
802.935
805.020
810.869
814.816
816.260
812.271
812.616
817.729
816.885
811.428
818.703
817.705
820.280
815.646
818.158
809.992
822.732
823.706
815.052
826.736
819.033
816.184
827.651
830.870
831.140
818.303
820.151
819.442
820.620
824.199
831.818
825.891
829.721
834.455
831.674
833.576
836.339
841.223
828.855
832.563
838.715
842.370
838.107
833.779
837.208
832.756
836.631
844.968
839.782
847.949
841.485
848.991
848.128
845.807
850.640
847.726
838.400
838.091
843.020
845.181
853.003
838.561
844.074
841.662
844.076
850.613
842.661
850.540
847.842
846.738
857.389
847.144
855.042
848.564
854.299
845.917
859.808
857.083
856.232
853.707
855.409
859.652
847.661
857.499
856.450
854.093
857.080
849.732
856.172
856.666
857.394
856.972
858.314
856.837
856.436
858.109
862.788
866.046
865.525
856.422
865.047
859.110
864.582
871.298
871.169
858.002
863.259
860.109
866.412
874.803
859.335
871.705
866.890
868.399
869.442
866.538
875.927
862.844
866.053
868.026
876.502
873.327
878.459
875.503
872.987
876.075
878.323
874.950
871.406
877.509
873.323
872.054
881.744
872.067
870.764
880.299
874.412
873.227
873.672
876.494
873.396
883.079
886.906
884.524
884.389
880.448
878.269
881.680
884.248
890.163
876.783
883.892
888.145
889.117
882.066
889.524
889.347
882.902
879.946
892.136
891.728
891.158
887.864
886.189
884.576
890.150
888.185
889.872
899.410
896.079
896.865
896.596
897.138
893.792
899.538
887.529
892.561
891.319
904.318
896.732
904.254
902.149
901.799
895.338
898.852
904.121
897.966
899.265
907.004
899.680
906.001
896.242
910.218
895.074
905.479
899.417
900.294
905.526
902.980
908.860
910.138
903.554
905.828
902.869
913.886
911.888
915.919
910.192
901.649
907.355
914.794
916.440
914.748
910.684
916.510
912.137
909.359
908.205
919.348
907.356
907.956
914.525
911.856
918.039
915.311
911.567
918.373
925.515
919.596
913.579
914.573
918.806
927.638
921.778
926.184
918.481
915.673
919.794
915.522
924.492
925.232
916.975
920.313
929.480
925.312
933.776
920.761
931.211
924.488
922.588
931.587
937.264
937.768
938.173
939.967
938.283
939.586
940.252
935.325
934.859
942.135
940.860
946.211
933.657
942.510
940.919
946.403
947.163
944.393
950.474
945.157
942.602
951.904
939.634
951.849
952.187
943.917
941.658
949.195
958.267
950.597
949.829
947.213
947.814
954.099
961.615
962.141
951.028
950.172
958.871
962.960
959.123
960.643
966.727
966.723
955.660
966.253
963.232
956.579
972.158
969.442
967.164
968.140
960.190
968.053
967.360
972.454
965.582
967.658
977.622
964.840
976.879
979.971
975.384
972.327
983.629
971.570
974.533
983.503
978.966
981.897
976.370
977.264
981.500
976.533
989.784
980.085
992.640
979.395
992.649
989.414
994.268
980.349
984.419
988.170
984.300
998.826
994.418
995.363
988.133
1000.976
987.321
1002.709
990.606
991.023
1001.263
992.749
993.131
995.666
1003.981
994.661
999.361
1005.819
997.558
999.008
1003.575
1010.867
998.288
1003.945
1004.580
1007.788
1002.086
1003.013
1013.548
1017.070
1010.400
1015.418
1016.655
1019.985
1012.433
1017.016
1023.516
1008.395
1017.204
1015.744
1014.551
1026.830
1026.942
1023.463
1018.027
1017.274
1023.552
1022.820
1032.073
1031.232
1019.855
1020.859
1020.249
1032.108
1033.016
1027.717
1029.233
1037.675
1033.176
1037.611
1026.886
1028.883
1038.048
1034.545
1027.651
1037.272
1037.610
1036.411
1034.264
1037.337
1043.559
1045.715
1038.812
1038.606
1046.942
1049.770
1037.928
1047.397
1049.032
1052.369
1048.947
1051.531
1040.049
1048.073
1043.090
1046.083
1044.651
1049.230
1049.460
1059.608
1061.258
1056.970
1048.134
1061.386
1058.445
1060.435
1052.330
1051.771
1066.100
1052.230
1065.630
1062.869
1068.526
1060.811
1067.613
1068.662
1067.910
1057.885
1050.813
1059.244
1062.102
1047.422
1044.216
1045.246
1042.792
1054.604
1050.855
1048.375
1047.313
1038.603
1040.968
1032.361
1029.068
1033.216
1034.712
1035.529
1036.805
1024.260
1028.309
1033.347
1021.688
1021.144
1014.878
1013.883
1013.863
1010.937
1011.906
1018.342
1006.755
1004.724
1011.519
1013.062
1002.532
1005.958
1008.909
1006.629
996.096
998.103
999.790
989.804
1001.792
998.889
987.647
986.516
991.695
978.922
985.138
985.082
978.405
982.224
984.260
980.411
980.536
977.268
968.113
964.027
977.474
973.985
959.890
967.592
967.499
957.239
955.055
954.158
955.171
950.662
952.147
958.270
957.681
943.600
947.964
940.923
942.544
949.264
947.039
935.776
935.423
931.372
941.331
937.837
935.685
936.444
935.548
936.379
921.321
930.508
926.398
920.845
929.824
916.044
912.235
921.344
920.876
919.092
918.601
908.501
908.798
915.650
910.194
904.156
896.608
895.921
900.197
906.282
892.345
902.340
888.924
890.221
891.642
896.361
889.494
893.676
891.676
891.955
886.210
885.208
882.599
876.279
870.030
881.762
873.866
874.535
869.413
863.800
869.439
860.887
872.711
866.477
855.262
868.113
860.919
856.360
860.402
852.390
858.880
852.068
855.882
848.788
840.463
837.642
850.969
846.357
843.692
841.245
842.738
833.898
828.528
837.324
828.952
836.733
822.988
826.007
818.906
828.870
826.363
816.843
823.334
823.005
812.234
817.873
810.062
811.531
808.883
810.931
813.973
809.377
799.079
799.035
808.976
805.423
793.150
790.869
790.922
797.536
798.999
796.257
795.669
781.369
784.006
783.196
776.922
777.513
776.189
784.371
784.414
768.339
770.157
770.821
772.475
771.501
773.091
759.468
761.808
757.814
758.431
764.976
759.822
755.161
752.828
760.693
765.414
755.868
751.948
761.077
747.671
753.062
748.132
748.492
749.483
754.754
749.654
751.199
753.269
750.194
754.150
755.143
744.630
743.042
749.856
743.515
742.616
740.948
736.181
748.421
739.424
740.685
747.035
735.518
731.976
741.806
729.504
735.453
735.683
740.905
726.797
727.618
732.774
726.403
736.029
723.930
725.655
727.979
728.121
725.218
731.289
721.546
720.662
720.307
732.394
730.068
726.426
729.890
727.613
724.167
722.547
714.550
723.393
711.579
710.329
723.984
710.169
713.941
709.066
712.591
709.123
710.457
719.148
710.503
708.624
713.365
706.523
706.933
707.695
713.876
708.368
704.031
710.704
702.739
706.378
701.763
707.387
709.318
704.890
699.799
704.541
704.804
695.784
699.735
693.273
699.646
694.630
693.183
694.008
688.258
700.905
688.972
687.192
698.170
694.711
685.449
689.545
681.306
687.728
689.062
690.051
679.884
679.770
691.714
682.094
684.896
688.171
686.710
683.946
684.737
683.425
686.185
684.472
671.882
672.786
671.301
667.445
668.966
670.743
673.199
671.359
672.938
663.086
667.369
675.488
675.084
673.832
660.649
667.590
668.623
657.888
666.904
657.958
657.319
654.914
658.006
655.609
661.062
656.559
652.613
653.831
653.768
649.512
649.529
658.805
650.279
657.838
647.727
647.579
645.081
646.089
656.340
651.080
643.702
643.606
651.228
641.850
647.170
652.918
642.922
637.874
646.613
644.644
645.242
646.931
637.271
633.408
645.259
633.869
632.713
645.309
631.016
635.283
634.817
639.448
626.967
638.033
635.923
628.301
635.939
638.288
623.086
628.796
627.559
626.202
624.701
632.101
621.806
621.529
630.275
626.090
622.747
626.283
620.532
631.073
624.863
632.634
632.671
633.333
637.104
628.592
636.525
631.591
637.050
645.413
644.217
643.709
646.435
643.918
650.539
650.906
643.154
651.636
655.458
646.365
647.573
658.457
650.953
647.574
652.683
661.304
662.867
660.308
654.828
660.181
660.407
668.145
667.371
669.565
669.447
668.688
673.031
669.782
675.962
675.103
674.898
669.108
682.598
679.148
679.705
677.398
675.739
677.453
678.615
683.397
682.629
678.364
680.915
681.158
684.918
681.898
684.826
686.481
688.415
700.945
693.279
699.847
692.173
701.667
705.867
693.844
693.516
710.388
697.320
708.048
709.978
702.904
705.110
711.363
714.865
716.056
717.945
715.740
708.786
717.972
713.171
710.974
719.009
715.790
721.593
726.862
731.117
719.806
719.361
723.288
722.465
724.464
722.645
731.013
732.578
733.171
733.096
736.138
734.916
730.107
736.494
746.073
745.811
737.820
739.875
738.199
739.032
743.833
741.158
754.015
747.054
755.770
758.562
751.660
756.760
756.779
750.074
757.325
763.910
763.241
754.852
754.864
758.143
771.434
760.039
770.037
773.814
768.450
768.060
768.143
772.950
767.132
775.493
777.551
773.965
769.140
770.287
777.839
784.893
784.348
780.011
778.639
788.039
789.824
793.571
780.442
793.307
793.578
787.993
793.158
796.628
800.732
797.797
792.411
793.357
804.391
803.636
807.681
802.802
800.969
803.845
805.114
802.203
805.801
812.829
804.916
813.143
812.022
807.475
814.065
821.591
823.140
820.494
826.426
826.309
814.790
827.866
829.840
824.673
819.392
830.001
822.998
830.748
824.479
833.463
834.292
830.178
831.937
831.016
838.515
839.948
840.787
832.919
846.217
842.377
78.367
58.562
59.633
73.289
61.668
65.009
59.830
72.943
71.920
53.141
62.515
53.961
57.201
71.900
69.517
68.797
75.058
76.510
58.955
75.540
55.260
70.488
72.294
79.343
60.182
59.863
78.138
64.575
73.095
72.724
67.669
57.725
79.351
66.837
64.691
80.626
62.115
69.552
60.784
67.478
70.358
65.807
58.270
60.381
69.342
65.502
64.479
203.617
231.013
183.750
247.348
262.424
212.907
245.195
192.969
189.219
232.925
183.837
251.116
218.957
174.930
263.013
262.662
183.271
253.012
190.316
246.940
203.527
171.334
242.130
221.925
230.230
219.565
226.122
257.889
237.310
181.971
226.039
210.997
234.301
258.303
235.138
177.036
231.128
263.805
175.893
194.603
230.293
213.115
219.490
224.458
187.075
240.211
225.536
262.605
171.204
180.806
234.595
222.972
174.364
114.119
135.148
115.087
105.945
111.154
115.080
95.428
141.244
115.476
138.153
116.941
111.888
128.466
144.139
