73.485
74.292
115.408
230.562
376.647
386.368
385.408
357.829
360.167
370.471
379.357
379.405
348.734
708.449
708.835
1130.837
2480.492
2392.628
2332.477
2411.650
2503.929
2500.298
3881.779
3943.960
3773.813
4137.012
4048.472
4163.590
4161.197
4497.539
6972.768
6874.454
7411.711
12112.942
11889.169
26202.019
41200.211
82543.269
77420.437
74955.785
69516.283
73780.049
72148.288
78393.370
74211.429
152383.115
147143.951
147518.458
240992.871
296511.807
289200.801
361760.438
385757.251
382224.314
850984.363
942058.668
884010.179
880820.159
924557.996
1347238.783
1426858.657
1546796.034
1484687.792
1408362.240
1623516.115
2283671.926
2220571.159
5279996.638
5423807.512
5479496.093
5643011.368
5603118.818
7120642.149
18624803.323
17361792.701
15404995.787
22178259.149
23972329.573
25334037.291
23031623.229
23323244.279
54088222.473
76539701.575
166317104.130
187430440.317
289691361.561
259794419.062
606200795.429
759950129.048
765590932.832
809481078.331
1932241015.045
2497480403.378
5851486908.263
8650168491.678
10137432935.643
11668394640.076
10523038382.004
11162803385.654
11590150021.863
10790645538.657
10844996318.933
5889509831.814
4885953726.111
6043718013.295
6284757871.801
6183689915.722
6394214404.089
6360863568.075
8619286017.909
8340345131.948
18389852571.736
18013795885.093
11584507691.222
15713442455.673
18745524995.276
9776697203.705
20684990646.892
25886522010.267
65933589630.403
64930540187.036
68857075760.544
53341862515.776
119484377371.633
105380711605.108
150517771442.617
369513066475.800
528946267601.133
482309997217.471
1208857993484.588
664430470546.033
976269749290.757
1050027220939.904
493692911039.198
1311463935098.083
958839253893.321
1196324237934.992
722922976900.227
649029819198.291
689825744755.207
612985387987.761
592873644530.686
597525568206.938
545129333858.562
599521836303.456
357964927563.100
504309199367.992
497158431606.339
710687508702.607
518288851232.185
1198062240365.312
656425391266.644
678577596590.728
586961365824.024
320819341739.007
268832610963.399
635556099950.505
710371002266.726
733118995846.359
596327470046.593
500266777156.525
1103795510960.562
1560314160382.479
3470697167862.605
3506245486045.691
2039975473047.917
2834768819620.090
3945919182538.595
3753313435336.942
3809639425355.300
3448017791981.991
3549706402074.560
2013084089541.975
1596882511800.493
1639162480148.658
1894054953476.281
1074661842147.458
1075750700909.924
2274139485496.822
2105750422400.647
3006793510151.668
3917794273239.708
2368029331112.019
1290146830083.449
1892743582564.126
1206693660709.508
1552732545733.658
2294445386233.938
1627345995111.824
3816543840486.525
5351433820527.660
2804171023482.146
1710983900288.416
2206101064294.934
1074675649290.084
2254187424596.880
2061233010755.742
2906055571547.208
3444575877049.273
3683079063650.781
7672931716389.470
9898663825944.100
23391865666327.820
16467505583718.211
24100884806836.492
36394976325717.695
34940272548385.000
35199858221001.266
33860728080590.457
18602193522794.414
41227680374441.039
23815875354421.457
21019487312236.789
19143957211339.129
23986248918500.387
13668483470281.229
12833225256424.629
6546541794836.837
3362189039554.890
1932662960235.173
4260827205618.058
5836676560209.361
3745029935944.064
2186065224632.973
2338873879100.379
1782202378904.309
958746112294.139
1247865797212.958
1156092468211.122
625172107239.197
640552659625.466
522838068524.814
1268624536754.021
1645164421205.206
2369593659319.113
1193562575483.588
644325111985.161
963349354747.656
2132905319641.967
3246373628943.715
3302752462902.310
3206248842366.790
2826291504461.580
6615998978165.322
7085452081316.688
10214174485979.520
12681410349733.146
16913510408975.703
23843013484418.387
18920121549442.312
10175655145299.375
21776830321075.473
18822425589591.074
40438500303771.602
37610269022054.391
42225307977958.312
34504228166280.742
30327122540798.258
74507543655339.609
63748643048918.414
140234171281286.656
109109499334719.422
137538750925837.781
102163109219649.312
103149759165868.031
247166329273121.906
205074782723638.000
96646280528501.844
224968080253182.031
322355253021669.000
367732532390122.875
308312179416117.812
721932461769867.500
380053002573856.250
327474865994856.375
364727364607062.312
417323617013781.875
429145910701185.938
224928350537450.688
244525102005451.844
116754162253409.328
58926011353750.789
58771411458783.828
136487242500822.953
105053869924658.812
103093082782207.375
60127917101983.031
33003251686414.449
21252936192084.832
16647234455041.555
11063778335692.660
24173062143429.016
35260743044976.156
20220488455894.469
23444559319205.992
11574296531207.408
16297436580232.986
22582478277509.770
32417033106900.039
32219132805574.363
16419159960518.553
21767319417896.297
10632709321821.877
6649287014379.128
7682261366624.133
6250841843411.817
13208229540729.850
13849910006649.891
16650071025157.895
16282743628902.746
22801314028975.383
31168952260125.664
35675902212218.172
37699062489202.883
18402265055629.059
43346920444150.414
59703674589681.906
64202891607307.461
65100268295239.344
142833138268558.844
117818987102582.891
141259819631425.438
140498467530414.219
144301064229153.531
140391339005953.922
108276802628239.328
123394664725480.000
66623468146574.094
100165427532997.719
117145183172090.672
106903195815750.531
143498329777802.844
95763294396405.094
121054859316432.438
57723402922432.109
145397797531412.531
192433499280685.781
261081434481814.625
218709456799695.938
107875538756690.484
101928016376250.250
107462259210802.406
119395374637177.500
141390516943313.062
214359973353458.875
170510300786129.250
108842870070463.047
64050857556139.742
76958787898534.094
58909287097262.625
68748933029617.734
37823255253701.695
38948127357440.430
30001290162573.465
66513659480496.750
66048852007218.109
33130655862302.320
29775529626398.473
17346234474055.701
21512469889798.477
12379323713192.600
6947499201342.122
5840842570448.124
3404562324767.690
7311848151300.195
5258348931865.554
2775475510084.078
7615224964737.296
4245170813655.055
2086388383608.230
3148848588849.634
7283785610703.634
3555853217687.364
3628988586238.886
5077974322326.482
12261734792789.725
18450874703173.840
19387976774567.789
22257988828088.332
20005913144227.906
20272266841878.406
18638560863771.020
44046190061007.359
30322983718876.910
17462666694503.395
39224784746562.773
43326841561126.539
57369381922335.305
63539916938755.242
33531314915827.219
33014432120580.746
16997974319311.137
11150191974376.162
16414247156322.572
44303145432662.039
38828511177842.789
21171100103816.551
10834326308524.855
6813049684404.323
10409993680574.693
10455541869780.643
6618067255742.359
6052709612050.457
6443004081420.667
3183150156163.653
1577797663128.879
2066196452553.466
1824246314144.435
1087985557189.117
1232308287061.549
972879494816.952
1296699424658.819
1695710177721.057
1839254394160.735
1687952669401.590
2195932831899.439
1877794585264.490
2038479517313.263
2269291787447.673
1552738131287.816
2051198477771.920
1205049005228.558
1609981778013.389
1914793262787.550
1711470895950.756
1007952144811.935
1054759852869.455
2268740021935.229
1197415299536.706
1317245830112.621
1272779262639.478
1097759676993.104
537829770822.242
293118546720.124
299828691342.921
358892183266.393
176283230022.336
88779154489.295
109016602017.926
149002308751.880
355727394761.129
505169662687.359
1267555154921.683
673618863029.901
323516893558.749
150606979685.771
405219771928.450
554785549798.492
275479064506.455
148507245991.773
400260813730.840
407905891425.225
403524524921.630
201980422592.358
148872784986.688
391572365710.046
353713441982.110
374136891337.657
345702368099.443
187306385816.410
184735328373.189
397443413602.655
295923964198.688
298221343934.456
373100116616.243
298732831004.111
713865422180.897
383287497714.891
584318692912.865
539058860533.783
324675365490.728
164762471252.251
379013381787.514
496672760775.084
278410050938.906
151897736278.609
86864586218.187
96960979752.128
85680489700.995
208973858244.202
318143420710.127
301394372986.886
395157833256.647
334634948967.947
301870221365.863
151724809422.461
408132109425.668
211498752917.841
211753939317.430
204290064242.928
174492863974.828
196449812011.746
193342932063.158
157669638470.262
93894237050.724
95659141606.368
225715704535.831
216128751011.708
194439775948.022
109372142706.100
105809975816.067
222534709404.442
226369008007.171
210203178682.673
188122364827.807
203661227287.730
115095783798.938
127074309806.435
114058063859.404
111905880238.336
70239291091.861
51680907982.865
28313882458.402
26361727196.407
29570529533.119
18124477624.175
10690272403.501
15890794097.680
36597730559.516
17899145846.338
11240954244.109
16312750395.531
8835597357.102
9648019581.864
10114180526.542
11194201312.680
10115233303.198
5937369417.446
6355254395.268
5614774228.602
6165474794.297
2948991873.804
2731388366.941
2737837066.206
3095802684.364
1911319954.357
2019136309.666
1928638364.358
1449270264.629
2011160106.762
1162622216.861
633226063.390
468771761.771
483523413.662
431030916.828
968473664.284
507133783.156
285893728.976
269597110.759
617696989.776
318254417.768
300092882.334
262364416.990
584469407.046
317475655.269
184494291.612
165155485.908
184429370.569
259263351.292
581117500.221
601465684.267
300684309.984
141302059.877
160770968.676
88926340.610
107597321.590
79408229.717
191895081.013
99803467.155
93948231.659
86906204.119
97247110.525
60356194.318
30777372.980
47326811.255
43900431.718
96031547.941
106672267.442
106383435.394
83545359.211
104606292.454
141156467.146
91935359.330
56203773.326
73509550.130
176474700.898
93876226.815
82647537.169
96164975.131
102335213.730
144042487.621
133496564.966
133391340.805
85826585.059
93295068.371
99002324.871
51606807.642
74779461.247
162684329.761
141589231.937
147214532.444
76716304.842
174918093.923
176628336.374
176724946.188
242948428.147
269200607.388
309464503.154
349934126.665
333536969.163
348684219.297
174569134.913
188932706.536
245237804.085
252518865.438
559033532.805
589897763.273
450338436.561
621702815.433
897389921.722
1910767118.301
1004402157.165
956112271.360
874192175.599
1001823677.934
971671058.269
964812985.207
841510034.663
892271476.379
966721384.324
1432933412.984
1529773340.466
3308633214.917
3669423636.764
3296029178.260
3297826383.977
3029321711.355
2846000674.951
1765988949.437
904294133.903
1979924632.198
2700948522.866
3377633534.203
2970137524.704
3326191360.707
2038643522.007
1896258118.935
2139612155.401
1887596370.244
1044090661.477
1067080974.448
1036998182.915
1087460322.250
828004581.753
914049402.932
999216637.270
987297425.819
1046237884.703
506052816.111
630293750.726
905878095.508
2086310994.258
2609978946.822
5757207830.506
5819588623.646
4748870976.065
2585072257.836
3727923196.173
3810471328.173
5284413749.218
5868277367.109
8910853199.346
20095592546.386
19679473756.590
9696293169.297
8200555660.450
5257129627.765
12221038006.697
17616521821.096
21187356370.038
12175491359.691
9366597494.478
9619432425.092
9482876969.299
5526115073.301
3255527495.478
6792172079.799
9700181181.500
22150117966.982
20288790441.316
11318275802.599
15479254430.900
17522556807.745
38473027529.764
37749825312.882
38933872463.767
36228190893.235
20580063861.788
10645610023.850
11562961692.484
10673155696.126
15795928725.045
9304551978.848
20924258724.369
27843160429.171
35903810217.049
38860027057.642
47467138710.331
48826382340.647
50740344803.133
108551703786.534
110823038918.727
101120520129.173
127259494550.666
176047178195.748
227792156094.714
218577285162.256
153005357761.686
203344489349.812
153104621346.361
220642060913.261
311185947579.521
704567850281.019
705833429813.609
734994641021.861
1022479866536.538
2208242550512.196
2163524317571.414
1893820577461.000
1819088882098.920
2231278222904.341
2118856917804.373
1095693758709.030
1189253247451.320
1050505728312.569
2217529799834.633
2210981644174.974
2087081339772.067
1922466997496.441
2878367764108.237
1711943715296.442
2057583244355.746
1002666312893.355
2261391213109.506
2219059181035.280
2359103951053.824
3530478743412.585
2981175988819.159
3287549572864.025
3298342055718.713
7542281963621.790
6951011448486.795
10050614113237.508
6115266211029.688
13190082154013.098
17896318083195.453
39049327955280.609
56743083963607.320
145027357654984.750
115755457617735.000
59851347317731.109
74294294888211.422
37694966111354.414
21020736266267.828
18807496805632.488
9711289286356.242
10427219126132.141
12764000827038.795
10942558030800.059
6017552275991.998
5801515060594.115
7762027016729.532
6328413498073.612
6669411896616.187
6427653040381.178
7273901353030.851
6989674555148.089
3555315098707.161
1787647666393.169
1087317842596.860
937369121387.364
1180541272097.792
1675453953056.781
3959383911425.813
3604528112573.566
3900930626963.566
2052814465203.290
1026466410414.843
539026291537.062
1178433442020.979
1061126733281.378
1245615443053.541
1151153901742.989
589837980708.210
876761785601.724
2073528731685.181
2843112907458.301
3083766199335.645
2949708717550.562
6902540712508.713
6027921229912.339
3065890985852.012
2815535129251.520
4284688344860.759
3032074684930.145
1587857261034.750
4255868889124.231
3198904241389.752
3413225180740.009
2893335782464.497
1596651997208.046
3482760923588.763
3566233714813.616
1764579476523.189
887595526032.236
1247399640717.528
1902841091271.408
2268742004222.562
1164078543425.894
691702096104.942
331739813244.445
172907631301.619
213529387052.163
323352188692.096
344520974825.906
220624225556.105
171439104709.113
398098869758.594
353252393769.622
320904638049.520
169516862564.092
400073680828.539
395837453259.948
359623535813.090
548554503947.761
686485590485.324
998776549137.850
1028311373280.560
937773300343.813
522769488610.702
583744017841.737
288270779400.723
290274749616.350
400592961182.327
395352663820.716
605544118577.149
382985066896.643
380793289208.841
574516220419.059
1303987444224.392
1053036595497.881
2347270130244.408
1206490087960.896
1716305569971.948
861361597772.550
1140415484855.771
704455656124.917
507677712911.851
604843488405.890
290553772591.450
338782645354.170
173358821428.338
372843498837.905
534824959853.131
572434765074.173
510992471478.705
1151761885074.410
623155543660.460
548053831069.480
640903260528.651
892893364534.760
1265260142383.517
719973234721.870
634648243005.935
554761962507.382
1218298047130.654
1245202812243.807
1702572706730.864
3656002213328.412
3555587297039.907
3999147199367.810
3041766138661.218
1780347852480.916
900806343979.805
2110302413724.005
2857647676142.160
7200560739959.482
6638318913701.902
5995147730670.192
7196008315435.876
6942026476818.091
4978647612616.418
11708578546902.514
12158732141081.836
6966293224744.699
3963155400301.613
3089186842691.892
2839879606734.183
7050315491009.724
5829499358972.505
12802521466844.857
11723227298664.260
10901458678861.189
13239357638294.387
6543735891029.874
9382990219197.730
5893519247700.770
3428550368374.054
2951924496470.615
7682565995432.781
7391826043035.873
6170781450081.130
6124497615554.770
5322262115244.473
6051304920920.630
3806031716839.759
3101515000073.980
1605845082595.510
3639770881177.244
3616516379006.504
5278515052367.914
5261782393136.269
7585299383495.577
5725465444250.558
13573642805215.973
17555714061239.861
24669475686774.000
17306956317836.654
20080666278686.840
19954551835657.223
21716347287887.199
11337694712641.418
10620678585377.404
10919527281008.523
6420155465081.069
3296533232111.193
2051963027318.175
2197695532070.989
3197386087923.883
3081292623794.575
3445020024543.692
3472371643415.459
3112287199428.606
4113375412154.340
3561049793496.382
2938557330124.310
6612171913746.220
6683610120424.661
3388249687285.946
4156981176487.858
3450770337766.525
4161762751288.718
5511933890753.333
3299516643728.009
3565532960656.030
1852850219929.109
1921515752902.668
2239113976381.603
1598434879480.416
4060012390915.066
5023203976010.548
12802168858288.021
6606252032229.902
3816110725101.925
4020560392316.902
5055240314897.666
3090562276831.963
3420844579950.981
3476842886108.544
3732932378700.542
2283151948291.705
1590139170365.963
3579934803470.022
3804146571403.131
4196550219561.967
3278561316548.455
3762827714275.037
2158341930599.648
1192720619139.175
1166410165443.562
1271611152125.071
972098774949.202
2115058739943.802
1908067311783.438
1580458748915.145
984209569666.710
588162444962.733
596686776611.339
602771133277.728
377592831402.052
348613339707.659
198287965769.097
119146274001.106
155775104557.998
405197340249.661
603137253227.355
347474135447.768
360897897799.580
210556821533.797
176940909495.128
110539765115.046
97653067713.621
102583599176.294
60407936729.823
59001639141.241
29794782886.043
32089077651.260
37106651780.028
36460716385.188
26682385955.270
31294321813.803
14713420579.021
15088473084.404
14059259888.325
35883030698.050
35221173485.943
17128013308.830
17693440670.753
14762623706.039
14744148972.775
19652275044.673
18975754527.842
9520349539.289
4476119070.206
5806471367.732
3230694336.026
1845080884.344
1122096765.700
1611412719.341
3657358805.341
3313887301.806
3416681421.390
3425701737.080
5028460333.596
11204751524.992
11800192113.829
17365052568.286
18037207342.186
9004791219.104
8160454275.615
9735086786.382
21078400578.928
30011892289.563
16042437885.762
38327568059.020
26928462862.995
13940983817.757
37700270039.028
33779745357.278
27274144709.267
15864084277.132
8777321951.701
5271094668.994
4922200210.199
11643292929.638
10125027496.356
10124989605.606
8418249084.931
4476127461.113
6357699100.676
3345061574.046
2668203291.185
6114152249.270
9346347776.608
10048466191.098
11868899543.049
11132312692.830
10601461168.132
9084198655.389
8701564616.912
20269980488.413
10611243335.595
6361605255.562
8341263856.141
8881829896.940
4559766218.267
5131218436.966
5561004573.957
4727840173.629
4966661007.039
4309131644.882
5918995813.329
2856937885.975
6462852862.142
5510746771.950
4757229464.862
5203977692.552
5853214797.142
5084811384.966
4656227123.326
4792552700.846
4403203753.336
10111539020.629
5524910650.665
2736761002.443
1509588961.797
1366004970.392
3057365980.969
3467352315.529
2591450449.422
6081302335.021
5915673476.567
5682195640.699
8053856680.993
7872700279.139
9107993186.681
10226768700.540
9689546863.795
21367392337.183
11155426650.249
16260055858.976
36099732399.228
32440760201.222
36535405401.987
20419133795.693
28884129559.964
65755201665.712
68803454885.188
35993441171.790
49809607951.016
27773059030.386
31373368368.410
68267874623.428
103181392302.952
54314664362.956
50843567967.649
50570838426.126
122453221969.658
91380402143.940
52489871570.852
60372677896.016
57081814585.346
125451791239.547
87437828580.273
121925809207.878
186258518786.011
106904964239.806
102094562184.249
108679617647.088
164778097521.788
161680660232.392
209913771622.433
175394751741.335
152260810189.314
217014772356.718
151342119800.644
346998472640.590
163448768936.707
171494886607.094
103807461661.131
151625372535.494
339687505674.236
378959221505.483
402446186541.946
311502340711.377
336152488808.882
732977745203.704
559334282386.575
648945491581.043
376787731890.490
555622403814.306
272595300358.579
169498412093.492
224409481118.110
219784353865.098
158676470033.574
397883967978.922
363476703910.242
508168510336.727
1165363597296.019
569084726553.288
515354152962.872
1139019467995.566
893321036542.848
879442718173.114
944996988578.233
863583558056.592
2287562285913.530
2185922668100.478
2854730651827.399
3247939133204.423
2103946056400.060
2217848082478.424
1187776552905.982
579817503203.610
664357732579.759
884908934426.717
2140937484796.954
3137970166707.458
2892078979626.048
6973629221009.471
7599060803415.076
4150356177325.477
3921417845265.796
4229996077100.521
4147005127985.914
3806269537517.332
2309414294418.993
3036731806252.699
1970569981183.581
1549883978758.697
3423757603509.188
7523107756507.497
6461183654680.948
6531867892624.915
6436510309657.002
6920781264107.830
10271316372572.836
13591093979854.795
19109351790060.172
11561318589178.600
6467861729231.927
7276285559034.801
8991261570108.689
9923414930755.248
13659433779802.447
11471923711944.652
11250302882088.297
9873446539926.000
5091846951618.110
12103340356694.389
12068691537519.006
9349891255241.344
6177193789181.364
5203197222888.964
5149712014038.117
5885673660451.150
3136383423730.771
1807740855416.541
1836567448381.342
1880232220129.375
1857068305888.238
935088411897.132
1303058063191.058
641928368127.853
342214663089.375
475021873768.583
543063707881.022
538771272925.369
273623921257.744
276828350946.407
355767647882.546
218945870008.672
202608168184.688
149719846754.851
89395654846.797
49970526675.729
50338516140.694
54069880815.515
120599671061.167
94422405108.915
116962477861.857
108402891186.618
96570859620.950
49009049582.171
51558419485.353
64962762101.891
49322470114.838
119171872002.957
156104653017.338
84866587291.720
86558396943.446
89665222898.999
45753976280.153
112926181864.156
55889978976.682
67516342139.932
94465278628.209
112118999362.398
55278801841.946
56075595171.641
64400350482.209
36629074401.470
29328971634.560
67742751879.289
96480095019.827
103094625325.060
123888786043.203
118776306593.580
63675652145.907
62633490656.124
92845233530.907
105871623566.870
153336497144.310
367966216789.872
320592567089.806
152937003252.702
204591721177.162
100214602300.429
210562211607.293
167770365166.127
163984059230.265
185961202270.701
157613831617.659
180864836786.390
165894337215.134
380936545709.934
562055773980.391
295881976472.106
298145258243.446
375173693454.878
295123178184.031
182418025993.132
221985920766.329
207776813343.813
315989481638.862
359231049606.043
295712950045.285
359668038597.299
218396607778.352
218842026383.974
207167425797.947
218849274676.434
113786109340.950
99268385824.682
50855441404.010
61966147804.073
66159814613.445
57262226586.292
50897018091.945
60207264970.992
56295366216.395
31002849833.220
31843348932.246
28875733867.308
27528576502.124
63668917221.651
91739779013.943
98929903640.427
99834712471.283
111885034412.321
107614367723.000
107703060655.055
51866643935.167
113059794770.554
172503975318.493
96356919109.570
207848983697.193
280764651803.827
279665053439.286
639792184417.263
487710079729.934
1088443149117.335
1172229582144.195
639120455707.146
632395280089.741
558417105860.490
559485940651.269
481999631042.872
316833335249.439
391783414882.814
199796693307.200
202223168774.276
173743576004.180
377010325686.586
490068345090.835
303767287773.771
167413995415.842
85648493474.940
106967967389.009
91060867491.609
217378994939.790
192782745908.760
169361073428.717
106154606141.994
159308006279.004
206040492877.442
112362639561.389
93587451301.688
88410719681.527
100466108870.589
148387015440.233
167700214906.328
87573872461.652
49428032212.743
64805396118.525
85752152620.673
102776571945.559
88780460171.371
83628372483.918
223068708641.384
180857939292.520
399159630856.200
340870136226.168
402901261062.770
394715396938.975
389928087155.723
322679057793.298
690382165384.057
374436488832.877
317977579342.020
672844198119.673
964569163746.064
1082477869551.304
991251485440.615
2220862425744.154
1704618719263.695
1105844167999.442
1040649754765.149
1205225313363.261
723596242406.750
389658821670.772
403194731872.374
347043190049.045
351105264483.830
184962293720.277
264457907553.568
370087703731.373
314492266981.790
277094137386.693
325523811667.346
362280277526.941
374324911789.258
334297824917.176
360917146124.141
400883185461.750
219483402991.292
285649011956.499
307605726076.595
298893096746.764
382594321164.770
522964216417.505
613151664085.649
1303581057135.895
1971690783615.531
1766415276547.741
2333107959530.241
1784027306279.196
4148633147517.873
5636419730109.959
6626642969624.393
5703303102436.114
6144671014841.616
6353533976317.447
3738253568315.408
2357894262587.903
2076547937012.659
1571472010933.724
2205328855685.878
2189181185976.438
1245914020374.631
721540056251.449
527372248758.364
492667403432.622
494923397896.308
495529037125.336
508772322060.401
517009455869.002
524349455044.357
1258535691491.751
683791663161.127
1004633676023.088
2345001345217.756
2241021418611.529
1301005442705.293
1099397378687.013
1242509437044.131
1072726662294.390
1609698768157.396
905381999380.120
1027396627005.208
658749856604.994
1011885159713.862
2290354965498.938
2073601816154.733
1231125195286.035
713969588414.179
717264748417.901
592503373422.010
885843912521.288
999096037434.735
595291756557.726
673343837401.819
1007699759066.016
928436638212.992
544443484001.919
720288187832.872
571125682702.283
479880835398.500
1051919593404.161
655811717440.347
401577028900.286
310874532534.948
198912946387.987
146616198931.415
367034328686.664
331968051387.266
186883154277.422
222255545756.958
268513154837.200
372770463489.608
181750082229.771
108439555755.315
158807441604.973
366049619107.101
183391159536.372
214517909179.360
290476205011.631
712925137511.838
889496724067.948
1994521095132.613
1762072107646.879
1959156431805.012
1206825910534.912
1719594036890.310
1973167394083.350
1052859188391.890
503246535385.333
281264821710.504
293558006250.448
323281183406.114
298288188727.667
291053416623.039
681162685279.868
689448213929.287
873586871558.295
1013182797728.035
1264658506806.664
1092913637038.259
1566786903548.991
2252067081968.793
1219031818613.198
1085834007539.623
696040828262.523
511392363596.819
1219973691735.821
695348375989.990
555559235050.804
360551536596.579
172826084201.231
177961573478.734
388282293360.175
346022382488.056
313137430873.791
682544002432.933
649658180448.277
662050524489.784
344807219743.214
283022696464.366
264330549997.709
265808072530.672
307825846598.639
167503138417.230
407511147560.261
502028391643.601
1254148974489.324
1737308580331.092
2030522651925.457
1795431870977.547
1116543696525.469
971096449217.284
609541741639.797
353589206234.329
495231311556.303
1230981591726.187
966889652304.436
915256266937.498
938650523750.346
594506532633.404
878198019153.286
2340026899334.879
2188496379628.739
1107059671050.253
669474449451.981
727437881757.554
696513879942.056
966767444930.651
1117807926032.197
630417862475.063
334628218412.653
299598807435.235
265793142930.423
311468979388.113
166690278850.693
160506378996.791
345057743924.423
290325385720.987
173945230815.071
201538893826.527
113843289683.463
99535483157.004
89792185898.964
45421907952.295
48979957064.478
27156063439.621
32372154144.549
68351651956.968
69675558733.431
46478422885.140
63687307230.138
50469345657.130
124361222255.925
111829987985.537
84351518988.855
101436228005.595
99909388205.487
53065254458.228
28003636681.054
35393459921.008
21332757529.899
15507833472.594
34671507307.119
38065486410.390
36730076472.182
20243991591.720
20839918135.287
19890411758.611
30252946960.198
27850250899.378
31294417243.480
33511222690.009
36826185824.571
38065893146.789
27945938400.783
68729563458.134
58207712530.768
82318975660.666
115432338108.965
166241652546.400
91694380139.667
45498250349.542
118758684192.660
109472912824.492
154000952779.181
202880569405.809
169026931914.431
147410612644.277
183939223319.840
272663384671.652
621159588034.680
685662345030.266
586147615783.062
1260087364211.835
1560161255505.812
2173806128954.757
2876533316147.162
6769920657659.627
5766628869300.213
3499286283477.054
3626910003474.025
3251629578159.870
3420818791050.230
3137861716083.448
1887506862534.037
925897863634.545
540439730667.255
317541179857.442
336446558125.975
715052247970.636
987899238905.782
2361944903302.411
3635098252325.423
3830769900220.705
2162477176857.440
1142690155919.650
861890582421.510
2186542796725.343
2921551013189.089
6669923666351.526
3727750594902.751
3049709221730.464
3151893196519.103
7005409589158.562
7166239545526.883
6890100719815.857
7636605070880.663
4175598578437.658
4267875651503.708
5470769283693.685
6099260778392.252
5996886349046.942
6993998123625.775
6282536068847.223
5347879841116.588
12851628534780.812
6875447119441.610
5021245773045.788
13121581078669.008
17735849444781.250
41372203479924.266
40975809301272.000
57229745490719.344
137145044877556.469
182075340226886.844
171123485656625.281
236765774312735.469
183306911214824.531
175564864856220.938
216956728415848.406
261726673946671.250
133967873371139.391
107639126772101.250
96814209601644.047
124275213986551.219
103072820407323.938
102760988028993.891
250592141609812.625
261569071836669.094
138974031968125.109
128709661152587.297
75615624217668.281
62592850981801.375
58334488742930.656
58858978619181.984
133461005048570.312
174448176719069.094
457399742110004.312
246476622020683.688
337622084893540.312
344864269811041.688
848932032169266.125
1282739190230852.250
1153290963718398.250
710449756855143.125
590707724243065.750
339744853073882.375
180990590725127.438
96235138173615.188
61678197641165.945
69213437253904.414
74232280402781.438
37050242380188.367
38870300707686.133
23036287720893.809
11829808179934.918
9905690280204.895
24546789324162.680
12850637727712.355
10539694235045.008
5829451083748.601
5215801792967.014
2793545866966.086
4183972426186.007
2343237428576.077
1251212423534.738
728295772379.684
365790431467.243
377665730672.697
501723201353.019
561211978433.269
507428631351.467
1234344062607.215
1773274180677.215
1933461691302.013
1745418246827.965
1546169698124.278
3664824991405.532
4001039967975.579
2257006796304.905
1245092792610.558
1030327402350.042
666185165640.078
891051482185.758
1008600664311.593
1025621053517.326
662263915780.123
490124062681.826
313396895763.952
403915891008.328
625658551341.628
393489171295.413
357068119782.027
265493647997.375
295589470002.343
705468986233.067
665536733832.884
865524513094.925
1913188823706.138
2289122251572.584
2794685282911.413
6583340605858.252
6825911052007.524
6798516482153.394
9879463109533.680
5171133835045.861
13125428042487.377
10181681893411.387
5941397908617.034
3330925664504.065
1880246581528.767
2022421601339.682
1013428213111.800
1236958886298.025
605871955354.419
525755335022.189
296377646359.873
172372779709.748
195239763554.407
150834464648.842
196314194937.528
278106891667.226
183606857276.888
393155938857.675
330078476500.995
405730284148.105
397130451434.089
196857961166.232
274253452278.312
708417730907.755
1070933828595.374
1075399721163.875
1293355808017.586
1720483474278.890
1628612960146.762
982865061229.047
1186311031815.430
643114350419.262
689943420576.051
565801517217.344
1262758871576.372
720291660636.109
381929350510.116
346736746001.733
329364996477.766
398327932287.516
544029252246.140
1280458988500.037
1572632082214.246
3466643586689.297
3720815763313.653
3410410433349.054
3107971086595.247
3262397037560.409
3064403728638.885
6563238890166.473
3730841151027.150
2027209362677.228
2133837496324.434
1638201687865.760
4163971831657.276
5404898763036.455
13355718278833.467
6504476995025.640
6420349527320.107
6614353488738.384
6164673932898.111
5941722482461.068
6527068716308.741
3871194091284.141
4205155166578.124
6131485569950.236
2885184260554.081
3496534794510.185
5124992041207.000
5689896185809.066
6047948481057.239
3631079520391.489
7607609136108.469
9761990752735.350
11540355920086.828
5856340808067.791
6543554874866.865
3557070146995.258
3812771968250.243
4259434223339.911
5514362354536.607
6719659721685.861
6230816439479.461
3715968142294.425
3016606670276.159
6750664568635.534
6183952511995.967
3867719200619.900
3710720016452.175
1840109679759.499
2040581049881.408
1231670337161.158
863243753610.569
553368235112.967
691444279992.487
338515274323.856
363648763921.604
401811198436.971
347861008008.197
358629446805.850
215955925761.911
182031301534.418
273724092352.876
295951339770.106
333486524017.354
317612704600.471
329145567326.155
397962291823.242
348201350696.242
375992795936.560
547693869003.832
503368373556.143
548462753234.121
332501687482.374
389322909998.966
324723839222.993
476244264948.583
641003007363.586
304193848779.837
151304180500.642
348392842866.940
732899587265.997
579795187763.236
308634659910.818
174985417596.184
190155464813.030
117289369185.548
98269900066.993
105419407005.626
157867247379.126
100817319769.850
114958448181.950
120714461523.716
60558395481.654
34898059982.577
48234676352.633
111157445901.592
118007718871.156
181208491863.350
100641376010.795
52561253640.679
64556301981.817
51846346438.319
29159327867.487
26202442497.346
62392217570.891
93431066974.007
85484831390.972
217712496707.136
122853589340.288
108088026933.928
115296433911.419
121532015021.960
89258477271.188
121604124915.448
87077194661.077
47973832284.403
51706202108.506
112691976582.450
149804960018.064
178269194391.886
385194740839.961
372281971269.247
381167582686.351
474728493031.285
686942809205.101
872906546577.982
564308603149.761
714272210317.030
708027642894.515
916169265622.179
1085056441286.056
574909393033.304
362304365562.411
521502695523.723
570319520994.812
657717145374.356
946904746723.044
995525706529.238
959469640573.629
1256508005667.684
976275551137.521
888702896979.162
2009286121050.060
1128929941851.612
700047904551.880
638770100327.989
959184930666.144
2172524171412.416
3193144173797.909
3688783254530.006
3983772865851.999
3123790610389.020
3038611845734.718
1578807067761.400
3678798770709.665
3571837347882.919
5208635304636.377
3132605444621.524
2963087723536.496
3165204944193.964
1919080590176.607
1222201161856.625
1264382858266.997
1937740787123.259
2039467544683.417
2838879086321.920
1583107548028.898
1788032224804.424
1790973926744.104
1130248891211.751
1173619527705.806
1266621025719.195
1095287336974.456
522278773828.845
708681328430.625
344355957759.169
219503214763.154
215542404014.410
287729461814.597
180699933783.220
102353955109.889
64697115431.823
68230258084.861
63177991411.848
