966.704
967.105
974.404
969.423
967.706
967.429
964.297
955.037
963.238
956.034
957.397
964.651
952.135
960.886
948.175
944.637
945.804
949.639
947.102
938.811
940.898
934.288
932.391
934.695
931.073
929.247
927.796
936.949
926.749
926.481
924.335
923.595
924.052
919.127
919.446
920.306
920.422
916.434
915.657
921.947
912.349
915.181
906.988
915.068
900.445
908.303
903.828
899.781
905.457
891.573
898.454
898.604
897.664
892.914
885.436
891.762
895.216
882.930
881.352
882.548
880.128
883.460
878.564
873.046
882.902
882.271
875.737
867.969
872.799
870.268
867.476
866.117
870.007
869.020
860.215
864.950
859.043
853.904
855.248
849.204
846.937
857.042
850.006
850.680
842.791
850.880
838.622
840.403
838.202
839.159
836.539
832.353
835.339
828.557
825.390
822.607
825.007
827.233
827.741
831.623
819.933
813.990
812.077
818.104
820.815
812.597
807.198
806.989
815.828
811.319
809.922
809.921
799.687
795.345
800.516
797.283
793.530
804.876
802.818
787.002
791.082
789.880
797.566
781.463
786.033
785.746
783.142
777.454
776.456
784.304
773.439
778.283
773.159
778.452
771.353
775.237
769.829
766.161
769.207
770.420
756.199
765.395
761.530
755.848
757.124
761.753
764.217
762.184
759.069
753.576
751.338
754.317
750.538
747.654
755.084
756.943
744.568
745.816
757.500
751.631
753.561
749.678
751.127
747.002
745.843
745.124
740.015
744.437
748.541
749.907
747.714
748.761
742.946
732.500
745.351
745.637
736.725
738.034
731.995
741.110
742.073
729.441
739.845
737.893
729.855
726.880
737.659
735.251
733.290
732.821
735.621
727.418
719.148
728.264
730.341
719.054
720.779
725.858
719.032
715.676
726.141
714.292
715.238
718.490
712.193
723.392
721.513
715.106
708.573
714.898
717.200
707.857
718.764
707.350
718.217
706.040
703.640
704.483
703.068
703.711
706.421
709.145
706.581
711.740
707.835
706.398
707.937
697.184
704.190
708.404
701.787
701.317
695.318
697.994
694.943
702.394
697.084
691.151
696.097
697.819
685.315
689.681
693.748
685.499
686.496
686.142
682.895
686.956
683.622
689.898
684.643
684.437
677.826
681.984
677.182
676.231
689.370
677.152
678.075
682.402
683.746
670.559
678.138
682.234
675.181
674.350
680.980
669.833
668.318
675.345
667.659
669.564
675.208
667.410
670.653
662.949
660.351
665.337
670.880
660.778
667.910
661.852
658.647
665.786
665.867
656.011
657.859
654.410
654.704
656.495
650.523
653.118
663.329
650.412
650.401
654.445
647.508
653.893
645.979
659.708
653.499
657.666
650.748
653.174
654.721
640.499
652.299
649.325
646.635
639.627
636.628
636.333
648.949
644.952
642.308
644.721
633.240
644.981
633.349
644.381
635.594
629.466
635.024
639.533
635.687
630.245
634.544
628.888
637.573
638.346
636.386
626.422
627.152
634.721
626.622
619.273
632.716
630.916
618.183
632.116
619.095
623.455
618.253
622.988
622.647
631.818
632.634
638.290
630.300
631.309
639.596
639.689
632.599
638.351
643.900
635.752
634.766
635.394
643.554
648.938
648.114
641.916
645.284
652.287
642.970
650.808
644.277
646.318
654.223
656.597
664.437
655.185
654.464
651.829
665.076
656.291
655.869
661.286
666.228
659.834
673.678
662.069
673.088
671.063
665.868
680.885
674.257
668.186
670.965
677.763
676.770
674.685
688.116
683.353
683.975
690.071
677.624
687.353
692.249
693.466
693.767
692.790
691.029
699.006
700.147
689.252
690.411
694.956
698.720
696.177
705.334
708.355
706.815
705.317
701.218
707.590
701.059
713.717
714.302
710.259
707.176
719.127
706.095
714.001
715.969
719.469
722.379
722.335
713.105
720.975
723.754
728.368
732.100
718.488
734.095
725.363
733.322
736.765
736.132
728.678
731.001
735.305
733.269
740.107
737.523
732.192
736.970
741.556
737.622
745.925
750.084
737.689
748.003
753.455
753.883
745.139
743.302
749.047
749.191
751.187
760.990
759.749
759.321
761.655
751.762
764.435
765.731
758.158
763.302
772.691
766.422
762.845
763.681
772.735
768.813
772.378
780.291
777.958
768.766
783.810
784.241
780.188
775.910
779.032
788.675
779.262
782.812
777.590
788.670
792.966
780.801
787.916
795.377
789.820
788.319
798.652
792.131
796.712
791.363
790.453
802.174
798.601
793.344
806.760
804.928
800.347
797.533
800.543
807.461
808.703
804.208
804.926
812.085
806.658
817.967
819.001
813.188
818.517
817.769
823.958
827.954
818.276
823.278
823.540
824.429
818.440
831.889
821.114
826.450
836.976
829.949
825.997
834.443
831.342
843.281
836.649
839.519
840.066
839.768
849.131
834.821
851.014
846.361
848.239
851.400
854.866
851.067
845.835
857.639
849.020
849.480
853.994
854.642
863.828
858.892
850.789
855.991
852.512
861.255
866.278
858.500
863.857
860.611
870.460
866.034
862.387
873.296
875.926
874.005
872.232
877.982
880.258
877.284
883.067
876.054
874.022
883.012
877.477
875.498
879.755
889.233
892.025
882.084
880.322
890.036
895.183
890.543
886.049
891.799
895.218
892.028
893.288
901.639
899.094
905.374
904.904
900.469
908.799
911.094
911.590
898.855
902.226
910.444
910.937
917.263
918.489
912.794
909.759
906.477
907.192
915.042
923.388
915.304
918.080
913.097
923.849
915.491
920.441
926.873
918.776
922.804
934.764
931.882
931.122
924.275
938.445
935.433
932.989
930.695
937.367
933.709
934.641
944.687
943.762
939.356
943.352
946.570
937.165
952.076
943.095
943.836
945.905
954.878
942.868
954.994
945.597
952.031
952.035
955.873
948.637
962.116
961.753
963.377
954.569
961.009
962.384
956.548
969.348
961.738
972.368
974.362
964.831
969.144
978.399
964.757
979.250
973.360
980.530
977.904
971.341
985.769
978.383
981.356
985.480
987.438
976.489
990.657
988.222
979.686
992.381
982.194
986.906
993.415
999.725
987.787
998.939
990.181
995.617
991.601
1003.904
998.585
998.250
1002.497
1002.603
1007.304
1011.792
999.706
1014.293
1001.958
1007.612
1002.505
1015.425
1011.895
1016.239
1010.179
1016.137
1010.186
1013.581
1024.067
1012.194
1025.535
1017.616
1021.937
1023.472
1029.820
1025.274
1031.224
1029.812
1035.571
1031.462
1023.689
1025.633
1027.667
1029.136
1040.662
1029.569
1035.240
1031.479
1041.141
1045.523
1047.796
1037.395
1037.067
1043.389
1049.702
1043.319
1041.474
1052.679
1053.451
1050.974
61.658
78.093
79.577
53.680
73.209
68.570
68.393
60.427
79.519
72.792
64.217
64.499
54.804
73.654
76.146
72.288
67.112
71.813
60.595
81.085
77.490
66.277
70.277
70.144
75.060
52.524
60.575
58.553
69.815
55.479
72.329
75.708
69.194
59.744
60.483
61.579
79.931
60.397
77.316
58.473
55.809
79.628
56.739
76.668
78.390
75.796
59.555
69.845
65.904
232.804
247.291
233.822
223.028
260.856
245.802
172.838
260.176
262.867
207.302
182.255
230.391
170.947
240.638
231.173
252.605
180.976
200.857
203.697
197.022
203.454
243.662
260.479
252.580
215.260
176.608
203.300
176.631
261.572
190.167
224.537
202.775
177.766
251.110
212.645
190.146
210.689
253.070
224.219
225.398
201.555
208.724
188.169
216.897
189.316
234.294
174.197
248.350
196.753
241.471
215.554
119.777
119.518
101.122
121.874
127.599
101.322
133.827
110.608
133.844
129.922
128.287
95.169
99.212
146.601
134.479
123.793
127.293
115.718
110.386
120.681
110.007
130.888
129.562
118.725
143.526
107.730
114.460
100.317
133.972
132.889
121.530
142.159
113.926
107.657
133.369
139.018
97.643
136.729
103.553
98.370
108.099
142.249
105.249
121.808
133.350
109.200
118.074
128.224
100.296
113.139
127.972
99.315
134.464
124.993
133.991
127.032
115.817
97.808
128.004
118.647
139.538
122.599
111.976
142.830
100.090
103.672
129.277
113.351
112.536
138.047
97.169
123.967
101.738
142.401
125.145
131.133
114.117
103.980
103.060
143.728
116.824
97.880
120.431
116.116
114.199
106.191
124.107
137.858
117.223
103.851
136.389
113.346
100.503
136.044
140.427
130.859
101.247
131.600
98.424
122.099
102.455
125.603
100.128
122.525
118.677
117.489
132.887
134.645
114.022
99.964
116.351
139.094
103.011
121.926
114.595
144.301
130.499
127.955
99.896
102.066
111.379
142.303
136.752
102.740
118.246
95.988
146.356
99.649
125.470
130.642
108.557
144.991
118.365
142.049
115.324
114.103
127.287
123.996
128.751
121.885
97.012
144.572
138.468
121.077
99.142
97.969
119.455
144.340
107.168
118.656
117.161
102.067
141.556
137.573
121.189
139.050
113.381
137.067
120.660
124.655
102.231
97.083
103.195
136.978
123.707
135.395
144.509
139.658
110.055
108.613
109.775
96.902
116.026
139.416
101.323
142.294
112.126
102.993
109.735
128.659
115.391
100.428
136.051
103.860
121.101
111.848
113.863
110.275
127.509
126.414
136.209
129.200
141.538
113.075
114.455
99.282
108.067
143.346
139.163
107.245
109.481
113.158
106.493
103.821
142.841
106.496
100.788
122.625
134.682
106.794
106.399
101.253
95.257
144.630
101.072
142.788
116.794
110.302
134.809
130.769
112.399
130.463
137.985
105.079
129.330
142.034
115.931
125.167
96.975
119.657
138.343
99.946
137.241
97.473
137.459
111.066
102.749
139.506
137.254
115.793
100.261
99.708
138.257
105.407
94.966
134.280
115.671
97.925
140.843
112.700
104.788
136.850
141.985
94.803
134.489
98.613
94.849
128.917
129.946
140.529
109.866
117.885
106.840
136.227
97.220
146.124
127.504
113.529
146.178
105.334
95.732
109.253
134.734
103.818
136.246
120.126
101.015
113.287
101.151
140.350
114.262
126.657
141.827
112.992
135.911
107.628
127.931
134.658
119.335
130.322
138.226
110.489
117.083
123.247
133.572
106.325
120.304
140.037
135.290
105.133
136.584
127.223
125.772
110.472
107.768
134.565
123.800
99.492
125.561
123.511
124.127
139.795
111.366
100.822
102.285
101.842
119.793
95.410
106.755
109.329
122.146
106.578
103.791
124.980
98.232
125.727
95.703
137.170
145.843
102.694
98.310
112.811
129.340
95.750
107.941
106.044
99.133
138.595
139.885
105.487
105.857
95.003
145.595
106.073
130.549
138.462
116.102
136.367
101.295
105.363
129.793
137.198
136.123
102.995
113.642
111.311
129.358
98.068
105.641
142.761
111.143
133.062
96.837
101.651
109.351
109.398
114.447
122.210
139.656
113.698
111.192
142.286
128.847
104.115
128.618
105.984
110.346
119.487
101.424
137.056
132.728
126.718
97.927
97.915
102.161
97.998
123.832
145.821
95.585
102.769
99.930
140.734
103.583
134.053
115.862
145.287
142.505
96.694
118.941
117.667
123.036
113.155
107.099
120.972
144.678
136.962
143.589
128.600
97.751
124.553
98.777
110.731
100.515
118.521
106.414
131.896
137.708
142.018
138.951
128.619
135.243
105.173
116.587
141.056
106.814
143.221
97.262
122.841
135.256
122.525
130.475
118.885
129.296
133.944
139.395
138.397
110.864
95.684
109.538
99.889
135.965
109.721
140.776
122.588
105.656
114.966
105.289
133.538
108.233
104.154
125.866
112.587
134.953
140.136
129.103
145.899
125.523
101.139
144.441
103.460
130.622
117.010
141.459
97.711
124.014
127.980
113.557
122.145
101.952
130.036
141.845
128.423
129.123
98.646
106.834
140.068
115.987
117.291
120.261
99.598
141.377
126.737
116.047
110.332
142.824
100.502
144.600
143.749
144.796
109.359
109.223
143.478
126.609
95.034
130.649
108.089
136.802
96.580
111.465
111.322
136.678
95.470
122.151
119.673
129.079
142.422
139.182
126.913
102.828
133.038
104.554
105.987
95.395
109.397
126.303
104.644
115.800
139.291
114.720
141.447
101.400
117.104
108.450
105.751
122.785
117.230
145.488
117.100
104.020
140.964
110.919
109.812
135.827
136.560
116.038
132.584
113.970
139.016
138.631
95.474
132.245
139.613
121.307
105.317
127.335
128.354
125.248
143.634
105.278
120.170
135.327
99.964
141.183
96.570
144.356
127.843
108.356
96.968
101.194
98.628
96.265
109.858
100.484
105.986
121.683
99.153
130.007
102.723
137.436
127.442
131.496
135.498
101.551
120.809
95.771
126.562
143.071
129.437
120.200
142.685
120.671
106.619
114.987
99.062
142.356
111.063
119.488
137.464
113.002
134.704
108.226
96.072
118.584
131.070
105.999
130.504
123.862
143.593
121.219
134.154
122.353
141.947
132.176
137.037
122.682
134.265
118.510
122.785
103.419
110.861
144.439
123.934
101.414
129.939
123.851
125.491
131.273
97.529
95.153
131.580
116.935
146.059
111.112
95.467
111.874
120.427
129.228
98.253
128.966
110.176
146.731
134.122
97.336
130.185
106.980
130.896
137.281
141.383
98.459
118.008
103.154
135.027
136.874
114.730
121.165
96.791
102.025
115.841
96.622
111.133
135.831
122.636
127.583
100.084
106.740
128.512
144.115
108.259
139.695
104.729
96.755
145.994
95.492
143.604
114.315
121.495
114.244
135.950
108.493
122.716
126.890
122.421
132.321
120.653
124.862
102.091
132.590
131.162
145.581
125.224
121.767
126.276
114.410
113.522
112.453
121.771
136.078
140.632
136.643
96.122
102.693
127.460
144.528
133.479
108.237
122.975
126.619
101.431
114.541
136.384
116.876
95.919
95.637
99.608
115.423
133.300
124.110
145.330
98.438
143.429
131.291
136.742
107.720
117.873
133.286
124.333
113.518
99.671
136.580
132.219
128.537
128.118
131.753
121.136
135.852
122.039
103.154
116.302
122.419
144.754
104.257
108.252
136.305
116.070
105.514
101.824
95.506
118.864
97.050
108.798
144.993
126.756
102.619
121.516
120.181
136.031
110.718
124.322
138.375
140.321
120.657
96.479
96.289
137.937
98.386
128.086
134.547
136.807
129.060
104.060
126.224
104.070
120.578
133.993
111.439
114.510
122.885
131.574
120.112
115.226
134.328
128.940
117.180
141.923
113.595
97.712
109.005
97.889
116.046
108.810
115.721
141.750
116.510
105.501
109.000
113.386
111.592
104.895
130.763
143.959
124.414
134.122
126.693
119.098
129.426
101.319
131.803
97.238
140.354
104.681
130.678
116.925
128.323
97.328
109.009
99.217
119.870
99.211
100.151
104.855
135.840
127.183
136.417
128.768
134.985
113.122
131.802
110.436
118.437
136.696
96.041
139.400
140.738
116.899
127.447
128.695
132.614
106.259
109.746
118.609
110.344
114.595
131.094
139.500
115.956
112.771
111.422
104.780
102.305
138.170
109.361
103.283
113.837
108.243
137.372
134.313
112.945
123.059
116.174
130.786
97.654
117.272
107.434
141.705
131.240
128.568
119.855
96.654
135.904
137.666
98.996
97.402
122.418
102.397
127.868
98.945
103.644
134.047
104.331
145.184
114.156
138.447
131.620
119.677
97.159
128.816
105.491
134.883
127.146
135.380
102.370
131.241
113.601
125.419
96.182
145.221
113.069
142.254
130.364
125.005
95.262
139.347
97.732
100.099
116.521
102.090
139.543
102.554
114.864
140.327
122.609
128.591
125.387
104.735
135.142
116.877
139.604
95.940
134.252
142.705
109.023
132.381
146.214
115.018
121.947
116.352
129.579
121.064
136.945
102.501
139.573
99.793
122.454
128.411
139.325
110.745
95.008
98.397
99.347
143.651
128.808
139.374
102.379
114.869
136.777
128.044
141.228
123.899
114.991
144.189
129.202
129.255
117.339
141.002
120.084
125.537
123.530
131.148
119.243
99.874
119.194
115.987
132.930
143.166
114.050
127.969
131.687
96.167
135.097
109.618
127.503
112.167
116.960
137.308
119.937
145.451
111.544
99.208
133.824
106.281
103.979
108.225
126.963
127.958
132.179
109.020
110.894
125.526
97.159
98.920
132.647
117.098
140.410
134.729
126.622
130.166
105.484
131.208
138.675
97.069
139.136
99.757
106.932
146.092
122.455
102.576
142.977
96.669
139.993
108.515
107.950
145.293
131.640
98.182
98.232
116.047
123.312
97.066
136.385
99.231
107.981
114.812
136.206
104.038
115.139
126.551
130.215
123.080
146.132
136.531
136.837
106.810
122.998
107.470
121.496
95.046
106.053
129.896
100.355
135.231
138.559
96.777
124.740
113.863
106.011
113.523
125.101
135.140
116.414
143.399
113.417
106.459
127.520
110.895
113.128
142.785
102.011
125.031
107.947
102.367
121.131
133.472
145.464
132.314
100.152
121.346
140.130
146.096
105.964
123.039
97.791
140.791
98.350
140.361
116.620
111.608
119.619
128.364
109.667
117.670
138.393
132.732
131.738
107.099
97.566
114.684
126.478
137.340
100.228
99.145
143.428
127.516
112.491
141.082
145.646
106.367
116.605
107.635
108.393
141.920
95.795
143.904
101.249
98.336
117.007
110.550
129.934
124.139
116.219
108.224
124.069
111.431
106.756
124.420
123.851
121.794
119.267
127.512
128.572
97.390
130.898
99.949
134.314
117.985
109.846
132.337
123.922
143.914
137.764
97.329
116.149
106.364
136.205
134.678
106.501
142.678
146.724
138.846
118.652
135.291
104.468
120.939
95.118
124.998
124.515
105.151
141.542
132.105
117.132
125.342
109.725
97.266
107.147
135.289
102.043
116.788
118.560
95.768
131.661
97.069
95.786
117.089
112.322
122.723
103.818
101.935
125.665
131.180
141.604
125.675
