478.854
475.434
471.264
463.886
464.225
469.944
458.954
463.523
456.276
466.499
454.116
464.139
451.060
465.168
452.793
449.795
461.190
457.674
443.871
452.621
443.237
445.285
448.065
437.940
437.522
439.420
440.356
447.379
442.073
443.160
441.762
442.049
431.090
433.406
431.845
435.989
436.761
440.757
438.143
446.035
433.426
443.292
439.481
450.053
447.005
455.003
453.447
457.470
457.715
447.930
460.906
449.403
455.262
462.687
465.267
466.254
466.521
459.744
471.812
472.460
467.032
464.116
473.349
465.974
476.094
475.318
469.905
475.628
483.117
474.945
474.070
479.814
481.597
485.981
494.346
484.526
482.489
491.255
498.364
488.913
495.355
490.370
492.328
506.254
505.673
497.238
499.795
504.966
508.604
500.926
511.822
507.251
507.239
508.241
518.894
514.805
515.851
523.970
526.862
516.916
522.766
518.170
528.470
533.801
529.138
523.107
534.906
537.044
538.493
533.695
539.673
542.392
536.526
546.064
550.114
545.468
541.641
550.553
543.527
545.789
548.103
551.732
552.329
556.678
555.992
561.446
559.139
561.331
557.720
570.012
559.487
574.708
574.350
565.002
568.483
577.487
578.173
579.950
581.586
579.516
575.416
573.008
577.637
589.330
578.547
588.806
590.553
591.552
588.191
588.516
587.152
592.277
601.311
602.561
601.040
601.442
593.668
609.623
599.436
608.700
605.261
608.758
607.865
607.888
611.721
614.617
621.169
612.071
610.125
611.820
615.864
624.632
622.920
618.577
625.831
633.939
626.656
638.088
637.617
626.907
631.828
635.355
632.965
633.554
635.265
647.759
648.174
648.607
647.830
653.916
648.563
647.974
653.758
657.950
657.174
656.891
657.884
656.835
656.592
653.930
656.955
663.846
661.791
667.951
661.400
669.134
676.559
676.189
666.791
675.945
675.268
677.414
676.148
674.247
689.360
678.306
683.219
685.387
691.096
685.617
694.764
695.149
692.229
697.976
691.550
697.235
703.559
707.760
699.952
695.845
705.422
698.534
711.964
711.917
706.888
702.333
710.908
705.424
697.752
689.721
685.816
688.624
682.483
680.813
682.894
678.716
679.089
666.936
673.304
667.177
668.194
669.823
653.163
664.884
653.845
658.871
655.234
640.191
640.695
636.397
645.256
637.671
639.568
626.848
623.975
629.991
624.607
625.851
608.064
608.432
613.466
600.852
609.279
600.755
596.020
602.364
591.737
598.061
580.948
584.292
585.293
581.307
571.742
571.804
567.627
568.860
559.819
568.148
563.470
564.818
555.559
559.606
549.550
547.829
551.537
547.359
539.974
535.649
540.011
526.656
523.447
518.182
517.199
525.839
509.635
520.965
514.368
512.098
506.463
502.369
502.610
496.028
490.175
484.081
495.841
491.536
479.937
478.052
479.242
479.427
473.283
469.403
469.348
468.119
460.944
455.707
450.733
457.636
444.746
444.385
441.166
437.985
443.007
444.698
441.451
426.435
433.947
422.132
421.321
418.352
422.141
418.055
408.635
406.269
400.006
397.598
395.519
396.669
401.069
387.141
383.032
392.227
385.872
388.080
382.334
376.871
370.219
376.918
373.732
360.064
355.624
357.087
362.734
361.659
358.356
343.885
345.317
348.063
335.616
342.443
335.824
333.332
334.195
321.987
318.937
316.776
320.038
321.285
316.447
309.285
305.856
307.674
302.033
300.623
300.518
296.342
289.499
294.482
292.700
280.639
286.090
279.441
271.659
265.422
269.000
258.038
268.423
262.849
260.599
257.169
254.565
245.580
241.665
242.964
246.886
235.305
232.490
227.784
227.498
221.570
229.493
222.381
221.180
219.599
207.380
212.270
210.495
211.046
210.021
202.864
194.413
193.665
186.845
183.773
188.285
190.040
177.118
172.149
174.847
166.137
173.029
167.512
165.404
159.999
157.383
151.147
151.561
156.375
154.284
158.085
158.928
154.794
162.103
160.493
150.494
155.239
160.587
156.368
156.426
144.657
151.815
144.926
154.224
141.638
141.990
155.744
140.429
144.565
149.034
153.727
139.187
148.426
146.054
138.038
139.706
136.883
141.645
135.543
144.584
145.155
138.636
148.641
143.600
145.413
133.876
138.375
137.922
145.007
133.539
141.614
136.150
136.967
137.086
131.126
127.747
139.502
128.996
130.945
140.811
138.315
140.177
133.507
133.375
128.882
129.000
125.735
135.016
130.061
128.303
128.846
130.918
129.114
124.819
125.979
118.713
133.165
120.253
120.058
128.209
127.700
122.471
115.818
116.679
127.494
114.758
115.171
121.965
123.226
116.852
122.633
124.277
113.284
113.209
124.050
116.259
112.069
118.905
112.581
121.410
115.261
109.304
120.772
114.723
108.963
117.257
119.664
116.930
106.051
103.211
107.448
112.306
113.178
103.680
103.690
113.868
104.371
105.530
113.644
98.480
112.703
102.855
112.461
98.546
96.921
106.301
95.796
98.570
100.834
95.500
105.011
102.432
99.753
97.025
99.216
95.520
100.312
333.384
319.896
336.960
302.099
336.195
329.458
314.423
330.071
287.498
289.364
306.641
300.260
284.069
308.582
310.120
314.491
303.571
309.548
271.810
285.454
299.632
301.811
278.207
295.490
295.704
300.079
256.566
295.408
285.378
286.764
251.183
262.549
281.730
283.840
275.307
239.901
264.887
281.151
255.568
281.745
237.037
282.193
253.808
236.091
258.116
225.415
225.678
238.123
228.657
261.530
268.129
249.937
229.508
259.019
220.614
235.891
239.424
217.863
227.011
204.245
229.388
228.187
241.199
218.118
221.683
230.159
196.275
222.166
195.930
197.723
234.335
222.152
225.044
230.746
235.486
236.705
199.368
201.385
192.862
200.825
230.688
232.583
224.834
221.669
240.064
193.935
240.804
233.399
230.220
222.435
237.323
202.573
211.825
191.127
210.760
215.406
215.826
208.413
224.091
196.396
216.583
228.750
210.711
222.349
220.469
219.546
224.013
211.181
239.512
206.725
201.342
233.970
209.971
202.657
207.108
191.916
195.870
213.649
226.164
195.275
201.153
225.109
215.673
221.622
223.275
220.553
224.173
236.347
234.572
219.255
206.653
199.498
202.592
199.406
232.283
229.784
212.460
220.596
207.668
193.846
193.335
226.950
221.268
228.848
226.486
229.408
231.431
238.116
217.355
207.273
232.241
224.244
229.469
214.272
200.544
190.856
200.015
223.860
232.891
208.445
225.345
212.621
211.644
194.076
214.459
228.956
220.514
218.391
214.092
230.149
211.206
193.783
213.170
207.988
191.647
193.832
229.722
223.069
214.270
226.596
238.190
219.375
241.679
235.705
210.431
208.244
240.200
221.962
230.355
193.416
227.537
233.345
220.276
226.076
207.444
215.382
200.603
239.138
211.563
223.945
223.903
228.514
194.722
237.497
198.533
221.206
195.549
205.661
238.722
235.230
191.621
232.133
235.448
230.355
231.705
213.680
230.013
202.016
231.001
221.259
216.210
218.287
196.728
216.866
205.305
191.431
212.519
230.088
232.595
215.203
195.550
227.139
217.557
236.310
213.342
241.928
208.191
230.719
227.560
203.624
192.008
236.341
229.852
215.614
191.212
202.707
212.542
192.762
206.278
216.235
204.272
204.623
207.447
193.711
233.082
235.555
221.653
199.916
214.818
207.780
211.975
237.653
241.352
210.450
193.433
194.527
200.913
193.092
105.755
124.021
110.682
143.203
136.997
138.423
132.476
152.574
115.199
110.515
131.608
130.912
104.310
147.687
121.597
127.450
122.798
131.849
116.976
147.658
134.736
115.154
146.970
126.083
132.910
116.880
131.532
146.905
128.768
123.726
102.355
116.056
127.660
117.193
120.601
117.616
129.973
137.322
120.248
110.148
139.656
104.882
101.840
136.846
111.095
130.708
107.832
125.933
132.646
104.571
115.555
126.265
105.178
113.417
140.510
137.134
146.520
103.095
135.084
109.365
151.499
136.606
136.087
132.964
129.286
139.012
129.650
111.316
104.165
150.548
106.013
134.271
123.519
142.611
132.743
112.917
118.691
136.925
139.191
106.986
122.221
138.675
150.214
102.704
151.672
117.588
137.681
117.034
143.159
127.353
117.923
101.874
149.152
123.727
146.921
123.305
109.384
147.940
141.328
132.191
138.215
132.748
141.236
123.497
120.369
139.383
108.148
132.816
133.523
105.579
146.101
152.235
130.358
134.236
103.219
116.910
152.498
111.807
124.800
108.939
107.418
123.707
123.413
112.591
119.764
134.766
152.422
136.257
135.090
107.045
111.047
130.476
115.126
149.650
128.460
103.837
136.696
125.336
141.030
125.044
141.094
101.625
118.304
116.810
139.616
134.395
122.669
139.486
152.615
120.290
113.558
117.006
104.564
102.361
121.567
130.118
110.414
114.772
111.896
112.509
120.682
103.818
116.034
134.517
136.002
133.656
145.731
112.332
124.732
142.154
109.719
145.521
115.797
105.901
142.859
110.069
143.639
120.227
117.894
138.493
126.104
113.613
112.767
115.270
122.560
101.302
110.285
116.478
152.884
137.832
136.377
105.389
143.180
106.710
118.059
116.157
117.903
137.810
118.123
102.030
134.244
117.300
141.512
116.415
133.420
122.431
149.519
119.865
123.167
114.266
106.064
151.294
146.945
145.661
137.820
138.082
102.628
132.518
129.882
119.765
111.522
149.063
128.893
142.348
144.218
139.135
123.454
129.633
132.856
117.714
150.059
120.546
122.206
129.863
129.770
141.890
140.001
116.457
117.069
115.592
122.028
138.882
136.889
113.292
118.369
114.533
107.955
135.888
123.943
105.677
142.878
136.935
138.993
110.659
116.724
105.775
143.518
130.795
153.062
104.149
136.329
136.705
110.962
110.458
118.531
127.669
113.838
108.802
107.621
112.474
153.115
116.874
103.875
127.696
151.947
116.893
145.541
136.894
113.297
101.688
138.419
147.831
118.606
106.919
129.310
120.730
151.321
120.137
104.881
102.700
108.315
125.682
136.740
139.899
109.041
126.552
143.673
136.016
101.574
130.777
129.586
142.300
143.757
108.489
113.589
115.570
150.199
126.426
101.886
149.910
147.735
138.295
128.857
133.620
121.065
122.930
114.426
109.106
123.287
119.764
108.060
103.057
104.781
129.444
149.871
137.165
113.048
140.268
119.235
126.740
129.893
150.004
151.188
152.734
150.889
148.440
120.672
106.922
126.728
117.302
152.821
135.876
108.747
103.558
134.710
106.956
109.346
119.800
123.123
136.487
114.683
141.042
146.027
133.828
137.099
134.377
122.314
146.192
102.962
128.916
149.809
114.847
132.159
151.814
136.197
126.373
107.268
101.724
130.042
126.242
121.727
145.114
126.512
144.522
111.204
152.956
115.402
117.609
145.298
103.335
106.652
121.310
149.437
122.544
110.651
144.303
151.285
102.488
132.809
127.615
119.991
121.908
102.024
106.567
137.170
147.385
112.945
138.902
141.504
131.937
132.174
141.795
114.456
141.031
138.860
145.515
113.566
146.576
131.849
141.924
105.876
148.329
135.260
118.693
103.157
123.652
149.484
138.088
145.526
146.864
149.527
123.296
133.544
124.401
136.670
152.435
113.952
106.417
144.928
107.671
148.802
114.426
143.889
118.345
142.625
128.724
137.031
102.201
147.744
118.852
136.514
145.671
140.768
116.132
113.651
142.626
121.069
128.989
142.029
104.337
110.089
138.962
133.445
117.112
148.882
147.239
113.549
103.898
128.232
143.844
101.190
101.589
143.607
102.202
116.183
106.993
141.787
149.878
123.116
138.084
114.272
111.651
120.805
123.910
107.429
113.182
114.802
103.436
142.122
128.729
150.754
135.503
125.841
153.080
140.949
120.156
107.889
101.232
110.466
103.861
126.951
130.672
126.058
125.856
148.798
119.197
132.274
118.723
146.856
119.660
113.864
111.315
146.225
110.172
101.448
107.462
133.301
114.010
134.613
109.950
105.439
126.706
135.359
133.424
127.383
110.789
134.955
148.586
141.284
141.814
127.099
142.186
135.113
128.329
102.886
132.009
107.794
103.954
104.148
139.219
106.187
135.520
102.374
101.640
138.210
125.407
135.651
123.983
123.719
115.853
119.529
131.360
141.357
140.056
112.856
106.745
143.345
115.124
120.523
116.347
122.126
128.961
106.288
122.591
148.754
145.710
150.178
102.245
141.224
122.951
131.810
148.998
123.302
116.909
118.112
136.225
103.489
128.449
123.617
149.642
122.970
118.111
129.263
108.345
150.682
120.020
147.619
126.464
103.918
125.833
133.232
143.290
135.197
148.191
115.114
117.824
106.523
114.886
146.429
143.510
146.139
129.145
116.245
107.528
140.248
106.833
150.440
127.687
143.891
123.909
142.576
108.602
118.567
146.091
137.363
107.064
142.404
102.374
102.359
147.016
147.992
153.135
102.291
143.311
107.773
117.303
115.497
140.032
142.549
139.106
118.794
110.985
130.752
105.177
128.494
138.711
127.867
133.561
145.161
121.101
137.744
143.132
115.098
103.074
143.912
108.072
135.948
144.943
118.691
149.652
113.958
116.714
145.682
133.627
122.862
128.539
137.814
134.818
128.311
125.261
131.097
129.738
138.540
144.441
129.972
150.897
130.494
135.052
109.923
142.888
128.745
139.860
106.196
128.932
111.005
130.355
149.525
132.846
120.743
146.779
127.659
142.851
108.414
120.246
121.552
130.740
142.249
126.662
120.337
130.719
125.480
152.247
128.675
127.484
132.556
103.927
111.413
117.564
150.688
147.068
110.919
135.957
147.646
119.775
117.323
112.750
116.420
147.279
117.705
139.212
149.921
146.653
116.080
115.399
107.484
101.759
136.487
125.458
111.930
126.964
145.903
126.054
114.624
134.372
106.582
115.360
111.526
109.469
139.535
136.859
151.793
144.429
118.248
146.046
149.210
130.615
135.044
139.007
121.275
112.576
144.493
108.607
121.507
129.473
140.944
131.837
134.831
106.968
124.942
109.876
145.196
132.675
136.675
149.266
143.070
125.625
106.575
131.930
147.470
132.169
121.378
123.409
127.566
106.966
147.816
122.403
135.348
107.031
130.613
118.203
125.996
125.250
136.304
142.603
137.038
145.988
108.729
133.824
135.209
122.482
118.682
137.806
143.308
110.399
120.918
143.197
101.787
114.302
118.290
144.448
124.428
115.694
124.178
136.716
143.351
110.333
110.423
108.481
121.323
121.963
134.709
145.298
141.168
134.339
125.304
133.016
119.481
115.472
110.335
110.686
143.165
151.094
118.394
103.982
118.792
139.122
110.727
105.401
143.616
139.055
152.556
105.152
148.810
117.175
139.276
113.902
127.694
101.534
115.745
134.481
129.325
105.387
111.244
128.085
125.203
111.262
127.207
110.276
133.508
139.997
101.161
117.576
105.730
146.389
144.000
150.975
115.045
134.906
112.305
113.140
128.015
115.109
102.574
106.627
129.003
111.578
150.191
110.098
137.104
141.348
139.391
146.821
132.918
148.770
122.972
115.687
123.601
122.955
104.129
111.762
113.052
105.403
111.986
109.368
105.067
124.134
122.106
130.625
122.900
101.425
135.543
126.769
152.800
117.357
142.082
130.916
147.511
138.381
103.176
116.770
121.282
115.603
105.934
109.395
131.061
120.031
126.776
102.410
137.562
107.630
124.337
145.477
117.919
116.637
122.124
150.406
113.899
139.490
121.456
122.841
111.274
125.961
120.590
136.735
140.009
147.399
133.882
133.189
102.980
120.246
144.430
132.608
111.606
107.678
110.247
115.979
144.135
111.873
150.128
132.430
103.934
149.795
140.418
117.644
120.894
131.214
142.133
111.793
103.406
130.674
146.724
116.058
126.618
106.539
108.084
114.186
146.414
118.927
105.537
111.325
150.634
149.575
126.802
130.016
115.918
106.955
126.066
127.385
121.920
121.152
102.615
118.269
134.661
136.499
126.546
109.205
148.900
127.256
114.459
111.895
124.025
118.892
107.928
120.277
140.690
126.973
140.235
150.787
134.892
103.203
130.635
124.833
145.471
114.211
138.653
139.176
142.875
125.847
119.511
116.319
120.546
124.275
142.639
125.631
124.994
123.513
112.651
108.553
102.989
140.981
108.799
126.054
106.591
118.636
104.310
148.769
116.296
124.506
150.976
121.159
147.149
128.275
151.856
109.150
104.767
121.270
109.305
151.797
110.653
114.620
141.535
141.425
128.295
126.704
115.473
135.646
120.929
127.791
113.676
127.518
128.726
148.108
128.127
135.982
129.272
103.000
113.857
132.622
115.725
152.423
151.039
135.990
121.921
107.898
107.025
150.633
127.364
149.195
146.556
115.016
113.284
144.332
111.879
143.352
101.953
149.650
150.928
120.097
108.749
140.913
109.614
124.418
149.225
121.738
136.780
139.830
144.702
104.301
129.851
127.402
120.189
149.234
115.451
113.044
142.379
146.891
112.041
119.117
109.195
108.705
128.328
108.679
102.414
128.597
102.995
130.854
110.797
109.177
151.725
119.169
110.968
107.767
145.250
150.356
114.966
115.158
135.713
150.619
134.951
141.082
103.722
132.492
143.847
128.799
111.090
115.080
121.748
141.941
127.376
123.347
124.306
132.429
102.948
107.062
121.258
145.765
148.078
109.114
148.083
115.616
139.592
113.487
124.157
152.591
113.191
103.333
102.206
141.664
129.735
124.874
147.620
107.817
140.276
101.211
144.366
117.106
117.658
124.627
117.003
129.934
139.542
141.656
137.705
111.548
145.439
127.756
108.672
145.579
145.232
128.735
141.580
116.165
135.034
115.480
115.526
104.717
117.294
147.395
136.390
129.704
142.318
130.101
103.107
140.130
151.734
151.957
141.741
107.110
112.626
116.550
109.480
147.924
112.378
124.116
145.229
119.218
