777.746
783.775
778.215
789.574
788.465
786.529
794.977
795.696
785.321
789.418
783.318
788.465
788.906
797.126
794.143
789.554
803.870
794.859
798.920
805.022
799.886
796.367
803.299
799.689
798.831
811.387
808.290
809.941
811.977
805.742
810.646
816.139
812.860
806.334
807.998
808.950
819.195
820.655
820.561
816.026
819.004
821.628
819.713
827.135
816.556
822.725
816.368
825.451
816.845
830.225
822.057
822.775
834.076
834.785
826.785
823.956
836.073
834.319
830.991
840.538
841.944
829.262
843.106
830.653
833.274
836.451
838.342
847.758
841.109
846.588
844.496
846.618
849.276
850.802
847.852
851.835
852.034
850.106
848.976
852.143
856.161
848.370
851.894
857.118
852.988
853.135
857.503
865.413
853.766
865.721
855.061
866.325
855.000
860.049
852.039
852.964
859.057
856.005
860.249
850.763
862.327
859.139
856.426
853.249
848.893
848.993
846.612
852.144
856.633
849.877
850.398
849.216
860.684
856.284
848.518
844.515
850.774
848.110
854.182
852.950
856.326
849.152
851.636
853.443
847.573
842.876
841.375
843.230
850.107
841.490
844.117
845.754
850.347
849.785
842.277
852.994
848.395
840.289
852.103
841.938
839.024
842.999
839.490
837.024
842.128
844.568
835.129
840.202
837.008
843.876
834.905
843.358
841.551
841.198
837.155
836.787
836.000
833.054
833.872
830.861
837.904
835.594
830.397
834.599
828.515
828.443
837.546
835.085
834.647
830.674
840.051
842.042
833.024
837.916
830.163
839.915
826.271
825.880
834.291
825.780
836.744
833.121
837.867
833.065
829.623
833.766
832.770
837.147
831.715
821.500
821.260
824.807
831.352
821.543
833.475
822.375
818.902
831.702
817.936
819.670
823.361
830.673
828.140
824.544
831.172
822.692
816.598
822.686
823.210
816.459
820.606
816.936
818.937
819.812
823.067
825.420
813.764
827.372
821.822
813.875
823.837
819.447
818.088
812.213
814.671
810.979
824.675
809.676
820.032
814.159
814.987
809.842
813.112
820.228
806.879
820.725
821.741
811.976
812.123
807.000
812.081
817.625
813.177
811.104
807.830
806.698
816.314
811.349
817.218
815.636
806.491
805.246
803.059
815.728
805.718
811.520
805.857
809.143
804.709
803.031
811.136
798.999
811.353
808.549
800.182
800.626
811.740
805.598
802.406
798.212
805.372
798.535
805.547
799.368
794.915
798.713
802.646
806.445
795.804
801.909
804.739
800.964
793.682
793.363
793.948
792.002
797.518
805.584
801.741
789.509
792.653
795.685
787.567
792.382
798.985
797.931
791.068
791.395
787.308
789.234
783.817
793.623
794.837
793.608
789.015
785.068
794.388
794.906
780.501
780.700
782.903
792.229
781.763
791.539
791.205
775.702
786.829
776.530
784.603
778.929
786.994
772.885
774.221
773.209
781.190
780.619
775.775
769.383
779.600
767.623
768.149
780.309
773.611
765.579
780.442
770.759
766.214
768.905
769.429
772.350
771.289
766.480
761.110
768.971
771.789
769.071
766.886
759.557
757.814
768.543
755.852
771.106
769.876
756.116
765.349
760.066
758.197
755.641
762.285
758.811
757.099
764.113
761.577
760.962
755.907
754.651
753.663
756.333
746.878
751.768
759.220
745.575
753.450
756.291
742.815
748.991
755.078
747.730
751.344
743.734
752.579
750.669
751.246
741.962
741.775
739.794
738.980
746.201
745.095
741.447
735.568
745.456
736.482
742.525
742.662
732.097
744.321
730.217
729.818
731.261
741.687
741.129
728.737
727.214
732.729
728.225
740.044
726.210
726.665
729.573
724.262
735.101
724.001
730.447
735.952
735.928
721.612
720.434
728.459
730.226
727.579
724.566
723.599
724.802
730.408
716.386
715.061
717.830
717.352
724.189
724.486
722.566
712.444
719.484
718.369
710.312
721.648
709.576
722.030
715.422
707.255
718.055
720.583
720.276
709.877
715.237
715.700
712.375
706.394
704.514
707.708
701.389
703.826
712.519
711.524
710.686
699.689
704.964
700.259
704.691
708.907
695.755
698.780
700.103
701.169
693.189
693.606
696.515
705.940
691.138
700.037
695.358
689.059
690.625
692.034
691.752
697.061
699.037
692.706
690.518
697.216
688.529
695.675
690.645
697.222
682.147
689.149
692.650
685.297
691.004
686.912
688.165
683.913
698.653
690.078
691.131
694.627
697.025
688.898
697.628
691.922
700.253
703.738
704.036
696.360
707.741
695.615
712.102
707.571
703.907
702.846
712.927
700.915
710.644
713.636
709.756
705.486
709.242
712.889
716.330
711.884
721.386
712.010
712.849
714.320
719.303
715.248
719.776
728.588
723.695
728.316
731.161
720.897
725.879
734.243
728.967
729.844
729.531
728.310
737.993
733.752
730.111
740.855
734.961
741.443
732.292
745.492
741.151
743.517
742.399
748.615
748.426
741.158
747.378
746.542
738.910
740.026
746.906
751.065
753.377
745.112
750.234
752.692
755.588
750.270
753.515
747.652
757.159
752.717
756.095
760.987
754.615
761.573
761.303
757.956
764.389
765.676
768.401
769.971
762.912
760.398
761.833
761.134
766.926
769.719
767.387
774.776
767.642
775.034
781.085
773.775
772.438
777.777
778.641
773.917
775.861
787.181
784.092
780.492
781.635
790.882
788.690
786.284
784.866
786.195
793.513
788.101
782.132
788.815
790.622
790.884
790.402
799.621
800.241
787.510
793.130
802.877
789.909
797.652
807.515
793.777
808.760
801.032
808.552
800.682
804.482
809.011
814.042
810.466
806.440
816.156
808.832
806.499
816.323
815.697
807.447
821.104
816.536
814.687
817.696
811.390
811.841
821.289
817.736
828.433
823.755
824.486
830.925
821.215
826.988
822.564
834.222
835.150
822.453
833.547
831.439
828.985
834.293
830.544
828.691
829.961
830.065
838.503
833.975
832.487
838.870
846.798
840.380
837.457
843.271
845.099
849.862
846.348
838.718
842.441
844.640
852.313
844.454
845.312
849.978
848.776
849.296
851.772
854.992
861.105
848.471
859.008
860.287
862.923
863.989
850.895
860.151
846.058
857.596
852.891
847.440
846.630
840.427
840.594
844.664
833.159
834.864
836.319
836.447
837.637
839.786
824.761
834.980
834.206
826.995
821.481
821.867
822.737
825.452
816.191
811.571
818.455
810.989
811.018
807.577
813.338
805.212
812.624
802.725
805.847
808.477
801.609
809.677
793.541
792.740
794.733
803.752
790.086
794.883
786.762
789.943
782.997
784.712
780.302
789.702
782.049
781.444
783.116
772.482
771.987
769.951
773.201
766.258
770.929
763.371
767.613
760.632
767.504
757.859
766.675
759.331
757.867
751.853
756.678
763.468
749.152
759.314
747.661
747.259
745.647
743.260
748.771
750.338
737.634
733.926
736.385
744.725
730.821
731.873
740.154
733.334
737.107
731.397
732.814
722.748
723.552
726.997
726.945
722.387
718.994
726.729
715.584
719.694
708.015
711.282
709.752
717.659
715.372
706.799
706.742
698.977
697.309
704.460
706.918
705.531
701.399
702.872
693.390
689.834
695.682
682.364
685.530
679.572
687.110
687.037
680.098
687.710
681.889
674.158
675.741
672.523
667.353
666.826
669.415
662.943
664.753
663.008
665.371
656.324
664.143
664.626
665.047
657.111
661.604
648.578
651.034
649.330
646.833
651.108
650.250
644.842
648.862
645.686
645.347
641.735
645.680
640.518
642.609
629.781
632.185
629.909
632.908
633.994
635.817
632.742
621.567
620.933
622.454
618.104
613.283
619.946
609.840
611.408
620.272
616.534
616.558
602.133
601.965
612.594
604.148
597.947
599.881
594.584
605.696
603.033
604.485
599.145
592.611
596.910
595.850
592.965
583.791
589.288
581.006
575.832
588.005
585.865
574.147
582.990
568.633
573.927
570.506
576.640
565.434
576.869
577.101
576.682
566.003
572.713
569.248
576.388
571.499
570.511
574.496
564.615
577.933
579.884
576.699
578.238
579.299
574.484
566.690
570.498
574.815
567.892
572.350
572.952
579.021
567.581
576.768
573.966
568.118
571.936
575.197
569.948
578.496
579.465
575.209
571.867
571.359
569.689
575.439
577.120
578.348
569.265
572.890
572.817
575.258
571.075
569.736
581.199
577.211
570.324
578.783
572.347
583.983
576.493
571.500
574.125
577.657
579.434
583.026
572.466
574.439
582.051
577.185
575.766
586.860
584.239
571.904
583.333
574.558
576.901
580.185
583.936
587.558
575.692
575.287
587.955
577.982
586.818
584.810
574.314
575.891
585.204
587.882
585.165
575.346
585.905
583.630
589.336
585.004
584.066
576.052
582.089
588.119
579.839
584.038
586.505
575.659
582.824
582.368
579.601
588.657
584.613
575.867
588.256
579.239
590.494
577.674
581.981
583.091
588.678
589.617
580.893
578.561
585.317
592.769
585.218
589.279
587.549
584.906
584.689
586.481
589.350
584.947
580.373
591.140
592.490
585.189
579.458
588.135
589.484
585.554
582.554
594.349
594.469
589.878
585.988
580.865
591.343
594.724
588.198
591.893
581.314
589.346
591.586
594.155
591.937
587.766
595.686
596.544
584.777
592.147
585.969
593.416
587.219
598.068
595.090
596.453
591.557
586.832
594.368
589.327
585.070
598.210
586.552
583.808
598.000
586.911
589.720
595.620
599.205
597.539
595.576
586.963
586.368
592.967
588.574
585.693
592.224
589.661
593.521
590.573
588.183
589.626
598.399
595.448
590.325
591.265
599.940
601.147
587.933
598.739
596.669
602.379
589.104
603.202
592.314
595.738
601.405
589.361
603.026
588.406
592.052
587.092
586.980
580.816
586.877
583.470
587.058
576.787
576.287
572.430
579.432
563.340
567.163
567.959
569.743
564.061
557.184
559.854
556.306
559.050
546.365
557.965
546.477
542.549
550.373
546.696
531.664
541.548
533.239
538.881
535.015
534.690
519.894
521.216
515.485
523.057
515.350
524.366
515.361
504.382
515.837
506.210
502.899
510.485
494.109
497.215
498.847
502.662
495.121
486.835
487.888
480.377
480.897
481.924
479.615
480.468
478.141
478.616
477.379
475.378
471.259
468.534
464.777
458.504
466.298
457.370
460.676
460.165
445.959
444.083
442.556
437.521
441.355
445.432
443.337
430.818
438.627
432.047
435.919
424.518
421.872
419.361
424.654
418.211
419.008
410.478
410.465
413.950
409.680
410.211
401.976
397.515
402.902
399.045
393.246
390.751
388.940
396.296
390.747
388.347
376.137
381.220
376.497
377.125
371.569
374.434
374.436
369.918
367.469
366.625
360.547
354.198
364.420
352.633
350.300
356.806
354.375
341.942
345.858
338.638
342.211
342.360
338.281
330.783
338.451
323.648
324.099
320.588
321.398
327.319
318.542
314.919
313.863
317.474
308.080
315.796
302.515
312.534
310.531
307.997
296.167
294.212
288.509
294.819
288.553
294.935
288.823
286.061
280.570
287.518
271.671
279.354
268.796
270.640
265.535
264.584
259.022
264.265
254.813
259.927
256.507
260.436
255.174
246.086
252.093
242.015
245.310
243.607
242.437
236.115
241.461
229.825
233.760
225.475
223.734
223.479
225.171
217.866
219.455
216.188
216.536
219.772
207.454
202.097
214.847
202.216
199.412
195.703
193.835
192.436
196.652
187.603
197.931
193.879
183.170
178.973
184.283
183.924
182.670
171.038
177.678
167.379
181.568
169.913
176.996
167.153
176.139
172.751
170.951
174.054
163.710
174.473
173.000
172.468
165.657
175.003
172.381
172.111
168.279
163.536
165.761
162.614
159.787
167.137
161.598
155.100
161.504
162.421
167.582
153.820
152.567
162.923
164.961
151.104
156.318
153.859
152.843
157.180
160.394
154.085
151.639
159.730
156.672
156.575
152.413
149.156
155.882
148.435
155.137
150.277
147.771
148.869
147.684
151.781
152.617
143.037
153.755
143.762
146.611
148.926
140.176
139.807
144.501
146.271
140.249
146.322
144.350
145.037
138.042
145.015
133.703
132.273
135.092
143.010
129.598
139.788
140.933
130.662
139.742
135.396
129.218
134.727
131.899
133.400
134.866
138.313
133.447
135.360
124.893
130.843
127.567
133.624
132.742
127.546
119.665
117.658
410.034
405.479
417.749
412.231
377.548
409.416
418.547
415.138
409.917
402.438
393.950
376.495
402.902
398.834
383.683
383.701
382.647
369.595
364.952
351.617
369.528
350.346
346.201
379.936
368.033
339.811
385.231
372.589
337.802
373.039
341.800
339.776
358.817
328.254
328.405
338.334
334.567
339.034
350.522
344.996
339.941
361.124
350.736
339.987
343.037
342.911
319.499
334.333
313.973
342.559
307.569
305.761
298.708
303.029
297.295
288.609
290.961
324.692
319.940
301.642
326.741
314.269
278.301
302.653
306.303
285.027
277.489
295.247
300.811
285.983
302.936
308.017
289.549
279.295
267.496
273.434
269.107
296.690
288.954
264.794
264.594
282.672
274.159
260.487
278.093
245.656
243.287
280.119
240.719
229.239
269.239
252.402
269.825
255.490
257.717
220.397
252.951
260.277
254.988
211.445
219.186
243.029
240.184
117.435
121.610
149.546
121.009
110.202
142.512
116.816
112.326
140.250
140.914
109.620
134.609
139.698
145.195
138.325
149.080
137.886
149.609
143.266
101.944
118.325
151.003
143.006
124.416
133.101
114.570
127.172
109.641
137.625
124.060
115.998
130.842
145.673
148.374
126.097
146.443
150.973
142.586
152.686
136.687
115.054
116.235
117.150
115.861
138.594
102.520
107.913
140.747
120.909
127.027
139.185
104.138
101.549
134.983
103.031
111.658
144.210
122.696
118.165
132.241
108.917
109.805
129.911
140.168
152.870
111.862
141.259
137.651
116.317
105.802
148.642
120.573
140.979
101.411
114.780
102.046
124.301
116.203
151.284
103.173
118.528
132.387
152.718
136.022
115.635
118.675
105.420
132.181
146.064
148.818
107.383
140.784
136.059
121.281
109.183
133.293
136.832
111.344
121.131
148.870
120.659
108.782
125.876
113.199
112.581
141.836
121.015
137.830
117.469
137.929
130.294
136.710
102.173
131.700
121.763
112.462
149.816
116.066
151.378
110.553
104.822
115.666
109.572
145.144
108.456
118.227
123.597
134.066
140.079
110.925
122.184
111.226
125.274
136.190
131.260
125.013
145.600
139.954
137.962
112.859
108.070
122.310
106.573
125.860
128.074
123.365
148.495
149.935
124.337
107.293
138.602
138.302
113.830
135.877
148.788
128.090
150.476
144.813
140.032
105.412
112.481
121.586
110.093
115.737
150.844
136.581
121.880
136.810
107.989
148.792
127.274
139.651
105.058
133.632
149.652
120.441
108.663
123.885
110.897
147.011
121.419
108.918
148.002
152.489
118.712
119.180
103.535
140.076
123.508
122.624
133.416
121.255
107.196
148.851
138.183
122.881
148.717
143.559
150.008
123.671
121.444
110.052
113.331
133.308
113.381
133.461
151.916
128.252
148.069
141.190
132.673
123.740
142.614
149.407
148.832
121.066
142.188
145.072
131.350
151.069
115.275
149.166
147.885
135.109
107.221
108.806
130.925
133.066
137.224
123.151
146.600
130.730
101.445
153.073
131.035
144.439
147.341
125.760
125.588
142.523
124.013
142.056
124.633
128.131
133.447
101.907
129.747
135.232
113.936
103.820
123.669
145.318
104.433
127.135
138.973
133.060
122.906
150.091
129.994
110.395
116.632
118.938
148.350
145.501
102.044
149.072
133.881
130.478
126.523
115.806
130.132
123.101
113.346
146.251
144.486
148.352
104.648
111.911
142.922
142.414
117.785
141.350
122.382
153.033
115.148
147.388
101.524
131.492
138.247
149.503
143.389
140.251
142.814
108.424
107.485
124.069
123.076
123.863
141.378
130.590
107.835
120.290
116.382
121.151
114.166
122.820
143.449
104.627
145.260
146.637
113.393
124.883
138.984
133.348
150.500
123.091
152.074
116.012
146.053
144.423
127.346
147.214
137.382
135.476
150.372
146.813
101.957
113.552
146.324
129.503
147.394
146.386
107.182
138.514
102.031
125.580
110.717
136.949
125.548
111.845
150.632
145.969
147.682
131.416
146.532
111.202
141.041
124.668
131.355
145.982
131.461
146.561
121.649
112.049
123.135
142.264
123.331
127.502
116.283
141.547
142.952
143.964
114.438
122.806
134.918
116.830
130.034
119.227
147.869
141.334
138.061
143.245
131.547
126.188
140.390
107.581
131.313
144.748
117.879
135.412
103.412
131.311
151.988
125.286
150.523
114.754
108.921
112.812
152.383
116.487
107.728
128.651
136.193
111.066
109.721
118.366
107.045
149.739
136.876
110.296
127.055
129.604
140.245
101.537
109.485
140.227
148.610
141.027
135.057
148.010
111.568
142.105
114.393
107.406
106.348
111.641
133.379
119.195
151.585
140.781
144.468
127.574
103.612
103.384
106.313
152.278
143.705
105.832
108.374
149.480
124.464
109.549
116.884
131.021
122.506
129.904
122.734
124.143
140.585
142.319
127.327
101.179
145.084
128.205
111.868
121.660
122.555
147.185
127.760
146.050
146.589
127.236
137.044
125.340
126.135
120.286
150.846
137.978
121.774
116.746
137.842
105.002
139.881
111.406
151.588
121.005
137.955
140.603
146.567
102.568
147.023
111.852
152.857
144.393
147.003
124.052
146.618
108.071
137.791
149.848
147.603
106.366
111.695
128.867
133.133
143.918
105.393
121.571
104.157
118.935
149.526
109.936
132.651
139.608
128.245
152.557
107.820
115.994
112.010
146.936
149.457
152.532
126.413
113.834
121.028
119.992
135.472
109.006
149.091
109.393
110.412
133.679
