855.244
847.434
847.500
843.008
841.598
851.594
843.418
848.054
841.898
842.052
841.398
840.595
845.553
841.844
851.041
852.284
836.811
848.887
846.631
839.601
846.090
842.106
845.566
842.170
846.857
844.331
838.867
838.888
840.275
833.248
837.111
832.939
840.875
846.903
837.682
843.736
844.645
835.770
844.664
836.042
841.418
842.994
830.750
836.955
836.093
831.891
833.045
831.952
830.959
833.098
835.863
831.675
834.570
827.998
828.432
832.309
825.527
826.043
832.594
826.517
826.831
826.086
826.234
830.379
826.200
836.089
825.855
831.480
830.002
824.632
829.408
824.296
823.359
818.986
825.288
822.653
825.249
822.542
829.114
825.783
832.512
823.873
827.662
825.377
819.844
822.685
823.916
816.359
826.355
826.428
829.358
829.094
814.104
818.085
813.606
818.633
817.573
824.235
825.412
819.805
824.536
811.045
819.092
814.915
816.708
814.049
816.295
812.961
814.378
814.154
820.383
818.780
806.910
816.720
818.039
810.422
814.255
806.178
808.599
815.835
811.066
817.794
809.690
805.374
805.162
803.641
816.476
805.168
802.216
814.396
814.740
801.388
810.895
809.359
811.294
805.625
804.823
811.474
807.462
804.272
806.447
798.537
802.987
801.706
799.027
797.076
800.488
810.807
807.531
800.839
803.301
800.874
804.610
794.207
807.648
808.085
793.245
792.709
806.880
794.721
804.958
804.748
795.403
797.920
794.177
790.952
793.212
789.177
801.513
793.170
791.557
802.484
789.241
791.553
794.229
797.888
794.311
795.992
791.205
788.176
786.819
788.261
781.341
782.152
780.325
779.514
790.869
781.666
784.170
783.758
788.723
779.664
777.588
776.925
785.393
784.011
779.373
779.577
773.339
786.290
775.119
784.320
770.572
781.821
777.348
781.297
769.740
768.833
774.945
773.726
768.631
776.188
772.440
776.392
774.051
769.223
766.688
763.563
774.195
762.308
769.344
774.888
760.987
772.110
758.193
761.735
758.067
763.123
770.417
770.278
756.822
769.270
758.774
761.912
760.297
754.480
760.634
764.924
757.736
754.763
757.378
764.512
751.808
758.512
755.768
761.915
761.720
752.417
756.417
746.299
755.720
746.732
747.171
746.544
746.736
750.573
740.626
740.186
744.322
739.247
738.329
752.599
750.809
746.360
746.015
749.078
747.976
748.058
745.897
748.940
743.172
735.826
743.086
734.301
745.447
730.861
740.367
731.815
734.992
730.228
735.038
729.148
739.179
734.601
729.360
735.554
729.381
727.946
738.158
737.693
729.559
735.997
726.962
727.505
720.985
729.959
725.167
719.617
728.727
718.624
727.367
721.897
718.930
723.299
714.394
726.316
715.616
719.033
723.459
711.652
724.492
712.318
714.144
710.751
716.959
710.011
709.025
718.948
721.077
712.776
719.680
717.787
712.118
706.160
715.495
702.802
708.381
709.256
710.019
714.859
706.224
701.821
706.911
699.963
704.932
707.938
708.932
705.779
708.443
709.199
702.843
702.618
701.093
704.086
705.392
702.705
702.993
698.348
695.449
698.305
702.864
698.858
703.010
696.577
696.980
690.965
697.128
687.777
689.794
695.995
697.441
687.523
686.544
692.281
694.252
689.310
695.366
686.282
687.642
683.185
690.603
699.013
693.804
688.040
701.529
700.134
704.262
693.494
693.735
696.461
705.314
703.986
697.766
704.621
705.159
708.841
702.298
702.934
709.884
705.693
708.164
716.259
706.420
709.549
707.644
719.277
708.023
708.616
716.405
720.641
719.992
716.093
726.282
715.156
712.853
715.120
717.289
728.501
718.775
728.099
723.088
729.775
733.381
734.901
728.275
736.224
724.662
727.603
726.545
731.752
735.193
737.996
728.345
735.314
740.760
744.797
732.798
740.931
738.659
739.818
748.623
736.258
743.452
751.412
753.829
745.710
752.041
746.318
743.878
756.399
753.741
750.402
744.966
757.906
751.559
750.413
748.262
764.405
751.445
759.193
765.121
754.860
762.131
760.613
755.870
769.667
767.365
763.876
763.008
768.951
773.313
761.587
775.356
768.089
775.224
771.299
769.413
776.663
781.257
777.258
776.414
785.124
782.199
777.416
775.389
781.087
783.292
787.587
789.554
784.069
778.447
784.231
783.041
786.972
793.954
794.334
783.467
796.685
787.902
794.242
798.924
800.215
788.386
795.359
789.744
798.554
805.419
806.899
803.486
796.029
809.739
795.420
796.492
797.463
798.626
812.978
801.020
805.533
807.565
807.545
809.705
814.149
819.664
806.798
819.043
812.127
811.746
820.037
811.582
826.056
816.658
826.346
817.117
821.695
814.905
820.924
823.899
829.310
820.015
832.092
825.902
822.539
832.048
824.585
833.068
835.445
828.494
827.984
841.821
840.554
830.855
838.438
838.717
844.841
843.230
844.225
837.465
847.443
843.387
835.988
844.534
850.063
850.872
841.401
847.324
848.282
850.078
852.357
843.616
847.515
855.849
847.878
859.689
863.027
854.001
854.739
851.637
864.715
860.028
854.841
849.410
844.006
845.535
849.564
847.177
840.672
851.719
835.658
841.182
837.414
830.203
840.418
828.053
830.585
837.854
830.529
835.166
833.964
819.405
832.780
830.563
817.989
819.739
825.146
810.289
822.133
814.518
820.494
820.068
807.191
805.358
814.768
807.918
798.888
811.419
799.824
802.305
799.303
804.233
791.397
794.125
792.689
791.265
793.468
782.730
785.863
784.850
778.233
781.051
779.984
781.156
771.860
782.001
771.033
780.980
769.956
770.514
767.772
762.122
773.804
770.607
767.124
755.521
762.509
754.099
765.716
763.811
751.154
759.660
745.913
750.449
744.813
754.624
745.938
749.755
738.464
741.310
748.162
735.892
746.563
735.116
732.160
733.124
727.241
729.748
737.795
728.470
731.451
731.103
728.985
728.394
724.837
727.126
723.849
714.602
713.967
720.711
709.932
704.991
707.510
713.795
702.185
711.789
707.824
698.601
696.085
705.324
692.749
704.397
694.142
688.716
692.740
688.300
690.776
685.201
692.136
689.240
690.356
686.085
686.309
681.683
685.171
683.696
671.477
670.059
674.575
677.598
673.058
674.427
669.576
671.874
667.815
657.392
663.317
660.090
655.304
656.900
654.172
661.001
655.348
646.119
642.443
644.415
645.559
648.644
647.363
650.558
648.861
640.699
641.488
639.582
631.919
627.955
639.080
634.972
636.156
623.059
621.062
622.756
630.347
626.398
618.655
617.066
617.116
611.711
612.441
620.372
604.667
607.611
606.197
608.911
611.552
597.562
598.025
607.225
605.805
592.231
592.315
601.421
589.907
589.639
586.031
588.914
581.643
592.847
584.477
592.115
588.192
579.722
587.845
573.067
582.244
569.956
579.987
568.356
570.473
563.803
577.150
576.410
577.860
572.772
566.972
568.207
569.720
571.418
564.513
575.282
564.675
569.387
578.050
574.291
567.195
565.464
576.476
579.379
567.338
570.901
579.915
570.587
572.770
572.970
569.006
575.359
581.699
570.536
568.843
573.460
575.413
572.039
582.495
580.655
571.381
581.299
582.775
582.640
568.506
579.862
583.368
577.087
583.351
572.188
568.874
571.246
573.797
573.647
572.926
574.726
583.858
570.916
574.791
571.957
579.227
575.531
581.290
579.210
579.947
585.382
585.494
584.113
581.930
576.581
585.235
585.656
576.299
587.404
582.240
576.762
578.184
577.133
582.014
581.192
585.103
585.905
585.402
574.583
572.918
582.653
584.676
579.552
574.459
581.943
588.004
588.722
577.774
580.337
578.898
577.220
589.044
581.149
590.112
590.353
580.060
585.553
581.810
584.328
578.719
579.879
581.083
577.176
590.842
584.281
592.192
585.288
586.799
583.856
580.237
576.900
578.905
583.529
584.548
588.737
585.524
587.030
587.603
589.064
585.867
587.992
585.833
584.548
587.253
579.754
587.382
589.844
588.205
588.694
587.666
580.083
592.358
589.639
579.813
581.016
595.625
581.383
585.176
583.692
582.083
594.627
582.494
588.387
583.135
596.817
591.977
588.717
585.554
586.144
593.010
582.524
597.521
597.623
591.080
584.742
588.736
594.909
592.874
597.925
596.853
588.987
593.010
586.372
594.380
598.775
593.521
592.596
587.991
597.218
599.779
592.250
597.318
589.510
589.087
600.649
598.501
589.443
599.919
587.799
586.047
586.765
587.180
600.597
594.883
595.096
587.957
599.140
596.279
600.721
592.106
595.065
591.061
593.270
598.979
592.191
602.098
599.600
601.059
594.157
594.093
598.192
590.778
591.381
597.685
590.853
588.479
579.559
586.628
576.012
578.467
571.794
565.416
577.024
575.614
564.971
560.522
557.242
559.867
565.457
557.980
561.251
546.557
551.728
541.364
539.822
549.694
548.965
534.913
533.289
537.516
535.569
526.954
524.345
527.599
529.105
528.932
517.034
525.087
523.354
519.030
508.931
517.108
510.609
505.503
505.805
504.837
502.546
498.601
494.738
485.404
488.720
485.732
494.377
492.620
477.218
475.398
486.576
483.675
470.641
475.037
472.440
470.339
471.892
471.367
456.496
453.121
455.362
452.266
454.090
459.186
442.037
446.745
438.051
436.787
447.592
443.590
444.006
427.150
437.055
427.653
434.725
423.516
418.447
417.462
417.355
422.664
420.270
409.249
415.741
412.436
403.353
402.603
399.257
402.571
395.916
394.687
388.229
395.879
384.747
395.328
385.185
385.086
376.837
381.056
375.314
375.514
378.783
375.472
365.436
360.791
367.008
355.630
367.925
361.754
356.538
350.420
354.055
348.725
351.420
352.683
346.383
339.856
334.084
339.497
335.570
328.549
335.881
333.184
323.236
327.951
327.241
328.634
325.329
319.323
307.469
312.333
307.548
305.170
298.428
300.758
304.781
303.673
293.998
300.702
299.974
291.450
291.801
289.762
292.814
282.556
283.497
278.889
274.589
272.204
267.488
262.564
273.296
273.096
261.496
256.081
256.127
261.461
263.162
252.642
250.442
253.658
251.259
243.482
238.468
240.376
245.808
243.374
238.967
236.349
234.475
221.232
231.893
223.931
219.380
224.648
216.980
222.516
219.176
207.808
216.276
205.303
201.854
204.631
194.685
193.155
201.692
189.946
190.264
197.396
185.985
185.384
179.732
177.645
173.534
179.770
173.128
178.804
176.211
180.059
170.999
179.826
169.230
166.443
177.393
173.767
176.441
173.561
177.437
165.846
174.757
169.813
169.085
159.818
164.125
169.729
166.948
163.849
170.353
165.554
170.668
169.336
156.901
157.204
165.992
159.442
154.977
155.808
161.257
151.962
162.550
155.174
150.661
157.630
150.247
162.803
155.581
151.697
161.227
159.087
147.358
147.512
157.022
145.356
153.095
154.082
153.563
148.853
142.988
144.293
141.250
153.657
141.260
140.439
152.180
146.685
150.844
151.250
139.296
149.846
135.779
144.539
144.100
138.878
135.756
132.019
134.955
143.492
137.028
131.752
135.265
143.473
131.508
131.374
132.599
134.905
141.226
128.155
130.876
139.209
132.259
131.041
130.309
135.607
128.631
135.818
135.048
132.292
132.908
122.595
122.561
126.084
122.802
131.349
128.871
123.610
412.566
395.080
384.911
381.495
404.310
386.194
395.739
393.798
393.310
409.952
407.027
377.591
363.007
371.920
360.303
374.391
365.675
347.285
367.274
392.404
372.964
358.827
358.336
384.616
362.035
333.803
381.111
330.069
355.819
354.128
372.616
332.745
358.491
323.631
318.568
358.714
333.544
326.085
326.882
336.582
335.300
315.340
341.820
323.878
342.054
348.090
323.654
323.801
293.118
328.406
308.204
301.759
317.662
294.744
327.538
293.320
302.418
318.863
301.020
307.008
310.389
287.230
313.711
285.146
276.613
302.881
290.767
274.850
259.704
258.986
262.205
281.862
292.920
271.135
252.870
288.276
251.910
286.595
249.896
255.023
251.013
244.042
279.317
268.318
263.230
249.750
228.196
254.131
235.796
264.092
228.428
235.999
218.624
266.095
232.520
232.733
258.024
257.379
235.556
212.098
143.924
134.971
121.969
123.382
113.303
141.177
105.476
145.382
100.484
142.669
117.580
130.456
133.904
120.173
118.102
112.692
122.826
136.196
118.619
142.415
116.602
121.354
98.256
121.552
97.581
142.693
118.451
100.867
120.565
104.659
146.390
141.684
94.881
107.683
131.002
144.212
106.917
133.527
99.563
135.246
130.142
107.907
121.849
133.617
126.344
139.030
112.685
99.701
109.967
97.997
139.466
131.162
102.798
116.348
124.687
134.513
130.638
95.305
141.200
135.785
104.779
130.414
141.447
115.868
98.490
122.340
104.305
99.107
99.140
106.590
105.456
125.847
102.089
127.969
129.732
100.629
129.344
125.241
97.099
104.789
104.842
142.741
111.708
95.697
137.327
128.043
127.777
138.321
115.027
111.634
143.765
146.266
114.679
133.999
99.963
95.745
129.173
119.503
118.078
118.298
121.364
146.667
137.315
130.786
107.444
139.904
100.384
125.285
124.125
122.071
126.849
143.085
141.646
136.397
122.673
95.195
101.200
114.499
136.866
103.285
104.257
118.744
127.555
94.947
124.487
134.141
128.561
134.010
144.077
119.709
126.893
139.578
95.566
123.821
126.362
110.934
124.396
108.146
108.576
132.312
98.557
124.650
136.956
140.658
132.798
106.024
100.188
145.490
146.468
136.304
123.904
137.658
116.170
130.018
135.713
98.130
112.820
139.042
97.526
100.615
106.966
131.144
112.759
98.617
117.763
144.454
102.927
126.579
100.077
116.673
122.079
136.535
122.719
123.983
108.917
125.754
130.089
140.367
103.452
125.432
96.521
124.848
122.210
139.002
124.604
96.542
125.432
103.275
144.818
107.621
126.164
98.722
112.566
121.848
126.672
121.473
143.752
135.024
123.310
113.224
133.430
125.920
137.430
143.839
102.927
115.631
121.506
99.051
111.891
113.695
102.454
136.578
108.468
123.704
107.823
108.878
105.749
103.200
123.250
120.795
130.367
96.047
137.851
110.966
144.987
106.167
139.269
105.311
134.018
95.343
129.595
139.965
103.643
138.610
102.785
135.137
126.330
130.270
131.743
103.612
102.877
105.898
141.963
142.049
100.036
142.449
117.737
125.375
142.539
135.736
111.893
128.158
107.225
146.175
107.952
140.104
96.272
99.704
110.511
130.083
116.187
116.502
113.656
142.353
114.007
107.776
107.630
132.867
127.128
127.143
100.650
101.286
143.120
145.904
131.146
118.205
113.632
101.892
125.775
113.059
110.417
122.119
122.386
107.641
103.160
130.506
128.805
139.288
95.309
131.926
107.018
130.536
143.779
137.537
121.714
104.010
112.473
112.274
130.443
117.041
112.510
104.859
122.353
109.187
130.135
146.220
100.778
122.401
120.623
112.015
141.040
113.296
145.175
114.875
128.671
131.302
134.611
143.222
104.880
138.937
99.704
142.152
136.752
119.911
119.142
123.556
105.731
103.219
128.870
142.687
111.937
129.643
145.901
99.807
99.957
127.231
120.871
107.277
103.586
96.972
127.217
118.781
129.292
139.578
123.244
122.509
143.192
133.704
117.915
136.654
143.286
138.882
135.069
117.329
101.487
113.704
146.233
116.382
125.362
99.943
118.046
135.836
104.076
131.410
142.551
128.971
142.954
126.641
145.516
145.263
95.755
113.495
97.876
144.563
124.347
139.897
138.739
144.217
102.938
142.877
124.691
125.269
119.022
129.858
108.478
117.041
100.077
141.912
107.786
119.074
105.665
136.374
120.743
127.762
119.760
103.616
124.114
126.732
124.181
107.560
103.541
102.060
119.565
112.532
121.588
139.492
102.525
104.667
104.456
136.001
119.366
136.666
144.248
132.493
122.435
107.685
128.534
118.221
142.685
126.354
143.337
109.110
142.193
131.812
125.599
110.500
119.456
124.643
98.393
143.063
117.234
108.415
97.794
96.918
127.127
107.489
106.531
96.357
103.573
106.010
110.637
119.627
114.905
131.529
114.187
119.185
114.068
95.713
129.524
108.685
116.626
104.751
140.268
123.930
119.358
121.653
118.489
131.211
122.309
114.505
127.296
95.182
100.039
100.667
135.946
135.192
104.604
94.857
111.251
139.647
121.627
122.394
120.074
136.618
95.285
123.864
112.580
137.179
129.783
96.610
94.128
115.185
129.152
106.804
136.800
111.283
140.684
128.126
105.218
103.441
105.367
112.303
113.316
96.484
126.847
100.317
124.197
128.383
137.364
138.167
124.672
95.807
132.535
101.391
128.543
91.883
101.765
114.712
111.937
123.340
108.847
140.344
132.578
134.839
130.892
97.020
124.991
113.959
97.835
134.003
131.832
97.075
120.888
115.770
119.118
139.409
106.469
101.501
111.972
116.472
106.500
118.225
126.520
96.409
118.857
124.322
101.174
99.784
128.240
115.539
115.119
141.421
135.745
91.201
116.217
126.803
99.726
136.467
93.230
90.717
121.816
92.358
132.461
118.713
123.933
107.676
96.347
122.964
120.800
106.817
110.876
104.904
118.883
91.492
122.030
121.028
114.219
101.663
101.067
129.556
123.007
122.277
102.704
97.320
92.980
139.303
112.346
94.673
137.022
97.637
89.131
112.867
136.361
130.283
96.470
137.338
104.257
117.017
107.247
139.629
136.350
134.821
140.383
104.677
96.461
105.628
124.444
108.290
121.312
133.696
117.039
110.329
101.057
117.537
106.069
128.281
134.939
102.009
90.464
116.502
103.955
119.344
120.393
94.064
97.181
106.381
137.722
119.626
120.626
108.066
124.857
100.448
94.791
124.379
137.947
118.316
113.880
92.807
135.988
100.782
100.722
106.926
133.966
127.164
