753.140
763.630
760.584
765.431
766.149
757.563
759.067
765.906
762.144
754.766
750.818
764.974
756.445
755.359
763.739
752.093
761.430
751.786
764.792
753.650
760.956
763.147
756.098
749.951
753.728
753.928
761.924
763.195
751.920
761.143
757.893
753.991
747.742
760.126
750.605
756.092
752.105
747.247
747.523
753.604
752.307
759.201
759.785
753.191
751.432
746.481
748.991
751.910
754.272
759.109
751.936
769.579
761.314
762.644
767.960
762.246
766.141
768.765
769.368
772.139
770.826
785.493
788.346
789.679
790.993
779.326
794.973
785.135
786.135
797.810
790.354
793.758
803.891
804.028
807.904
808.992
798.943
807.837
809.555
804.317
820.251
808.277
821.280
826.170
823.377
818.906
818.566
826.724
824.896
831.081
837.871
832.580
838.321
829.716
835.089
843.591
839.472
838.277
852.374
847.686
852.571
851.592
857.752
852.500
862.876
856.347
862.092
864.431
866.703
872.928
871.297
861.791
878.311
878.593
878.609
869.937
874.287
875.760
883.216
879.266
884.073
880.254
882.491
895.726
885.277
900.865
904.305
901.631
893.394
895.395
911.082
912.267
902.632
901.962
917.608
912.526
921.832
912.480
913.074
920.612
927.227
921.552
931.547
928.121
934.247
926.166
935.177
933.718
929.617
934.253
946.245
936.602
948.636
950.403
944.183
951.194
952.825
958.578
957.026
962.686
955.214
960.998
962.861
969.218
960.408
966.630
969.754
966.450
968.357
980.804
968.541
979.879
975.293
979.893
988.263
987.645
992.765
989.528
994.631
999.552
992.417
990.476
1004.900
1005.585
1006.828
1008.543
1005.593
1005.128
1005.471
1009.260
1005.168
1019.559
1023.264
1014.813
1019.929
1017.792
1023.764
1025.812
1032.643
1027.559
1037.289
1031.526
1034.091
1035.508
1039.948
1041.494
1047.901
1040.276
1051.502
1043.839
1044.389
1045.524
1051.007
1051.687
1059.080
1062.612
1051.637
1057.527
1062.090
1060.781
1072.648
1075.213
1072.507
1071.251
1065.284
1067.374
1077.709
1071.967
1072.834
1077.713
1081.681
1084.198
1093.887
1084.048
1085.503
1086.628
1092.635
1095.665
1094.220
1105.336
1107.525
1102.335
1112.344
1101.983
1107.058
1105.941
1114.152
1113.313
1103.730
1111.727
1105.449
1106.767
1108.416
1101.169
1089.898
1097.597
1099.549
1099.016
1087.863
1091.646
1091.874
1091.376
1090.674
1085.081
1080.450
1074.251
1067.265
1080.446
1071.846
1067.389
1072.833
1058.135
1065.047
1056.139
1063.428
1052.044
1055.469
1053.949
1056.832
1048.105
1045.449
1055.233
1038.918
1046.422
1037.437
1043.892
1032.411
1038.640
1035.719
1027.886
1025.022
1030.612
1024.725
1031.899
1024.938
1022.837
1022.885
1009.702
1020.539
1009.497
1011.379
1011.189
1003.367
1002.483
1012.229
1007.009
998.245
994.302
993.772
993.369
990.485
993.296
997.806
988.223
989.927
982.168
987.108
976.136
985.467
979.206
974.600
968.021
965.040
963.118
973.241
960.206
963.522
967.143
965.240
950.465
955.275
959.108
946.160
953.227
941.037
939.960
945.392
943.654
936.899
943.627
930.362
932.016
928.930
924.373
928.961
923.235
934.027
918.401
918.964
915.345
916.393
925.030
922.387
915.167
914.844
902.465
903.423
905.282
905.884
896.585
894.814
898.728
897.354
893.921
899.132
886.497
881.979
882.181
890.414
888.485
886.470
877.185
878.129
868.990
880.725
873.058
864.510
869.847
864.791
872.828
858.269
857.779
866.277
860.867
848.810
850.456
844.588
848.596
844.569
839.947
841.076
843.901
840.256
837.919
836.439
836.168
831.062
838.342
830.818
832.156
822.675
827.251
823.397
826.096
825.453
810.306
822.699
814.534
816.503
805.987
800.338
800.691
796.304
800.812
797.042
793.399
790.226
795.582
792.348
794.969
781.886
789.049
778.193
776.886
783.073
780.579
776.502
781.439
772.258
776.214
763.418
773.717
773.333
762.695
769.584
764.560
766.873
757.775
761.298
759.692
753.880
747.476
753.753
751.120
741.237
739.141
745.501
742.196
736.585
745.269
740.207
742.310
749.210
740.003
743.319
754.805
755.548
754.207
745.352
754.159
759.562
750.920
751.587
753.472
757.194
750.743
762.370
755.248
757.973
767.741
761.850
766.183
768.321
765.440
771.338
774.285
765.328
769.948
767.619
772.270
773.756
768.406
770.766
781.897
769.074
778.032
785.366
786.203
784.948
779.861
782.108
786.618
783.529
789.868
779.252
787.986
783.903
784.728
781.670
785.085
792.251
796.597
786.504
789.326
793.125
800.676
794.764
797.395
795.433
798.721
807.565
801.643
798.600
805.268
804.300
810.688
799.574
810.555
809.548
810.506
808.719
817.602
805.037
809.322
815.720
808.200
814.626
809.498
813.030
817.049
811.951
817.828
824.049
823.615
816.423
821.788
819.999
824.575
831.364
825.581
828.769
834.372
829.948
832.307
828.477
833.092
839.656
832.626
829.321
832.309
833.295
839.774
844.680
832.814
841.180
847.809
843.802
836.065
842.802
844.768
845.430
853.660
853.717
855.182
857.190
853.985
855.036
858.550
860.281
860.690
863.668
855.570
853.161
864.068
858.949
857.044
862.719
862.977
860.179
862.667
858.552
867.736
862.120
862.664
868.644
869.269
875.106
869.596
880.332
873.740
869.245
881.031
872.348
882.566
870.743
884.590
884.870
886.013
883.036
886.538
881.660
879.997
878.395
885.157
885.398
886.173
895.172
888.212
887.086
894.056
898.119
896.447
889.559
893.650
903.256
901.697
901.224
897.493
901.637
901.857
904.533
895.787
904.628
912.237
904.431
910.988
912.191
911.284
906.260
906.116
916.448
919.168
917.056
912.267
923.139
915.570
918.681
915.780
920.040
916.272
928.391
929.779
916.442
918.129
927.104
920.590
920.653
927.689
924.764
922.042
923.515
930.912
921.803
931.448
918.999
926.135
924.275
922.790
927.335
933.980
926.245
924.128
919.548
930.213
928.099
921.251
932.407
920.323
922.358
923.496
929.474
926.840
932.646
925.904
925.045
929.357
921.050
929.727
928.876
931.176
927.656
926.528
917.490
928.633
928.342
917.544
919.714
932.378
923.362
928.477
925.127
918.851
921.439
918.689
920.409
918.509
924.661
931.497
925.923
925.272
931.350
916.659
928.885
925.299
926.713
920.432
919.245
926.151
932.219
925.637
930.338
926.163
921.131
922.306
928.933
918.476
920.423
931.589
919.432
919.750
928.987
929.811
918.543
930.716
931.163
921.812
930.620
920.800
925.258
918.927
927.696
917.489
926.808
929.707
923.154
922.997
918.186
917.186
917.072
915.596
920.471
926.811
928.852
922.937
926.676
917.214
920.535
925.714
923.077
917.101
920.176
923.277
914.726
916.312
928.819
927.335
924.149
927.390
920.395
921.443
920.281
927.415
914.858
918.883
919.832
915.759
914.700
914.268
925.700
920.860
925.192
929.325
923.582
916.791
926.785
917.920
925.703
929.298
917.084
916.564
916.244
922.280
923.934
919.575
927.529
924.767
917.726
917.037
927.707
913.804
920.550
920.254
914.560
915.786
927.450
920.047
928.692
914.757
921.081
920.819
923.169
917.618
925.740
915.626
921.813
927.637
916.130
919.111
927.047
918.712
914.609
912.940
926.025
920.016
919.593
924.519
918.537
927.492
913.170
927.721
921.833
916.777
916.718
920.649
918.527
919.517
916.263
924.172
918.199
919.219
918.549
926.261
912.016
921.493
918.260
911.606
922.385
919.674
911.838
919.501
918.809
913.077
919.242
923.981
913.738
921.964
919.592
922.610
916.455
908.105
914.139
906.257
913.355
912.113
905.497
910.239
910.524
905.971
898.277
899.282
893.605
897.542
894.502
893.014
892.172
890.190
890.873
885.202
884.325
892.926
887.608
875.982
875.248
885.593
872.750
884.078
867.989
869.253
868.119
876.327
874.767
865.674
869.842
859.330
869.687
863.840
859.876
861.822
858.639
851.986
862.783
858.657
849.997
853.414
847.084
853.564
845.783
845.007
850.188
844.038
838.859
832.501
832.263
839.384
839.401
826.668
826.399
833.547
834.182
834.131
833.025
821.362
818.694
826.876
824.234
823.649
822.264
820.424
814.099
806.919
811.597
808.459
815.169
815.221
803.129
800.572
801.432
810.432
794.069
792.085
801.328
789.649
791.206
798.035
798.862
794.366
794.299
792.737
784.254
783.648
778.899
783.387
777.338
776.602
783.178
769.177
770.356
773.796
770.271
774.740
775.671
770.749
763.439
772.559
760.506
765.849
756.449
762.454
761.906
749.259
761.269
745.649
758.738
745.639
748.247
751.293
748.642
749.167
744.815
743.823
738.651
738.557
730.905
729.827
731.401
732.261
734.088
725.973
732.849
728.233
728.837
727.101
718.098
721.523
722.235
726.030
717.673
712.884
709.230
717.572
718.528
707.282
715.628
704.351
702.930
698.203
703.811
699.762
702.708
696.109
696.566
690.721
694.038
686.295
698.798
684.383
692.494
680.989
679.654
685.512
682.038
683.200
678.245
684.743
685.244
670.019
668.875
670.199
673.347
675.100
669.867
667.939
660.265
664.749
671.057
664.467
666.282
662.181
654.381
650.242
651.706
648.897
647.825
642.322
646.113
642.493
645.418
637.770
650.160
641.435
635.945
643.092
631.423
641.437
633.829
640.027
631.237
635.659
637.032
635.559
639.856
627.292
628.724
641.647
638.858
633.253
639.517
638.222
644.112
632.928
640.162
641.747
649.942
638.614
639.759
639.940
639.835
645.643
651.579
646.190
650.483
649.635
657.452
654.206
645.291
645.453
646.744
652.171
650.796
659.252
653.885
657.096
659.920
652.957
663.586
660.897
666.943
661.839
662.099
665.603
655.644
656.906
663.436
667.777
660.832
673.722
658.933
659.507
666.325
675.751
669.504
672.114
663.447
666.716
664.674
671.308
676.054
671.848
667.273
681.633
679.442
678.484
672.799
684.440
672.804
675.949
679.549
685.800
686.727
686.123
688.033
682.840
684.719
684.106
682.132
693.419
687.871
691.434
695.798
686.892
685.670
693.816
685.353
691.698
694.510
702.098
701.176
698.212
702.667
692.647
695.915
703.827
696.679
706.540
699.494
703.225
696.294
706.766
709.033
710.853
712.328
706.299
710.655
701.826
715.434
701.967
716.381
709.695
709.298
715.190
717.134
705.534
713.318
721.108
711.701
719.077
708.421
715.969
722.164
717.909
713.615
722.490
718.649
716.183
716.241
724.145
725.936
731.551
729.971
723.818
728.786
726.298
723.645
727.674
724.934
725.673
732.510
734.882
726.739
730.376
738.472
731.642
727.091
734.475
738.104
728.521
742.908
743.326
739.989
743.349
736.265
733.198
734.085
741.095
736.392
741.916
744.299
741.134
748.701
749.841
749.122
744.219
755.555
756.930
749.878
745.910
745.999
752.083
759.944
758.762
757.641
756.763
747.407
750.803
758.662
757.479
757.960
764.110
766.755
753.371
760.932
766.927
769.013
766.835
757.760
772.180
761.117
765.422
760.394
771.289
765.927
767.006
765.794
772.960
776.515
776.246
780.192
776.398
768.655
772.349
773.162
772.956
760.759
766.349
768.443
753.703
751.449
759.807
753.646
757.469
758.182
747.224
751.250
751.975
745.588
748.875
742.693
743.440
748.320
740.791
736.980
740.892
731.913
729.890
735.823
723.968
730.147
733.662
732.189
729.587
721.669
716.156
714.721
721.340
721.921
718.373
708.296
709.165
711.005
705.896
711.062
706.417
703.571
699.949
699.221
701.624
700.213
692.616
694.403
691.781
702.845
700.929
698.924
689.147
686.127
687.414
693.623
681.596
683.409
690.913
678.971
676.466
675.114
684.683
677.981
671.261
668.474
667.674
676.656
667.817
660.573
670.667
658.724
667.518
656.845
653.232
664.578
652.248
652.735
663.388
658.780
657.658
651.704
646.119
644.840
639.066
639.094
637.093
638.226
645.009
644.517
645.910
639.440
635.387
628.924
629.326
626.660
625.125
633.726
631.712
627.524
617.035
630.839
620.042
627.016
615.782
620.087
612.591
622.326
613.736
606.582
608.596
603.386
607.944
608.872
602.687
605.785
604.376
596.620
595.165
590.367
596.811
600.026
599.802
594.160
598.030
581.759
588.263
582.397
578.317
578.563
588.913
576.014
584.388
583.467
570.783
577.792
576.875
570.914
577.543
565.796
574.575
559.572
563.208
570.992
564.968
558.289
553.751
552.563
552.417
556.981
551.888
546.263
546.458
552.742
543.970
540.970
542.179
544.043
535.264
543.370
537.652
535.344
537.834
534.160
534.539
535.675
530.252
534.845
522.878
526.771
533.767
528.620
528.210
515.667
527.472
512.575
524.959
515.482
514.676
516.852
510.327
506.567
503.926
507.624
502.718
510.868
507.425
503.219
498.248
497.447
495.768
492.740
501.481
499.164
485.036
494.803
486.048
482.833
491.865
480.965
474.259
482.914
479.735
479.121
481.086
465.889
462.761
463.473
461.011
456.105
464.999
459.438
458.965
458.928
455.012
457.105
455.808
448.817
448.672
448.608
449.829
435.561
433.222
442.940
432.455
431.217
424.152
423.547
418.958
424.510
426.752
422.307
414.985
421.851
417.472
415.150
415.079
405.725
401.975
400.725
396.265
404.659
403.951
392.353
394.451
394.683
389.299
392.827
395.119
384.469
387.750
383.258
381.815
383.691
374.953
369.846
373.446
364.207
362.695
372.845
366.318
355.664
363.803
364.097
361.899
349.236
357.017
343.379
356.482
341.370
348.589
342.996
346.503
341.985
343.167
331.717
327.123
326.318
331.982
327.266
332.145
328.746
324.592
315.047
319.715
319.631
318.318
318.122
310.300
301.295
302.522
309.354
305.165
307.892
302.766
300.276
295.554
287.363
289.938
291.030
294.973
291.149
281.926
277.287
282.317
277.225
269.674
281.003
266.537
273.308
265.480
265.066
266.106
264.493
259.855
255.884
262.655
246.884
247.694
247.113
245.247
251.335
238.861
236.213
247.204
240.650
240.249
237.145
229.877
228.588
233.742
230.570
229.702
221.986
214.963
219.831
211.979
219.373
221.450
213.640
216.677
205.949
202.837
198.173
205.965
198.086
191.113
189.275
197.154
197.487
185.503
192.734
189.638
180.745
178.990
185.157
175.310
172.583
168.005
177.786
164.929
166.820
163.724
172.960
166.301
164.386
152.225
158.809
153.254
151.291
159.455
147.373
151.895
148.106
151.026
134.662
137.533
143.026
139.981
126.783
140.056
138.051
121.969
130.633
119.307
115.603
114.625
122.931
123.772
113.450
111.075
108.901
106.537
113.572
102.758
101.058
100.291
100.500
103.762
95.086
105.602
98.502
96.907
98.739
104.060
98.324
106.485
100.919
96.707
95.936
102.560
94.729
96.373
99.464
104.477
93.328
107.955
101.414
103.921
107.976
105.659
95.223
93.275
106.595
93.637
99.585
95.652
93.246
92.520
95.876
97.797
97.025
93.621
101.460
92.633
98.487
97.276
93.794
91.069
103.011
97.467
103.873
101.973
99.990
93.002
101.642
92.096
88.302
101.961
94.404
97.569
88.428
91.210
96.125
99.627
96.385
89.095
97.535
98.416
100.779
88.454
101.268
99.686
98.278
97.110
92.932
86.151
86.302
93.459
100.152
97.044
96.985
99.244
91.264
85.659
87.840
93.351
93.615
95.701
98.058
90.140
93.732
84.059
87.752
87.667
87.031
93.977
89.924
91.270
83.113
95.224
87.447
81.473
88.355
88.763
84.782
92.511
85.070
89.911
94.170
80.947
88.457
89.638
88.540
84.675
89.883
89.595
86.174
93.213
81.081
91.221
80.164
81.126
90.945
79.235
85.297
78.088
78.150
86.197
80.910
83.508
88.005
84.689
79.761
82.123
83.066
81.035
76.280
81.136
90.027
82.547
77.659
77.944
76.012
78.004
83.178
87.420
83.403
84.664
84.796
77.735
79.600
88.562
89.677
77.809
82.280
81.981
77.009
84.649
87.035
85.493
86.634
74.673
85.525
77.517
78.346
84.892
83.500
76.786
80.694
85.957
80.148
71.361
71.892
70.965
77.642
76.622
76.949
81.403
70.686
83.312
82.307
81.945
74.184
79.323
72.844
84.039
75.748
73.589
72.068
80.315
82.335
72.401
78.731
79.785
78.257
70.207
74.582
72.979
79.360
79.682
74.108
76.604
69.451
75.446
233.628
192.841
160.650
169.419
218.736
231.904
205.769
171.341
196.052
199.039
218.334
204.336
226.271
205.596
214.971
171.036
212.118
160.067
218.697
171.520
213.559
161.526
215.818
206.948
168.497
217.292
219.680
221.446
190.429
153.764
217.952
170.673
188.843
206.110
212.897
170.688
213.638
221.229
221.934
162.403
177.414
190.878
210.268
204.750
202.868
171.428
164.597
174.027
197.314
207.188
222.068
200.806
161.602
223.455
219.047
151.085
153.409
170.129
181.692
181.194
209.165
228.041
153.977
215.956
181.383
224.456
198.605
210.574
196.392
181.624
190.954
161.556
163.421
183.986
184.008
175.956
193.774
224.923
168.166
222.681
152.380
179.231
229.114
193.298
166.454
196.478
226.758
227.693
202.156
219.961
174.043
176.801
228.504
178.673
187.494
200.904
170.853
225.054
159.486
192.496
106.694
126.543
124.815
123.124
81.671
80.998
89.310
81.592
94.547
122.998
82.480
106.727
90.338
99.399
103.014
90.571
100.533
124.163
94.534
83.623
103.265
115.605
84.951
105.377
86.906
101.696
121.704
117.816
94.444
95.357
90.452
97.690
124.765
119.388
123.798
116.987
84.502
108.035
121.050
103.554
92.860
102.027
86.690
116.487
110.624
93.204
80.358
112.144
125.380
120.019
95.781
105.009
119.172
85.162
