796.257
802.162
806.582
796.123
803.724
801.596
807.871
797.959
802.898
799.788
796.873
805.643
799.862
799.450
800.914
811.397
812.273
800.829
812.566
803.993
813.861
815.118
814.516
805.857
815.992
808.758
812.265
814.640
817.902
806.568
811.362
813.925
807.488
809.779
807.838
812.993
820.048
820.690
815.096
808.933
817.224
808.771
815.344
821.299
819.202
819.254
823.980
823.972
823.983
826.214
822.643
816.960
824.031
822.071
819.905
821.047
816.985
826.066
819.078
828.525
818.499
828.363
821.997
822.301
818.716
829.998
823.732
831.458
832.345
828.830
833.625
823.927
827.688
830.238
826.549
827.566
830.400
832.107
827.412
840.712
831.545
836.161
828.290
837.093
834.549
828.482
841.038
838.782
833.472
840.481
843.476
833.286
834.741
835.483
836.637
834.696
847.467
835.148
835.918
834.215
838.598
840.970
846.301
839.106
851.275
843.604
846.230
846.394
843.955
847.181
853.930
839.522
844.260
851.786
843.182
841.425
849.512
856.243
856.140
855.971
849.142
850.132
845.307
846.219
853.980
854.187
860.965
847.753
861.090
855.278
848.484
851.242
860.802
861.388
857.494
861.544
852.595
863.490
865.896
851.338
853.002
863.564
866.589
863.904
855.937
854.574
860.753
865.689
867.962
857.280
858.158
862.217
866.566
871.933
870.207
863.819
861.831
866.203
871.578
863.921
870.456
873.332
874.387
862.490
867.824
873.138
877.645
871.994
868.331
877.524
876.166
868.776
868.978
869.254
869.863
869.267
871.070
882.929
883.030
870.806
873.373
882.281
877.293
883.156
877.989
870.253
870.738
874.606
875.152
871.232
882.270
876.756
870.934
883.925
876.725
873.192
877.518
873.373
868.463
873.523
868.713
877.419
871.161
867.854
869.609
872.857
872.586
876.882
877.183
869.189
866.429
866.401
869.556
872.614
867.076
871.488
866.986
869.040
878.681
872.505
864.738
864.051
871.117
865.112
874.314
871.390
864.160
877.228
864.517
865.177
877.415
877.074
871.455
863.788
875.617
870.269
876.695
871.935
873.986
866.130
872.771
875.830
865.288
874.038
863.256
871.752
863.681
866.853
871.878
865.719
871.297
860.241
865.206
859.680
863.682
870.205
859.094
866.113
867.442
864.018
865.554
863.194
859.178
860.150
859.299
869.453
859.157
857.281
871.521
869.183
856.289
869.009
860.568
867.688
864.781
858.863
870.682
866.009
863.825
863.162
862.748
868.731
860.873
855.351
854.411
869.828
857.096
863.054
861.668
862.107
868.031
866.639
861.787
852.943
865.591
858.746
854.016
863.486
855.417
855.770
860.265
857.696
862.248
858.190
859.951
853.448
865.379
862.650
864.587
864.250
856.633
860.836
865.531
852.310
860.367
857.129
857.790
859.469
857.907
859.429
850.899
849.983
853.725
850.386
858.794
858.828
856.237
856.243
862.745
858.180
854.294
850.296
857.833
846.970
848.884
858.471
849.360
848.082
859.610
848.868
848.900
858.115
848.228
853.787
854.245
855.108
850.959
851.146
850.626
844.561
848.326
857.159
851.431
855.822
857.922
851.344
844.485
858.015
850.253
856.672
853.991
851.438
846.023
842.283
856.260
855.737
841.931
850.871
852.555
845.032
845.923
854.536
844.686
849.912
841.111
851.582
839.854
853.636
846.988
854.639
850.507
854.302
849.500
848.715
844.450
850.732
842.686
839.828
844.700
845.488
850.145
837.891
846.416
850.014
846.237
836.732
842.750
849.595
836.062
846.461
842.423
845.977
843.778
847.396
835.604
841.373
846.161
837.260
833.918
839.161
830.967
838.410
844.972
843.224
844.991
831.086
836.274
838.728
831.548
835.494
837.725
833.303
834.547
842.080
834.010
832.439
839.134
837.918
833.598
836.014
830.473
833.771
828.740
834.243
837.613
828.411
827.644
836.784
831.968
828.965
828.759
828.494
825.324
823.410
830.045
828.294
831.505
831.944
835.325
819.739
821.082
826.706
824.163
827.626
826.379
817.480
825.758
831.282
830.675
824.848
819.230
817.015
818.786
818.279
827.213
817.183
815.398
828.571
815.731
827.909
824.610
820.250
815.267
825.395
821.742
814.677
816.691
817.252
820.041
812.620
823.849
818.906
818.250
811.708
811.146
819.504
821.067
812.534
816.283
807.918
822.955
819.158
809.714
812.170
821.774
811.080
813.770
818.111
819.762
819.256
815.803
812.561
815.614
819.006
805.736
805.482
803.407
818.010
812.812
815.204
801.310
815.817
803.796
814.774
800.989
804.964
811.006
799.767
800.349
798.742
809.171
798.366
801.447
801.632
810.511
801.750
799.416
798.110
804.295
802.991
811.116
810.241
806.263
802.187
795.998
809.576
808.668
799.744
800.776
807.255
798.233
803.626
796.754
794.422
805.383
806.292
802.642
793.999
799.228
803.261
790.875
799.331
794.087
803.828
803.978
792.723
802.806
789.545
794.669
791.499
796.468
789.095
791.912
794.940
786.873
800.064
800.280
795.629
798.425
785.221
796.679
787.232
797.316
785.150
788.923
785.997
797.467
790.207
794.536
791.230
785.002
794.287
791.902
793.318
781.146
778.496
779.803
791.928
788.628
778.008
776.132
775.356
777.855
784.757
781.400
784.008
773.100
777.696
770.883
769.088
776.230
767.228
776.962
773.285
771.494
775.790
766.409
771.993
766.593
774.817
764.209
761.131
764.986
767.677
767.541
770.975
768.102
759.666
767.676
755.469
752.108
755.929
762.873
751.520
760.040
761.685
750.157
751.321
753.978
751.998
746.364
745.959
755.352
743.545
746.719
751.171
753.734
752.304
744.147
746.864
752.196
747.867
744.508
745.502
748.625
738.822
732.791
737.032
738.574
741.877
732.447
733.027
729.063
726.876
738.119
725.241
739.642
736.207
737.254
727.289
729.317
731.727
725.726
732.495
719.575
727.479
717.297
717.719
720.771
725.636
713.730
719.785
715.500
725.246
712.396
712.466
715.127
717.955
709.162
720.272
718.222
712.939
704.813
717.803
713.099
707.159
716.323
714.861
704.251
712.046
704.706
706.382
710.310
705.408
702.310
707.049
701.793
703.121
700.962
697.372
702.789
697.506
695.713
691.941
692.399
699.619
690.847
690.289
695.591
696.808
687.402
683.400
682.147
690.231
695.615
694.570
678.793
683.160
690.860
681.374
682.280
688.556
688.505
685.140
681.638
675.642
671.514
674.944
673.721
681.841
675.951
676.023
671.818
671.232
674.903
673.167
672.716
669.502
669.441
670.045
669.746
671.284
659.679
667.778
658.513
666.348
669.196
669.030
666.052
660.736
655.887
656.081
663.987
661.140
651.726
662.606
660.063
648.722
661.000
660.742
653.110
650.356
649.931
648.588
642.592
655.015
653.502
655.165
646.724
640.193
637.751
649.182
641.930
641.705
649.797
636.598
647.972
631.979
643.424
637.435
630.332
641.779
637.883
641.806
630.703
630.107
635.212
633.991
631.347
632.355
633.679
640.782
634.555
632.366
637.430
629.440
636.348
639.515
632.904
626.890
632.408
630.322
634.173
637.464
626.533
632.364
638.381
634.928
635.203
631.090
628.544
635.056
636.049
630.559
637.173
634.430
636.060
624.865
636.398
638.622
629.911
638.011
633.160
638.035
629.478
629.626
627.288
631.284
629.052
635.615
626.629
630.642
637.734
630.992
629.143
626.456
629.934
635.726
638.109
630.597
630.060
636.376
626.149
632.187
629.617
629.362
625.854
634.019
636.486
625.991
628.006
630.545
633.723
630.901
628.792
635.982
621.591
634.261
628.756
624.679
629.077
621.492
627.953
631.314
626.752
631.558
632.829
621.122
632.199
632.368
625.130
627.364
632.367
621.713
629.512
619.449
624.894
619.162
625.893
619.787
632.045
628.834
633.324
626.942
629.683
631.280
626.540
621.772
627.192
623.175
631.352
626.555
620.898
631.425
624.616
629.383
618.609
618.756
617.566
627.210
627.421
626.558
627.915
621.890
624.730
622.306
623.559
618.588
616.715
620.880
626.551
626.241
626.305
622.977
624.918
626.210
631.611
622.655
624.892
619.293
629.907
624.251
628.220
618.355
628.730
624.620
620.880
625.328
620.363
619.661
618.573
621.658
617.871
628.324
617.079
620.730
623.350
621.498
623.562
623.656
627.389
621.168
621.536
615.716
624.196
618.403
621.596
615.052
627.095
624.753
628.370
620.658
614.079
627.968
626.330
615.255
617.253
619.846
624.962
623.122
623.152
626.896
619.919
623.080
611.757
615.469
623.467
614.356
614.282
621.602
626.937
621.426
617.210
622.810
621.519
613.105
616.526
622.162
618.734
617.016
611.372
625.095
611.971
616.207
613.894
622.015
629.023
624.957
621.526
619.516
627.982
620.887
632.472
628.630
636.352
634.297
641.646
635.427
641.991
639.905
645.059
641.192
638.180
650.253
643.828
644.280
655.650
646.647
644.502
650.094
659.085
660.351
652.653
651.239
663.881
656.696
658.582
658.076
660.351
663.830
662.262
672.635
662.402
665.187
665.069
668.266
679.276
676.801
675.234
680.515
680.701
675.715
676.622
676.576
682.853
678.019
682.735
687.761
689.863
698.904
687.433
700.321
691.858
694.578
697.269
706.612
696.655
700.652
704.425
708.139
701.836
705.756
701.376
716.594
718.071
717.843
709.911
712.984
713.457
712.520
718.996
713.290
714.041
725.026
728.988
732.955
731.329
726.758
723.184
730.058
738.142
739.885
732.040
740.285
739.584
733.759
747.209
747.687
747.039
744.310
751.585
751.771
742.961
751.936
743.269
747.589
746.873
746.919
754.579
764.316
761.952
760.157
764.356
760.738
766.387
762.891
773.269
761.246
774.583
764.606
767.533
780.159
767.862
776.072
770.412
778.464
774.263
776.912
778.308
781.261
781.114
778.468
790.180
780.983
796.309
793.076
797.280
790.980
788.568
796.747
804.860
798.217
797.332
801.067
797.926
807.035
807.390
813.641
800.825
814.954
814.736
810.682
805.974
816.017
822.879
809.726
814.700
824.742
822.636
822.191
825.943
829.160
832.233
822.696
822.561
834.563
838.205
837.846
826.929
836.403
834.897
830.904
841.119
845.382
840.868
841.930
838.703
839.661
851.169
846.977
848.737
853.900
847.576
849.889
859.030
857.987
855.017
854.202
861.263
867.269
867.443
863.540
863.759
859.839
871.843
861.792
876.413
874.192
871.755
873.095
879.874
873.534
878.293
884.234
873.886
877.850
881.380
873.807
874.944
882.459
871.289
878.225
869.158
870.324
866.807
875.923
862.906
873.112
871.803
859.744
867.815
868.643
868.930
867.099
858.555
859.369
866.839
864.427
854.940
854.404
850.258
856.961
862.319
850.690
848.428
856.765
858.529
849.787
857.548
850.381
848.760
845.350
848.442
848.986
850.193
836.711
845.280
840.700
836.857
834.622
844.367
843.021
834.003
833.010
838.675
831.754
840.406
832.001
833.398
834.620
836.150
822.779
836.368
831.733
822.346
823.160
834.019
828.150
826.759
820.118
822.921
823.223
823.152
813.159
824.221
810.964
820.832
812.227
822.279
818.847
813.550
814.792
809.975
815.249
814.708
817.468
807.238
808.543
813.919
803.405
807.174
810.810
798.598
806.734
794.517
800.605
798.246
795.266
794.722
801.995
801.418
798.764
795.126
801.380
795.987
789.335
788.923
783.568
793.539
790.180
787.975
781.029
788.319
791.819
790.755
776.626
789.667
789.025
786.076
775.706
785.662
775.423
784.133
771.454
770.232
768.740
772.242
781.160
777.628
771.483
766.926
773.496
775.869
772.948
768.110
771.774
764.616
773.669
771.033
771.435
767.869
763.295
767.413
763.927
757.280
758.052
753.249
752.057
753.867
762.065
750.770
754.543
760.887
746.698
756.677
743.794
742.636
748.799
749.937
749.860
751.180
744.032
748.654
748.457
742.638
741.737
745.682
748.218
743.480
733.215
744.641
732.738
735.115
731.742
736.455
737.184
735.213
739.514
734.214
722.593
733.060
729.212
723.094
734.566
731.836
718.736
718.629
730.817
726.173
718.604
717.813
712.362
715.516
717.670
718.583
724.244
714.610
720.953
714.136
708.109
708.598
712.209
705.152
78.836
65.327
64.162
60.687
65.190
73.247
68.150
58.569
58.545
76.289
55.993
79.981
74.620
71.750
64.084
62.817
72.752
53.462
53.221
78.797
78.900
57.798
67.707
55.617
68.597
62.884
72.615
76.555
70.774
80.186
67.381
69.078
56.892
56.840
56.400
68.170
75.560
77.782
55.155
74.497
62.081
53.366
65.324
63.736
67.247
69.972
76.250
259.850
192.084
195.898
199.351
207.789
264.114
262.760
178.068
198.158
196.572
187.911
187.641
227.753
182.131
178.571
219.780
203.910
241.702
175.383
246.182
233.308
180.635
175.315
235.740
219.689
182.805
175.386
211.102
202.698
191.431
205.706
216.705
237.053
182.459
205.752
203.330
187.761
203.393
194.418
216.820
202.179
256.772
203.942
220.862
185.629
193.553
232.794
184.679
245.150
241.697
239.771
222.861
248.274
137.403
108.472
97.191
104.997
136.274
122.027
126.536
113.245
136.747
117.338
98.975
132.003
142.643
137.161
143.476
128.842
123.642
129.587
114.152
101.991
133.368
132.337
111.519
129.314
97.990
132.986
97.848
102.426
131.223
128.245
119.099
141.664
124.922
118.024
110.486
129.842
120.802
135.395
101.118
125.083
109.986
116.432
114.589
119.514
117.681
131.594
130.437
137.426
98.761
129.948
139.213
135.192
133.150
144.117
133.130
139.858
141.350
121.576
107.449
131.606
140.145
119.995
141.555
101.851
135.892
145.414
114.447
124.832
113.495
146.606
132.366
110.321
145.913
121.805
113.589
128.571
103.965
139.116
125.703
116.530
101.155
134.426
144.468
108.014
96.198
119.817
106.682
99.141
105.213
100.343
126.868
133.249
104.069
133.998
94.780
98.456
108.990
110.054
121.409
124.853
118.138
122.838
116.442
120.617
103.591
125.899
132.357
137.362
96.055
121.528
138.466
98.719
110.405
142.120
116.755
97.314
99.970
115.308
138.951
130.188
127.977
139.886
131.737
120.159
119.239
135.642
116.181
132.159
104.106
144.435
108.099
112.761
135.789
97.865
129.292
97.540
105.088
146.710
145.123
132.966
126.453
137.336
108.598
134.717
139.274
143.525
124.139
135.207
121.921
132.199
134.815
133.691
139.189
110.996
115.015
96.439
96.288
120.727
117.687
141.834
103.484
133.954
125.911
109.578
141.099
106.720
114.509
113.170
97.191
135.268
119.206
97.045
140.804
142.385
121.934
111.467
98.057
101.731
134.768
143.105
109.341
141.185
145.559
111.940
104.437
108.083
124.311
141.254
144.726
124.626
142.864
113.187
118.971
96.741
137.503
118.850
141.233
120.771
145.125
101.943
140.946
126.538
117.117
126.731
97.811
132.769
116.600
114.993
125.984
137.151
95.066
102.000
134.991
122.069
104.499
105.858
104.373
123.991
109.831
102.219
142.392
106.923
139.226
100.760
141.915
100.933
117.734
135.299
98.737
121.966
103.887
127.855
128.095
143.339
112.332
117.469
139.642
129.555
96.090
127.329
132.809
103.853
100.956
144.781
136.654
125.586
140.513
105.636
143.003
130.754
136.864
95.507
138.096
100.290
140.260
126.624
121.738
138.521
98.769
110.926
142.955
107.567
100.821
137.620
142.070
121.391
102.995
143.702
108.348
144.882
126.481
100.769
96.438
102.159
120.414
136.043
145.197
141.357
95.832
136.360
120.235
95.506
114.414
138.197
138.458
130.745
116.595
131.069
135.549
128.690
145.667
114.183
140.916
98.500
101.533
136.656
142.436
103.273
134.450
96.589
96.918
126.273
113.995
125.937
125.241
145.144
113.816
120.897
113.078
111.688
99.564
127.445
102.746
102.098
99.534
108.031
134.832
114.762
129.600
111.058
122.458
106.416
127.462
119.769
108.912
117.971
107.092
123.400
134.486
122.136
122.821
115.999
109.133
127.526
133.858
120.642
130.657
127.590
117.228
118.081
97.186
111.939
97.848
112.010
112.006
117.237
118.628
146.650
96.672
115.105
119.362
104.051
133.375
109.809
110.744
126.046
106.090
131.848
115.858
117.648
106.996
137.430
98.982
115.841
141.319
146.760
145.096
126.664
110.088
127.920
136.178
144.318
121.675
141.009
143.572
132.697
104.998
143.243
106.601
98.809
104.273
98.281
99.060
114.662
135.445
121.724
106.129
130.207
145.784
129.962
97.854
97.159
115.788
103.492
143.508
135.679
125.466
117.986
124.878
111.414
100.503
123.195
121.631
128.906
139.258
115.975
128.328
128.182
123.720
107.221
143.776
142.350
119.887
133.041
139.257
143.136
114.822
120.210
98.427
141.132
139.501
139.361
110.955
135.820
107.622
113.782
133.020
99.748
129.250
141.451
101.003
113.652
110.221
107.828
117.182
128.157
130.570
108.490
132.208
103.770
102.986
106.636
102.360
130.770
128.039
135.113
129.910
142.667
137.175
124.474
99.855
111.319
114.560
129.891
134.403
105.314
146.665
95.569
101.568
117.366
125.376
129.708
119.120
133.158
145.824
107.935
104.378
105.141
122.586
100.306
104.017
135.775
142.265
146.110
95.068
101.089
96.124
115.247
120.153
111.189
111.394
121.911
103.526
101.739
103.718
131.892
99.204
133.120
145.754
111.485
137.023
95.750
112.184
103.873
99.438
102.197
125.606
101.722
110.916
103.499
139.137
97.324
105.650
109.995
95.749
97.801
141.107
122.762
96.131
124.570
110.505
108.952
130.426
137.882
103.617
107.510
102.210
