776.604
779.072
777.431
787.665
789.823
784.187
784.220
781.338
797.369
793.797
785.030
791.576
793.568
793.659
792.299
800.291
805.576
794.470
801.667
801.676
796.063
795.453
805.039
811.160
807.124
802.994
801.115
805.233
815.564
807.402
807.578
806.194
808.994
815.426
815.379
819.977
821.709
814.074
822.850
818.070
828.636
818.661
823.213
829.469
830.998
824.421
831.004
831.333
824.238
822.880
836.297
835.578
830.636
832.868
836.221
837.066
832.360
836.083
837.021
841.535
828.557
844.017
832.110
830.521
840.150
837.922
837.549
848.039
838.849
836.048
841.509
850.493
842.439
845.268
841.290
852.831
847.587
847.723
844.717
849.354
842.105
846.042
855.984
851.688
854.598
850.172
845.615
852.493
857.835
861.350
855.197
853.457
861.398
857.754
849.763
858.089
860.646
864.125
864.782
863.037
861.141
862.480
856.945
871.041
859.659
863.036
860.651
863.537
871.236
866.627
873.949
871.838
875.743
865.638
862.418
866.037
878.308
866.257
865.083
871.175
874.396
879.103
870.326
874.918
870.008
874.258
879.775
872.286
874.401
878.708
886.601
876.021
874.417
874.921
883.748
889.297
887.385
884.647
880.672
884.267
887.670
890.621
894.094
895.576
893.642
884.748
886.574
886.687
885.239
898.277
891.754
894.456
895.278
901.421
897.134
892.386
901.062
902.768
894.519
891.298
906.441
904.652
901.622
903.914
908.736
903.818
900.764
904.690
902.311
910.844
903.828
901.008
911.185
915.017
914.871
912.138
912.593
907.401
905.940
913.886
919.867
911.212
908.485
910.946
916.394
914.660
916.461
919.639
919.077
924.390
910.731
919.931
926.045
928.239
926.499
927.732
929.719
923.904
926.189
919.679
921.736
925.224
932.930
924.444
928.234
931.608
926.190
929.726
922.591
923.050
938.458
937.053
928.829
928.809
927.644
933.083
939.356
932.533
930.538
940.103
942.364
936.900
943.281
945.845
940.499
946.129
946.701
942.575
945.010
947.164
939.810
941.457
950.174
952.129
947.141
948.819
945.341
955.221
947.597
957.234
955.369
956.851
953.985
951.947
954.455
940.066
953.046
938.900
945.107
936.724
949.785
948.622
947.069
947.983
946.190
936.761
942.282
935.491
930.778
931.594
933.381
929.062
938.495
939.287
935.124
935.804
930.300
931.117
926.360
931.591
924.666
928.992
926.895
920.148
928.099
923.564
922.082
930.045
930.300
918.565
924.511
917.055
913.147
918.658
919.938
910.992
918.087
913.904
917.633
909.274
919.426
918.693
921.129
919.644
909.226
913.008
916.769
903.353
905.912
907.038
914.975
904.801
901.911
910.579
908.082
902.626
910.498
896.300
901.682
900.753
908.050
907.846
906.149
907.386
906.118
891.354
901.916
890.885
898.674
898.018
896.057
892.235
893.944
898.107
886.591
886.329
884.452
885.222
896.634
889.790
892.584
892.228
879.127
883.935
886.066
881.918
886.735
881.412
881.303
880.523
883.696
876.126
883.000
871.712
884.437
869.669
874.126
869.218
875.535
878.432
865.910
872.989
869.978
865.653
878.292
865.666
866.532
862.849
868.443
875.035
864.186
859.469
870.007
872.436
860.739
856.966
870.479
860.540
858.588
852.695
862.231
853.075
854.265
858.293
859.803
857.403
855.915
857.979
847.710
859.470
856.640
858.722
850.653
849.348
856.688
842.164
840.947
843.013
854.368
853.512
849.389
844.547
844.707
851.143
850.059
849.153
848.169
836.247
847.995
846.991
840.633
833.445
841.064
839.576
835.860
833.998
837.264
837.115
835.637
836.112
831.439
824.563
832.674
827.219
824.296
830.760
824.296
821.918
830.831
819.867
833.149
821.383
817.420
823.859
819.972
824.496
819.704
826.150
813.739
818.319
818.657
809.643
820.702
815.967
814.965
814.789
813.079
817.762
819.902
810.178
816.559
814.746
816.271
822.622
812.909
823.076
813.944
816.537
821.339
821.205
830.203
826.838
826.065
838.692
836.368
833.345
833.631
841.245
841.306
847.187
842.690
850.722
844.109
854.530
850.310
842.708
858.459
846.727
850.926
850.805
860.575
851.952
854.540
861.132
856.192
858.041
868.653
864.089
874.496
879.274
866.029
874.110
873.365
885.229
877.153
881.733
877.868
889.730
891.472
880.511
892.962
898.127
891.331
898.722
894.944
901.425
891.923
896.221
894.106
909.814
899.323
905.694
901.801
914.087
914.525
912.853
912.331
914.478
910.903
914.529
924.899
922.140
920.790
917.970
924.518
924.083
933.819
932.603
929.620
936.623
929.884
942.879
943.089
937.809
935.506
935.621
949.942
953.431
950.763
949.299
944.566
945.342
956.396
954.483
964.856
961.435
963.831
960.612
967.425
966.000
967.067
963.272
972.584
965.359
969.948
976.492
983.904
972.136
977.666
988.012
980.570
990.203
990.133
980.153
995.642
994.954
989.889
987.604
997.650
989.146
995.222
1006.264
1008.795
1004.676
1007.275
1001.140
1004.460
1014.700
1018.091
1007.711
1012.026
1007.448
1023.773
1021.447
1018.848
1027.149
1014.831
1029.764
1019.721
1032.790
1023.641
1025.038
1030.059
1031.549
1041.390
1032.787
1045.262
1041.494
1045.142
1037.244
1044.518
1043.244
1044.851
1049.126
1046.461
1049.497
1048.861
1061.201
1050.806
1054.041
1067.525
1054.987
1066.329
1070.994
1071.172
1072.001
1074.653
1065.902
1073.643
1079.101
1070.571
1078.291
1084.025
1087.595
1076.639
1088.959
1081.419
1092.889
1088.478
1082.467
1093.107
1090.927
1090.304
1095.368
1105.002
1105.767
1107.736
1105.943
1110.439
1097.808
1108.165
1104.864
1112.530
1111.817
1111.464
1116.266
1117.127
1122.928
1126.759
1112.883
1120.892
1123.204
1115.586
1115.330
1122.261
1112.894
1117.514
1110.167
1124.948
1113.422
1114.424
1119.326
1114.174
1110.968
1117.718
1105.508
1108.317
1112.393
1114.105
1108.759
1115.220
1111.872
1113.526
1110.263
1106.937
1112.154
1114.121
1110.888
1104.189
1098.692
1098.255
1105.068
1105.123
1098.753
1101.275
1097.829
1096.865
1092.664
1106.982
1102.812
1096.121
1091.813
1089.973
1095.970
1102.620
1097.000
1093.913
1096.020
1093.155
1089.094
1084.554
1093.121
1095.364
1095.799
1085.354
1089.555
1082.288
1094.381
1091.212
1094.550
1088.687
1079.240
1087.376
1090.820
1077.845
1080.308
1078.237
1084.999
1078.462
1078.305
1086.710
1082.194
1076.043
1086.479
1081.658
1075.819
1076.521
1069.709
1076.172
1067.335
1081.064
1079.956
1073.595
1078.322
1073.968
1074.311
1078.589
1074.421
1077.095
1074.491
1065.172
1061.622
1070.065
1067.326
1063.201
1064.087
1064.055
1061.764
1059.641
1070.079
1055.182
1066.176
1058.813
1060.792
1053.864
1054.021
1055.317
1056.709
1063.655
1061.086
1063.207
1061.498
1062.755
1051.893
1048.717
1055.345
1049.570
1050.102
1052.962
1058.746
1047.096
1048.252
1042.058
1043.704
1049.769
1039.940
1044.395
1041.142
1047.357
1051.784
1044.948
1037.722
1039.476
1046.961
1043.220
1043.511
1041.124
1034.768
1042.017
1037.972
1034.306
1032.585
1038.651
1041.124
1034.667
1041.641
1035.920
1035.316
1035.769
1040.862
1025.172
1036.307
1034.933
1023.713
1038.267
1031.929
1030.419
1034.274
1035.275
1030.727
1023.391
1020.253
1028.592
1029.385
1030.824
1020.450
1020.284
1018.479
1018.044
1025.563
1022.330
1027.383
1026.047
1015.590
1016.467
1016.876
1018.755
1011.303
1009.649
1022.658
1009.619
1019.665
1006.956
1010.573
1010.812
1015.288
1015.068
1009.014
1008.914
1007.346
1011.727
1010.828
1009.455
1005.590
1004.882
1012.489
1010.142
1003.367
1008.334
1006.073
1007.106
998.332
1004.908
1004.244
1001.269
992.432
996.231
990.104
992.985
986.304
989.868
990.540
989.916
989.891
982.026
990.479
983.041
976.727
982.768
975.785
976.731
985.277
971.153
969.405
979.534
977.921
970.844
969.559
968.164
969.520
968.815
966.086
966.715
972.945
970.724
966.053
968.212
960.795
961.678
962.155
959.644
954.535
951.034
959.960
956.503
956.618
952.856
947.372
952.318
954.209
943.293
948.962
948.400
936.276
943.527
944.110
936.008
938.305
939.124
929.694
929.442
930.091
927.303
925.975
925.061
924.118
935.269
923.797
929.392
932.655
918.257
918.304
926.710
922.306
921.048
910.650
914.636
908.931
916.185
910.592
905.285
916.517
915.311
917.396
914.383
902.615
906.547
912.581
907.317
896.911
909.543
896.106
902.264
895.969
904.100
896.029
898.160
898.938
887.950
893.254
894.538
891.533
888.533
893.834
893.117
891.535
890.864
881.405
881.895
875.309
886.459
882.453
881.830
875.262
878.605
881.438
867.187
863.813
872.210
869.774
868.902
872.879
864.968
866.828
860.066
862.968
866.992
867.406
866.555
856.555
856.319
852.745
860.528
857.022
850.605
845.992
844.681
845.679
852.913
850.766
851.132
841.577
850.395
847.975
843.654
833.637
842.912
834.368
838.747
840.885
827.392
832.479
826.595
829.982
824.331
827.595
834.795
833.082
821.212
829.146
825.632
824.230
813.991
817.144
812.917
813.432
813.325
822.052
809.253
812.866
811.423
811.628
804.392
811.455
800.607
811.095
807.279
806.551
809.737
803.994
804.778
796.282
792.335
790.240
792.508
799.976
786.444
794.500
786.052
786.416
781.596
788.689
779.661
779.125
785.452
776.211
775.863
780.650
786.066
775.801
779.128
774.708
775.645
767.032
764.831
768.081
761.143
764.316
756.305
764.547
753.168
756.511
751.408
755.933
748.025
752.887
739.705
745.197
736.628
729.518
732.036
727.863
723.781
731.505
721.056
723.673
715.606
716.209
709.778
716.591
708.584
703.691
700.283
705.206
697.150
707.656
695.340
694.975
702.170
698.875
684.500
680.029
678.649
680.978
677.166
674.253
682.288
672.565
669.182
663.259
661.426
673.097
665.926
665.246
661.885
651.064
656.311
654.187
647.024
642.137
650.459
636.849
646.404
643.958
638.843
630.636
640.923
628.475
631.902
623.238
624.884
626.019
618.939
617.276
621.885
605.899
605.025
608.373
614.282
603.123
598.721
594.038
590.755
601.622
588.458
584.228
594.071
578.837
584.452
574.386
578.647
581.548
568.785
572.279
578.989
563.683
569.244
563.846
555.699
554.965
561.122
548.423
551.048
552.941
547.083
548.142
539.192
538.358
536.361
534.480
537.902
538.756
530.183
527.065
530.925
531.056
526.922
514.357
514.916
514.798
508.965
514.888
508.681
500.784
510.476
502.862
496.191
496.577
488.979
497.079
492.570
497.606
494.810
492.787
488.464
486.736
483.450
480.906
469.580
479.908
470.027
474.634
464.404
468.499
464.818
462.763
451.258
451.965
448.155
450.206
444.013
449.148
445.858
438.623
445.248
439.649
430.029
440.398
429.180
433.274
422.415
431.588
424.836
411.634
418.100
410.892
409.255
409.863
406.197
410.531
403.862
401.538
407.430
394.162
398.416
398.528
396.777
381.026
384.548
390.413
383.364
375.099
370.983
370.248
366.439
378.640
374.458
365.841
367.971
358.182
354.880
356.532
363.673
354.945
353.899
346.127
351.484
337.844
338.930
336.500
221.597
202.547
170.923
182.449
155.268
232.802
208.235
156.063
230.681
214.441
224.494
213.055
190.656
166.324
175.181
183.825
159.128
193.542
202.300
202.049
195.273
216.344
158.731
215.318
184.694
172.541
152.568
188.059
206.856
154.456
216.934
209.465
222.339
199.573
186.935
173.534
156.650
213.156
166.649
218.520
193.868
186.706
177.673
219.738
210.964
198.142
178.341
177.461
163.383
230.385
159.088
230.842
164.313
198.580
173.145
186.633
222.297
158.170
223.384
195.247
214.813
185.688
207.395
183.342
205.202
204.658
200.031
209.652
165.919
206.220
209.364
165.268
156.237
231.617
207.098
181.592
172.070
152.791
200.843
222.728
219.378
185.493
177.891
186.304
214.147
217.534
226.226
157.518
184.525
196.239
157.685
208.344
195.399
211.091
153.229
196.642
184.578
162.642
166.654
168.338
105.699
86.056
115.920
127.733
117.558
124.532
90.398
85.805
99.683
109.734
125.691
95.691
93.314
124.487
128.151
97.961
99.323
89.462
88.275
120.943
125.249
116.724
121.671
117.451
99.014
90.963
108.563
92.873
85.096
91.089
84.724
105.888
108.322
108.190
122.239
90.943
112.926
99.282
104.743
84.530
99.519
109.393
89.323
126.721
120.203
93.888
90.953
113.733
119.128
88.750
102.474
125.418
107.043
120.717
118.131
106.080
113.233
119.342
124.384
117.279
110.324
108.068
124.320
121.122
92.993
128.542
86.634
127.058
90.494
89.307
115.013
107.800
97.192
84.400
112.814
124.751
127.403
116.667
120.527
104.525
91.418
83.882
103.436
106.081
114.341
116.745
93.563
109.705
96.292
117.112
100.614
116.842
109.265
115.714
106.486
110.537
114.311
89.525
92.927
106.766
126.601
126.599
86.807
128.025
119.291
85.985
93.422
90.744
124.826
90.830
117.830
105.631
104.297
93.480
118.751
88.684
104.856
85.902
85.051
92.746
103.906
93.941
122.525
111.657
114.730
97.037
111.423
117.506
94.323
94.353
85.271
105.690
96.758
109.225
84.522
126.681
99.015
98.746
113.731
99.608
95.536
119.538
128.140
115.809
115.774
122.988
115.176
93.878
113.653
104.035
128.779
96.714
111.334
116.695
108.680
101.505
94.016
124.519
117.778
117.295
98.000
124.662
92.051
113.802
106.326
118.690
124.695
113.307
85.781
129.138
126.765
116.649
98.232
93.844
117.323
121.688
123.961
92.017
105.474
84.937
105.940
94.698
105.867
109.362
118.107
108.651
84.354
108.897
105.017
90.149
98.639
96.322
127.031
93.280
99.919
103.019
117.354
85.359
101.377
105.164
99.170
129.445
116.898
109.793
111.667
108.105
127.264
94.286
117.103
94.694
91.631
96.761
122.605
102.737
83.927
92.626
128.386
115.226
101.966
128.924
99.136
125.631
125.936
94.608
109.886
128.400
112.412
104.073
96.770
90.481
120.906
125.622
100.116
102.781
85.033
108.379
114.166
102.121
126.390
105.259
121.123
92.578
106.106
88.921
107.247
103.180
93.253
84.709
83.996
98.895
114.570
106.881
103.430
103.831
85.562
128.621
115.201
124.205
98.081
91.178
94.862
113.498
107.489
109.876
112.365
88.407
123.734
123.371
109.503
94.216
117.175
101.965
107.998
99.596
87.014
128.329
89.367
121.301
126.603
122.241
126.815
115.443
108.268
123.186
103.347
85.673
115.957
107.795
109.101
99.404
122.975
125.170
119.258
95.782
124.994
125.661
116.172
127.498
101.504
103.340
112.784
85.263
124.969
95.937
114.296
84.138
98.157
103.343
112.044
106.577
95.892
112.534
119.120
124.404
99.492
108.391
99.139
98.942
103.653
88.691
111.405
104.512
123.711
122.248
92.955
88.599
100.257
85.400
111.411
126.532
99.606
129.497
99.457
127.246
95.039
93.879
86.555
119.810
103.421
121.644
91.440
124.423
100.674
89.737
126.733
114.431
84.336
129.103
126.963
95.719
122.891
129.282
125.891
93.552
90.701
118.494
106.562
100.238
114.304
117.046
97.460
123.966
118.666
112.613
109.795
104.639
95.259
94.500
109.832
94.843
113.976
116.289
94.111
103.203
104.401
112.352
104.988
101.936
125.700
84.745
95.623
119.958
120.681
122.416
90.845
87.472
114.581
116.912
119.062
123.614
86.394
99.684
127.499
100.635
120.984
99.576
98.829
112.877
125.002
124.385
98.350
128.784
124.150
85.768
94.674
97.271
95.874
119.283
129.357
101.949
110.228
109.973
115.208
91.969
101.073
114.260
124.577
122.853
105.524
108.240
104.903
85.748
103.393
117.969
92.623
108.973
125.931
96.340
116.112
124.273
129.427
112.516
107.729
103.723
84.387
129.497
85.276
103.412
101.780
111.509
103.615
87.274
95.378
107.832
100.757
120.988
111.624
90.132
124.823
116.274
103.369
95.463
124.564
99.108
123.977
115.986
97.955
115.397
115.882
103.258
99.579
121.900
90.481
98.072
99.857
94.334
86.154
105.176
84.480
121.222
91.501
121.360
127.322
110.468
111.416
86.968
111.575
92.425
112.228
92.252
107.990
88.309
93.878
101.097
124.418
129.690
103.374
103.638
116.655
86.027
123.459
113.075
104.082
114.490
123.568
88.690
113.050
117.024
97.462
93.581
125.847
88.464
116.824
107.457
127.649
125.771
104.037
118.339
111.322
89.622
129.142
116.379
109.654
91.276
91.693
86.160
101.926
102.863
117.831
113.938
122.422
110.658
99.745
113.075
103.297
112.931
102.208
99.580
98.842
129.456
122.327
105.959
116.226
102.069
121.330
110.240
87.760
86.769
97.223
107.971
96.332
105.333
109.910
91.690
87.578
104.873
92.216
121.727
111.899
88.985
118.272
107.866
100.120
103.318
108.197
128.040
112.608
107.307
92.980
89.868
128.875
107.835
84.583
104.825
118.255
128.683
102.391
88.265
88.015
125.785
124.819
108.134
114.577
94.320
95.861
95.640
118.810
129.106
123.406
111.734
100.865
122.025
92.408
121.238
117.949
90.393
101.868
129.096
118.892
120.811
99.301
125.278
93.603
101.277
117.914
115.297
106.018
94.340
115.196
100.211
126.491
108.521
85.733
92.374
105.358
104.278
100.591
85.341
101.749
109.433
111.025
101.195
95.915
127.750
103.273
102.061
90.262
86.564
97.308
126.098
87.062
126.789
101.381
123.815
118.926
92.118
98.379
90.232
86.639
93.073
94.827
127.905
97.808
109.704
125.075
84.482
122.547
116.662
98.771
98.549
117.128
105.877
85.035
114.687
119.616
110.479
105.199
88.995
110.882
91.467
122.174
103.799
90.876
114.567
87.056
114.845
129.583
123.987
126.293
121.002
