776.421
777.033
773.143
765.281
771.891
769.431
774.928
770.701
765.584
772.259
770.404
763.063
756.885
761.549
764.607
764.952
767.560
759.059
764.093
754.546
759.874
750.582
748.097
754.061
758.250
750.243
749.861
755.444
753.543
751.540
754.296
749.244
754.419
748.145
746.105
749.475
741.220
750.485
736.733
744.409
738.932
744.896
732.673
741.156
732.618
729.715
739.678
728.604
738.670
729.883
734.356
738.505
731.737
736.457
731.601
727.706
723.992
721.402
730.701
734.067
720.241
726.020
726.343
730.509
723.338
722.243
726.793
716.866
719.908
715.081
716.521
719.191
723.022
710.162
716.914
722.333
713.430
718.353
711.476
709.611
715.172
704.656
706.910
707.281
715.682
709.915
711.142
699.589
699.098
699.664
699.803
695.921
694.906
696.207
693.984
699.542
697.045
696.964
702.357
700.907
700.652
691.282
696.412
696.698
699.934
688.523
699.022
683.815
686.807
693.609
695.785
686.761
680.647
689.977
686.169
690.934
687.823
675.098
680.107
681.502
687.481
674.924
679.121
679.755
683.872
684.283
674.625
667.741
667.213
671.943
670.741
668.007
666.635
673.616
673.601
672.402
664.447
665.205
659.934
670.941
662.975
661.247
662.662
667.883
668.171
666.217
657.398
653.962
661.893
651.312
649.587
659.728
650.860
655.877
656.865
651.084
645.536
658.497
647.442
649.527
651.117
650.781
644.732
640.309
645.428
640.938
650.337
649.123
643.150
645.197
642.104
647.055
644.792
639.709
635.243
644.701
644.807
640.830
643.331
633.588
631.801
628.944
638.730
628.287
628.407
640.336
637.750
634.812
633.379
631.177
628.913
634.158
633.913
633.439
632.803
637.124
631.998
627.304
627.584
634.778
627.055
637.773
630.984
628.818
635.518
628.246
635.095
627.262
627.539
626.545
629.017
637.711
630.437
629.805
636.737
626.871
637.218
639.968
633.577
625.869
635.261
638.564
637.496
629.993
632.956
631.948
636.216
625.834
635.072
623.311
624.512
628.743
626.502
632.767
633.041
637.269
637.742
638.210
633.967
635.072
629.643
628.572
630.419
636.253
628.797
624.515
624.460
634.659
633.233
624.818
633.980
634.737
628.757
635.028
624.619
622.875
635.842
625.869
632.557
633.685
625.855
625.640
622.276
629.995
634.755
629.116
619.782
624.875
631.841
635.022
632.021
626.196
628.977
622.284
622.446
620.996
622.377
630.549
631.370
626.959
624.697
618.881
620.124
628.519
624.112
622.002
624.089
623.602
625.475
622.895
625.718
629.638
622.441
629.400
624.802
626.177
625.784
623.712
629.972
625.788
627.500
632.325
632.518
623.920
620.217
618.351
626.625
631.985
627.985
618.752
619.423
620.883
630.324
621.508
630.883
621.567
624.801
629.529
627.150
619.919
615.379
618.993
623.733
621.530
618.759
624.647
620.714
617.321
629.949
619.452
616.120
625.503
625.210
627.643
624.814
620.999
629.449
614.045
614.449
628.738
621.572
627.338
625.952
620.398
615.724
621.387
621.896
615.722
617.328
617.663
621.405
613.034
619.266
617.685
624.684
624.633
614.737
627.182
617.872
613.016
624.549
618.584
625.877
618.906
612.935
616.249
613.817
623.541
621.476
611.203
615.357
615.616
613.565
620.638
617.176
622.561
611.649
622.242
611.614
612.755
620.151
626.974
615.588
627.414
627.306
628.479
620.466
626.643
622.070
638.652
634.100
640.360
638.737
628.568
644.589
636.088
646.314
637.340
640.549
638.668
647.771
640.754
643.497
644.051
657.912
654.301
652.196
658.640
659.646
652.839
664.767
661.937
668.165
663.781
670.831
662.259
668.688
665.674
673.452
667.850
665.061
666.850
676.824
680.491
682.559
682.694
674.913
681.692
689.205
676.987
679.705
689.905
686.427
694.965
687.698
690.387
694.502
691.306
696.053
691.912
694.703
698.863
699.215
706.689
697.426
701.823
708.484
700.485
708.012
701.931
718.331
704.535
717.550
714.286
720.065
720.637
722.441
723.609
725.744
724.979
726.121
725.893
726.518
720.233
733.675
732.184
737.388
732.649
729.629
738.362
731.595
743.962
733.183
739.490
743.871
747.185
742.378
744.232
746.497
753.073
744.581
751.288
751.813
747.069
762.151
756.736
757.731
752.686
768.095
756.256
761.146
772.175
761.011
765.237
761.828
771.017
772.645
773.425
768.421
767.157
774.133
784.443
775.466
787.544
780.052
789.916
779.135
778.073
778.852
783.949
782.936
791.355
799.892
791.341
788.082
792.864
800.698
795.341
801.161
806.599
797.772
806.686
799.035
805.260
813.846
809.944
808.811
816.104
811.935
810.398
814.767
823.474
810.404
819.782
819.740
819.218
826.724
828.371
824.988
827.078
827.453
827.726
831.834
826.778
841.742
829.855
838.010
830.090
840.355
847.643
842.288
842.416
848.644
840.171
845.715
843.663
841.922
858.366
855.112
860.603
850.130
862.065
859.249
860.232
853.598
862.545
855.538
857.332
862.254
868.391
865.405
865.015
871.474
869.949
876.913
878.591
871.944
872.615
875.799
881.508
878.683
883.509
869.967
873.531
878.872
868.104
868.423
873.460
876.047
863.955
863.708
870.910
865.711
866.695
866.590
863.376
865.044
857.726
867.539
869.453
868.530
864.122
856.504
851.723
854.257
854.617
862.507
853.398
859.341
847.424
859.876
859.470
859.049
858.552
845.397
854.118
841.686
844.301
851.264
848.134
845.240
850.562
845.112
847.396
842.213
842.126
847.572
841.643
844.173
839.585
830.685
842.725
830.408
835.014
828.809
840.004
835.436
824.844
828.282
832.294
823.694
831.514
821.942
828.815
821.382
820.575
815.462
823.765
825.624
826.918
812.717
821.544
822.207
823.756
812.543
818.297
818.284
808.776
815.386
806.954
805.508
802.435
802.455
804.961
802.846
805.783
804.197
810.633
810.970
810.946
810.229
806.304
794.457
792.013
792.957
798.573
790.386
797.797
798.147
798.369
791.867
800.909
799.229
791.172
794.838
792.105
784.619
792.901
779.761
791.936
783.648
784.906
785.841
775.816
779.925
788.681
787.297
782.717
772.786
782.298
771.649
768.432
770.225
774.292
772.514
767.436
769.219
773.972
773.105
770.555
762.393
761.892
770.550
770.776
770.646
756.502
764.755
764.438
761.091
761.324
753.213
756.908
755.355
763.065
755.174
755.811
751.993
749.686
759.359
759.275
748.384
751.190
746.381
742.829
749.395
753.282
745.496
752.711
752.524
737.856
740.029
743.012
738.656
738.597
734.484
740.876
737.479
744.787
732.174
737.199
732.933
730.557
740.029
734.532
727.557
735.469
722.015
722.725
733.686
721.413
724.628
728.821
720.437
722.112
722.608
717.511
715.918
726.254
722.296
723.892
725.279
712.896
712.764
715.614
708.298
712.051
709.558
705.627
717.271
704.588
704.932
703.860
714.014
711.845
709.853
703.128
712.516
708.190
707.579
707.188
711.326
697.504
708.454
699.843
696.096
696.248
702.605
709.817
696.601
705.050
695.180
705.865
700.838
692.757
702.602
696.428
697.492
700.741
691.826
690.955
703.583
699.756
699.013
699.772
688.716
688.971
690.143
693.811
698.209
699.328
694.011
694.513
689.126
684.261
688.702
692.729
694.081
697.947
691.436
682.596
684.293
691.254
685.496
689.979
686.308
688.249
682.848
686.272
690.831
685.068
687.360
677.011
676.524
677.161
688.688
683.187
679.830
682.375
676.755
675.017
673.221
685.457
681.115
685.269
672.222
674.224
684.668
678.598
681.283
671.807
675.394
678.363
674.387
679.672
674.994
678.397
672.745
670.073
668.454
678.075
679.174
678.153
666.990
668.081
666.940
668.454
664.683
668.315
676.150
669.227
661.533
661.296
671.910
672.587
663.096
664.197
658.467
663.876
663.510
672.259
667.570
661.093
666.199
665.919
666.229
663.579
658.093
661.646
655.114
657.157
657.190
652.540
658.928
664.245
657.458
651.190
656.957
651.910
651.480
656.788
650.472
654.313
655.136
658.456
660.045
656.287
651.365
655.210
654.005
658.665
645.390
650.206
646.750
643.227
651.316
651.403
644.113
647.587
649.697
640.190
645.369
642.900
653.280
652.022
644.109
637.817
652.335
637.181
646.130
648.004
643.558
643.831
649.038
635.433
637.135
635.625
641.252
633.461
643.389
639.099
644.948
646.702
638.067
635.930
629.923
638.125
642.982
642.808
642.434
632.478
635.688
631.737
638.011
635.794
632.958
639.495
640.192
635.454
636.856
627.340
623.679
627.430
626.875
623.978
636.878
635.773
633.924
635.612
635.308
76.938
55.895
57.557
60.314
58.406
74.788
68.761
78.248
59.001
56.017
71.416
66.872
68.967
63.296
68.361
54.893
63.507
66.438
66.848
75.496
66.397
62.575
73.307
55.322
68.084
74.244
71.721
60.319
54.124
67.408
58.478
69.086
63.252
62.016
68.630
62.189
75.960
73.678
77.588
60.291
67.251
80.021
62.514
55.847
80.941
53.288
77.027
178.013
236.829
188.286
249.485
219.150
223.085
263.558
260.841
175.180
216.909
256.278
245.415
228.625
196.851
181.632
224.750
243.212
261.348
185.222
195.690
214.343
251.969
182.266
218.764
184.909
220.488
186.389
247.149
243.004
214.491
213.545
195.006
187.038
229.808
216.869
216.631
199.977
221.240
190.769
184.829
187.762
210.000
216.920
176.546
184.753
212.143
228.204
201.828
252.898
258.205
211.651
255.679
178.720
132.349
125.646
137.586
145.502
144.389
107.135
133.030
145.212
112.876
134.641
118.492
134.340
141.413
97.382
136.520
102.705
115.301
121.033
100.507
125.444
143.666
136.797
125.187
113.457
112.471
108.951
146.623
105.750
126.165
105.985
113.006
118.904
128.201
144.575
128.606
111.426
100.516
95.285
142.592
125.973
132.324
115.669
126.912
141.942
98.097
104.352
118.201
105.957
127.935
144.394
123.867
125.688
111.560
127.390
134.583
125.996
119.211
136.008
95.528
96.675
99.977
136.613
132.265
106.565
116.300
130.006
123.917
96.122
99.324
132.579
107.137
125.902
141.358
119.267
111.014
122.484
140.265
115.172
136.710
136.558
114.961
121.810
129.995
102.205
115.179
120.382
118.455
138.445
136.267
96.155
95.523
120.142
140.583
111.143
98.630
106.743
120.111
140.519
120.402
111.798
103.687
97.904
114.629
104.227
116.468
145.431
114.660
145.171
131.019
129.244
109.688
116.891
140.219
110.972
127.725
121.121
99.998
120.829
128.488
97.075
124.484
134.634
120.652
112.669
120.410
124.862
102.729
95.230
120.099
136.234
110.044
99.703
111.736
118.003
130.665
118.405
118.293
129.473
96.908
142.644
95.816
103.221
106.662
132.164
103.673
134.638
143.894
139.008
140.040
119.380
96.016
142.304
113.964
140.912
141.821
95.157
116.527
105.548
122.406
117.945
136.271
112.816
129.022
130.247
113.277
146.369
111.113
137.033
136.981
141.769
113.591
104.062
119.754
99.077
144.228
140.904
138.355
114.038
124.564
128.026
95.215
136.074
129.332
97.542
118.787
120.528
132.008
136.984
108.161
139.447
116.165
138.949
95.443
106.181
138.787
118.129
142.193
110.167
134.110
120.016
102.984
101.231
134.238
124.897
144.036
127.273
122.146
128.981
125.329
114.858
109.553
126.003
118.282
112.938
123.926
129.635
143.005
121.838
102.862
116.747
138.014
115.972
145.008
117.462
117.815
109.084
145.367
98.404
137.393
118.865
99.574
140.305
128.753
141.011
127.342
126.362
140.397
129.314
116.879
126.563
103.379
144.338
119.019
108.607
106.734
137.179
116.487
112.248
107.129
138.316
96.535
117.043
125.861
99.388
145.232
144.793
121.533
97.162
144.252
114.443
106.305
142.138
118.602
132.580
141.084
139.409
110.559
136.923
146.678
115.517
135.723
118.402
99.392
103.088
116.711
107.693
95.592
136.420
139.372
122.988
131.902
103.541
134.778
127.367
140.644
125.363
106.609
95.718
100.588
113.055
132.154
114.520
141.093
140.950
145.205
108.050
138.097
122.497
106.432
102.655
137.793
131.224
145.615
144.202
143.675
98.901
113.818
128.152
137.540
112.636
111.925
132.164
134.321
134.642
107.752
115.801
118.144
136.517
131.249
119.131
136.858
137.871
135.001
115.541
132.266
108.914
106.825
132.274
102.354
114.982
114.800
111.414
95.317
101.676
94.707
125.726
135.049
111.724
130.853
98.893
106.111
132.022
117.556
104.235
99.042
121.243
100.523
93.985
134.660
110.539
113.714
121.995
105.896
110.552
138.899
96.291
123.955
122.775
115.472
106.998
133.193
94.552
141.583
109.638
117.506
134.054
116.049
94.562
126.973
116.892
136.442
98.475
143.551
138.804
95.700
99.742
121.401
94.709
98.073
143.891
93.264
103.665
142.309
107.986
130.825
122.121
107.853
143.602
99.186
98.286
118.765
125.947
122.645
132.471
139.039
108.899
115.207
105.231
95.892
125.147
91.942
143.050
98.000
113.804
140.276
125.540
114.657
135.574
118.810
93.533
96.259
111.291
96.249
119.360
139.439
116.097
141.564
122.719
122.154
110.939
123.764
131.225
135.383
109.909
118.434
112.367
132.712
124.532
124.148
110.864
101.977
130.071
136.743
115.748
104.978
116.616
102.156
93.502
139.974
109.817
130.212
139.433
121.375
90.862
137.239
111.117
105.179
93.224
111.761
116.273
137.812
100.549
137.957
131.349
104.521
113.509
132.985
100.906
107.166
116.641
98.910
102.722
108.199
89.838
106.076
101.126
104.176
130.889
131.513
91.484
110.748
94.351
98.166
129.122
128.493
95.446
100.573
106.352
90.196
127.705
123.466
126.818
131.510
108.705
111.916
102.300
114.851
135.602
121.456
106.304
138.124
99.176
94.236
121.748
133.610
95.598
110.821
130.611
136.205
130.742
107.869
115.165
101.107
135.742
138.742
129.217
101.967
113.098
117.267
90.952
106.160
129.320
93.915
138.475
91.991
89.893
107.632
138.768
137.434
117.606
105.894
98.491
121.604
108.769
107.011
133.384
132.328
115.129
90.790
94.097
112.406
94.372
139.346
139.418
101.717
115.110
126.588
125.926
133.562
102.138
137.228
116.453
98.830
134.967
103.993
139.873
137.132
110.169
134.066
138.452
118.498
102.374
121.610
124.739
103.701
121.189
127.005
133.038
120.719
96.113
131.484
97.814
107.149
137.187
113.756
92.460
134.295
126.290
131.065
101.563
128.870
133.983
96.871
117.934
102.722
112.390
106.151
105.550
133.349
137.488
128.464
130.898
110.019
138.252
132.300
98.417
90.386
99.529
94.552
100.650
123.939
118.112
134.992
109.086
93.240
114.016
111.441
132.689
130.153
105.203
99.737
111.384
124.693
138.533
112.897
123.873
88.483
114.555
135.714
112.984
132.434
116.623
116.480
122.966
124.743
93.865
123.137
130.434
119.839
95.682
97.112
94.180
90.714
123.373
103.743
92.998
100.733
91.448
101.294
133.634
97.847
118.019
123.525
101.693
129.182
138.036
110.778
94.544
119.605
121.503
132.263
96.116
114.002
123.260
111.944
100.375
97.915
116.958
99.230
137.730
113.545
137.396
95.432
108.532
137.275
90.380
110.432
113.027
101.876
92.427
104.026
112.057
106.431
123.131
110.959
126.527
110.421
131.265
122.460
113.233
103.994
129.160
88.840
124.293
118.899
104.113
96.668
121.117
131.515
123.754
112.423
137.962
122.323
88.983
134.781
136.088
121.436
131.127
90.868
100.775
116.004
115.011
101.768
88.745
127.746
115.212
138.053
110.858
107.670
111.212
122.228
113.353
99.602
123.557
90.084
126.878
121.071
96.954
91.447
114.012
139.699
97.734
104.987
91.876
114.959
124.738
129.856
108.991
98.144
102.258
137.841
140.676
111.958
97.908
121.750
109.366
112.731
123.303
126.480
95.909
107.333
127.926
96.266
100.661
91.819
135.582
133.614
110.915
130.991
132.035
101.681
108.150
128.788
108.160
95.187
107.071
121.077
108.877
121.183
121.970
141.149
133.981
121.464
138.459
98.210
112.455
94.434
140.275
102.607
93.422
129.251
128.223
133.293
126.035
132.213
113.004
104.924
102.090
123.585
108.716
113.352
122.283
122.478
97.375
128.083
123.537
111.741
109.492
121.515
99.142
116.114
126.758
102.501
139.068
124.361
115.380
128.494
95.462
105.343
92.070
104.429
98.238
133.267
105.759
110.505
124.501
100.569
113.930
130.145
116.758
113.055
124.033
133.509
99.031
124.441
108.510
135.722
127.558
100.413
138.169
104.587
96.661
119.028
100.553
131.650
111.193
143.507
116.481
116.508
125.495
123.486
96.594
118.272
132.325
142.134
97.999
107.775
135.935
111.910
102.701
143.131
119.647
144.520
128.101
140.350
112.457
124.777
96.162
126.437
120.970
138.537
111.681
111.252
95.019
108.117
133.147
112.340
124.538
144.602
132.763
139.947
141.662
132.147
99.763
142.371
103.303
136.327
98.294
139.073
143.938
123.534
132.939
100.175
140.647
119.091
123.452
96.764
135.018
108.591
142.620
131.966
103.013
98.451
117.710
105.033
134.631
113.227
129.475
103.157
103.149
120.812
104.372
106.488
113.950
121.600
138.624
115.513
114.647
113.433
123.987
130.796
115.355
132.765
133.069
106.800
145.948
107.922
110.460
110.447
125.063
131.254
103.438
107.192
141.595
116.370
142.184
103.946
133.202
102.349
95.725
142.111
128.733
108.326
113.610
99.394
120.936
131.012
127.992
106.834
115.683
119.450
