923.411
936.569
933.381
936.703
936.597
935.190
927.729
936.278
923.239
923.158
921.781
922.786
919.965
927.521
921.686
924.368
922.304
921.086
929.062
927.811
919.874
920.224
930.325
917.113
924.343
920.893
920.417
917.814
912.310
912.474
919.272
909.750
911.938
904.144
915.554
913.790
912.783
901.781
911.564
902.495
906.043
898.380
897.951
894.543
894.249
897.134
887.806
893.752
889.902
896.395
891.022
887.033
894.055
884.768
889.084
879.218
887.825
876.749
886.432
872.242
871.508
881.434
873.889
871.765
877.101
870.886
876.723
876.625
862.189
872.692
868.159
866.304
858.535
867.989
869.761
867.858
852.112
858.328
862.936
855.673
852.729
860.868
847.633
850.536
845.272
848.286
851.271
843.723
846.284
839.443
845.472
837.668
834.259
844.458
832.176
834.628
842.736
834.803
837.709
837.474
827.576
827.699
825.368
820.669
829.828
817.764
817.866
817.854
822.964
825.755
811.455
816.158
816.420
815.785
813.170
808.875
819.393
816.019
811.854
802.888
803.704
802.362
802.099
805.560
799.605
806.719
797.222
805.634
792.852
796.154
796.143
794.355
788.567
790.100
795.395
793.439
786.355
781.276
783.223
786.074
787.828
786.777
785.853
779.119
772.129
778.499
784.649
770.932
773.386
772.368
771.135
778.632
772.702
766.436
767.690
762.408
765.623
771.051
766.519
755.227
766.958
752.285
763.433
753.928
747.887
752.851
748.278
752.443
746.500
744.528
741.467
752.784
750.091
745.802
737.098
735.629
735.068
740.240
740.367
731.486
737.206
729.233
739.990
726.750
735.073
738.575
723.592
723.285
723.096
731.519
719.599
716.920
716.847
727.818
720.952
713.813
714.737
717.807
714.502
713.150
705.081
714.845
713.958
708.789
709.675
710.907
712.746
698.819
698.941
694.969
708.201
704.935
692.427
702.658
702.192
699.828
693.601
693.370
687.342
684.338
687.179
57.484
68.169
65.465
74.950
56.880
56.156
61.344
77.645
62.913
69.227
78.391
71.243
54.051
56.785
78.387
74.156
59.363
72.778
63.702
61.015
69.238
52.777
78.232
76.295
56.737
60.882
75.431
59.859
70.301
65.519
63.891
67.919
54.877
72.125
74.569
65.630
53.511
68.034
81.123
65.283
77.921
60.548
67.281
74.142
76.075
68.048
56.773
254.071
262.799
203.086
218.980
219.117
217.324
259.633
194.840
185.134
238.712
215.720
218.597
244.477
224.159
245.997
251.974
175.696
237.989
205.401
216.103
208.931
221.541
264.022
257.674
216.357
195.553
232.779
179.932
216.704
186.868
229.693
207.327
241.485
219.130
219.451
204.503
177.174
240.825
225.699
211.921
203.757
211.961
250.977
195.765
186.134
210.987
203.641
189.007
231.162
214.067
219.675
233.100
216.190
105.402
122.820
99.817
96.598
135.827
140.335
142.317
135.724
137.835
113.670
116.612
96.573
143.019
101.193
132.255
95.109
128.393
101.456
104.559
130.163
99.470
99.511
145.550
110.269
139.732
134.673
128.488
105.573
99.488
120.656
129.769
98.096
124.608
115.892
95.332
126.249
97.884
145.630
99.418
131.021
102.499
139.767
95.754
101.118
120.340
114.489
139.254
124.250
112.769
133.663
139.712
103.291
119.368
107.117
118.375
106.249
109.917
116.190
145.846
103.662
101.822
100.460
130.905
138.692
94.974
116.475
120.952
137.209
113.876
99.283
133.871
129.048
124.847
123.106
126.352
133.734
142.202
98.646
108.053
124.874
118.905
124.166
146.244
125.394
142.363
139.452
137.203
118.606
137.810
99.079
95.825
122.341
142.720
137.052
122.670
103.972
146.373
128.787
139.057
96.848
116.582
101.218
106.707
138.350
136.907
109.445
129.109
136.445
141.656
103.761
118.799
134.170
103.646
100.515
134.390
144.369
136.789
96.391
115.482
106.148
131.351
141.857
96.781
123.858
116.542
111.021
136.448
121.949
140.597
104.003
144.502
127.816
110.948
104.313
94.854
140.119
137.735
117.709
141.400
130.266
95.071
143.129
110.592
95.982
106.551
145.023
110.978
139.524
117.877
123.210
130.146
100.846
109.516
116.868
109.002
143.778
96.110
97.744
135.650
106.803
109.085
104.309
108.320
127.554
100.690
95.651
103.503
141.133
105.015
134.191
141.091
100.873
129.584
111.436
132.850
144.396
131.934
139.428
116.289
144.896
146.190
143.679
107.095
142.458
98.947
111.886
95.861
138.917
121.955
135.856
124.377
137.565
111.102
116.098
134.858
142.113
120.895
134.221
146.546
105.719
138.200
102.030
109.956
125.172
123.863
101.080
110.152
141.804
134.313
142.320
143.000
117.576
138.107
141.673
99.951
108.715
98.419
139.079
117.459
137.019
121.841
124.778
130.314
101.664
98.963
101.806
106.157
94.882
136.577
99.292
115.886
97.828
146.616
103.839
129.682
97.924
115.909
97.535
144.576
130.425
108.550
114.598
142.382
135.525
101.366
106.630
98.636
145.060
141.597
138.326
130.716
95.773
114.825
100.046
125.801
122.235
140.814
111.344
110.885
130.646
94.834
127.721
137.787
116.385
103.928
137.941
114.205
124.394
119.458
139.021
138.626
115.065
133.501
105.686
132.714
100.660
128.850
105.313
102.596
113.864
138.791
136.101
129.562
146.641
146.081
125.969
139.189
105.195
97.626
126.979
108.548
128.932
138.333
113.239
115.270
144.250
98.901
100.606
115.263
119.243
106.011
136.255
125.667
129.179
104.058
143.611
132.417
127.365
105.588
123.968
117.302
119.193
96.747
100.153
105.633
99.474
110.205
146.218
136.342
101.355
96.137
132.436
143.495
104.259
120.825
143.185
142.279
95.985
118.366
96.651
121.148
139.854
123.907
112.330
118.981
96.881
106.592
140.837
144.481
122.338
106.466
129.181
104.687
120.738
114.356
131.773
118.729
98.194
123.598
123.502
99.369
120.271
129.804
106.460
140.625
115.131
139.111
143.978
110.353
142.975
100.626
117.911
115.614
131.716
121.264
103.562
127.387
142.703
126.345
125.665
106.225
107.786
109.321
106.196
118.985
114.378
121.544
126.039
119.462
113.818
101.418
137.028
143.305
104.386
122.023
145.774
130.373
129.427
108.702
146.167
104.521
102.672
139.376
101.727
99.312
107.743
100.636
143.061
112.924
128.011
144.159
122.900
121.895
127.923
136.943
95.533
124.625
137.065
130.581
140.282
105.833
122.474
119.718
127.563
114.070
134.640
134.406
142.617
143.685
95.111
144.059
119.950
139.395
98.228
110.208
109.311
126.804
144.797
133.300
139.882
126.037
139.661
101.610
115.734
146.680
146.666
129.478
100.946
143.483
105.959
114.556
136.625
113.332
106.162
134.140
102.998
98.633
126.399
118.917
101.716
101.783
108.647
101.822
118.792
110.538
142.245
139.710
109.988
136.007
129.109
129.426
115.849
97.272
135.642
103.552
125.490
121.371
142.731
130.656
103.288
135.570
96.141
95.048
98.985
137.581
136.144
142.472
135.284
119.516
104.396
125.245
97.191
137.036
122.973
112.641
110.457
139.123
107.453
146.479
101.074
109.467
110.201
115.433
103.811
117.413
123.507
118.492
146.723
142.326
98.522
124.260
116.275
139.628
102.857
115.886
138.465
136.615
114.050
105.020
138.138
133.681
131.870
120.117
113.694
139.419
102.634
106.877
142.155
106.669
131.302
135.354
114.219
109.060
99.768
119.666
120.243
95.405
124.428
115.125
123.638
114.750
118.339
144.755
105.839
118.896
99.556
133.724
106.876
103.220
139.178
138.326
131.002
106.645
108.561
101.443
98.820
128.643
145.159
101.249
111.794
124.606
128.196
128.579
105.039
105.355
124.176
120.582
108.192
135.729
102.799
123.668
111.312
113.932
136.488
126.280
121.423
145.690
143.335
144.397
131.848
110.950
138.201
138.300
114.842
118.169
137.637
132.136
145.337
134.433
100.520
106.214
99.506
96.383
118.202
122.614
110.484
140.886
100.509
104.315
134.408
142.769
104.910
123.733
116.449
124.215
104.653
122.406
145.807
135.850
122.933
98.794
137.971
127.377
132.236
120.760
121.451
127.801
101.310
119.128
123.749
119.745
126.462
127.732
140.741
131.915
105.039
122.656
117.328
112.781
121.469
123.233
144.217
142.105
101.402
132.364
101.451
118.697
114.168
101.490
109.659
144.203
140.785
144.135
120.281
96.212
100.972
114.915
130.699
96.308
108.552
95.687
131.335
139.949
109.998
137.697
103.598
120.026
144.109
132.540
98.704
103.125
122.483
114.608
132.405
113.914
144.939
115.736
97.185
141.507
143.602
117.905
141.334
97.770
118.965
115.587
107.763
128.688
112.280
131.929
108.906
140.142
105.712
118.055
140.029
102.252
135.131
115.697
138.491
136.385
119.171
122.308
102.135
109.651
115.607
96.776
123.350
110.390
122.017
126.948
134.260
95.813
118.039
94.946
140.851
107.214
104.825
123.952
118.061
100.715
119.192
139.348
124.489
137.614
123.772
98.878
135.035
106.864
106.091
121.811
146.068
125.058
99.238
121.439
96.122
145.221
99.440
120.865
131.416
130.148
119.777
106.874
128.988
138.023
104.637
143.822
105.346
132.257
102.985
140.509
96.056
101.893
109.791
138.970
101.015
141.002
128.210
95.534
130.048
141.527
119.662
117.561
129.090
132.288
120.680
101.888
140.706
144.509
118.553
120.759
136.057
121.036
141.024
98.082
95.469
106.663
119.297
107.809
133.013
128.799
94.834
103.240
129.153
121.752
118.506
110.949
112.894
141.921
102.894
129.870
103.924
136.508
126.903
97.198
118.304
142.704
97.826
103.990
118.542
96.601
130.917
146.664
146.122
101.774
119.296
126.270
146.679
144.402
95.478
125.720
106.604
121.671
132.327
140.392
141.017
112.556
106.953
108.305
138.092
135.564
113.466
113.003
117.434
118.478
110.483
111.501
131.684
102.241
118.212
115.975
113.774
139.617
111.203
107.954
122.294
133.164
117.311
129.431
142.127
122.933
124.509
142.883
132.981
138.481
136.168
114.008
95.456
109.856
142.983
140.455
143.837
146.368
145.340
98.280
140.986
137.632
140.451
128.012
131.316
102.705
96.223
116.060
103.224
144.033
105.399
112.486
115.392
117.624
123.168
144.151
104.315
113.373
98.053
116.909
100.749
96.437
97.510
112.763
139.959
141.870
136.261
136.581
134.104
113.724
102.322
111.679
109.669
125.808
101.176
100.085
120.015
140.523
97.378
95.305
111.440
146.640
134.197
142.835
104.020
110.060
125.159
96.431
118.085
135.637
114.980
123.052
105.102
96.527
109.627
134.777
116.795
115.638
96.801
96.845
134.723
141.648
110.669
125.265
111.553
119.831
132.118
135.880
144.723
99.677
114.934
105.124
140.870
135.876
123.021
125.453
145.459
142.799
114.522
108.084
126.263
138.912
144.276
95.768
134.070
136.930
131.809
96.575
102.314
115.999
107.053
103.348
109.317
110.955
139.768
133.300
118.197
128.244
135.749
133.217
104.752
103.089
142.103
139.037
130.054
142.536
95.995
99.619
96.876
115.235
106.360
110.771
139.496
132.606
98.660
110.853
143.301
137.095
105.287
120.315
113.289
101.350
131.564
131.349
136.456
137.631
108.244
113.798
142.551
101.628
125.025
131.237
131.057
140.552
98.834
95.781
132.088
96.054
110.486
113.039
135.061
101.383
98.238
107.855
118.180
120.356
120.453
101.333
111.851
128.918
117.821
96.916
127.945
125.243
122.196
119.617
103.573
143.523
142.463
118.490
111.183
128.158
117.768
105.782
140.152
132.814
106.166
99.532
123.291
104.469
136.247
128.515
117.724
127.033
105.823
117.312
113.700
122.559
137.377
134.913
107.639
113.016
128.195
119.751
142.113
132.702
110.106
126.214
116.647
127.690
138.340
134.914
125.343
137.205
113.463
104.676
106.989
112.450
110.578
140.058
125.000
106.547
141.338
133.180
143.253
119.190
136.207
110.267
106.266
98.995
108.236
105.155
103.612
122.644
112.766
131.467
146.274
105.817
97.565
95.386
118.248
98.377
143.394
118.433
100.376
116.588
145.691
118.617
140.903
140.498
120.120
113.707
116.715
120.320
124.190
102.863
133.707
114.223
142.626
106.861
121.066
122.342
145.618
110.600
114.328
113.412
138.139
119.711
140.165
115.230
119.277
125.634
116.451
119.086
132.866
121.645
109.094
131.358
107.688
134.220
98.136
136.136
133.477
131.072
122.497
100.352
104.916
146.162
140.385
125.552
139.793
117.274
112.227
121.750
145.813
140.911
103.375
118.437
105.576
96.987
114.363
126.339
135.347
125.763
112.066
139.782
133.846
132.210
128.228
136.927
119.023
128.646
111.696
136.528
146.681
102.673
111.728
132.515
129.401
136.677
126.518
124.696
103.919
107.840
134.282
134.635
102.456
104.524
99.146
137.330
101.937
117.450
143.967
96.431
126.351
120.248
120.746
126.804
109.231
102.812
140.738
136.406
113.225
110.379
96.155
126.068
122.791
97.921
132.734
107.070
145.714
126.342
130.127
144.267
108.260
135.203
121.802
136.070
114.048
113.090
116.968
137.821
143.934
117.955
124.506
110.102
141.913
137.853
136.000
120.162
100.241
118.156
122.640
144.626
106.485
97.225
134.300
124.152
141.358
129.301
139.279
119.647
104.455
118.715
95.592
145.851
141.031
143.809
120.331
116.942
106.404
132.178
137.483
109.458
113.805
118.500
97.727
109.963
121.932
141.767
144.732
146.264
120.980
143.098
103.730
112.686
117.959
112.672
145.665
119.553
103.483
111.552
128.069
102.226
121.712
115.949
128.191
102.973
134.046
126.018
106.917
145.854
141.306
108.215
142.172
107.016
130.877
99.130
106.699
140.241
131.623
126.571
137.499
96.720
115.821
99.416
122.348
103.940
130.019
124.661
101.980
130.107
119.461
108.840
143.979
113.022
122.887
127.030
101.914
120.711
102.651
103.290
106.492
139.178
136.624
104.171
99.386
138.708
140.870
138.465
144.101
114.867
144.176
107.276
128.880
120.761
129.667
144.016
129.998
128.058
106.539
119.480
134.468
116.526
124.799
101.762
113.150
129.531
142.709
118.603
103.938
132.316
117.339
136.381
100.703
114.058
101.192
104.226
138.160
119.589
116.284
144.655
131.250
135.290
126.416
122.179
114.952
106.202
136.066
132.100
126.872
127.015
117.029
97.108
132.414
143.222
131.126
105.031
111.896
122.746
128.588
131.709
130.235
128.787
110.899
123.671
144.958
101.215
110.618
101.239
116.542
142.809
113.573
108.616
110.753
117.046
95.938
133.148
96.278
139.992
106.087
134.394
101.350
105.284
121.781
117.883
104.831
117.418
132.958
112.615
102.687
100.929
137.944
114.341
122.447
132.434
108.983
127.778
97.099
142.017
144.872
137.552
144.710
140.357
116.814
112.682
95.298
126.260
111.890
117.144
139.465
130.664
134.983
120.626
130.916
99.368
133.141
114.591
133.121
138.520
142.515
126.658
122.245
106.307
126.942
143.585
133.381
108.787
96.412
140.051
125.444
106.398
126.610
131.363
125.587
130.150
107.698
136.257
116.481
141.732
140.894
146.120
128.998
97.060
137.093
140.257
117.494
104.250
95.032
107.784
112.155
111.285
119.764
98.429
119.120
122.644
112.184
127.275
143.063
109.286
134.592
112.230
117.274
118.913
130.884
143.660
127.808
115.271
146.510
99.527
135.737
123.454
137.395
128.278
123.049
127.406
122.227
123.458
139.263
137.058
117.438
120.820
120.125
109.071
95.243
101.295
143.992
104.801
117.082
120.523
98.174
118.863
97.244
98.452
121.401
143.529
117.249
98.376
119.531
137.701
125.502
97.057
134.484
97.769
98.193
115.612
95.623
131.239
116.982
132.369
122.471
104.212
110.632
142.071
116.226
107.097
144.005
139.866
106.254
112.236
118.269
106.293
109.351
142.276
104.005
141.994
97.892
105.259
114.459
97.976
109.472
136.012
108.123
135.243
135.794
121.549
129.858
135.517
94.874
103.209
120.830
126.739
103.087
126.303
140.699
139.957
134.051
143.107
115.356
104.953
107.524
107.291
131.285
105.724
141.672
106.535
140.471
96.577
96.057
140.544
107.541
128.158
139.474
97.818
109.224
132.051
116.284
126.063
140.666
120.234
114.089
105.562
115.546
108.168
126.560
111.048
115.447
140.367
119.724
143.319
143.895
112.209
116.958
119.625
146.217
100.165
106.618
138.287
102.090
128.900
116.221
130.743
144.979
107.909
101.775
142.145
119.102
109.716
109.620
103.318
142.577
107.888
136.606
135.714
95.289
101.755
100.293
127.073
136.369
134.624
142.494
97.373
99.309
131.903
108.287
128.545
99.631
131.172
131.015
97.077
127.722
106.471
107.801
115.255
124.493
102.133
98.033
104.457
136.897
140.267
96.713
119.485
138.337
121.354
141.571
122.076
134.702
95.487
121.258
98.025
138.604
114.200
107.670
141.990
132.613
126.914
118.974
127.645
107.961
99.480
122.719
120.927
142.061
112.274
134.879
146.619
99.374
144.512
121.125
105.986
121.025
110.748
103.569
96.258
137.903
103.599
97.187
137.207
109.047
103.057
129.669
119.154
132.091
125.516
114.078
105.909
99.274
121.518
102.925
105.840
143.932
109.984
143.021
145.254
133.660
122.098
103.915
133.381
104.647
101.300
118.650
99.872
126.646
109.418
119.628
110.241
131.712
95.873
113.871
127.594
126.461
101.672
94.883
100.777
101.521
115.566
137.967
105.572
102.448
95.116
100.585
145.399
96.318
142.573
127.831
144.196
