833.004
835.938
836.709
823.937
831.276
821.781
817.352
824.786
823.937
820.476
816.662
810.675
816.550
817.489
810.412
800.471
800.248
796.568
808.067
798.023
794.126
795.403
796.975
798.596
787.319
794.464
786.068
783.017
780.274
777.578
783.045
784.587
779.723
770.812
778.268
767.095
772.049
768.456
770.999
764.724
765.785
754.169
758.178
749.344
760.372
749.577
743.661
744.472
751.089
746.104
739.299
735.246
744.757
738.812
748.182
748.537
743.361
742.649
753.860
756.213
747.256
742.530
757.052
751.050
755.125
758.611
754.057
758.787
760.566
759.889
763.832
762.823
760.674
755.149
763.369
766.272
765.535
770.102
761.741
760.748
765.963
762.884
770.957
766.018
764.425
765.386
777.946
769.982
768.943
771.269
775.684
784.862
772.402
776.125
787.106
775.974
788.444
783.153
783.521
780.440
793.581
785.539
783.233
791.285
793.632
786.007
791.036
800.755
786.311
799.465
799.269
796.337
799.052
802.755
802.488
795.803
801.124
804.354
808.345
809.791
800.054
807.920
800.444
815.604
816.497
803.644
802.660
805.563
816.780
821.090
808.562
816.796
814.389
812.881
818.902
820.112
813.247
818.906
814.376
827.755
827.027
826.138
829.390
822.746
825.846
822.108
831.442
832.041
832.489
832.618
832.130
834.163
831.921
837.455
830.805
836.470
846.081
837.683
837.201
835.995
847.891
842.577
838.338
837.314
849.322
840.181
853.529
854.796
852.005
854.052
858.871
848.638
845.933
861.772
860.931
859.098
856.086
864.051
859.222
856.449
855.701
868.874
864.706
866.698
863.370
867.739
861.619
873.553
869.302
871.234
873.605
869.472
869.584
873.140
875.339
875.510
882.921
881.363
877.621
883.854
875.709
872.803
879.416
882.125
885.963
881.230
887.670
891.176
886.020
880.659
884.378
895.714
893.967
887.495
899.797
899.722
892.615
893.905
893.869
900.967
903.415
892.822
903.088
892.992
895.785
900.232
898.180
900.489
903.244
898.911
914.813
911.421
914.602
911.950
913.193
917.321
915.519
911.986
914.232
916.590
923.398
922.980
911.228
923.732
922.685
924.767
914.243
925.025
928.249
920.051
925.992
918.845
923.909
921.339
923.741
926.175
923.471
929.028
925.125
930.402
921.904
922.069
932.005
925.406
931.544
919.299
933.508
926.834
932.414
921.033
933.708
923.122
918.019
928.821
930.187
917.862
922.403
931.770
929.195
927.742
931.411
930.291
929.015
926.809
930.981
929.190
919.886
923.964
917.292
921.021
929.117
931.174
917.134
927.015
918.818
920.780
929.419
929.578
925.646
931.853
921.904
930.211
922.916
928.275
917.277
918.686
920.688
918.079
928.724
918.181
918.234
927.841
928.044
923.723
925.037
926.761
917.650
916.519
931.882
919.384
918.182
925.033
930.878
923.591
931.393
930.022
928.616
930.104
921.674
929.750
920.503
919.353
919.551
921.021
917.696
926.478
923.846
924.451
922.221
929.499
924.847
923.216
926.245
927.394
915.250
921.534
916.555
921.761
930.625
915.845
928.368
920.241
916.176
927.552
916.110
916.898
916.487
922.487
917.480
914.887
923.569
914.572
921.694
917.284
919.449
929.984
929.029
927.667
920.212
915.337
920.686
916.780
918.018
918.769
928.706
923.021
927.994
913.980
924.314
920.436
924.225
923.180
925.984
929.216
925.904
914.906
916.330
921.390
923.766
914.555
924.127
923.741
923.343
924.373
921.929
927.619
919.872
915.698
913.774
916.337
926.274
914.556
922.987
925.121
922.428
928.589
927.495
915.698
926.487
924.451
920.182
913.210
924.678
922.511
913.201
922.466
912.648
926.302
926.876
915.546
924.600
916.780
912.796
912.729
923.386
925.358
913.551
918.875
919.200
914.161
926.780
915.448
924.853
916.494
927.263
914.312
921.026
925.522
913.705
921.999
915.167
918.722
926.812
913.742
923.137
915.940
914.131
919.960
917.363
915.125
922.139
923.342
925.310
911.980
911.727
920.604
918.901
916.393
911.315
905.398
904.439
901.439
903.808
902.355
908.153
895.692
899.361
901.321
894.651
885.854
887.881
893.751
896.148
887.244
879.142
886.244
890.160
888.001
877.003
872.212
874.225
868.188
875.228
870.050
877.646
867.618
865.416
864.435
870.041
869.079
862.275
860.698
866.999
858.653
865.052
856.111
862.021
860.678
847.027
855.034
843.547
841.980
850.237
850.673
842.171
844.851
838.867
845.093
843.659
827.851
833.061
832.101
824.928
825.969
825.191
823.320
820.889
830.931
814.745
818.278
819.314
814.979
823.933
807.995
811.015
813.423
816.428
801.771
805.893
807.133
808.243
809.474
800.347
799.514
792.019
798.599
796.979
799.743
795.022
799.111
795.760
781.726
790.414
790.660
786.988
785.891
777.203
777.705
785.082
773.466
777.508
773.841
774.523
776.347
763.926
762.961
763.979
769.781
766.229
759.997
758.069
757.664
751.994
749.967
750.037
749.888
752.617
752.808
749.852
757.087
755.543
748.162
738.110
739.645
744.822
737.455
740.556
744.706
741.599
739.602
740.142
734.972
732.768
724.624
723.282
726.372
724.396
727.523
716.345
713.309
715.975
725.645
708.912
721.255
706.564
717.298
711.829
714.946
712.782
705.494
706.796
697.824
707.433
700.349
691.433
702.733
695.165
690.292
691.362
684.089
692.630
682.268
687.100
679.376
686.968
683.640
684.643
680.559
674.598
674.680
681.313
669.292
676.826
676.728
669.043
675.551
671.480
666.251
672.086
664.937
663.015
664.046
651.962
659.991
649.937
654.040
645.398
647.194
643.048
642.495
642.213
650.664
641.317
640.024
636.126
632.688
634.081
630.933
634.333
634.108
637.890
624.545
639.401
640.079
627.876
635.922
627.484
635.278
642.519
638.446
645.725
637.073
644.019
641.263
641.689
645.186
649.773
639.674
643.227
641.876
649.062
649.885
644.858
639.325
649.625
647.878
653.930
648.868
645.746
657.099
656.040
645.501
659.129
652.803
657.988
662.506
661.688
663.456
659.851
660.926
664.228
655.231
667.238
660.696
665.796
668.850
658.576
669.042
669.608
658.745
662.720
664.146
673.474
666.241
675.938
671.064
665.625
675.671
670.433
675.150
680.566
680.754
678.673
673.532
669.498
678.659
680.477
681.069
680.969
675.781
674.686
681.261
684.677
680.832
689.847
691.227
689.240
683.712
681.424
686.543
690.177
687.844
694.128
685.854
683.088
687.817
693.291
694.699
697.345
685.776
686.288
693.880
700.229
690.799
698.920
699.612
693.467
701.134
704.493
704.533
703.159
705.735
697.592
707.283
711.084
705.615
703.248
699.565
704.692
706.860
710.737
703.590
704.580
705.877
706.359
717.421
707.552
707.581
719.609
709.865
712.786
709.095
714.374
719.200
710.320
716.087
712.736
714.199
719.842
724.033
724.626
716.737
721.693
717.356
729.439
726.741
730.294
721.719
731.289
733.114
731.218
731.043
732.272
736.243
738.743
737.796
732.072
730.568
730.649
731.058
730.232
742.589
740.795
746.269
733.115
745.653
734.262
738.863
741.778
738.016
749.854
736.897
748.483
738.749
739.978
752.387
740.210
754.372
747.382
756.909
745.733
755.649
747.665
758.941
750.030
751.880
754.558
763.019
757.706
764.638
764.825
757.742
754.396
760.319
766.248
764.507
759.853
756.507
755.967
760.758
756.934
772.135
773.154
768.425
774.451
760.936
768.125
767.322
763.738
766.719
776.133
776.208
768.202
775.151
766.738
762.004
758.581
767.308
764.923
755.139
763.151
762.408
763.244
747.404
761.567
746.873
748.302
751.667
749.996
743.558
750.201
742.413
739.958
741.171
742.838
737.790
734.620
728.562
741.736
729.083
738.642
733.695
733.781
720.202
727.101
720.509
730.419
715.322
721.268
719.152
722.455
720.124
712.600
714.288
707.660
714.622
707.545
710.676
704.451
706.988
699.647
693.990
707.447
702.845
699.061
704.063
697.169
699.519
697.871
692.192
689.566
687.478
693.516
678.963
688.258
678.980
678.485
672.490
676.588
679.698
668.557
669.515
678.640
675.506
675.075
665.231
667.377
663.990
661.555
667.672
658.060
662.271
650.751
654.887
648.719
658.594
645.142
656.628
649.581
654.547
642.961
639.704
652.128
639.357
647.077
644.199
644.415
632.915
637.251
634.479
639.097
625.080
635.247
624.745
626.705
629.998
624.986
626.779
628.927
618.990
617.095
617.237
613.460
611.503
612.865
613.064
617.362
616.951
600.085
608.952
606.781
607.478
597.258
598.906
605.884
599.125
602.441
588.810
590.418
588.920
597.289
586.019
584.022
586.191
586.658
579.375
577.234
585.725
574.970
578.054
575.170
570.623
565.889
573.774
574.229
570.524
571.626
568.640
572.731
563.635
558.382
555.436
556.089
563.443
550.214
549.073
559.638
556.760
548.709
548.476
546.157
541.541
551.008
539.180
544.118
547.273
537.034
535.480
530.745
532.033
532.307
525.250
525.233
527.630
520.764
520.550
530.665
523.600
522.224
526.936
514.828
513.569
522.894
512.320
507.072
515.169
510.426
511.483
506.933
502.504
504.614
506.322
499.406
495.929
506.216
497.037
503.600
496.124
495.218
495.943
484.645
489.737
488.398
492.796
488.162
479.348
487.222
484.908
478.179
472.449
465.477
475.886
470.953
462.606
458.586
468.991
454.132
455.801
452.158
455.589
459.491
444.221
451.836
450.691
448.159
449.149
442.775
438.912
433.698
438.577
434.789
437.328
436.899
421.092
427.361
417.495
430.503
415.440
419.364
422.431
410.134
408.284
404.874
409.871
412.523
402.352
411.189
407.096
401.663
397.952
389.139
399.180
390.463
395.050
386.990
391.957
388.020
379.076
374.700
375.627
375.091
375.745
379.689
372.609
374.318
368.636
366.427
360.023
358.580
356.688
350.296
356.759
346.597
357.179
348.425
352.070
349.233
338.968
341.327
342.443
336.200
342.051
332.615
335.116
333.662
323.365
325.792
323.631
321.867
320.623
313.626
315.510
309.714
312.698
311.701
308.235
314.049
300.979
306.517
299.330
294.465
304.700
297.811
293.460
286.252
291.825
285.711
282.934
289.997
280.766
275.861
280.580
272.557
278.691
265.298
266.419
270.157
268.530
267.624
261.248
256.415
252.518
251.769
257.317
258.061
256.631
256.023
240.963
246.795
244.311
249.015
245.289
229.357
238.453
228.155
225.948
224.509
227.998
227.744
221.020
216.391
225.487
219.351
220.151
217.186
219.085
206.442
202.675
199.732
209.362
202.344
199.412
203.683
200.639
187.619
200.156
198.248
188.008
189.971
183.614
178.108
186.340
185.471
182.558
170.033
180.252
166.375
172.218
169.884
172.286
159.396
160.668
155.174
150.866
162.650
149.286
144.755
143.863
154.520
143.159
147.031
143.623
145.732
138.479
135.021
138.832
133.957
435.661
443.800
388.460
384.640
401.914
412.405
375.581
389.264
369.105
369.326
372.289
363.073
350.385
334.357
122.769
98.343
134.875
141.875
124.953
121.073
105.380
139.539
130.794
108.148
106.908
102.684
116.457
135.478
122.974
142.587
120.696
99.900
130.116
96.120
96.460
106.111
116.280
123.075
112.016
112.941
118.970
105.450
96.384
136.735
130.331
136.694
111.888
132.788
139.908
132.734
129.924
112.790
116.729
124.979
126.328
93.981
109.345
109.168
142.203
120.328
126.871
97.509
117.732
118.327
144.957
125.041
124.401
94.343
117.705
140.366
117.381
104.044
132.918
122.605
119.182
105.406
109.638
115.372
120.693
142.830
93.105
118.973
111.725
124.884
128.678
131.936
100.992
97.677
135.177
117.489
92.916
95.717
110.964
140.435
112.427
98.450
134.670
123.063
111.788
103.017
123.087
135.673
115.858
124.812
136.229
105.341
121.617
137.503
141.002
142.135
95.432
126.751
94.220
117.622
131.828
124.994
107.314
114.904
139.138
136.461
134.544
100.157
124.389
128.764
121.808
104.521
92.295
126.200
138.940
109.749
136.663
93.306
117.845
117.269
133.039
133.305
140.589
131.754
141.643
96.953
127.548
126.524
136.359
124.041
112.041
132.221
126.745
112.973
118.119
92.952
120.306
92.880
106.239
123.410
140.463
110.820
92.136
125.992
114.513
109.988
139.564
92.122
96.100
111.994
96.185
116.572
91.935
98.668
133.680
108.100
134.291
101.524
90.171
114.061
92.056
123.970
115.177
135.265
113.834
140.912
109.241
132.943
122.207
94.154
115.590
121.861
104.315
92.173
136.486
117.436
113.180
122.684
93.764
92.027
129.467
117.211
114.647
140.436
105.211
122.193
116.189
133.602
114.377
130.416
125.795
105.602
113.204
133.235
116.397
98.913
98.369
111.017
114.508
114.875
92.061
96.335
116.891
89.540
138.781
111.335
140.106
137.150
139.707
135.999
106.096
113.722
110.738
126.937
119.054
112.189
90.862
116.371
97.389
91.566
106.959
105.342
115.324
133.003
119.655
134.318
100.356
112.085
102.667
113.563
112.341
130.961
89.944
112.523
92.249
91.348
137.518
106.688
130.760
118.781
137.559
88.499
105.556
90.213
107.596
114.611
98.740
122.830
106.810
111.455
128.641
139.543
106.078
128.024
123.791
112.395
127.060
136.534
93.213
111.852
94.989
101.556
123.505
138.410
125.268
91.677
137.394
132.796
123.776
111.367
121.017
125.417
113.941
119.380
91.760
89.412
99.698
132.519
99.761
109.128
94.505
110.697
119.100
93.068
139.814
134.875
113.738
91.556
90.103
97.277
106.181
111.511
103.352
98.861
139.494
90.180
121.460
97.870
88.954
113.151
125.546
127.059
91.084
102.816
138.803
136.399
122.510
122.964
120.871
98.612
138.572
113.325
124.953
121.644
119.353
132.278
121.776
111.841
121.105
115.214
128.203
108.074
96.040
90.983
99.490
132.356
133.369
122.469
134.106
94.802
118.158
96.466
123.871
122.446
101.895
127.894
101.750
122.289
115.282
140.301
119.022
90.258
136.972
117.011
127.315
137.814
113.232
139.306
93.744
94.246
93.255
127.112
130.970
100.923
101.469
116.398
88.747
100.864
97.583
92.711
120.173
114.495
127.548
139.744
91.877
105.543
133.825
91.682
133.369
89.894
104.875
136.502
129.516
111.302
89.643
119.867
107.860
139.454
115.649
91.558
131.402
132.288
112.826
99.942
101.512
117.120
127.271
122.276
108.569
122.308
88.412
132.431
111.674
89.265
96.943
126.556
139.469
113.787
95.155
124.295
109.609
108.388
99.317
123.756
130.444
116.368
95.001
89.927
135.343
92.742
130.087
88.820
126.265
89.591
121.561
116.240
104.111
91.707
111.312
92.237
127.484
104.296
110.994
99.394
89.769
99.169
128.241
134.922
98.532
139.687
104.616
106.170
112.602
102.467
101.963
95.947
108.510
116.128
133.540
105.482
101.055
122.223
133.077
112.307
108.961
98.541
111.673
114.443
117.072
130.279
98.509
111.139
115.391
105.870
103.883
100.508
112.336
95.400
121.087
108.531
91.329
95.004
117.140
93.686
108.723
97.302
101.595
120.649
110.625
135.446
136.554
94.899
101.494
102.729
118.213
106.027
111.453
108.016
93.591
137.190
141.019
100.264
111.501
135.594
125.354
125.722
121.908
108.915
140.236
141.204
97.791
101.481
128.507
138.048
114.010
141.648
123.311
114.175
131.590
94.051
141.304
138.104
113.023
131.141
124.198
94.694
124.672
93.762
141.109
110.338
102.421
113.862
98.633
109.766
95.562
111.629
111.463
105.027
134.499
119.343
117.431
110.585
109.300
133.455
136.252
139.915
98.937
124.106
135.274
138.476
105.807
121.508
114.655
108.512
117.864
113.177
109.929
97.829
134.619
128.065
130.752
127.822
141.149
143.237
127.445
122.820
93.891
142.738
99.224
100.288
133.069
137.493
108.773
101.414
144.758
143.192
125.005
121.980
110.505
107.063
112.257
123.605
132.514
99.236
132.480
118.747
126.624
101.126
143.175
133.542
125.923
137.246
105.677
97.239
122.045
129.076
98.463
107.284
125.464
129.391
94.439
131.614
135.103
134.743
101.014
138.213
98.038
143.019
107.776
103.396
101.056
135.041
133.450
135.524
100.123
145.395
130.085
139.021
110.976
127.743
137.539
132.706
119.762
118.783
131.164
130.250
136.673
113.932
113.346
95.247
111.274
108.037
126.610
108.527
112.126
97.603
101.510
131.192
96.058
112.693
123.455
129.828
119.023
120.718
95.563
112.222
123.220
140.418
100.985
145.114
113.594
117.461
94.101
120.786
145.611
139.042
103.154
96.064
134.986
139.753
141.697
127.098
133.725
123.473
141.918
110.567
109.235
112.548
144.980
106.467
116.757
121.260
108.360
102.619
114.162
108.093
101.626
133.752
103.476
138.790
99.134
119.554
98.691
98.921
124.805
105.653
110.196
118.876
128.209
143.298
131.073
140.988
142.189
139.909
120.014
122.167
129.990
93.186
138.732
111.801
141.222
111.503
111.288
99.432
113.238
139.908
104.376
116.470
116.142
99.284
138.853
125.356
120.784
137.462
93.210
135.656
135.772
129.496
105.566
128.333
116.671
122.670
125.744
134.603
101.560
121.266
139.148
138.029
118.900
106.711
116.725
141.459
104.334
103.334
112.261
117.517
101.984
133.474
94.557
98.648
139.735
112.218
131.476
138.657
140.518
138.166
93.242
125.901
133.417
114.788
129.101
113.862
110.807
121.822
126.846
136.059
127.799
112.428
111.127
124.996
91.238
135.194
113.322
142.187
110.892
121.557
137.201
131.020
125.987
