807.734
805.912
802.026
806.830
804.502
810.550
803.429
810.526
806.689
813.895
811.897
809.688
815.821
809.853
815.152
820.047
816.370
819.458
825.051
821.207
814.760
828.412
815.587
815.177
828.231
829.323
826.028
824.077
826.843
833.631
822.294
823.716
828.219
825.082
840.626
834.369
836.097
841.222
828.969
842.193
840.782
832.161
842.024
836.822
840.737
835.306
849.911
843.361
853.847
849.378
854.786
842.140
846.040
844.803
853.888
858.536
857.432
859.763
862.640
852.799
853.814
865.718
859.369
854.791
862.071
859.308
863.908
858.213
870.008
860.797
872.124
862.020
862.010
868.779
864.368
876.818
868.808
880.751
882.312
877.767
874.604
875.669
876.309
883.302
879.516
874.608
877.393
881.167
891.244
881.372
888.639
884.366
886.549
896.142
883.423
889.034
895.236
894.054
891.890
886.968
903.001
893.199
904.152
892.394
894.412
894.971
908.084
908.063
895.422
896.779
899.388
901.211
909.667
904.547
904.472
901.744
915.433
916.444
915.317
910.706
918.176
916.503
909.635
909.936
911.710
920.983
921.612
918.431
918.910
928.709
916.582
919.271
919.803
919.688
928.967
920.274
922.963
920.932
928.588
925.395
920.147
919.545
923.026
927.456
916.010
914.710
918.920
924.900
922.357
911.914
920.062
912.057
920.968
918.015
922.035
914.601
913.961
916.697
917.230
914.657
908.214
916.788
921.461
909.050
916.483
915.147
918.220
919.077
911.840
916.885
919.231
915.813
906.519
906.170
909.756
908.947
901.939
914.050
903.604
911.123
906.665
899.803
899.376
906.066
909.794
909.389
910.310
900.058
903.077
904.656
898.337
900.529
898.641
907.906
908.545
897.012
902.290
909.618
899.473
894.006
893.745
899.113
896.367
894.990
905.395
900.709
898.134
906.385
892.057
892.635
899.448
894.180
896.143
893.449
894.771
897.463
901.199
893.172
891.959
896.692
893.147
887.530
892.547
896.078
888.775
896.220
896.629
894.921
899.156
896.944
885.006
894.122
890.931
889.274
887.107
891.142
883.729
892.514
894.359
888.337
884.868
880.389
880.255
883.554
893.661
878.404
891.897
879.869
890.380
891.623
881.915
883.817
882.864
878.640
887.020
886.706
889.393
880.705
884.035
885.772
872.974
875.236
875.440
881.232
875.112
878.447
884.155
872.385
871.863
875.714
879.136
876.675
878.642
877.241
881.844
871.484
869.437
870.154
876.611
872.828
881.459
878.295
869.237
870.717
865.410
864.324
868.200
873.588
871.269
865.501
872.601
876.073
868.331
869.440
868.914
872.769
874.085
872.015
861.526
870.166
870.793
871.806
869.079
872.655
869.322
868.569
871.422
861.439
856.693
867.858
869.752
868.946
870.422
870.323
859.085
859.124
863.777
854.753
866.694
854.945
855.449
865.061
867.164
863.544
856.581
853.502
863.856
851.197
857.730
850.195
861.664
854.108
856.818
851.566
861.195
848.956
846.221
853.535
845.332
848.267
841.173
851.284
843.733
847.533
837.139
837.144
849.737
835.416
839.610
841.097
841.755
843.471
831.206
837.596
834.296
830.173
832.598
834.169
834.907
834.805
836.114
837.257
825.747
828.014
834.922
824.097
832.593
820.950
823.544
827.380
820.082
816.674
822.704
813.353
813.809
824.571
821.738
813.234
820.371
812.775
813.228
806.526
813.956
803.155
802.674
805.493
804.082
806.884
808.235
799.339
800.551
800.674
804.629
808.833
794.612
797.255
790.900
802.690
796.784
793.617
793.973
795.234
789.658
789.966
793.024
794.335
795.827
783.414
792.915
785.782
781.698
782.990
778.444
785.297
782.400
785.186
781.404
772.580
776.949
774.024
770.305
769.697
774.528
771.890
773.875
776.966
770.011
764.443
776.582
765.921
771.062
774.464
765.049
762.307
772.507
762.112
756.891
759.569
755.219
768.006
761.790
766.009
753.061
750.643
760.962
759.283
760.346
751.752
747.742
755.784
745.932
745.725
741.104
749.090
739.210
748.554
747.416
744.013
746.822
736.289
748.105
733.246
736.041
746.739
733.175
734.227
742.407
734.419
739.637
737.363
738.444
735.607
732.162
730.577
729.279
721.286
735.234
728.163
726.386
720.537
727.616
728.559
727.218
719.850
725.097
726.671
722.379
725.503
720.220
720.996
719.962
721.069
712.607
707.990
706.298
710.900
712.536
711.989
712.747
701.493
702.661
708.395
710.051
709.282
698.693
695.737
694.473
704.547
704.478
690.777
694.388
702.164
695.967
697.117
689.146
693.579
688.850
685.088
694.077
691.683
687.966
684.748
688.632
684.982
686.089
688.659
681.584
679.671
673.962
673.653
673.800
676.701
674.234
682.449
678.321
690.011
689.192
685.984
690.158
683.165
694.124
694.619
694.753
687.302
690.829
691.040
686.526
685.628
701.177
694.183
693.784
698.764
705.667
702.230
703.677
705.518
703.562
708.679
710.230
701.918
708.373
703.570
705.693
707.551
707.769
706.866
704.998
708.280
711.139
710.390
717.375
718.801
710.669
722.025
714.124
722.815
726.619
723.938
715.926
729.313
726.099
716.838
729.868
730.580
733.206
727.654
725.345
728.802
739.090
726.938
735.243
729.135
727.051
728.463
743.540
738.101
741.063
747.639
744.189
745.745
743.524
740.784
738.061
741.538
746.895
752.718
740.410
754.727
757.094
758.727
759.160
757.345
758.619
748.309
755.391
763.809
756.777
758.676
761.210
756.898
758.686
769.887
761.339
767.477
761.170
765.639
772.351
759.731
768.627
763.698
763.434
774.015
772.343
780.781
766.714
769.349
781.629
782.356
776.561
771.925
781.072
776.890
788.398
785.497
781.111
783.391
791.150
782.075
790.584
786.656
789.764
782.750
798.391
787.710
793.215
793.404
799.746
799.028
791.498
801.058
802.030
793.469
801.831
804.787
809.242
799.653
800.992
797.950
803.652
806.437
803.190
802.841
813.274
817.713
811.842
812.703
818.552
813.165
819.031
812.500
810.170
821.555
818.677
818.850
815.577
825.148
828.796
830.466
826.377
831.314
825.938
831.828
822.535
827.271
835.883
827.085
827.483
825.723
827.416
828.229
833.963
839.648
842.001
831.778
840.241
837.988
841.366
843.961
838.637
841.192
851.449
846.368
844.809
853.405
849.516
844.178
856.288
849.791
850.592
849.000
851.761
847.940
862.970
850.263
850.101
865.936
863.188
865.511
862.211
861.655
861.843
858.270
865.971
870.820
863.182
867.076
873.228
870.601
865.739
877.099
874.940
871.274
879.911
887.952
887.664
889.339
886.336
888.146
889.868
886.783
891.302
886.374
890.059
891.184
890.175
902.605
902.827
892.124
900.793
901.648
902.730
902.666
910.088
913.310
903.450
907.855
914.710
919.225
912.302
916.814
918.523
918.312
916.430
929.317
917.234
919.193
920.816
926.606
930.404
928.386
934.937
939.299
934.154
933.907
929.710
933.441
946.211
940.882
936.539
935.892
942.473
944.995
954.776
956.809
953.861
955.024
958.424
952.934
958.377
950.552
965.963
953.154
961.154
967.023
958.918
966.662
968.019
971.730
973.731
977.854
976.870
965.683
981.691
975.915
985.304
982.492
986.067
981.008
976.528
978.087
989.695
989.861
992.640
992.972
991.307
999.690
990.318
991.890
998.452
1000.960
998.398
997.081
997.144
1008.067
1002.108
1007.627
1002.663
1010.197
1011.652
1010.880
1006.952
1014.458
1015.150
1016.274
1014.877
1025.307
1015.796
1022.712
1030.219
1025.601
1020.937
1020.464
1036.722
1036.182
1031.238
1031.240
1041.943
1041.470
1041.098
1038.756
1043.748
1034.394
1036.346
1047.127
1038.392
1049.434
1054.591
1051.056
1047.235
1046.596
1049.429
1055.590
1053.367
1060.715
1056.392
1064.306
1058.442
1069.143
1069.810
1062.162
1061.152
1063.230
1071.203
1080.126
1072.661
1081.463
1079.720
1085.522
1085.607
1079.405
1080.317
1079.231
1079.290
1079.796
1094.371
1082.433
1095.602
1083.631
1092.638
1100.948
1097.234
1092.568
1099.320
1101.735
1096.217
1102.247
1096.054
1110.759
1109.589
1114.865
1116.267
1105.285
1114.774
1115.089
1113.254
1117.689
1109.901
1112.881
1123.318
1124.417
1124.519
1118.753
1121.977
1122.707
1127.225
1137.376
1130.820
1138.087
1126.368
1137.218
1140.823
1140.198
1135.434
1131.457
1141.704
1132.102
1135.023
1138.122
1124.433
1136.530
1121.304
1121.518
1123.737
1132.148
1121.165
1123.340
1124.883
1114.370
1117.379
1120.866
1114.126
1121.363
1107.634
1116.394
1118.379
1104.901
1114.762
1108.564
1110.031
1115.295
1103.364
1106.486
1106.560
1102.595
1103.247
1094.688
1094.412
1095.581
1097.777
1088.830
1089.692
1099.449
1093.616
1087.290
1092.018
1091.094
1089.011
1087.716
1092.816
1084.505
1087.600
1085.303
1083.430
1080.805
1080.092
1083.019
1081.697
1080.204
1083.976
1081.800
1076.677
1077.069
1078.448
1076.467
1073.570
1064.386
1066.139
1070.016
1064.857
1058.615
1066.747
1067.325
1068.398
1066.324
1052.566
1055.671
1062.022
1049.239
1051.200
1049.361
1048.530
1046.494
1043.888
1042.666
1047.840
1045.887
1047.117
1040.011
1046.934
1036.669
1039.366
1040.585
1036.830
1043.568
1042.102
1030.008
1028.621
1028.313
1038.596
1023.596
1030.955
1025.093
1030.165
1033.503
1029.269
1022.854
1023.299
1028.181
1016.587
1023.231
1012.395
1014.077
1018.929
1013.562
1017.069
1007.890
1016.954
1016.750
1007.542
1007.728
1001.275
1013.287
1009.008
1002.315
1004.229
999.995
1002.760
993.946
1003.165
994.576
998.416
1000.971
1003.118
998.650
993.275
992.469
998.476
988.209
992.118
982.110
980.951
987.467
985.866
979.596
980.845
974.607
979.306
985.315
972.655
972.477
973.112
975.598
972.455
973.906
974.349
963.049
965.388
970.557
971.308
960.238
963.493
963.119
958.753
961.755
955.246
961.523
966.014
960.282
955.340
956.598
958.477
957.478
955.440
953.373
944.226
942.915
954.358
945.101
951.571
948.909
937.073
944.352
944.339
933.617
940.250
930.262
941.476
937.770
940.630
932.535
931.351
932.931
930.769
921.631
928.675
926.866
920.617
932.285
931.869
921.094
923.920
83.836
65.567
76.969
64.662
75.390
70.135
82.663
61.177
82.860
82.990
62.661
78.510
65.748
57.551
73.846
60.533
59.678
59.212
77.258
68.071
74.895
56.554
61.694
61.126
62.366
84.049
70.009
60.222
83.804
69.162
71.862
75.954
59.213
56.741
64.128
81.081
71.294
63.777
60.467
58.030
75.190
82.648
66.024
80.170
67.073
81.156
56.196
257.853
254.913
205.044
246.323
197.939
217.986
219.396
185.578
198.631
265.152
267.375
198.286
220.108
194.792
181.145
207.498
182.139
246.745
259.579
195.196
222.784
192.830
186.420
222.277
223.350
209.922
219.015
270.224
196.863
230.551
251.671
224.623
253.920
202.093
209.403
252.072
254.952
224.923
244.238
227.068
215.481
198.755
249.552
201.626
244.584
223.837
205.086
216.071
191.809
222.003
177.392
220.664
243.312
143.250
100.836
118.001
105.917
101.236
119.266
111.255
98.493
106.805
123.107
138.520
130.728
109.459
135.006
106.947
105.401
106.341
100.453
129.725
98.923
118.747
111.342
143.365
123.148
134.547
117.093
130.933
115.065
97.156
125.401
117.060
129.691
108.788
103.259
116.302
106.625
119.896
141.528
122.843
141.716
143.138
125.020
103.964
134.866
111.814
98.625
100.170
148.159
141.747
116.616
136.135
102.783
142.582
117.819
119.986
135.983
145.415
119.099
135.198
140.189
103.965
117.447
101.749
97.835
122.279
113.733
143.939
113.583
127.289
133.996
136.021
125.880
116.529
142.662
142.309
97.492
110.132
143.846
109.664
131.581
121.109
129.090
129.014
140.077
101.266
114.091
126.367
133.992
98.079
128.688
132.163
129.791
141.284
140.688
131.814
99.335
120.435
103.707
131.662
127.862
97.000
102.015
126.485
99.294
116.244
127.701
99.144
133.503
129.671
102.494
95.496
120.121
143.036
141.339
109.395
128.505
95.534
94.822
142.717
141.450
121.039
110.299
106.809
112.031
103.534
141.392
120.738
136.938
105.554
107.460
112.292
117.430
105.155
136.902
96.381
136.192
130.657
105.213
99.312
138.503
119.162
117.842
98.449
99.288
126.965
126.970
104.469
106.754
121.212
113.193
99.635
123.797
136.291
96.574
116.769
138.205
122.667
123.250
117.808
145.658
102.134
121.150
102.134
140.372
124.800
127.116
139.399
108.518
96.288
113.396
114.932
105.744
114.949
126.030
102.929
122.840
118.962
123.989
146.303
112.205
124.853
109.534
125.699
122.128
112.640
122.623
129.520
116.402
108.855
115.927
129.434
98.359
106.403
124.972
133.386
137.647
100.212
106.045
129.192
144.101
132.675
116.144
121.051
126.079
132.859
123.853
120.685
129.037
139.344
121.985
126.045
140.143
103.689
132.686
138.280
135.725
112.660
139.541
117.123
98.394
138.818
109.116
105.224
120.129
144.420
113.202
109.162
101.577
121.404
122.790
125.068
129.378
121.436
122.937
116.730
138.080
129.324
128.209
144.843
110.532
126.197
120.341
102.006
144.248
132.375
111.148
98.278
109.975
104.698
105.112
137.706
135.632
115.256
115.720
99.316
103.189
138.237
124.665
113.494
133.507
141.069
131.885
139.035
124.801
142.365
99.165
131.582
95.748
110.227
145.056
137.225
138.792
95.587
102.560
102.760
108.678
135.129
141.056
99.526
115.653
130.535
127.466
128.965
132.073
126.186
129.434
125.319
129.790
142.913
106.938
140.561
146.443
101.644
106.761
94.962
108.450
114.062
97.497
129.972
100.208
132.715
141.213
142.771
139.142
132.731
110.917
116.053
137.324
129.125
96.082
132.235
134.553
120.274
102.436
123.466
106.475
102.452
126.864
112.206
110.413
125.175
139.027
103.688
119.409
118.007
139.771
98.800
123.412
128.281
104.647
124.882
134.197
108.095
125.588
133.196
142.129
101.892
109.478
141.185
132.296
120.004
146.762
106.784
121.388
95.410
135.419
131.512
131.377
106.243
100.624
115.173
141.820
121.583
126.293
95.394
109.117
112.453
129.980
96.227
135.442
113.237
103.721
113.141
96.871
99.687
97.221
109.437
132.286
95.056
116.855
118.043
133.443
97.707
137.023
109.296
113.794
118.201
143.806
107.668
113.399
111.049
140.984
123.734
110.277
114.719
122.565
123.370
105.381
113.220
106.678
137.614
99.863
114.951
97.382
112.633
98.387
117.153
113.596
108.333
114.876
143.568
146.553
109.950
139.354
144.993
141.985
124.827
141.803
99.160
97.528
113.443
109.519
122.257
134.202
97.301
136.748
146.040
104.703
100.935
134.583
108.592
120.686
135.039
120.564
97.175
143.095
106.421
126.831
146.090
120.926
109.041
127.931
141.886
119.329
102.316
135.596
117.223
99.392
118.789
145.707
134.777
122.986
99.074
128.095
126.759
125.926
138.865
131.436
100.452
126.917
99.976
126.766
132.395
139.064
111.368
129.314
107.501
128.648
98.530
133.132
113.020
122.467
115.563
136.302
104.636
102.900
113.694
95.745
139.626
136.248
113.505
118.848
138.191
100.268
126.994
144.566
141.609
129.376
109.916
127.825
112.644
124.707
125.824
139.196
145.660
142.215
133.646
98.286
94.806
102.064
139.960
141.095
141.196
112.433
118.967
112.931
144.882
139.908
135.929
124.524
123.192
131.226
127.672
114.121
129.010
102.167
112.713
141.353
107.373
104.102
114.213
95.025
141.086
94.899
97.494
141.631
96.365
138.027
139.246
101.835
102.602
144.082
132.552
122.335
118.680
112.222
137.876
107.930
115.975
102.779
115.765
106.370
122.156
107.130
133.373
111.469
104.063
127.651
128.619
128.940
124.574
110.461
126.315
118.410
118.579
118.090
134.204
137.642
146.587
138.756
112.148
120.652
97.230
141.680
101.480
129.707
131.340
115.053
120.031
117.198
114.649
124.692
124.239
118.244
110.069
130.904
144.599
104.420
97.716
128.252
137.303
119.854
143.887
125.984
121.537
114.817
106.454
117.126
138.562
132.813
133.096
100.677
135.778
112.928
96.648
120.763
116.621
142.215
101.185
122.257
108.928
106.207
105.816
130.352
123.494
108.185
120.389
123.430
101.356
108.518
122.922
126.394
127.772
143.320
99.919
137.540
96.769
99.715
130.474
139.097
110.335
95.460
139.293
120.239
131.316
96.789
110.591
127.411
117.695
137.102
99.198
110.889
106.661
130.958
116.636
131.735
114.138
140.421
132.678
95.080
143.162
132.711
109.161
130.506
141.004
103.530
136.872
100.272
142.125
120.662
136.073
118.950
144.380
112.478
99.891
95.400
125.286
135.394
140.369
108.595
105.260
142.343
146.593
140.420
105.172
104.802
106.190
116.224
137.263
109.494
106.658
117.436
125.626
95.620
142.067
110.812
130.933
124.547
113.590
97.008
135.004
116.370
114.551
95.189
128.642
129.034
100.884
97.791
122.833
131.904
120.309
105.605
123.901
109.546
104.303
134.888
112.713
107.304
140.781
108.514
132.371
105.046
102.652
141.635
135.892
144.379
105.784
105.981
129.931
133.922
137.395
132.426
137.698
111.681
95.502
141.925
119.914
144.604
134.315
103.897
98.038
126.078
115.689
141.794
108.573
104.498
132.401
145.781
98.054
142.389
144.598
96.714
99.520
129.530
142.301
141.203
129.005
146.415
140.863
126.385
101.985
109.956
141.812
112.873
138.550
116.808
133.604
110.383
137.629
123.154
126.757
138.220
139.023
122.651
113.232
144.155
140.636
135.555
113.255
124.565
114.691
129.777
129.231
122.752
126.640
139.653
146.682
144.941
119.472
106.027
103.996
124.898
119.888
97.835
124.285
112.972
138.418
104.894
130.462
