882.981
877.285
882.384
874.759
889.068
889.170
889.181
884.607
891.912
878.677
884.285
885.079
885.164
886.704
894.329
897.054
895.084
892.048
896.031
893.127
894.245
887.346
898.062
902.652
894.822
897.245
893.382
903.536
895.470
896.607
902.974
893.329
895.325
896.295
906.157
910.447
895.743
907.625
910.675
908.174
904.388
910.868
907.927
910.768
901.267
915.541
916.781
914.427
916.612
910.203
915.350
907.447
907.393
917.621
920.578
919.705
917.264
913.950
924.311
920.215
923.355
919.257
913.040
919.408
922.810
929.199
917.896
925.003
921.545
920.481
917.408
927.635
927.209
924.115
924.537
933.799
925.222
928.539
931.419
926.479
934.758
930.335
925.021
932.129
926.534
931.533
941.719
935.363
929.535
935.315
943.103
932.589
942.503
940.018
941.515
947.932
947.930
944.164
945.541
936.699
938.052
951.655
939.681
949.747
949.524
950.410
941.500
940.483
942.297
957.250
951.294
941.609
954.832
942.073
939.648
945.687
953.280
950.357
946.343
942.167
947.587
941.084
938.447
942.941
948.099
940.610
946.000
944.895
937.120
935.293
940.555
930.654
928.370
940.197
928.424
928.728
936.965
926.362
935.706
935.615
924.056
928.649
924.355
932.854
930.653
919.999
920.089
920.374
925.947
918.336
924.190
919.419
915.508
924.099
926.896
924.238
915.076
912.370
912.524
919.357
914.121
917.081
915.588
908.649
913.363
910.229
919.149
906.612
913.343
903.765
910.519
910.696
906.945
903.535
909.183
907.344
912.326
906.217
907.441
907.831
900.291
896.442
902.103
897.454
904.724
905.116
904.602
904.597
896.343
888.306
894.756
893.405
897.246
887.491
887.727
886.428
893.978
884.370
882.774
893.081
889.688
884.981
893.469
878.978
885.262
887.809
878.468
887.738
885.841
877.253
881.637
883.326
884.927
882.025
874.049
870.759
871.125
876.196
867.425
877.482
881.267
880.246
868.392
878.424
863.436
866.609
871.605
867.198
870.181
861.938
859.246
869.206
871.411
867.160
863.366
858.737
863.884
860.417
857.897
867.516
855.525
859.405
861.366
865.637
850.790
862.896
854.600
860.633
861.910
853.481
857.503
852.926
847.868
851.080
849.836
842.419
850.199
851.364
850.982
854.014
844.049
850.442
840.366
847.406
840.188
839.203
840.535
844.485
838.925
835.352
837.294
832.728
834.766
834.850
842.618
838.463
829.505
839.500
837.981
839.808
831.860
831.364
836.539
830.479
825.800
834.064
832.377
821.681
831.320
822.731
824.051
831.620
828.139
819.636
824.752
820.749
815.919
818.846
821.505
819.715
817.401
813.764
809.987
812.299
816.018
818.528
807.021
810.240
813.371
807.997
808.619
804.898
810.359
817.693
821.223
820.860
819.337
826.326
828.598
826.007
821.605
826.635
825.819
825.165
828.326
832.712
842.970
832.314
831.527
835.750
850.281
837.114
845.284
842.707
845.386
847.252
849.599
858.676
860.484
860.336
859.209
867.225
862.937
868.032
858.292
867.764
869.007
867.273
864.492
875.319
879.952
881.789
871.083
883.970
874.225
879.295
890.286
876.781
889.027
894.819
890.029
890.869
887.596
886.352
890.471
898.094
894.464
905.921
908.263
908.441
900.495
901.543
902.738
916.858
912.862
911.925
908.269
907.653
921.496
925.851
913.585
918.905
930.783
919.740
927.286
934.893
925.139
930.779
932.664
932.744
932.828
937.233
944.052
934.894
946.787
946.218
938.209
946.706
955.404
944.826
952.993
947.253
948.363
959.540
957.117
957.532
958.651
967.778
960.357
969.108
964.554
968.600
967.653
976.212
978.736
973.449
974.001
974.237
975.297
975.781
981.458
976.299
983.199
991.222
992.199
983.758
993.113
998.737
995.309
993.650
999.647
999.167
993.153
998.914
1002.014
1013.440
1005.280
1011.391
1009.730
1006.696
1012.220
1017.661
1023.291
1025.682
1018.705
1021.119
1021.060
1021.822
1024.086
1031.803
1034.016
1025.125
1026.385
1029.298
1040.314
1041.453
1034.033
1032.090
1036.673
1049.123
1042.693
1045.954
1052.043
1048.413
1053.991
1049.901
1048.482
1055.125
1064.013
1058.310
1061.851
1067.622
1063.237
1067.943
1069.486
1070.845
1062.189
1069.862
1072.253
1073.090
1071.821
1070.066
1076.379
1081.159
1079.259
1080.494
1092.822
1079.873
1085.337
1081.740
1087.210
1095.403
1087.451
1094.338
1103.038
1098.637
1103.145
1107.311
1111.222
1100.948
1106.264
1115.173
1111.370
1119.192
1107.370
1110.109
1109.452
1109.909
1126.467
1113.807
1122.691
1116.460
1128.006
1123.842
1120.499
1113.237
1118.424
1122.350
1119.357
1110.452
1114.722
1113.028
1108.783
1112.127
1106.540
1111.086
1106.710
1113.696
1114.555
1118.245
1107.801
1109.949
1116.970
1113.492
1112.907
1114.334
1106.507
1107.848
1105.401
1112.618
1100.915
1104.782
1095.816
1104.301
1105.535
1106.150
1096.442
1101.354
1093.900
1100.749
1099.003
1092.178
1103.983
1092.473
1098.965
1102.401
1091.077
1090.088
1094.561
1092.887
1097.485
1093.349
1091.607
1089.168
1092.690
1082.079
1095.762
1085.815
1087.295
1084.352
1089.746
1083.018
1089.585
1078.152
1078.373
1089.155
1077.999
1080.813
1077.503
1087.384
1078.528
1086.175
1076.122
1083.403
1075.002
1082.890
1083.368
1069.975
1078.747
1068.886
1080.480
1074.392
1068.666
1078.510
1066.964
1070.254
1067.648
1069.751
1061.753
1067.030
1072.948
1067.964
1062.481
1074.391
1066.396
1059.436
1059.185
1060.002
1061.052
1057.688
1066.941
1054.370
1066.202
1068.522
1057.722
1066.273
1057.231
1054.243
1057.629
1065.116
1050.210
1052.463
1050.594
1048.775
1052.096
1056.391
1060.418
1057.399
1044.489
1056.870
1050.777
1052.174
1042.630
1052.438
1054.745
1047.148
1042.446
1041.165
1040.908
1042.683
1038.042
1045.666
1051.173
1034.907
1041.679
1046.651
1041.188
1045.443
1039.173
1038.653
1043.184
1033.218
1041.867
1040.492
1031.849
1034.094
1040.385
1030.701
1040.135
1039.944
1037.156
1032.945
1038.065
1025.170
1024.769
1026.382
1027.022
1022.276
1024.514
1023.229
1033.401
1027.803
1028.127
1026.457
1023.760
1028.516
1026.534
1024.741
1015.755
1020.310
1017.542
1015.760
1018.771
1018.913
1014.770
1019.419
1020.815
1019.748
1017.076
1018.739
1015.475
1019.458
1015.187
1012.873
1015.330
1013.272
1017.868
1008.095
1007.410
1012.128
1002.850
1015.020
1002.471
1003.968
1001.751
1013.736
1009.967
999.537
1009.955
997.095
1003.672
997.208
993.690
997.328
999.522
990.303
993.985
1000.854
998.482
993.158
991.304
993.120
993.216
989.653
991.662
980.467
978.632
981.698
987.040
980.959
987.756
979.873
977.571
979.078
977.332
967.223
973.749
972.424
964.237
967.076
971.343
963.494
959.757
961.371
969.632
970.289
955.037
964.636
954.078
959.363
960.276
960.687
960.062
957.736
956.936
959.853
954.904
949.984
946.154
941.480
951.237
946.072
943.124
941.032
939.619
935.378
937.319
933.438
941.583
933.984
930.064
933.020
926.997
938.528
935.237
926.514
926.939
920.359
934.157
919.146
917.692
921.274
919.640
915.492
924.646
914.576
912.602
923.592
922.390
917.639
918.391
911.048
915.006
917.264
908.607
912.721
910.745
909.296
904.994
908.511
906.129
898.278
904.862
894.865
901.081
897.645
887.452
889.393
891.463
891.951
891.083
895.615
885.451
892.082
891.772
892.722
885.914
877.041
877.805
887.677
883.907
880.065
884.842
872.299
879.750
881.181
876.039
864.209
863.367
872.296
861.839
874.221
870.949
859.096
859.603
862.948
855.767
864.358
860.364
858.614
856.976
855.461
852.623
848.006
849.126
856.404
843.528
855.420
853.075
847.874
852.139
842.725
844.105
848.534
833.403
840.676
836.417
845.000
838.159
833.302
832.446
833.754
829.519
830.165
823.690
835.563
827.236
822.538
824.597
829.637
828.233
814.967
820.143
816.631
817.960
812.635
810.439
809.011
819.986
816.607
814.491
818.570
805.223
814.158
814.567
813.621
805.073
804.160
796.392
805.661
794.127
799.882
790.614
793.496
790.253
787.404
787.155
787.533
786.965
795.479
782.551
784.628
790.909
787.391
782.448
779.502
784.816
778.150
777.990
785.038
782.127
778.852
767.537
766.307
772.797
762.881
769.917
757.481
757.427
759.143
752.551
747.003
744.858
744.823
741.216
747.282
742.592
746.154
745.027
732.173
728.470
726.076
735.437
725.392
721.107
727.422
718.728
725.373
712.212
711.384
709.706
709.375
701.193
703.633
707.676
707.871
697.028
703.370
701.346
690.335
682.740
683.730
679.606
676.444
685.455
684.559
676.441
679.441
664.914
666.245
660.767
669.255
660.570
662.489
654.271
662.005
659.860
654.879
649.006
642.177
650.601
651.882
639.194
640.036
634.045
627.279
626.940
628.819
630.502
618.497
617.386
623.504
618.366
620.991
613.342
620.694
607.035
602.461
611.172
601.954
604.424
599.300
590.265
594.627
595.548
595.274
595.609
578.864
590.032
587.249
587.793
570.871
578.341
576.052
567.769
569.733
563.552
565.336
559.400
561.462
551.546
553.033
552.946
546.083
554.371
552.953
549.681
537.802
543.722
531.692
540.230
532.006
536.877
528.648
523.168
527.230
523.273
520.317
518.891
522.062
512.940
513.695
513.087
500.856
502.681
502.244
506.301
502.926
492.474
490.535
492.182
492.448
484.712
480.953
485.508
486.076
475.494
482.747
479.975
480.298
464.731
464.783
458.221
469.729
465.584
463.088
453.507
452.538
447.414
450.821
455.226
449.854
442.689
445.261
442.410
437.997
427.274
440.286
430.923
436.284
419.182
418.246
424.963
420.972
412.793
412.475
420.516
414.766
404.095
402.644
410.584
406.085
406.262
392.226
402.538
397.138
383.942
383.209
380.159
381.241
388.868
376.562
377.774
368.680
378.769
378.133
370.797
365.540
357.732
366.767
359.727
351.967
357.849
355.593
345.142
347.923
353.992
349.793
336.538
348.246
335.789
336.705
327.624
338.127
332.792
332.128
325.096
324.493
321.709
324.716
320.752
322.035
322.886
320.679
323.120
320.934
319.948
321.612
309.567
315.668
309.156
306.654
303.104
306.140
309.422
300.636
309.920
304.612
295.568
307.923
290.726
300.472
301.355
288.357
296.510
285.930
291.630
285.763
282.825
280.160
289.838
290.122
284.338
280.071
272.482
279.533
272.315
276.547
276.903
270.017
272.665
271.952
262.171
270.390
261.655
259.597
265.751
268.601
268.609
253.163
256.906
255.645
255.258
256.588
251.569
245.964
257.240
253.539
246.034
242.352
243.054
237.225
235.413
234.028
244.802
243.024
245.796
241.896
236.467
232.485
239.109
228.467
224.970
221.793
219.720
225.072
224.653
230.755
214.487
213.973
223.736
210.780
210.625
221.539
215.763
218.798
204.436
210.337
210.510
200.653
198.894
199.929
204.196
196.029
208.870
206.251
194.210
191.951
188.398
201.411
193.387
184.232
190.767
190.410
185.156
193.320
181.444
178.818
177.103
183.980
183.021
177.641
177.361
173.022
173.452
171.616
168.553
174.191
169.984
174.613
174.275
168.003
171.172
166.916
161.166
155.484
158.829
161.007
149.747
161.287
151.290
152.702
154.795
143.497
141.199
141.980
148.256
151.432
144.897
148.510
141.167
142.343
139.874
133.351
138.175
135.814
126.694
127.816
136.869
126.165
124.007
127.943
116.949
126.437
129.089
116.327
122.301
123.367
117.823
114.959
118.280
108.917
105.702
108.893
111.292
101.843
109.803
103.552
110.994
101.189
97.508
96.695
105.046
100.218
96.176
92.788
94.176
89.483
87.927
96.335
83.578
80.885
84.790
87.038
89.304
81.333
83.662
82.413
72.720
75.082
177.307
198.635
186.012
168.081
169.026
202.466
155.656
174.315
160.662
201.213
224.769
183.167
232.663
154.304
215.727
186.426
183.609
152.392
207.607
176.427
180.872
205.072
171.220
197.703
211.139
201.496
176.554
200.755
150.969
165.083
225.160
215.752
210.724
220.136
167.001
203.687
207.666
158.641
212.417
223.792
222.839
221.668
181.126
187.774
169.103
210.261
189.109
224.668
217.573
229.535
230.725
170.537
201.534
195.116
199.097
184.317
184.372
156.583
229.985
154.431
173.907
226.936
174.139
189.464
213.886
170.721
226.606
222.329
154.242
165.796
229.128
196.125
156.217
158.773
173.994
213.207
205.357
166.798
198.904
170.708
190.925
191.312
180.635
224.255
232.564
179.578
191.727
213.567
215.110
207.052
211.787
169.988
157.974
203.728
209.035
153.031
231.907
231.770
216.838
220.263
90.276
96.537
115.005
106.925
106.291
122.351
91.471
108.499
86.375
115.314
84.647
116.041
110.649
103.855
105.801
106.922
85.237
91.488
97.524
113.480
125.003
119.024
91.656
93.407
106.802
90.974
96.301
103.383
101.330
122.681
84.712
91.983
85.461
94.710
126.971
116.474
96.276
85.993
121.818
94.582
119.237
86.014
114.973
87.998
121.895
94.542
113.680
111.044
122.803
117.752
92.431
101.260
128.761
92.458
109.147
118.229
113.665
124.783
99.331
96.115
90.517
105.228
86.739
107.171
121.422
127.126
97.394
124.485
86.007
113.829
113.566
119.838
88.750
121.601
89.546
111.761
105.671
86.081
90.163
119.873
93.833
124.058
106.289
86.581
84.060
85.820
119.018
128.492
98.361
105.134
127.153
105.964
126.570
123.067
93.143
116.795
112.860
129.265
93.246
114.920
127.601
94.871
89.642
129.024
120.117
93.122
95.139
108.337
87.620
102.008
119.505
95.936
100.415
103.047
112.828
108.132
118.616
128.216
128.354
85.617
117.332
109.145
89.720
90.445
104.653
91.296
113.873
101.124
118.882
109.535
127.705
96.321
119.911
88.045
116.416
97.787
104.890
126.547
90.635
107.469
98.427
122.231
101.826
100.365
122.629
110.976
128.585
90.537
110.240
102.851
100.492
98.166
88.720
110.104
102.714
93.970
103.563
89.718
128.709
88.180
89.505
91.842
85.204
110.341
106.986
114.311
115.283
98.716
88.197
107.587
93.443
105.745
126.763
91.367
94.430
124.121
84.188
99.419
99.446
95.025
102.294
89.392
87.436
89.454
94.871
117.187
115.813
116.462
127.523
119.402
89.557
119.653
84.619
92.503
107.333
96.848
88.906
92.839
110.666
127.057
102.763
96.907
90.259
103.317
113.411
98.393
95.134
92.741
112.937
101.360
129.712
92.466
98.337
116.711
84.505
119.631
101.119
88.523
101.120
84.522
88.669
88.218
91.586
109.389
111.875
118.694
85.921
101.027
126.654
99.028
94.427
97.633
95.550
107.743
97.287
85.411
110.345
97.747
108.147
85.483
107.982
85.168
99.968
111.057
113.237
109.665
90.607
106.005
113.466
87.644
85.073
116.285
127.072
106.049
122.133
92.570
112.225
97.903
113.332
90.344
128.449
84.937
93.974
110.932
124.354
114.127
110.170
128.657
85.894
105.010
111.632
114.483
95.948
129.114
86.270
109.979
87.591
121.785
122.950
114.953
129.619
94.942
93.206
126.622
121.806
105.773
126.804
116.865
106.745
103.361
98.179
115.169
92.580
90.951
120.322
92.769
125.178
84.990
118.670
113.314
85.452
97.995
96.300
90.449
116.251
107.648
118.684
111.255
127.896
124.653
111.544
116.732
97.298
125.202
114.032
127.299
123.290
86.972
116.652
122.058
102.100
99.715
128.491
87.748
98.496
99.171
119.592
92.959
87.756
91.352
121.318
98.552
86.423
121.660
101.411
90.674
102.817
99.813
96.368
118.787
113.685
94.953
123.950
106.198
111.484
99.890
112.400
127.658
102.469
111.654
121.651
127.321
114.962
102.302
116.635
126.168
89.141
127.380
102.203
92.682
98.070
89.240
128.475
93.815
109.589
90.660
86.174
103.228
93.392
94.426
98.066
110.223
127.010
85.549
116.142
120.200
87.423
95.623
88.644
127.677
91.204
101.211
125.578
114.016
92.923
111.844
129.524
91.787
101.301
89.065
102.249
90.655
124.529
89.670
91.073
117.087
110.081
128.195
127.866
88.082
127.111
97.259
86.386
102.760
85.818
102.952
84.034
97.943
94.321
84.296
93.271
111.825
111.043
88.180
120.181
101.610
83.932
102.370
126.830
123.997
116.575
105.089
109.625
129.132
104.351
89.142
107.650
105.603
84.797
125.868
123.004
116.646
92.061
87.487
97.298
88.556
98.027
91.466
109.644
123.848
86.806
116.078
88.278
124.670
114.075
106.678
118.536
93.428
111.861
119.705
94.894
86.307
110.407
97.136
116.502
105.159
97.571
91.072
97.259
115.497
112.643
117.009
101.940
117.268
106.597
84.637
86.262
106.422
123.189
108.258
117.163
105.665
108.155
129.642
90.290
94.311
106.727
109.156
86.326
98.617
88.244
101.099
102.815
86.141
94.817
91.849
117.518
127.975
125.288
128.682
94.608
126.513
122.547
108.141
114.557
129.727
126.776
92.727
90.315
84.636
101.287
124.453
94.902
117.007
110.603
89.472
106.224
108.952
84.975
127.749
87.022
97.811
110.113
120.523
120.530
113.549
95.920
96.296
125.795
92.468
111.893
96.792
114.241
113.720
104.571
104.171
90.187
86.252
97.447
115.381
122.779
118.972
104.170
91.851
91.206
95.785
97.916
95.427
128.598
129.669
95.181
124.033
115.666
94.898
106.654
91.751
123.893
120.906
83.954
91.436
119.861
121.037
88.161
100.606
112.157
86.411
113.646
98.532
124.099
115.140
110.079
89.970
90.865
86.696
129.126
126.391
125.798
125.443
98.649
85.225
85.635
120.901
87.877
91.789
103.602
92.195
102.035
105.647
105.300
126.626
119.040
92.148
115.163
87.871
97.534
125.424
119.666
121.985
99.529
83.948
