498.675
498.979
510.975
500.207
505.935
514.656
516.983
518.297
513.852
515.800
520.034
518.411
531.688
525.135
532.228
529.117
526.432
535.318
530.500
545.145
546.225
547.035
551.238
552.593
552.011
546.673
555.360
547.989
554.030
562.524
567.097
563.196
567.709
573.725
569.639
564.495
568.804
568.210
582.675
582.700
572.853
584.053
588.654
587.547
594.397
586.054
598.223
590.206
596.588
600.567
587.229
601.862
601.108
590.897
597.104
596.179
596.399
593.646
598.426
610.076
602.712
606.360
613.264
602.852
613.789
614.675
611.353
605.924
618.835
607.312
621.867
612.474
617.924
624.044
614.248
617.503
617.351
621.219
614.371
624.207
626.279
622.659
625.182
624.452
635.787
627.877
631.544
632.234
637.778
629.388
629.664
640.647
634.052
642.917
641.285
631.350
642.557
637.134
634.053
645.425
638.274
651.481
642.137
653.516
651.306
644.181
655.256
656.188
655.373
653.374
656.988
650.657
657.537
659.819
649.682
653.427
658.557
656.401
659.645
666.566
661.407
657.020
661.870
668.092
671.447
670.034
676.421
675.997
665.075
676.400
665.581
670.108
671.685
674.017
678.624
684.635
679.625
677.554
673.974
675.337
679.972
689.292
679.122
690.203
679.217
688.614
692.938
684.977
695.916
695.366
695.534
698.032
696.048
702.887
702.674
697.475
691.170
707.601
702.366
703.086
703.495
709.493
712.415
711.292
712.737
715.081
704.565
709.378
707.065
715.001
720.080
708.212
718.436
722.888
709.907
724.263
721.525
716.191
722.361
726.882
721.630
721.574
732.113
724.966
720.511
725.850
722.827
727.054
732.301
723.742
726.795
732.077
733.523
731.140
737.869
730.067
745.487
747.403
738.364
746.144
735.725
743.713
737.921
739.742
744.150
740.263
747.196
750.547
748.306
745.831
760.299
752.596
762.026
759.414
749.470
757.723
763.529
760.405
756.473
763.197
769.849
757.642
772.188
758.804
761.250
772.765
772.232
771.644
768.083
772.381
768.460
773.617
768.148
778.067
771.499
769.538
770.567
786.237
784.329
781.739
789.827
789.187
790.495
777.829
789.935
783.771
789.972
785.495
779.007
792.107
785.909
789.566
787.551
789.089
785.474
785.262
787.032
789.849
780.594
784.661
782.605
775.783
788.699
778.933
779.547
790.302
779.083
781.128
776.869
786.369
783.994
781.692
781.536
773.541
780.098
785.338
777.995
782.694
780.320
779.315
778.188
781.484
776.341
785.144
773.978
781.207
783.435
779.804
786.524
774.601
785.281
773.544
783.118
776.058
781.428
775.343
773.791
784.773
769.908
783.788
776.275
772.833
777.731
770.107
773.129
773.307
770.942
778.428
775.105
777.145
780.783
773.837
769.553
779.856
768.399
775.063
766.385
778.975
779.650
772.601
776.265
776.893
770.327
772.738
773.462
775.165
773.325
765.942
778.828
764.519
776.113
767.227
775.488
773.217
776.475
775.882
763.691
769.613
767.171
766.106
768.528
767.734
770.595
770.393
776.531
776.690
763.022
770.511
774.708
771.577
769.227
768.140
766.909
765.409
759.745
764.794
764.890
762.452
765.370
763.412
766.929
774.227
767.864
759.932
768.363
767.581
758.831
767.608
770.050
762.609
770.483
762.566
767.344
765.781
763.045
759.741
768.996
764.155
757.111
761.801
760.969
761.106
762.700
765.979
769.865
766.699
759.533
767.247
765.725
755.467
755.637
763.439
765.532
764.328
766.610
759.258
765.571
767.943
763.727
756.833
752.583
751.875
763.728
754.608
755.437
754.230
757.000
763.154
759.717
759.117
764.046
758.435
761.635
759.128
761.834
763.304
752.308
763.929
754.436
759.474
754.905
758.338
761.773
750.845
761.024
750.261
748.655
760.175
762.927
752.529
759.634
756.394
754.016
756.023
753.628
758.766
749.986
758.633
755.870
754.863
755.460
754.615
747.293
757.703
745.200
761.449
750.586
755.659
764.522
756.314
762.472
762.697
767.340
767.048
776.129
768.768
771.534
776.571
770.938
780.719
786.447
785.534
781.395
789.471
792.737
797.958
798.086
800.428
793.986
800.559
807.006
805.889
796.252
806.498
814.633
804.130
817.334
808.678
806.484
818.114
820.594
821.667
828.131
826.940
827.162
825.414
828.478
823.784
824.531
838.716
838.513
840.886
837.621
841.844
847.426
844.004
842.989
852.884
848.923
844.321
855.269
850.573
863.493
854.707
859.897
866.747
865.141
868.241
864.922
876.412
868.116
874.078
873.380
880.673
881.361
876.470
880.953
885.010
883.193
888.177
893.376
891.616
888.816
887.287
891.868
901.932
903.569
908.975
903.290
901.687
902.119
915.048
909.635
908.788
914.832
915.579
923.706
921.884
917.354
927.691
928.766
929.021
921.643
927.983
937.432
927.598
934.218
934.226
945.234
935.894
941.714
947.748
940.341
946.846
945.149
952.171
956.788
956.607
960.352
961.342
967.469
965.483
961.828
968.695
975.140
970.578
967.021
974.463
973.061
976.058
983.454
976.151
984.576
992.680
988.702
996.223
983.534
985.934
994.990
996.512
1004.951
999.025
1007.310
995.761
998.206
1010.860
1004.043
1004.007
1011.951
1005.493
1013.884
1018.833
1014.762
1025.685
1029.630
1026.542
1022.045
1028.438
1024.101
1038.478
1029.133
1042.085
1034.712
1044.747
1039.878
1037.987
1051.582
1043.810
1044.877
1051.734
1043.268
1056.130
1051.306
1059.582
1054.853
1066.150
1055.098
1070.104
1065.077
1066.812
1074.524
1076.239
1073.353
1079.638
1076.580
1074.579
1086.038
1086.943
1083.546
1082.759
1084.504
1094.815
1088.227
1093.506
1096.502
1092.204
1103.523
1104.724
1109.150
1101.353
1103.014
1114.521
1115.116
1108.239
1116.159
1104.116
1102.125
1109.249
1106.761
1108.133
1108.250
1097.860
1100.773
1103.462
1092.830
1087.757
1096.436
1089.916
1084.675
1082.505
1079.092
1074.602
1077.889
1072.449
1077.967
1081.391
1075.685
1065.103
1066.247
1068.561
1064.873
1064.246
1054.461
1054.776
1050.390
1049.086
1045.917
1043.353
1050.714
1053.747
1040.778
1040.703
1046.730
1033.237
1036.202
1041.847
1032.823
1039.911
1023.317
1022.556
1023.222
1032.039
1025.030
1025.618
1016.082
1018.112
1007.906
1006.338
1015.700
1015.963
1015.654
1013.329
1001.674
1001.117
1005.066
993.001
993.526
997.630
996.825
985.352
994.357
990.488
989.798
976.537
982.655
981.769
981.709
976.688
968.112
972.691
974.615
962.494
966.675
960.188
959.031
956.544
958.132
962.252
959.251
947.076
944.891
943.980
948.715
954.126
948.777
945.951
945.433
933.674
930.359
940.918
939.584
927.175
937.168
924.034
931.729
932.531
920.849
916.814
918.806
917.677
915.211
915.753
905.070
916.843
906.750
906.715
912.299
909.407
905.299
895.847
897.682
889.838
889.523
883.559
890.616
888.353
877.951
877.732
882.604
877.278
882.685
884.333
882.470
876.273
872.919
868.582
869.731
857.526
868.904
867.090
854.930
861.507
853.596
847.483
852.528
847.643
852.981
844.351
848.805
850.091
841.426
833.036
840.745
836.461
841.653
825.288
835.314
831.201
824.499
830.204
815.037
814.567
814.386
821.235
821.679
806.253
816.981
813.796
801.460
809.512
797.488
799.235
795.691
801.012
804.004
787.906
796.016
785.186
797.071
790.338
787.814
791.100
778.436
784.169
783.013
783.092
772.090
766.359
769.324
763.142
760.640
757.850
765.108
764.621
761.546
750.716
753.146
749.435
747.760
755.185
754.801
747.119
745.239
742.861
748.595
742.003
738.163
737.258
738.716
753.126
754.059
753.280
743.554
745.676
745.204
747.261
744.700
752.435
750.703
750.012
762.106
752.109
758.941
753.886
756.611
761.867
767.600
763.420
761.784
771.039
758.030
767.290
767.552
773.692
771.011
766.674
766.190
765.334
780.521
774.861
774.387
782.201
777.614
773.740
772.288
779.774
786.860
779.367
785.792
779.896
782.904
789.849
791.371
787.337
791.545
788.370
783.980
794.317
787.311
795.586
786.725
790.635
791.177
800.093
789.224
798.569
794.371
794.781
806.003
805.767
804.770
810.436
802.659
799.282
799.991
809.414
813.155
806.965
817.424
806.428
814.404
809.221
820.886
816.845
813.337
819.023
819.893
815.510
826.267
816.550
817.697
822.604
821.964
817.310
831.079
833.038
828.288
821.256
830.492
830.080
831.813
834.543
831.674
829.558
828.087
840.090
837.213
838.261
840.652
841.282
840.799
842.638
843.351
848.033
836.638
846.675
837.032
850.434
840.041
853.174
854.002
849.555
857.833
848.822
848.467
856.430
856.565
853.896
862.263
856.545
858.724
858.954
856.232
858.163
857.265
867.795
862.446
870.531
866.465
859.088
860.226
869.377
866.830
866.349
864.372
879.187
870.609
872.440
869.864
873.003
872.216
872.219
885.957
875.553
876.822
877.818
888.820
879.377
876.596
878.046
892.767
880.012
887.191
884.721
890.137
890.403
891.174
890.807
888.661
895.428
898.725
903.882
894.569
900.312
901.686
902.016
897.706
896.475
901.555
896.870
910.323
910.756
912.655
901.520
909.342
904.639
909.882
914.215
908.639
912.772
911.046
913.365
918.666
908.530
924.165
913.380
918.098
924.925
923.799
920.129
925.758
931.889
928.403
920.341
923.273
922.865
919.760
924.343
921.687
926.498
918.764
930.473
933.850
931.140
931.975
919.176
920.147
921.562
929.370
926.433
921.963
931.688
921.826
920.528
928.375
925.455
927.938
927.535
923.847
918.154
933.417
931.440
927.619
926.936
931.829
932.280
920.548
919.635
921.125
924.289
930.895
924.836
926.790
932.618
919.590
928.321
924.698
922.023
925.855
929.916
917.894
921.773
924.976
921.201
916.911
919.693
925.803
925.665
926.346
919.947
923.804
925.547
928.478
927.015
928.104
918.396
930.877
924.875
916.772
925.751
917.574
917.182
919.474
923.210
930.794
926.926
927.188
927.347
931.654
917.359
922.927
928.254
923.839
930.040
928.537
921.319
920.258
919.100
916.155
920.708
925.652
919.038
928.406
923.643
919.014
923.730
926.047
918.601
929.453
924.554
918.255
921.083
916.562
921.683
927.066
921.230
928.275
918.443
920.883
929.895
917.123
926.250
925.796
929.613
920.945
920.176
914.853
919.318
923.993
919.614
926.070
924.775
919.749
914.777
921.457
921.393
915.879
929.748
924.185
926.741
928.045
926.554
919.001
919.966
921.795
920.110
913.866
921.269
924.389
919.385
926.553
924.636
923.297
918.339
918.294
920.017
928.307
927.182
927.596
923.802
924.614
917.650
916.864
924.159
914.466
920.113
915.369
925.227
925.121
914.828
927.785
928.193
914.391
918.098
916.086
922.502
927.703
916.299
912.566
922.863
926.027
920.885
915.919
918.044
917.896
914.812
916.785
922.573
913.235
921.367
916.387
926.826
918.333
914.054
912.707
923.670
925.470
924.872
914.843
922.776
916.170
917.451
926.893
923.199
918.604
925.591
924.838
920.725
919.061
914.679
918.926
919.796
926.013
912.202
921.996
912.663
916.577
910.659
920.226
914.775
917.939
904.013
915.261
903.637
905.878
908.935
906.293
906.143
891.616
903.667
895.722
901.266
886.361
891.518
896.399
894.343
893.783
892.583
878.602
878.001
884.775
881.632
881.768
871.582
870.879
872.049
877.930
866.539
873.844
863.929
865.763
862.834
864.261
870.090
863.201
859.188
857.554
856.272
859.293
856.528
848.157
852.521
855.044
853.078
843.596
849.943
846.045
845.612
841.448
832.436
845.663
842.469
832.529
829.351
833.264
832.326
834.313
827.766
821.550
830.259
816.492
814.868
823.110
823.838
816.130
815.118
821.413
820.335
805.099
806.632
810.377
808.471
814.387
803.849
809.282
797.249
795.763
805.395
795.048
801.299
790.333
797.154
797.566
783.073
782.803
780.546
789.401
777.434
784.686
776.582
788.514
775.519
778.518
776.833
775.410
772.793
777.946
768.835
762.556
770.671
763.639
768.823
766.325
759.400
764.797
758.035
760.647
762.121
753.111
750.921
751.293
749.598
752.449
749.194
742.702
741.072
746.045
741.587
736.392
734.659
729.822
742.531
736.239
734.137
724.169
730.442
730.673
726.605
730.044
723.499
717.699
714.772
721.308
722.166
714.587
709.920
707.199
712.576
714.799
709.875
715.578
705.096
711.362
699.626
698.353
705.664
693.517
704.785
703.375
702.564
689.933
694.243
698.518
694.936
684.575
691.877
687.042
677.904
681.134
681.444
678.479
684.534
677.395
670.541
680.457
665.451
679.446
664.687
675.084
665.818
659.434
670.918
669.953
668.616
664.032
655.000
663.641
661.630
646.696
657.497
645.521
657.219
641.387
655.217
650.660
642.880
635.755
648.868
646.778
630.846
632.920
632.206
634.114
634.123
631.334
624.610
631.084
627.141
638.350
627.736
632.334
638.459
635.619
640.703
640.470
639.434
633.281
645.236
643.469
637.762
643.618
650.718
639.780
650.768
651.592
647.305
648.206
646.660
646.085
644.195
649.449
653.720
655.929
653.203
651.769
655.618
652.338
654.787
655.492
648.430
661.278
662.702
665.753
658.802
658.890
661.908
657.602
663.753
654.759
662.873
665.629
668.435
661.345
658.569
662.110
669.119
670.256
675.243
665.549
676.164
667.701
666.021
665.544
678.073
674.419
677.180
668.265
681.753
674.252
672.675
685.614
677.762
681.784
678.556
675.125
675.030
677.871
680.466
685.602
690.738
691.799
692.748
687.233
681.064
688.684
688.685
689.263
691.330
695.375
692.971
695.531
695.192
687.650
686.970
694.426
696.403
699.425
700.888
695.208
701.551
706.640
703.539
706.146
708.151
702.385
700.209
699.284
708.297
698.354
713.310
705.670
698.894
700.449
701.784
703.840
702.467
714.560
715.274
716.227
715.637
720.008
711.129
719.458
716.398
712.953
722.179
725.300
714.481
711.347
719.139
722.669
723.592
726.279
727.296
727.159
718.636
720.726
719.621
729.582
725.953
729.453
731.495
733.825
733.575
731.586
728.321
734.030
724.479
731.693
730.261
730.061
739.504
732.234
729.738
736.708
733.588
742.744
739.467
740.015
739.610
739.340
738.760
739.962
747.287
740.588
743.805
744.040
749.608
745.657
747.339
740.757
750.814
748.542
742.776
750.174
744.421
746.966
756.329
747.586
751.465
754.127
760.403
754.709
763.955
764.537
759.842
755.930
755.012
755.091
754.605
757.241
766.230
763.387
759.915
768.337
766.889
772.771
769.136
769.852
767.495
774.959
766.732
774.348
768.809
772.507
778.046
763.873
774.391
774.101
757.237
770.638
757.121
753.957
763.930
760.360
755.370
752.774
759.989
752.089
758.577
749.020
740.409
739.272
745.231
750.831
744.060
736.700
746.714
733.937
730.548
730.833
735.340
725.175
730.672
729.197
723.699
729.412
718.715
728.245
729.466
716.698
715.460
726.342
715.381
719.983
707.807
720.717
717.762
714.105
704.891
706.667
704.186
705.166
697.233
707.953
698.916
695.178
699.585
701.329
688.435
686.293
687.737
687.258
695.986
688.677
693.508
680.742
685.265
687.591
686.839
681.419
674.984
680.574
672.044
666.548
669.439
673.394
669.796
667.236
667.571
657.906
659.866
655.001
663.787
661.792
654.927
652.223
651.969
657.660
658.337
644.292
646.995
645.919
652.355
639.586
641.850
634.964
640.398
638.873
639.552
640.430
628.253
636.402
632.835
624.660
630.387
632.535
622.189
629.812
618.344
619.873
620.519
616.408
613.114
622.363
615.701
622.565
617.495
604.573
604.047
603.390
606.731
599.905
604.896
600.792
595.736
596.656
592.135
601.492
597.494
586.986
600.034
591.353
585.720
584.705
583.588
594.280
592.818
578.242
584.853
572.853
576.032
581.236
582.115
578.537
576.547
575.052
565.037
571.937
564.601
570.600
567.856
565.634
561.682
560.296
562.972
554.338
555.009
548.855
550.240
550.138
546.135
547.711
547.809
554.436
538.493
536.401
540.725
540.283
542.282
536.068
534.067
542.766
538.671
539.007
538.563
536.692
533.835
534.224
524.699
519.453
526.659
528.425
522.719
524.884
516.661
519.474
508.342
518.548
505.901
504.242
510.025
501.525
512.392
504.024
504.383
503.130
496.959
492.166
500.005
492.356
491.116
487.842
493.129
83.834
79.721
57.570
56.539
78.729
56.188
64.213
59.761
70.935
79.471
58.511
81.801
70.997
84.422
78.224
63.757
81.210
68.782
58.119
65.162
83.184
71.029
64.881
79.287
62.737
84.461
81.368
75.381
74.503
61.905
70.476
74.850
81.693
57.922
57.291
61.211
80.880
71.525
68.237
65.816
65.756
252.651
201.727
187.247
201.012
219.783
211.957
234.799
212.914
238.392
245.570
199.577
184.404
195.931
233.364
188.581
270.936
227.198
226.984
226.187
212.818
223.738
205.122
223.078
218.028
245.274
257.364
216.662
273.133
262.119
203.695
183.594
257.848
221.320
226.180
250.336
242.049
203.724
224.790
258.957
212.073
228.188
264.390
264.949
194.292
187.674
262.308
265.793
196.580
249.545
182.362
210.718
190.580
230.007
254.825
264.856
272.261
205.784
238.306
225.825
109.825
139.107
102.829
132.830
145.831
150.897
118.057
140.656
116.500
144.718
143.815
141.245
141.328
125.898
128.711
115.158
134.607
140.206
111.423
132.671
124.175
121.831
141.988
112.729
107.281
143.888
152.305
147.432
102.227
152.616
151.890
132.897
101.370
149.067
125.836
153.049
130.086
150.009
132.352
116.890
149.698
106.465
113.429
121.733
127.060
120.103
120.526
113.332
132.495
124.887
145.292
117.526
111.350
115.719
147.949
144.323
