690.865
692.058
697.291
699.223
698.234
684.974
689.605
697.887
698.012
700.656
701.529
701.624
702.738
702.213
692.624
693.755
698.497
693.706
697.293
699.944
710.271
698.963
703.456
702.986
710.157
710.746
705.559
714.121
704.869
705.870
716.848
708.920
704.597
714.122
713.890
715.791
710.095
709.821
718.261
724.363
722.169
717.617
722.332
720.427
718.867
716.404
720.870
726.349
730.225
715.992
725.367
727.744
723.214
722.489
721.445
727.125
724.706
733.335
726.209
730.217
735.147
726.624
732.811
736.950
727.560
741.213
742.109
738.472
741.047
731.974
743.046
732.157
739.913
747.320
738.001
737.543
735.063
741.033
738.668
747.170
742.196
742.591
742.173
742.388
741.940
749.983
748.011
745.937
753.642
750.053
752.347
749.954
755.742
753.092
758.377
760.408
752.410
749.856
762.055
758.158
753.924
767.698
767.768
759.089
762.545
759.333
757.901
758.254
765.884
766.461
773.933
765.230
771.445
775.863
772.101
764.995
764.159
779.285
776.240
771.009
767.978
768.418
761.857
757.696
757.075
764.225
762.725
764.487
755.843
757.400
750.334
755.717
755.828
747.158
754.485
746.136
748.487
745.265
750.552
734.794
743.287
738.426
743.483
744.265
729.175
728.080
733.638
737.948
734.318
727.270
728.765
726.350
732.062
729.709
727.122
713.678
712.551
712.988
718.847
719.067
712.368
715.868
715.227
712.737
700.417
707.322
703.968
709.563
703.767
706.353
691.212
690.890
689.449
695.998
697.053
690.324
690.246
692.555
687.656
683.793
684.587
684.038
682.600
679.849
674.852
672.635
673.125
674.278
673.953
678.264
669.566
664.970
672.837
664.269
660.783
669.482
665.897
655.535
667.557
661.246
654.378
656.564
651.582
652.472
653.358
648.742
643.905
641.458
648.473
637.497
636.575
634.231
634.469
641.655
639.033
629.776
626.745
628.365
634.053
634.656
620.861
621.048
619.943
619.107
626.578
622.400
617.845
626.037
620.282
613.107
616.169
607.977
617.239
617.706
607.668
607.157
598.779
597.680
606.910
597.772
597.179
601.180
603.392
592.856
588.043
594.604
596.410
591.396
594.151
593.555
591.848
585.537
576.859
584.800
573.973
579.322
584.897
583.727
579.676
578.825
575.088
578.698
568.470
567.149
562.265
566.738
562.865
558.508
557.920
560.974
565.243
556.816
558.928
557.963
547.338
556.292
546.968
553.311
549.467
538.645
544.051
548.107
538.453
534.039
544.622
540.756
528.141
532.879
531.981
526.888
528.499
523.067
528.757
531.809
524.494
526.311
521.893
513.541
514.973
514.952
517.117
507.234
513.856
518.467
511.113
506.157
509.588
512.413
512.277
496.094
508.173
501.262
491.807
503.971
494.281
488.552
500.336
484.672
497.039
484.814
487.682
479.278
490.846
473.436
473.649
480.199
480.419
472.051
477.954
464.369
471.656
470.674
465.779
462.551
465.933
457.321
448.346
447.922
454.537
443.233
450.428
451.938
449.018
436.271
446.937
432.731
430.340
427.688
440.142
436.146
431.191
421.101
419.434
428.232
428.089
413.163
419.549
422.559
407.327
405.697
410.384
406.696
400.683
405.930
395.127
407.086
394.028
399.112
386.649
397.277
382.200
385.135
382.969
386.114
383.586
372.579
378.352
381.152
381.141
377.445
373.391
373.727
362.867
370.366
355.151
367.295
354.315
349.793
351.272
356.374
351.556
347.415
351.202
341.667
344.758
345.914
344.860
341.283
341.543
330.802
329.514
335.387
320.782
321.404
330.816
319.985
326.020
316.092
314.455
313.363
310.834
317.477
310.980
309.307
311.311
298.124
303.710
298.630
304.207
295.439
289.746
287.214
295.748
295.405
278.504
286.865
274.341
274.726
285.214
281.095
273.328
268.851
265.582
274.955
270.120
263.002
262.073
264.936
253.870
252.635
261.415
251.064
245.544
242.909
251.109
251.712
245.332
245.548
239.138
242.780
240.007
228.800
234.707
235.912
233.759
230.462
216.699
228.678
214.442
219.295
210.063
217.221
219.847
203.614
212.539
201.740
202.051
197.766
207.758
202.532
202.860
196.639
187.825
192.621
185.643
187.142
189.618
180.819
179.182
183.174
185.121
183.017
170.424
177.441
173.409
164.622
163.227
159.780
155.005
163.657
156.551
148.870
154.171
147.557
151.119
142.211
144.906
136.693
137.483
133.599
140.268
142.044
128.758
130.864
125.982
132.705
121.433
129.883
116.024
128.317
113.994
111.994
122.952
120.390
112.389
113.375
101.233
112.707
111.171
97.586
100.868
110.062
107.713
96.057
108.829
100.405
95.815
96.390
100.362
95.743
102.786
102.708
99.996
106.341
101.667
105.010
314.292
353.348
309.985
313.339
304.666
326.476
325.280
344.066
350.281
342.608
305.080
337.556
318.483
296.872
303.617
331.240
339.120
305.765
331.352
305.351
319.715
322.889
333.373
340.774
331.931
339.356
291.023
310.153
313.519
301.531
302.576
327.033
304.378
331.534
328.979
325.501
285.090
335.054
284.550
325.715
319.867
297.211
294.120
325.367
297.860
326.942
311.176
311.043
293.471
283.213
323.781
329.453
313.287
320.236
317.060
315.901
295.458
303.643
277.835
291.833
309.207
314.381
281.527
287.692
290.219
306.264
295.542
318.232
299.881
309.241
274.057
293.765
296.623
302.700
283.039
272.921
310.933
297.923
288.970
273.051
310.947
273.782
277.022
267.003
285.283
310.588
266.710
295.063
280.994
305.615
306.481
300.750
264.627
259.916
279.827
257.503
307.408
285.213
266.590
292.949
295.142
255.147
282.980
275.216
263.212
291.542
270.604
275.753
272.528
265.934
298.756
289.769
249.152
298.430
286.881
257.382
247.989
260.065
289.417
287.167
247.736
282.334
267.396
267.974
249.556
258.479
273.480
251.193
262.581
276.733
287.310
270.385
276.919
268.319
247.933
259.979
252.313
271.575
255.036
242.904
279.833
248.008
255.211
245.155
260.471
240.477
281.164
251.847
275.703
247.100
263.140
238.851
279.261
232.272
260.248
244.824
275.186
230.789
266.752
260.114
242.282
259.436
255.221
228.370
246.068
254.216
228.083
237.073
231.459
250.150
259.660
237.288
263.667
236.703
238.377
256.806
261.744
220.860
253.644
261.170
266.938
259.622
123.231
100.208
127.626
103.157
133.766
130.227
141.862
106.948
125.420
127.841
132.711
140.256
104.416
101.526
125.665
142.612
132.718
133.561
101.193
144.472
143.180
111.062
104.846
133.243
122.715
103.421
117.902
118.691
146.558
111.310
137.548
127.759
142.315
120.239
114.361
118.183
125.998
99.772
95.462
123.335
140.539
142.877
146.536
124.919
133.099
115.879
137.082
102.053
98.803
112.073
104.015
107.651
102.909
125.301
140.260
131.640
101.910
102.968
107.472
122.714
126.658
128.537
128.086
110.671
130.461
135.629
119.691
117.028
107.310
106.841
115.235
117.288
110.375
120.745
130.099
107.805
144.118
95.314
127.139
102.521
133.086
117.758
104.339
105.721
143.209
101.176
112.542
100.987
138.314
109.773
96.198
120.048
104.467
102.129
118.561
97.026
95.563
122.040
105.404
114.574
116.836
101.871
101.808
111.767
117.128
114.559
138.340
145.782
113.998
99.020
112.877
136.885
141.434
136.072
123.683
135.262
137.142
112.122
124.166
127.605
130.123
97.162
107.565
138.949
95.397
127.205
108.451
103.608
146.193
141.986
134.181
109.520
127.499
108.935
118.990
107.703
128.268
122.270
122.558
102.866
120.813
145.044
111.015
135.427
142.392
100.482
115.817
108.746
144.297
140.489
103.566
133.960
141.539
111.152
115.606
146.742
119.920
103.833
127.885
140.691
124.915
109.515
133.700
107.042
142.066
125.958
141.875
117.439
95.634
134.165
115.698
111.589
103.712
136.621
121.470
103.042
102.604
132.873
127.069
134.949
99.563
135.989
101.503
143.807
141.329
139.853
94.864
119.088
141.413
127.888
105.065
109.601
133.594
126.184
106.300
100.454
111.270
129.233
138.036
119.634
97.810
145.914
96.711
123.695
142.373
127.792
144.705
143.350
113.399
126.572
118.742
111.151
139.381
133.184
139.919
142.212
145.769
125.708
136.712
134.834
104.764
105.931
131.547
101.529
139.119
138.190
109.146
108.954
97.372
117.897
121.587
135.306
135.570
121.188
115.590
104.391
118.640
132.794
128.663
105.018
140.045
137.378
119.065
99.157
110.177
121.913
125.273
114.610
134.469
120.363
102.267
128.466
97.931
101.285
110.735
99.849
125.510
125.735
115.134
139.057
115.755
113.450
120.452
124.624
129.983
109.045
104.782
125.215
133.221
96.674
129.561
103.400
124.700
142.874
119.383
142.004
118.948
138.359
108.852
111.184
99.019
109.084
119.980
104.747
123.228
135.746
124.205
117.749
102.816
113.319
111.481
122.184
123.747
132.457
132.454
130.706
132.809
108.234
139.398
120.180
140.818
129.913
115.081
116.464
142.526
128.626
135.441
137.295
97.573
98.976
139.330
114.584
131.627
125.032
126.114
99.840
100.463
105.934
125.516
113.489
132.593
133.905
121.379
132.333
125.717
99.024
104.412
143.832
95.152
125.167
142.785
143.103
118.295
97.322
128.486
104.958
111.609
134.711
146.603
98.538
106.502
107.467
99.977
103.883
125.863
95.611
113.594
138.140
98.505
136.019
117.740
123.577
136.568
117.243
143.592
133.401
120.474
128.973
138.956
127.179
135.559
101.926
139.804
98.903
129.853
110.788
111.402
113.860
113.067
140.301
137.987
121.161
144.046
119.317
108.034
117.648
142.162
144.496
120.405
141.503
122.462
112.056
140.835
129.031
115.058
123.110
105.645
100.254
122.057
99.972
124.167
136.403
122.600
123.180
138.562
126.340
101.564
98.462
113.876
129.536
131.952
121.998
140.177
137.578
109.816
137.222
133.520
139.399
140.260
124.057
136.208
142.523
114.295
128.134
121.397
133.037
103.462
104.079
101.503
146.118
126.934
118.334
125.094
132.924
117.263
99.635
106.427
106.938
129.582
145.597
134.018
139.230
121.896
140.217
129.642
107.430
118.152
146.462
115.073
120.835
146.419
99.316
96.675
118.161
142.088
105.874
133.298
120.026
130.527
144.052
133.308
147.665
132.116
122.940
135.272
104.174
108.678
116.374
114.380
143.959
142.815
117.800
99.074
97.213
135.506
141.714
132.414
132.328
148.811
143.644
140.735
144.576
104.823
147.772
140.875
121.303
107.406
115.652
99.932
142.344
100.294
142.654
142.585
100.743
137.494
104.896
121.022
118.868
126.260
146.369
138.394
118.466
110.356
123.381
105.842
107.449
119.782
103.927
116.626
149.171
137.744
115.233
130.341
149.652
129.394
102.396
104.813
145.738
108.352
127.523
145.891
133.672
113.268
127.926
130.122
128.518
134.992
117.766
116.508
142.758
125.538
134.834
129.393
145.372
144.805
109.081
134.601
101.079
99.991
122.903
144.151
141.563
129.369
102.589
147.860
138.857
127.906
139.318
148.551
113.474
110.679
123.693
118.824
150.821
114.101
118.200
130.117
131.467
142.744
147.425
116.152
132.383
128.359
111.854
109.352
146.201
137.475
110.577
111.708
117.196
103.930
125.973
131.598
109.208
133.175
148.667
135.139
117.936
122.282
105.330
139.911
132.474
132.829
129.119
138.575
121.101
117.226
100.501
120.191
115.087
125.206
147.865
136.363
126.466
126.811
108.839
135.473
114.032
121.001
111.354
103.906
103.286
119.222
118.656
111.876
128.327
108.331
150.936
109.732
132.469
136.866
123.424
136.704
150.110
106.944
112.224
128.136
103.447
144.294
126.197
124.175
106.489
105.949
138.902
109.673
131.894
148.650
125.414
149.800
119.443
124.836
127.691
137.269
132.731
135.794
130.135
106.921
149.257
139.621
150.592
103.484
137.205
102.709
147.109
144.199
146.233
107.795
112.541
147.717
151.543
142.225
104.442
122.756
118.019
112.963
128.912
121.885
147.061
126.044
131.240
139.300
112.969
119.164
121.177
150.587
107.558
127.474
138.435
144.468
108.577
137.493
131.292
107.171
148.256
128.794
101.409
99.252
117.229
139.570
143.292
128.472
116.850
108.315
146.845
121.814
149.707
149.633
101.377
118.439
105.050
121.203
125.120
134.381
120.454
134.339
100.148
141.358
148.885
149.383
139.292
126.797
108.206
128.081
119.194
106.768
109.845
119.715
129.042
102.321
121.778
142.894
116.523
100.683
123.636
147.535
118.620
104.363
132.661
112.511
135.175
136.506
144.534
111.776
107.036
103.406
129.421
138.668
122.288
112.635
138.919
100.221
121.376
133.030
127.934
119.619
106.978
127.258
106.373
117.549
113.939
97.486
97.475
108.779
97.020
144.763
136.955
115.113
117.002
147.270
118.352
128.086
108.022
114.067
100.573
126.904
131.914
147.042
99.988
97.120
147.484
99.640
108.936
145.162
134.711
114.924
146.517
97.375
100.524
111.864
146.514
137.040
120.772
103.460
106.328
117.744
123.911
110.925
113.201
133.295
124.932
130.675
114.013
137.383
137.571
98.464
141.375
95.643
135.403
98.078
122.365
146.624
114.391
128.012
124.805
107.472
130.069
116.046
99.391
132.945
121.993
122.982
146.328
103.784
107.039
142.551
124.683
109.977
96.387
102.590
142.994
139.768
106.996
131.169
117.866
141.656
107.429
116.529
127.595
95.809
126.495
138.772
146.224
135.518
132.207
127.581
134.910
97.381
132.069
115.110
101.699
107.851
142.423
122.186
126.428
129.324
130.604
102.003
103.111
103.380
104.883
111.548
131.040
121.195
142.044
145.167
129.102
112.420
106.995
113.778
133.759
126.270
111.309
135.550
143.054
110.639
116.946
128.840
122.718
135.918
109.452
135.115
120.404
119.117
110.707
136.310
97.897
119.558
104.553
98.551
115.352
99.246
122.574
115.363
113.343
137.975
127.268
96.608
139.732
101.786
112.326
102.636
125.961
126.573
142.259
126.941
124.385
140.228
115.662
116.770
102.745
128.521
123.577
131.720
125.993
116.265
116.925
146.484
121.169
112.111
125.831
138.127
119.580
119.056
121.291
113.536
127.043
126.738
138.002
125.236
110.208
138.968
145.473
123.839
108.242
96.379
144.148
104.520
143.962
116.934
95.841
120.340
96.944
146.581
127.043
135.738
121.089
129.238
104.888
106.138
135.061
140.647
95.333
119.981
145.439
118.229
145.556
124.549
101.439
123.820
117.153
120.502
126.056
101.575
103.565
102.863
124.108
116.637
117.061
118.648
133.412
146.036
101.929
123.320
134.277
102.450
101.931
98.200
114.671
106.556
124.876
132.701
106.375
124.805
140.688
97.887
138.223
112.361
145.984
103.670
99.933
138.935
129.781
132.043
116.538
143.178
135.167
107.103
118.360
141.974
124.453
104.608
101.551
102.916
113.848
119.048
145.524
145.650
108.962
129.174
103.004
109.826
115.817
119.427
146.234
104.805
100.327
145.222
146.599
132.249
145.606
124.368
114.831
126.992
95.791
99.002
131.714
100.253
117.322
103.069
132.952
108.220
108.504
126.820
119.081
118.004
120.166
142.642
136.409
129.426
142.162
141.457
128.055
146.652
140.504
141.328
137.374
139.801
133.127
97.598
140.825
136.463
112.728
135.901
120.654
138.609
134.129
145.199
124.141
109.440
134.008
112.976
132.309
111.685
105.057
106.748
119.486
130.677
130.638
99.785
128.251
112.220
138.843
127.032
95.001
102.451
124.072
125.838
113.766
119.097
125.040
127.362
123.928
145.711
131.672
136.436
136.134
122.967
135.178
144.027
100.628
121.444
95.687
96.845
131.579
124.414
120.952
101.371
129.387
112.282
144.944
126.418
102.509
144.546
122.613
145.084
116.508
125.778
123.479
125.933
142.042
106.581
124.905
126.407
99.298
130.246
107.790
113.130
139.163
95.042
118.636
120.601
141.721
103.186
134.271
96.651
130.097
145.357
132.379
131.465
146.571
137.043
118.964
131.259
95.402
100.850
122.704
104.857
112.816
135.138
116.969
98.854
111.814
136.066
100.243
106.391
104.483
126.272
121.361
95.686
126.912
118.332
103.278
121.738
107.422
115.329
96.133
102.060
143.238
125.223
130.379
112.422
141.383
132.015
131.727
138.234
114.454
123.706
125.567
146.666
126.458
142.109
132.550
145.809
137.862
129.941
145.939
123.664
117.291
136.142
138.589
138.124
122.397
145.952
129.235
129.888
116.970
96.370
127.087
94.998
129.650
142.338
124.731
115.063
139.606
105.810
103.987
118.757
103.026
139.610
113.288
108.447
139.019
133.274
105.667
111.401
122.234
135.845
108.755
133.561
122.193
118.557
134.698
118.132
126.006
135.337
106.569
100.217
146.058
140.093
128.702
112.136
121.048
146.072
109.845
111.793
141.269
98.687
141.353
106.359
98.791
99.206
129.822
132.973
97.036
146.693
133.543
103.569
128.170
120.379
130.265
144.970
133.198
112.633
129.789
110.118
143.075
127.093
119.420
137.735
120.923
144.205
127.683
132.396
101.969
116.675
139.586
118.455
124.449
141.992
128.299
102.087
130.386
103.631
114.533
106.698
106.619
103.586
132.641
106.426
123.864
95.909
96.225
95.272
102.457
98.510
127.353
116.107
143.576
110.285
108.851
142.833
98.287
95.167
123.396
134.011
127.061
117.074
135.831
112.295
107.118
101.222
146.469
106.339
111.963
109.786
104.849
115.609
138.744
109.822
105.028
125.874
145.711
102.032
134.385
103.992
104.430
116.084
106.801
142.852
139.844
123.860
137.303
