772.136
762.274
762.642
775.658
762.899
762.979
769.249
779.511
775.023
774.946
769.191
768.046
780.050
775.237
779.649
776.335
778.561
787.802
776.975
784.688
789.861
778.420
790.818
786.853
779.114
784.643
792.760
781.351
790.949
791.116
794.955
784.788
799.319
787.052
793.402
795.693
795.240
793.114
799.209
791.945
803.269
796.279
804.613
801.345
805.181
805.952
803.054
812.458
811.231
804.574
800.648
810.511
803.321
812.086
809.948
808.660
809.844
804.827
813.598
818.003
816.327
815.054
812.069
810.427
811.268
817.763
809.857
817.718
816.054
819.095
810.547
813.693
811.786
808.743
820.871
821.966
806.890
812.627
821.900
813.653
807.651
819.127
820.090
810.057
808.490
819.697
820.504
810.078
821.098
823.084
821.119
810.408
823.512
822.784
813.334
822.924
814.151
812.889
826.067
820.995
815.516
819.604
815.860
824.091
813.289
814.587
815.297
815.323
828.754
826.383
816.380
819.230
828.073
818.273
820.638
817.875
824.946
830.454
817.706
816.027
817.036
817.856
823.015
823.269
824.363
827.759
825.145
825.242
832.594
828.937
832.669
831.220
818.105
831.996
825.680
822.761
824.500
827.994
832.604
833.683
827.482
825.887
823.344
830.371
821.783
829.395
831.044
829.085
829.205
824.438
825.969
828.046
829.628
828.564
836.468
835.863
832.964
836.720
823.475
836.895
823.947
832.503
829.558
831.224
837.396
832.415
834.459
827.912
832.127
835.141
829.305
829.695
833.736
842.343
831.627
828.686
842.047
831.919
831.248
828.048
828.212
834.591
843.091
836.568
829.186
843.442
829.775
840.909
841.650
831.014
843.337
833.998
842.703
830.641
833.465
835.991
846.656
836.031
845.476
841.699
838.854
835.861
847.327
839.377
841.757
839.781
842.855
839.329
844.782
840.944
837.657
834.596
850.069
846.681
846.080
849.414
845.972
837.691
850.157
841.913
843.577
847.459
850.457
840.677
845.979
840.173
841.931
845.968
837.939
845.084
843.157
844.722
844.319
845.833
842.178
853.730
843.200
854.638
854.021
850.426
847.698
852.651
841.390
841.016
844.927
851.627
856.991
846.236
851.669
845.772
852.429
842.893
853.378
856.443
852.069
851.011
845.677
854.431
846.714
847.206
846.359
837.680
837.462
838.960
841.547
840.108
847.567
842.862
833.557
838.033
844.959
835.299
841.601
833.935
833.972
843.067
830.785
837.246
837.202
830.232
838.847
839.508
825.271
824.672
830.486
823.364
828.435
823.165
824.747
830.700
834.959
835.189
819.247
821.444
831.030
830.073
822.656
822.807
819.124
814.768
820.574
826.600
813.607
822.946
815.440
820.435
822.098
822.658
811.602
811.868
823.352
817.380
807.600
811.092
819.380
820.635
810.998
809.932
807.246
816.376
811.816
804.031
808.370
815.691
803.485
814.539
812.787
813.464
801.672
804.313
807.619
798.082
811.317
804.976
801.875
796.744
805.194
795.715
794.622
793.208
804.307
798.413
798.301
794.512
792.866
793.513
795.859
791.577
798.327
795.199
789.420
792.460
792.295
798.356
788.380
788.855
785.728
791.409
792.161
792.508
788.135
787.200
782.176
787.852
792.084
788.366
790.517
779.832
783.750
781.694
788.012
781.362
781.584
779.216
781.336
784.512
778.450
783.992
773.637
771.979
778.531
774.489
780.796
775.151
769.037
779.457
779.258
764.861
778.281
763.801
777.555
769.193
764.786
773.977
772.133
767.980
759.031
767.903
761.574
767.024
770.571
761.259
769.661
760.417
764.687
759.868
761.169
766.460
763.759
751.373
754.916
751.364
754.865
753.833
757.021
752.982
750.391
749.848
760.049
756.118
757.241
746.036
754.637
747.248
749.462
743.835
748.630
747.771
754.197
745.282
749.746
741.652
740.403
744.395
743.827
741.367
747.037
745.226
736.860
735.016
736.050
736.884
748.219
741.862
733.785
742.758
745.100
730.060
733.098
736.642
728.898
731.924
736.398
732.641
732.589
733.745
735.114
734.887
744.028
735.282
741.132
750.858
749.074
752.208
754.479
744.748
754.340
753.771
754.855
757.997
759.612
746.673
748.950
750.910
756.136
759.324
757.047
765.241
767.408
768.025
761.315
766.820
772.325
769.246
773.804
762.480
767.889
763.161
767.361
772.751
775.587
771.988
771.853
767.544
775.690
775.489
784.422
772.298
785.371
778.383
774.094
788.967
787.150
790.060
781.648
787.072
780.198
786.333
790.179
785.125
793.700
787.757
797.256
790.114
796.332
801.981
795.365
794.679
790.706
807.323
794.172
798.184
797.204
805.588
806.479
798.922
806.277
808.203
808.664
803.746
814.444
816.949
818.518
814.844
807.519
817.809
820.883
821.007
818.220
811.704
827.039
819.097
824.108
828.934
827.336
817.543
829.541
831.760
829.697
834.812
821.525
823.955
838.664
835.034
839.463
832.357
840.487
833.072
836.790
831.301
842.449
843.689
847.988
835.442
835.305
847.145
843.511
850.011
853.611
845.758
841.892
845.813
846.512
855.256
849.405
847.245
847.352
860.456
849.695
860.627
855.647
859.426
858.117
863.536
867.983
858.597
863.232
861.432
872.499
873.488
867.159
861.860
866.685
873.612
870.926
879.189
868.781
873.149
869.166
873.713
871.484
881.055
873.463
878.402
874.339
874.228
883.292
880.513
891.916
884.652
888.211
888.798
891.013
893.148
895.596
887.176
883.811
887.255
895.043
899.801
889.964
902.603
890.659
892.816
904.717
907.946
897.712
896.105
909.432
901.077
899.759
907.649
905.448
908.305
907.999
915.838
903.139
908.495
918.140
912.202
907.957
907.772
911.082
919.986
914.016
915.080
925.103
914.555
914.344
917.523
916.365
921.487
930.903
917.172
916.550
925.829
929.655
926.358
921.780
923.346
922.500
913.828
913.326
926.708
922.388
927.894
918.046
911.930
911.926
915.048
925.427
913.051
920.111
919.138
914.118
920.659
911.670
917.428
909.475
921.519
908.820
910.550
913.506
914.408
907.782
905.744
920.284
904.471
906.159
910.482
909.209
914.556
913.870
911.595
914.758
903.441
909.664
901.494
912.378
906.656
915.220
914.027
899.697
899.140
908.696
903.804
908.766
898.667
908.275
903.201
905.682
906.996
896.602
896.950
903.731
909.793
894.609
908.826
897.085
903.130
904.513
906.111
902.192
901.073
906.215
906.560
892.092
893.989
904.633
899.715
901.953
892.258
904.161
902.823
890.179
892.369
888.624
899.109
888.457
895.850
897.065
900.582
890.689
895.923
891.999
889.464
893.906
890.076
897.032
895.689
892.139
894.009
897.756
886.686
887.434
889.236
894.075
889.384
880.528
891.016
891.285
882.235
882.603
891.741
892.610
888.305
887.253
887.348
888.803
887.518
886.700
878.754
891.008
876.191
888.516
882.527
888.571
876.898
878.693
882.879
877.412
874.045
886.463
882.330
886.606
880.563
883.478
873.867
885.718
879.025
874.522
875.280
882.887
883.346
881.499
882.689
873.738
867.010
877.817
878.787
870.588
871.176
875.805
873.112
875.649
873.941
877.881
872.788
873.484
872.785
873.548
876.138
862.064
868.186
871.303
872.678
870.608
868.837
863.402
860.572
872.505
871.753
869.830
862.459
859.645
872.950
866.080
861.770
867.608
856.374
855.536
867.078
869.271
861.082
868.146
861.973
860.121
868.189
860.646
856.212
860.389
857.337
857.260
862.681
856.666
853.062
853.409
860.553
850.903
852.136
857.654
859.059
861.890
857.650
847.782
855.950
855.130
854.394
855.095
848.061
841.718
840.850
844.285
847.092
850.425
846.659
844.954
841.062
848.727
838.557
841.616
841.739
845.314
843.420
843.385
835.927
839.334
835.823
827.102
825.585
831.770
837.177
826.544
830.020
827.314
823.714
830.726
821.778
821.485
828.852
814.062
815.193
821.459
820.883
825.455
814.546
819.245
820.713
819.620
817.036
809.469
817.517
805.894
803.231
806.860
813.898
800.546
811.585
798.788
805.501
796.817
801.926
794.630
800.974
802.021
799.877
799.347
789.773
797.554
801.055
792.592
786.261
789.437
790.188
796.764
790.323
787.050
786.923
786.118
784.931
784.136
784.935
790.914
786.360
777.049
785.473
776.548
782.403
774.616
770.163
778.921
771.107
782.432
774.941
774.660
769.987
770.044
778.296
768.616
767.175
768.315
761.045
760.589
765.677
770.827
771.629
765.186
769.579
767.670
761.079
759.588
764.499
760.827
755.991
756.195
747.366
754.046
746.501
759.704
756.674
745.684
742.458
748.733
755.439
751.574
741.936
737.927
742.669
739.144
745.188
735.933
736.239
744.775
741.110
741.306
741.825
735.493
743.065
741.312
739.177
735.844
732.515
737.681
726.193
734.226
724.068
719.384
727.644
719.593
720.508
726.301
719.595
719.013
722.798
718.652
723.211
719.870
709.695
716.461
716.391
717.436
714.966
710.103
704.560
710.481
708.545
713.305
704.464
715.552
710.921
705.410
712.948
700.486
706.154
698.914
694.833
696.338
696.826
693.807
701.511
691.801
702.623
698.360
692.714
689.394
699.765
688.309
689.160
685.290
694.005
693.043
682.279
679.885
678.145
682.486
677.906
682.989
683.579
686.995
681.117
684.257
683.166
676.482
683.256
677.858
678.681
678.447
691.101
692.387
689.509
688.650
689.454
690.897
695.003
697.292
687.507
698.492
699.094
691.017
689.186
690.420
696.296
699.063
701.511
701.687
698.503
704.883
696.614
695.885
698.251
706.009
699.454
704.534
709.170
707.147
710.842
703.827
715.455
705.070
711.361
715.902
712.459
722.105
717.986
711.472
723.114
714.130
717.529
718.059
725.007
718.091
726.107
722.542
731.362
732.851
728.746
727.413
723.894
734.256
728.190
735.236
727.597
740.026
735.860
733.813
733.271
733.801
734.996
742.937
744.073
747.724
746.193
744.380
742.608
742.051
754.326
749.683
750.068
745.278
754.216
753.685
752.356
750.314
753.300
750.330
748.786
763.898
752.921
763.153
765.226
758.283
765.804
763.580
759.414
760.538
763.919
761.135
761.149
768.159
772.456
767.128
776.093
773.848
767.878
768.537
775.703
771.804
776.913
777.752
770.843
774.012
784.801
777.883
778.467
789.923
787.499
781.287
789.459
793.282
780.880
788.449
789.630
784.954
795.530
784.930
792.138
795.899
788.091
799.281
789.597
790.695
795.317
792.299
797.871
796.035
807.205
810.703
808.057
813.198
803.433
810.947
813.258
801.788
816.030
812.515
813.798
815.824
806.169
816.408
814.648
810.710
817.919
820.530
825.628
824.053
813.748
816.917
826.585
823.883
821.446
833.052
831.849
834.421
835.511
833.138
835.535
827.385
840.464
837.539
827.452
831.849
832.581
831.352
833.353
835.010
839.150
847.919
841.758
844.151
837.164
836.814
850.688
847.985
839.960
849.989
843.847
856.267
849.143
858.696
858.996
852.369
862.613
856.606
856.674
861.325
865.801
863.327
854.989
855.901
864.682
860.892
867.219
858.797
859.724
863.219
874.681
874.321
879.282
880.020
870.068
875.002
880.564
877.150
873.356
882.464
879.882
877.376
888.032
885.801
881.899
895.053
892.900
892.412
900.457
896.286
903.370
899.948
901.174
896.962
895.910
910.925
909.952
908.266
906.669
916.319
906.618
907.319
917.728
908.578
912.091
924.650
921.519
922.410
929.222
926.253
920.412
927.394
933.581
936.310
935.668
930.934
933.762
926.759
929.930
941.788
931.160
943.561
941.125
949.997
942.583
951.197
951.655
946.793
946.846
950.662
949.231
954.619
949.704
950.073
959.413
950.938
958.509
958.709
967.428
967.688
966.433
970.909
963.357
965.576
969.162
976.225
972.613
982.128
980.028
981.854
977.229
976.045
979.527
985.983
978.769
988.506
988.307
987.100
987.130
988.148
997.657
989.232
992.518
990.685
998.231
996.628
993.169
1002.720
1003.592
1009.436
1011.134
1013.296
1014.529
1003.675
1007.153
1020.670
1021.823
1014.137
1017.665
1013.878
1013.120
1017.366
1030.622
1031.975
1022.709
1021.270
1029.856
1026.470
1024.101
1036.467
1038.138
1043.039
1037.085
1044.752
1045.093
1044.864
1044.822
1044.895
1043.925
1050.793
1052.350
1051.579
1044.462
1059.265
1053.005
1052.745
1059.946
1049.999
1057.955
1065.618
1059.423
1059.322
1059.178
1063.593
1060.625
1074.421
1063.083
1071.975
1064.494
1073.562
1074.453
1072.634
1083.601
1071.575
1084.233
1076.764
1085.285
1082.534
1084.433
1094.254
1084.202
1084.316
1093.655
1089.378
1088.790
1100.009
1104.251
1093.181
1092.418
1108.291
1104.320
1096.008
1098.656
1110.542
1114.520
1103.365
1108.391
1107.942
1106.083
1110.428
1113.870
1123.935
1112.031
1123.067
1118.420
1125.983
1116.521
1130.338
1122.782
1128.501
1135.679
1135.005
1134.500
1132.877
1136.878
1141.287
1138.116
1133.898
1138.586
1137.154
1126.225
1137.814
1139.109
1127.335
1127.050
1121.620
1133.522
1124.912
1123.974
1124.713
1124.135
1122.472
1115.820
1124.014
1118.173
1117.061
1123.265
1119.422
1119.385
1105.251
1106.234
1113.698
1107.303
1113.954
1106.364
1114.254
1100.988
1099.280
1104.866
1108.633
1104.347
1092.636
1091.477
1101.242
1101.829
1101.240
1095.649
1087.805
1096.473
1097.656
1082.479
1084.269
1082.445
1087.351
1081.246
1080.994
1081.197
1080.868
1083.839
1084.379
1079.291
1070.342
1081.784
1083.505
1080.613
1080.725
1067.394
1072.895
1073.139
1061.623
1070.078
1074.321
1065.820
1061.762
1067.163
1058.526
1068.733
1062.628
1051.862
1060.779
1053.900
1060.394
1060.227
1056.206
1056.738
1052.883
1043.482
1052.966
1055.029
1055.116
1044.154
1043.270
1040.579
1038.181
1048.100
1035.164
1041.366
1045.727
1040.537
1030.378
1030.005
1042.356
1032.615
1038.019
1030.635
1027.281
1023.067
1023.535
1022.117
1025.492
1020.979
1019.124
1022.539
1029.090
1022.231
1026.841
1023.026
1014.189
1008.357
1015.205
1020.020
1006.324
1008.352
1009.244
1007.956
1013.111
1002.390
999.332
1004.007
1008.356
1001.391
994.847
998.619
999.253
1006.730
1004.556
993.855
1000.147
1001.574
986.674
998.955
996.949
986.404
994.620
989.384
984.272
991.208
977.870
976.648
983.336
976.182
980.220
973.008
984.532
970.682
973.256
974.953
970.286
970.415
975.927
974.459
963.186
964.817
967.356
967.989
971.982
967.462
966.436
958.937
953.857
958.744
959.422
951.449
962.016
957.271
961.317
951.110
959.099
945.941
947.254
953.354
941.926
954.613
952.644
943.410
945.985
938.349
945.266
946.030
937.579
943.845
934.902
938.794
938.223
940.300
940.189
928.213
930.258
928.877
936.376
920.264
933.587
923.450
925.837
925.264
922.858
171.382
153.823
188.800
160.949
225.072
159.905
160.327
164.798
173.305
214.551
211.580
213.693
177.552
192.330
158.781
230.875
207.743
187.631
215.261
180.867
202.144
212.271
164.148
164.441
223.440
174.373
191.374
166.958
231.205
202.286
211.809
174.319
209.454
191.601
199.357
211.093
196.756
169.836
204.076
211.607
180.028
228.022
156.037
171.043
156.841
223.523
202.929
227.724
158.742
194.040
158.533
157.933
182.810
222.923
230.567
176.648
153.894
191.589
159.812
205.087
192.914
181.892
183.328
231.120
151.721
186.676
189.007
153.294
217.830
230.321
186.561
189.478
169.781
231.792
176.871
230.123
188.333
207.332
202.163
211.391
169.811
151.055
155.268
212.809
180.862
184.853
211.064
158.332
199.155
225.779
187.589
214.165
179.113
210.624
170.615
220.654
202.926
178.425
167.146
180.086
127.453
87.009
103.547
116.527
128.336
124.618
92.360
122.642
118.166
88.269
102.380
120.309
115.847
125.639
86.223
101.749
109.396
85.830
84.755
124.726
117.745
106.247
105.976
121.822
117.650
107.803
99.638
96.845
90.759
109.421
91.860
125.004
95.835
98.693
110.902
93.712
97.023
93.285
103.746
103.820
126.367
93.335
86.553
123.557
127.843
90.604
126.213
115.301
97.877
89.065
97.392
95.711
89.790
92.855
103.070
111.904
83.930
102.791
89.086
108.354
125.849
96.622
111.540
107.658
119.312
108.425
116.213
97.241
107.872
89.802
118.223
125.345
103.026
100.216
85.059
88.563
122.307
107.747
121.673
100.619
124.813
126.727
99.985
117.861
86.233
108.355
95.037
121.368
123.785
127.084
89.014
105.211
104.883
120.726
100.087
95.975
128.328
113.874
126.219
119.663
109.418
119.092
93.371
107.810
99.495
88.831
125.616
125.162
126.601
91.584
120.770
97.474
95.412
94.887
108.603
106.454
92.129
127.782
122.757
112.282
92.129
86.831
101.842
91.401
93.670
86.239
121.472
128.575
84.995
103.942
115.973
107.228
102.569
115.275
105.444
90.478
109.329
127.091
118.533
121.163
106.072
102.729
105.463
106.050
111.173
115.938
103.821
86.243
87.845
127.304
121.509
116.785
104.540
95.777
119.812
91.839
118.699
111.700
115.458
95.152
104.731
120.163
120.360
120.362
120.581
85.819
126.556
110.937
117.880
123.241
107.737
103.059
117.843
121.318
114.407
104.053
105.739
122.835
87.691
93.385
114.043
94.324
125.739
89.774
109.378
115.405
101.103
84.485
102.371
83.735
103.891
88.775
113.298
98.665
122.896
87.955
82.447
86.665
103.038
111.760
116.575
108.506
122.702
126.272
110.372
99.969
126.334
93.103
120.925
103.576
94.093
104.727
125.657
86.938
101.342
119.013
101.360
110.031
119.193
110.946
98.286
96.805
103.448
111.035
102.152
119.234
90.391
123.398
115.279
101.593
91.704
125.968
111.381
85.075
105.411
121.765
89.401
115.724
111.930
101.210
123.649
88.219
115.260
118.362
112.852
105.772
104.475
100.971
110.868
