808.994
809.127
819.412
813.361
812.805
820.560
809.607
815.022
818.802
807.357
820.236
818.541
814.369
812.361
819.403
815.078
806.876
820.073
807.803
805.830
812.455
808.410
808.957
806.125
810.262
813.325
809.483
811.765
807.780
803.911
809.295
812.485
806.610
815.509
809.883
810.772
814.584
809.771
809.939
808.891
803.045
806.380
802.308
815.816
809.938
808.813
816.421
808.823
804.565
806.134
811.106
793.354
790.269
788.429
785.410
792.718
779.023
775.761
776.172
779.106
774.526
775.724
758.773
770.660
755.417
750.793
756.517
744.335
750.580
743.420
747.492
733.362
730.994
739.219
734.642
730.358
717.781
721.780
713.474
711.137
713.273
712.027
709.763
700.547
690.947
689.321
695.147
694.891
680.378
689.039
686.906
679.964
668.492
664.012
666.736
669.298
655.082
658.785
655.509
657.169
643.978
639.264
650.852
643.388
631.945
639.050
636.959
621.506
629.459
629.362
625.978
615.874
611.423
606.550
604.171
598.703
607.436
598.857
589.559
595.030
587.988
579.061
589.972
580.750
568.482
572.576
566.359
568.391
562.740
563.670
557.775
555.577
557.952
547.746
550.687
546.887
533.768
544.210
539.731
523.667
520.307
520.030
523.378
516.873
521.715
505.108
512.492
508.851
498.381
505.429
501.225
496.117
484.188
480.716
483.816
473.896
472.441
481.654
475.916
468.740
465.790
463.704
462.733
449.300
446.958
448.499
444.638
442.377
448.117
440.376
437.559
424.687
426.940
429.024
416.479
426.777
408.602
411.552
407.656
410.920
404.958
406.455
403.762
388.040
397.055
382.229
387.646
389.347
372.907
374.578
380.122
373.762
362.555
360.995
367.748
364.559
361.551
345.076
349.617
349.358
336.304
342.084
335.777
339.529
324.023
328.545
318.505
324.768
310.467
318.527
311.323
305.647
313.578
297.435
297.463
304.386
287.537
285.696
292.224
286.116
277.186
275.235
278.565
274.666
275.080
258.570
256.195
264.453
250.731
256.099
245.651
249.471
236.755
246.758
238.363
238.443
232.126
236.104
226.810
229.577
225.174
221.174
221.246
214.870
199.882
205.725
197.982
192.001
190.219
200.374
200.881
193.172
195.359
199.914
184.973
186.536
195.108
197.776
190.896
198.376
184.933
189.059
181.533
184.387
181.738
189.137
183.992
187.538
187.586
191.458
183.946
187.175
188.755
191.535
187.025
189.897
188.073
186.695
186.712
176.037
173.732
175.111
177.805
174.292
178.498
181.494
182.184
184.801
175.387
178.743
174.450
175.646
173.704
179.851
169.704
175.953
165.907
168.028
175.894
176.663
176.376
169.609
170.120
173.978
170.297
174.332
174.045
170.243
174.320
168.007
162.945
173.263
174.048
167.827
161.969
158.482
163.427
171.137
164.241
166.244
168.966
159.402
158.876
159.818
165.302
152.301
156.886
162.776
161.988
153.744
160.417
158.578
159.288
148.771
152.653
160.244
158.454
151.825
161.227
148.254
157.481
145.317
145.750
153.924
159.363
155.317
148.303
153.001
146.874
148.389
152.110
149.004
149.235
145.155
139.637
149.033
146.180
145.632
152.416
150.900
148.668
142.651
141.996
137.337
145.108
143.142
137.503
136.065
133.489
132.971
138.260
144.527
134.624
137.730
144.204
137.786
130.809
133.929
139.026
140.182
129.867
137.157
140.992
130.720
127.615
133.894
128.239
126.551
138.956
123.013
132.242
135.256
121.717
121.382
126.601
120.991
132.791
125.456
127.878
128.430
124.026
118.599
128.910
124.023
122.232
122.731
123.982
124.081
120.719
123.291
124.822
125.535
127.088
381.024
411.407
399.467
391.134
391.481
372.025
388.267
378.607
386.527
375.386
391.551
388.077
367.989
395.313
374.239
378.651
390.178
375.136
337.396
361.477
348.071
332.451
362.160
350.629
358.777
344.356
344.823
347.854
338.207
341.230
352.693
357.908
344.373
357.270
332.784
133.129
104.798
141.426
123.500
112.996
131.498
147.580
147.595
102.768
137.532
146.851
109.791
147.776
135.606
114.078
131.987
139.234
141.571
143.362
148.146
115.588
101.246
127.088
111.543
122.734
116.539
152.528
150.267
109.663
114.026
129.819
130.588
124.043
147.875
107.240
121.966
109.014
106.914
126.031
146.104
135.878
121.413
149.415
106.081
128.913
146.662
110.438
120.989
104.162
107.659
128.867
134.918
134.983
110.562
120.947
112.781
124.335
103.671
148.692
114.393
102.505
142.075
147.813
116.860
151.454
144.206
127.519
138.756
123.974
121.717
114.074
139.286
119.677
137.881
135.484
141.466
150.837
147.370
119.552
130.732
107.463
108.264
104.897
148.395
136.390
122.081
145.672
149.388
126.270
103.248
115.737
110.255
123.213
101.824
132.284
113.066
125.970
113.637
104.948
144.223
104.664
104.942
124.580
135.258
142.932
110.910
111.131
140.262
131.889
152.397
151.330
115.173
149.827
146.266
112.110
151.275
127.792
101.793
134.548
124.021
139.459
109.897
140.508
130.104
127.176
149.513
124.931
111.568
146.940
132.149
120.776
138.823
139.370
122.352
148.212
146.179
117.408
105.847
110.235
116.612
142.704
113.120
109.394
140.608
151.082
149.170
122.538
142.371
114.753
125.332
130.989
146.618
132.852
112.746
116.563
141.568
138.931
131.527
147.865
149.176
146.371
130.135
131.982
108.326
129.662
129.498
126.050
104.992
136.131
145.222
136.681
147.734
128.234
102.427
146.333
104.209
143.968
129.338
110.634
142.293
118.508
111.161
113.376
143.904
136.269
136.107
149.296
102.828
130.023
107.319
118.913
123.734
118.126
151.697
117.141
101.307
144.091
118.569
108.329
132.885
137.235
146.738
139.877
133.852
103.599
131.174
106.788
142.462
138.127
124.931
141.022
118.736
116.524
142.000
150.111
122.366
105.171
104.351
136.728
136.926
105.026
115.839
140.618
122.682
116.684
103.006
134.924
138.043
148.232
130.352
124.359
129.249
123.562
150.857
139.926
117.326
141.043
101.912
128.768
141.983
150.366
141.353
129.231
130.703
106.447
109.355
148.959
144.549
122.031
133.480
138.058
137.026
121.956
131.839
123.087
127.993
136.057
123.927
121.534
121.942
115.078
111.353
113.648
113.175
105.474
136.805
134.857
128.037
143.229
147.327
151.968
124.611
116.846
127.377
139.644
138.070
109.934
116.648
112.354
126.429
129.887
109.612
144.579
151.307
112.307
137.118
115.833
132.697
110.333
109.795
140.675
105.307
122.437
132.747
107.876
145.835
136.400
111.073
141.272
113.558
132.727
143.908
118.279
103.301
112.446
137.515
146.923
113.320
127.063
142.301
130.659
109.662
109.334
131.599
135.575
148.583
152.029
118.262
119.892
115.543
136.163
133.679
119.431
116.758
142.852
139.256
147.455
127.965
129.528
108.167
122.554
110.109
112.068
107.670
141.017
150.252
144.155
123.202
111.395
102.496
132.644
121.709
120.998
114.038
123.999
115.674
151.843
102.960
113.562
121.921
143.764
124.119
137.635
153.067
127.144
107.497
129.127
126.680
151.520
104.227
151.845
135.600
112.503
119.103
123.976
147.331
101.648
148.751
107.728
123.524
128.280
105.381
129.010
104.519
118.253
117.554
132.055
101.421
109.732
120.718
148.185
126.952
101.591
106.379
118.411
152.176
112.942
123.271
125.934
117.367
120.341
122.328
101.666
132.556
124.063
142.093
149.386
145.738
133.209
114.804
124.649
132.895
127.783
102.104
147.496
118.352
129.848
128.937
149.640
150.944
147.116
127.661
143.379
136.168
101.751
105.415
130.192
117.600
119.999
137.699
108.442
103.255
112.503
140.852
130.151
152.410
136.920
120.261
108.081
137.759
137.847
122.911
144.032
128.787
119.801
117.722
119.318
119.013
107.190
109.365
143.733
103.605
114.191
141.679
103.426
117.819
145.430
119.817
152.518
118.539
138.269
104.837
132.301
130.042
152.406
149.155
141.101
115.164
146.553
136.625
119.632
139.419
108.157
114.088
110.697
114.111
103.098
128.882
105.953
130.393
116.766
127.974
119.405
122.148
117.810
109.450
132.966
125.361
130.814
132.883
148.771
105.882
104.373
106.086
121.735
109.031
131.624
108.987
148.086
116.068
121.734
101.630
123.544
150.030
111.371
117.014
147.256
124.806
108.215
103.597
129.972
118.119
123.290
117.801
125.411
151.685
142.725
136.946
118.711
128.355
149.796
107.175
136.260
106.221
132.225
149.991
108.897
144.788
153.092
137.690
153.080
108.914
139.275
110.604
108.040
147.532
145.556
141.903
139.649
122.361
140.224
152.651
146.036
117.609
149.931
138.313
135.492
146.125
150.640
139.641
128.628
106.480
133.388
114.470
118.769
137.640
102.989
127.926
115.106
129.847
129.383
149.697
124.219
138.429
117.127
143.285
129.298
103.262
135.454
143.864
108.682
120.966
147.441
117.761
151.268
123.933
148.945
111.688
122.974
110.419
151.793
116.298
135.498
127.347
132.066
114.574
112.808
112.625
112.047
111.547
104.053
134.438
143.789
131.950
132.283
143.522
128.486
116.932
104.324
149.426
146.185
115.762
144.780
127.527
129.018
108.989
124.007
108.309
135.226
122.303
141.448
142.145
103.390
102.997
141.049
135.331
127.649
105.402
118.868
101.688
102.384
108.499
148.325
104.620
136.290
152.527
149.006
115.389
136.448
147.903
121.118
117.197
135.254
102.944
130.657
117.643
131.271
109.741
117.285
122.326
146.302
104.268
125.962
129.555
115.636
150.867
152.493
121.868
110.007
132.028
139.855
124.735
107.766
127.866
134.229
118.776
137.508
123.352
111.214
121.871
133.492
134.167
118.840
117.747
122.399
110.387
133.782
107.438
123.882
143.534
145.870
141.654
117.399
141.408
136.584
125.789
131.865
145.272
116.012
136.565
145.512
104.794
117.360
106.885
138.983
111.304
129.859
113.353
133.251
117.774
104.770
146.881
113.585
103.581
118.842
108.645
124.458
125.764
111.002
137.657
122.954
121.102
133.246
152.959
149.910
121.092
115.530
124.837
126.263
103.266
140.495
113.746
118.781
140.822
122.838
133.008
136.888
129.965
106.873
140.667
112.516
136.843
135.057
135.959
108.782
117.676
123.736
134.251
140.208
147.453
144.821
111.336
145.830
108.458
128.386
120.055
104.610
134.337
114.038
125.842
117.232
138.258
122.398
117.347
150.931
116.198
151.487
139.721
102.123
152.365
107.188
136.627
143.361
111.036
146.934
146.010
146.260
136.556
149.671
140.187
112.654
111.628
152.477
106.751
125.397
146.413
112.514
147.268
116.017
136.764
113.924
111.350
105.316
132.413
102.682
107.129
127.014
105.970
116.290
139.300
105.248
139.554
113.245
120.744
108.629
136.531
152.967
109.804
114.820
142.650
143.368
131.299
127.721
124.322
139.418
105.879
132.850
131.596
149.054
143.620
134.239
147.169
118.021
141.657
131.370
153.034
152.841
152.351
141.089
102.325
128.515
108.428
121.151
108.540
152.368
148.920
147.807
119.829
125.747
103.744
151.423
146.154
143.777
133.629
148.579
121.621
123.537
126.233
130.015
149.716
132.240
152.055
143.385
115.417
152.535
109.955
150.471
122.155
120.488
131.458
148.806
121.275
138.487
147.834
119.219
149.608
124.927
145.639
120.274
113.861
126.298
102.111
105.607
117.613
118.839
113.214
148.645
123.908
133.091
112.812
139.142
142.523
118.479
122.737
141.318
125.568
134.047
114.051
142.183
125.914
119.176
133.184
145.697
109.272
146.647
123.935
108.655
113.171
132.024
134.940
111.903
119.857
123.009
104.513
139.204
139.980
105.516
113.120
133.738
145.104
138.122
114.725
133.437
129.277
120.486
109.053
129.184
138.639
141.489
119.379
129.665
146.000
148.526
129.732
101.964
111.810
142.938
109.758
119.969
119.583
107.883
111.196
143.669
111.727
140.963
145.157
102.582
121.254
137.294
138.694
137.413
147.035
101.606
150.832
105.890
138.351
143.622
149.836
138.819
128.106
134.673
127.698
106.571
144.126
135.796
152.943
144.943
122.950
107.929
134.556
128.416
142.632
101.407
151.990
139.073
109.402
135.453
121.919
112.842
125.138
116.868
131.373
110.020
106.506
115.379
111.338
106.497
111.683
140.549
150.282
107.504
132.850
152.790
127.882
126.991
139.946
104.374
150.883
152.602
135.652
126.519
121.017
127.263
141.428
117.970
148.167
111.682
113.347
122.972
140.592
140.418
117.208
137.049
131.655
146.591
115.545
131.340
114.698
120.846
121.438
129.844
120.712
118.275
146.335
107.349
109.960
150.698
127.403
131.194
114.267
148.372
146.977
143.562
114.920
126.545
132.336
148.147
120.714
127.853
108.743
109.634
151.837
123.798
130.033
102.244
150.749
127.649
134.856
147.504
107.613
115.379
150.242
124.744
152.322
130.871
125.652
111.664
119.113
111.364
147.155
146.987
151.549
112.993
148.938
118.942
121.255
106.941
123.006
129.853
131.997
148.711
125.624
141.478
115.862
151.770
111.470
146.835
136.737
137.024
147.358
111.355
115.120
117.551
108.867
133.993
143.902
131.200
113.448
148.465
145.763
141.620
115.810
151.681
138.092
142.950
108.382
117.724
142.860
145.853
145.073
135.635
151.722
144.887
120.913
146.776
101.346
108.037
105.490
144.614
124.981
107.033
117.290
118.415
107.185
125.177
117.094
104.418
152.594
107.087
104.114
149.018
116.272
122.640
120.902
118.261
136.731
133.653
152.087
102.512
124.554
103.736
124.511
109.450
110.641
127.735
114.438
148.234
127.291
148.608
144.478
125.709
143.434
134.788
151.454
102.064
138.179
125.233
152.758
148.060
124.586
117.545
126.359
106.046
151.602
143.231
134.545
135.287
124.094
103.848
107.046
152.729
131.677
128.473
108.401
103.436
105.886
141.677
141.183
125.549
101.485
120.381
124.500
148.247
118.639
137.788
150.586
146.286
135.000
146.855
129.178
119.767
135.155
111.078
124.032
106.964
111.136
141.173
117.905
138.017
147.860
149.566
107.140
123.776
111.757
111.313
131.748
106.156
124.494
119.670
117.801
104.705
125.007
109.413
114.622
127.498
124.757
119.567
145.320
108.739
120.506
135.756
123.413
106.454
112.996
145.296
148.502
112.227
134.965
109.945
113.187
121.435
109.489
147.372
104.631
124.542
127.444
108.187
121.061
138.538
102.060
103.932
129.012
120.757
137.372
118.335
101.262
110.311
122.100
136.756
147.644
128.238
123.270
119.828
128.035
125.814
102.138
131.565
123.493
141.943
134.169
112.661
146.222
130.262
127.614
106.063
149.011
129.060
118.633
141.969
149.100
134.661
123.110
126.769
137.790
118.225
117.601
109.989
106.161
110.775
117.040
109.899
108.109
130.889
151.112
121.073
123.408
107.224
128.338
129.246
150.484
115.139
128.216
126.524
136.162
141.319
113.952
143.803
141.150
148.526
151.996
137.289
108.359
111.216
133.064
146.490
138.873
136.352
137.201
133.702
120.248
146.138
108.464
101.284
116.058
124.720
126.540
129.907
127.024
136.649
115.143
104.114
101.631
118.397
149.492
110.083
146.703
131.302
146.995
104.118
105.760
131.109
118.114
102.091
127.804
138.772
107.383
106.174
120.112
135.864
108.807
116.056
135.614
109.708
117.892
106.741
109.062
106.379
149.974
102.344
109.559
151.688
148.527
148.052
148.619
130.900
149.193
109.325
121.713
102.024
140.025
113.211
123.494
145.687
115.215
110.545
147.084
111.800
106.569
131.682
102.679
119.673
117.414
129.813
142.970
110.042
106.694
131.625
138.158
150.265
139.203
108.935
108.969
134.568
137.256
152.003
144.340
108.263
129.888
148.627
147.711
118.589
106.001
113.980
145.312
122.450
118.234
104.587
125.683
132.967
116.931
126.722
128.790
106.820
101.315
105.851
122.329
102.871
108.619
116.118
109.354
126.862
102.544
116.125
143.167
151.563
150.018
139.859
105.956
128.295
126.977
131.338
145.129
123.035
105.385
109.135
143.917
102.132
121.843
143.923
120.806
117.465
141.656
118.904
132.017
117.330
116.880
142.645
151.692
114.670
144.171
139.213
113.680
113.437
140.002
129.566
120.448
147.728
148.288
119.622
130.022
150.317
138.334
139.973
148.935
127.394
101.703
128.984
120.861
121.286
141.527
131.543
117.207
151.055
131.418
126.276
104.826
103.119
112.759
142.023
109.940
112.197
103.679
119.929
127.359
121.508
115.475
134.048
133.094
102.028
132.087
106.618
132.473
111.406
138.877
110.309
120.566
102.378
138.573
102.901
106.857
148.289
139.163
152.265
145.722
133.581
124.492
147.608
114.436
112.739
109.171
104.455
108.091
109.849
118.049
132.553
122.511
124.305
118.640
125.002
125.315
144.819
119.289
116.441
148.159
138.993
106.510
127.140
109.845
116.229
103.078
116.526
150.831
133.394
124.260
113.362
107.864
144.527
107.138
139.836
125.862
148.484
151.053
148.464
140.303
128.942
118.306
146.886
102.212
117.485
148.492
109.189
127.568
120.870
101.972
136.494
139.648
104.188
110.782
145.605
129.507
150.357
117.397
132.993
131.698
132.788
103.790
113.587
104.179
102.511
133.197
132.220
138.403
106.791
136.649
137.360
126.643
121.221
120.161
127.593
137.344
152.349
136.574
107.101
123.883
152.182
147.254
140.749
133.614
146.935
132.835
129.432
112.677
127.746
103.826
133.441
138.083
145.210
140.416
137.807
150.086
108.243
150.093
132.141
142.119
132.946
125.509
140.213
150.063
134.362
138.029
106.516
103.309
