756.048
756.295
749.373
753.666
758.784
754.149
758.299
756.044
758.135
769.090
758.333
764.450
766.472
759.706
772.589
768.112
760.454
764.887
770.478
776.802
770.662
777.516
768.986
771.602
777.046
768.006
781.197
775.420
773.586
772.975
785.176
775.385
774.093
783.343
781.920
786.368
780.430
793.799
788.966
780.271
786.960
792.093
788.077
783.883
792.760
795.337
792.724
798.051
802.944
798.362
790.321
794.188
798.480
794.699
798.609
806.470
801.916
805.526
809.010
807.486
797.831
812.925
805.165
800.399
802.771
807.923
814.968
808.375
810.204
802.592
816.983
816.715
814.766
807.028
810.089
816.182
814.969
813.466
816.179
809.061
810.698
806.453
811.681
820.688
816.049
816.936
820.960
809.531
815.812
815.056
807.421
808.719
815.777
816.261
817.171
810.353
808.745
822.573
822.450
817.493
817.965
820.585
819.824
822.117
823.319
811.119
812.235
811.306
823.094
825.158
822.222
819.529
818.349
825.336
813.308
824.185
815.660
823.935
817.001
814.750
826.830
815.855
818.022
822.496
827.582
815.034
826.055
829.859
815.052
827.135
829.313
824.442
817.522
829.273
818.442
820.145
825.879
823.266
822.904
825.368
820.022
817.673
827.628
827.833
820.413
820.664
819.634
830.301
834.298
826.879
826.619
823.354
831.533
820.360
828.825
825.385
821.198
828.571
825.038
822.467
832.392
825.440
827.186
828.445
823.823
825.396
832.574
831.522
832.040
838.644
823.368
828.421
827.170
831.136
828.568
837.150
837.481
834.799
824.598
829.123
833.369
831.465
836.953
827.698
831.329
839.724
831.907
834.409
836.473
836.269
842.146
840.192
828.584
834.609
840.318
833.109
829.769
843.351
835.983
832.418
829.547
830.583
830.688
835.703
831.705
839.676
838.734
832.932
832.580
839.008
839.919
836.354
836.158
835.924
840.360
838.075
839.295
835.753
844.395
834.933
837.037
848.080
840.052
840.497
848.957
839.693
837.571
835.773
839.644
848.849
838.652
837.782
837.741
846.708
838.921
844.447
851.942
843.033
851.976
844.058
848.189
851.707
853.712
844.081
852.861
849.074
847.416
849.416
847.604
845.408
844.846
853.011
850.159
841.320
845.788
848.997
847.758
850.328
842.797
841.328
847.221
841.888
852.443
844.077
842.660
850.859
852.414
854.953
843.968
850.771
851.639
845.956
843.345
853.068
852.475
842.165
843.863
851.294
842.579
845.789
842.815
837.315
838.256
833.358
837.940
834.013
843.455
837.791
836.638
834.941
840.366
841.771
833.490
835.358
837.788
830.928
831.004
828.212
824.815
827.524
828.810
824.046
821.925
829.855
831.503
827.048
828.546
821.545
825.281
827.385
822.842
823.044
818.722
822.098
817.126
820.140
818.729
815.189
812.861
811.710
825.380
817.694
817.069
813.506
811.731
815.402
819.056
822.536
813.987
816.036
811.287
815.248
811.095
807.785
818.295
813.757
805.956
814.715
805.974
803.034
808.133
806.794
800.107
808.342
805.433
801.648
798.070
808.368
807.721
794.056
806.436
808.385
796.688
799.587
799.333
799.565
792.414
789.528
803.926
793.751
790.923
802.430
794.833
791.349
788.491
789.916
787.381
790.934
787.656
790.477
795.289
789.506
794.967
794.133
783.927
783.546
781.290
792.542
783.357
787.991
785.340
778.873
790.750
785.134
787.811
780.358
785.148
772.472
781.992
782.775
785.322
780.530
779.849
784.440
780.002
776.951
774.755
775.298
768.232
769.602
779.733
779.424
765.816
774.409
767.638
765.779
766.491
767.867
775.863
761.571
763.258
771.248
762.940
766.758
764.545
766.724
758.180
768.576
755.910
758.036
765.074
760.195
757.895
755.204
765.313
755.826
758.640
756.184
763.647
756.513
750.093
757.789
759.916
754.395
745.532
758.704
743.956
750.671
755.214
755.809
748.965
747.923
743.739
748.949
740.516
750.309
740.789
738.012
748.354
749.370
748.306
740.112
743.510
747.077
734.096
744.767
733.853
732.909
745.975
741.663
739.476
731.896
736.015
730.195
734.197
732.193
738.680
734.915
732.622
742.902
746.755
739.050
747.730
736.444
749.716
752.389
749.377
746.870
742.867
740.497
743.221
751.364
746.502
744.373
753.550
752.981
750.406
753.265
753.383
762.743
764.627
766.378
758.815
756.554
755.664
760.365
769.251
767.104
770.340
764.427
767.848
774.313
773.638
775.953
776.055
776.887
777.125
771.154
775.544
774.278
785.612
780.728
777.903
775.891
773.702
786.507
776.982
784.768
788.044
786.503
779.659
791.504
789.784
788.556
792.855
784.517
791.787
801.588
787.586
803.287
793.355
790.309
801.315
804.187
795.449
807.166
796.301
806.984
797.186
806.934
812.783
810.002
808.687
808.441
811.679
818.140
812.128
817.156
814.883
817.009
822.840
822.075
824.540
816.874
823.448
819.167
819.081
826.628
816.622
826.503
832.656
824.953
835.052
830.336
832.666
830.171
830.225
836.781
836.456
834.196
827.104
838.071
836.078
837.854
837.491
839.016
836.675
846.175
835.642
847.336
847.009
845.419
841.477
845.746
849.776
847.562
852.037
845.873
851.806
852.093
859.866
847.531
861.205
850.827
860.753
851.016
862.597
858.892
855.029
855.478
860.295
865.665
863.452
864.421
864.499
861.786
863.150
863.733
876.038
871.291
877.921
874.584
877.054
873.003
881.415
877.413
875.552
875.857
880.366
873.529
885.196
877.393
882.474
880.516
893.697
883.625
888.557
891.708
889.836
887.270
889.177
893.093
894.232
900.740
891.142
903.635
896.200
898.674
897.699
899.674
907.550
909.403
896.261
902.695
897.145
908.038
904.191
903.636
907.779
910.528
909.877
917.819
920.068
919.034
914.520
920.565
917.022
912.995
920.185
919.555
927.203
917.692
925.377
926.214
921.911
925.984
917.535
923.021
924.052
929.892
919.146
923.389
921.591
920.568
929.087
915.649
927.977
916.433
922.105
921.236
926.173
922.647
920.372
920.946
914.471
918.500
913.432
915.784
911.886
917.346
915.161
909.108
915.518
919.877
908.951
906.966
912.958
911.992
908.791
911.101
911.097
917.895
913.610
919.604
918.118
906.447
911.991
914.114
912.386
910.373
916.458
916.915
910.472
909.722
913.590
907.237
901.098
909.612
913.053
909.032
898.878
900.449
897.240
901.558
902.004
897.910
904.642
907.290
906.710
902.368
904.402
907.553
903.448
898.607
900.354
901.662
902.058
906.902
896.781
894.607
891.497
895.811
890.502
895.560
897.072
890.077
902.681
897.377
890.651
900.396
902.610
896.873
902.290
899.790
892.089
901.062
890.085
898.959
892.678
896.586
894.269
889.647
893.936
884.323
888.314
897.273
890.591
895.543
891.741
887.464
888.898
886.667
895.779
888.069
895.150
879.605
891.231
878.799
882.259
891.637
883.464
882.200
884.005
884.193
886.030
890.185
877.115
889.861
886.024
888.985
885.614
886.621
885.687
874.196
874.936
874.205
883.502
886.518
872.993
874.731
878.138
881.656
869.918
884.777
876.213
873.342
880.402
869.104
876.714
877.342
877.322
881.431
879.323
875.498
877.571
880.247
867.103
873.159
876.241
865.096
873.455
869.818
878.717
871.429
866.266
874.467
861.869
862.129
867.194
871.359
869.109
873.353
863.386
860.565
871.857
860.962
869.962
865.250
863.608
859.803
865.177
867.881
864.578
869.827
856.236
863.895
867.511
868.316
855.439
854.091
862.909
861.838
855.740
854.956
858.649
862.491
859.979
863.293
856.599
866.179
852.319
865.560
862.353
851.603
855.061
850.216
856.731
857.469
849.070
852.017
858.315
844.831
851.232
852.464
840.622
842.303
853.924
852.782
852.735
836.495
850.888
836.173
840.345
841.978
839.366
833.147
844.037
841.617
828.916
829.945
831.087
829.908
838.213
828.942
825.663
827.601
830.035
821.792
826.265
833.672
821.502
827.260
828.122
817.068
824.334
814.759
812.150
812.158
817.557
813.510
818.118
821.494
821.871
809.518
807.494
807.293
812.982
806.622
806.860
806.001
811.007
814.367
798.941
812.333
807.962
799.964
809.433
798.106
797.950
801.506
804.036
796.126
799.358
791.575
790.958
798.111
790.003
795.052
784.195
795.506
790.720
790.138
783.406
786.158
789.983
784.909
789.931
787.505
776.951
779.657
781.477
787.519
778.584
770.940
783.846
769.765
768.350
768.175
768.388
777.892
768.314
774.993
771.943
768.712
764.280
764.660
767.855
759.922
768.311
767.014
764.334
756.259
757.543
753.226
766.577
756.476
755.700
748.765
762.018
751.965
761.708
751.720
752.624
758.675
752.526
754.710
755.902
752.197
751.289
752.276
744.746
738.749
737.946
744.031
743.734
741.963
736.481
739.642
733.052
731.478
740.321
737.428
727.165
732.794
729.201
729.818
724.172
737.726
734.602
728.128
733.365
727.670
728.122
725.515
729.844
717.694
722.709
721.647
712.721
713.672
712.048
713.693
721.317
717.068
710.579
715.504
720.943
704.809
714.669
717.526
701.918
702.635
712.916
701.686
699.935
705.518
707.702
705.354
698.779
704.323
695.294
697.941
695.987
697.908
689.824
698.278
695.073
687.906
698.879
687.889
697.561
694.136
697.567
688.526
681.648
679.384
681.647
690.534
689.785
690.069
684.434
686.318
680.153
678.048
681.350
686.134
687.148
682.712
673.614
685.087
688.077
678.196
679.635
684.917
681.434
691.149
691.748
695.263
691.221
685.685
692.787
691.207
695.424
691.396
693.789
697.557
695.158
695.577
698.716
698.883
705.759
706.768
700.669
703.667
707.509
710.037
709.319
715.290
712.788
705.232
703.030
710.597
714.113
721.462
721.236
719.015
719.757
718.402
712.151
716.690
718.920
721.365
715.066
721.571
729.239
722.085
721.834
731.440
727.932
726.501
734.694
730.116
736.130
728.412
732.126
726.660
739.669
734.766
744.769
739.582
735.602
744.524
741.328
736.775
742.905
747.640
746.320
737.980
750.665
743.717
754.875
745.858
743.778
750.090
751.123
754.758
757.820
754.278
761.678
753.449
756.087
759.276
753.447
753.756
754.175
765.977
762.227
756.880
758.153
771.487
773.812
772.980
767.089
772.067
768.860
765.106
776.720
765.534
766.383
780.330
782.736
774.120
785.315
783.078
779.912
783.404
781.257
780.838
783.166
779.998
778.733
787.364
782.376
791.720
788.264
784.305
787.019
792.827
794.361
795.520
799.693
803.283
797.342
791.514
795.428
804.385
806.561
804.093
808.532
803.604
807.650
806.263
802.983
800.740
804.931
803.826
804.057
811.332
812.593
810.536
808.888
807.097
813.595
813.960
813.848
820.999
823.293
821.697
821.214
827.421
815.306
816.507
823.604
818.343
824.711
832.054
834.932
832.099
826.957
838.351
826.066
825.343
829.260
832.157
835.243
837.594
830.190
843.934
835.018
832.021
846.369
834.789
840.074
846.087
850.591
849.217
839.925
841.289
851.090
842.601
846.441
850.879
845.074
851.755
855.743
850.552
849.896
855.958
858.992
866.403
867.022
857.578
857.586
861.832
860.366
864.969
859.208
865.868
864.499
866.388
872.776
864.732
866.536
869.475
871.369
885.743
880.367
873.640
876.127
890.590
877.089
883.584
879.499
887.062
891.965
895.739
886.378
892.307
891.352
900.928
900.122
896.534
899.802
898.895
903.801
909.810
900.452
913.016
909.402
909.849
916.330
914.478
915.294
912.692
910.537
924.265
927.674
914.338
928.374
918.331
923.926
921.801
928.006
925.615
934.615
936.078
933.440
942.868
936.749
933.359
937.814
945.620
945.000
935.624
945.438
951.420
944.922
952.228
954.849
958.204
960.633
956.896
961.785
958.912
962.085
958.069
963.435
963.471
958.280
965.962
969.996
967.343
974.251
970.795
966.733
969.270
981.011
980.677
978.302
977.166
977.205
986.977
979.258
982.460
987.100
992.567
980.935
996.411
992.002
985.999
1001.052
996.763
997.027
1004.927
1001.783
1000.736
997.364
1010.341
1002.285
1006.408
1014.635
1011.522
1015.132
1017.238
1019.534
1008.264
1020.684
1018.957
1026.704
1016.912
1015.076
1028.727
1028.010
1024.287
1026.166
1027.804
1030.572
1029.882
1025.135
1025.899
1033.587
1044.205
1032.966
1042.888
1043.623
1040.899
1037.029
1040.874
1041.338
1049.574
1052.453
1049.397
1055.193
1050.586
1058.495
1060.344
1063.547
1063.001
1055.258
1068.684
1069.719
1063.899
1070.850
1070.865
1070.850
1072.557
1073.242
1077.981
1069.116
1081.776
1070.116
1085.167
1082.331
1075.600
1080.851
1080.447
1089.761
1092.688
1081.087
1088.537
1084.349
1086.002
1099.826
1092.168
1101.700
1090.675
1103.663
1093.009
1105.123
1100.431
1105.980
1107.716
1109.115
1104.752
1106.931
1114.467
1116.144
1110.680
1106.583
1115.762
1121.204
1113.083
1124.317
1115.079
1120.321
1117.887
1128.350
1133.435
1133.199
1136.982
1125.437
1131.625
1134.356
1141.898
1131.103
1138.129
1144.607
1138.969
1141.103
1129.307
1138.104
1126.397
1123.063
1126.821
1128.679
1123.145
1128.294
1131.472
1119.025
1121.529
1123.652
1125.030
1126.807
1115.791
1123.150
1110.246
1117.576
1106.310
1111.987
1118.781
1112.465
1102.973
1107.690
1104.084
1098.501
1101.971
1111.335
1107.919
1105.252
1099.338
1101.723
1099.961
1095.677
1096.317
1096.427
1100.073
1090.500
1091.013
1083.303
1095.534
1086.934
1091.121
1093.483
1085.597
1084.662
1076.306
1087.994
1077.061
1077.692
1084.460
1075.131
1078.171
1081.920
1075.138
1067.266
1067.707
1064.634
1074.839
1071.615
1066.676
1062.758
1061.258
1063.467
1061.316
1057.468
1068.376
1064.317
1058.301
1065.111
1060.993
1060.238
1057.208
1053.162
1047.165
1056.142
1055.193
1045.092
1047.370
1051.516
1053.441
1039.976
1049.758
1049.108
1047.403
1040.006
1044.666
1038.084
1037.621
1040.100
1036.386
1032.326
1038.811
1036.354
1026.382
1027.206
1025.968
1021.824
1029.089
1022.392
1017.298
1018.901
1028.432
1014.295
1014.763
1020.057
1019.571
1015.848
1020.933
1016.543
1017.840
1016.514
1010.337
1016.774
1005.145
1006.641
1000.314
1008.581
1010.208
1004.095
997.391
1006.652
1008.188
1000.107
1002.455
1002.379
991.256
992.385
1000.969
985.540
994.938
997.187
985.394
987.815
995.680
994.676
988.747
987.765
978.601
986.440
985.098
985.763
981.652
980.759
972.370
979.653
968.724
974.226
973.107
971.439
974.915
968.904
968.259
972.756
966.522
961.507
971.619
964.626
960.893
956.027
960.548
952.342
952.768
951.441
962.194
954.864
958.301
949.563
958.801
947.300
946.728
952.431
952.316
942.643
943.575
945.177
937.046
946.309
944.444
935.718
942.475
933.976
932.793
928.498
935.302
939.210
927.869
937.512
933.508
924.507
923.738
929.802
925.356
923.590
924.529
919.626
917.465
917.907
917.328
913.534
900.912
901.597
909.903
898.981
900.307
897.823
894.772
880.558
881.405
875.851
879.619
877.083
871.756
874.253
869.614
860.386
857.935
847.409
855.075
848.559
842.217
834.970
846.751
829.580
840.229
830.788
822.507
832.111
824.153
811.798
820.412
813.899
810.118
804.688
801.595
799.378
797.727
792.091
793.308
791.603
776.462
775.294
776.888
777.982
775.306
764.719
767.187
764.941
757.740
757.887
759.572
749.692
747.645
742.428
741.329
742.766
729.992
728.892
730.639
722.467
727.565
713.249
709.428
718.079
702.367
710.825
703.732
694.946
696.266
687.725
689.686
680.269
685.151
682.138
681.372
675.669
677.002
662.381
671.639
669.677
666.770
649.769
646.214
649.938
640.374
641.748
637.911
629.417
627.443
629.339
633.296
626.732
616.482
611.142
621.113
610.460
609.396
606.094
602.856
594.760
601.863
594.249
584.196
586.954
586.585
574.298
570.049
575.267
565.555
570.813
567.071
565.502
558.088
549.377
551.796
546.792
539.362
537.786
536.922
537.539
532.444
537.899
521.530
519.797
521.599
515.204
507.804
516.935
507.846
499.772
510.165
494.428
498.222
496.827
490.238
480.001
479.102
484.033
477.686
471.941
474.580
462.376
467.051
466.753
455.343
451.033
454.798
444.912
453.470
447.660
436.347
431.737
440.433
427.831
425.299
424.175
425.826
426.622
409.805
408.848
405.149
400.935
406.331
401.650
399.947
388.685
385.557
383.107
377.194
379.241
373.196
370.124
377.775
376.368
366.607
358.430
357.700
354.410
354.892
347.481
341.498
342.091
334.899
330.362
331.908
332.577
322.616
321.826
319.611
324.584
307.887
305.174
312.120
309.082
308.446
301.243
163.439
157.480
167.671
186.791
171.862
216.520
231.978
212.112
161.481
165.431
212.476
233.068
176.841
189.145
225.943
170.173
197.212
156.773
187.592
183.595
194.005
154.326
157.462
226.400
218.995
227.111
188.399
185.011
181.804
206.527
209.133
158.528
199.114
208.768
173.820
154.081
176.098
178.598
201.887
192.701
191.266
154.168
164.193
192.835
215.805
217.255
197.701
171.993
199.787
223.752
159.917
204.377
202.821
192.995
214.015
227.404
226.510
153.287
179.249
194.456
223.765
198.165
221.363
198.112
222.752
151.462
186.414
177.519
162.655
225.886
169.692
167.319
203.628
226.155
184.877
151.208
230.451
208.390
227.791
201.061
193.712
229.103
175.041
174.640
200.457
183.668
211.862
214.670
232.496
201.427
162.743
172.605
193.092
200.942
183.170
201.998
199.349
226.870
233.271
166.320
122.203
97.906
120.243
121.395
97.636
127.025
127.979
119.124
109.796
127.427
122.678
118.864
124.255
113.367
84.538
87.529
127.053
107.928
108.734
93.441
113.203
107.328
101.062
112.944
88.490
106.089
124.256
126.907
88.192
85.786
122.838
112.057
109.287
99.739
114.789
