692.736
701.465
701.203
689.043
688.898
692.654
699.503
692.064
696.591
698.297
688.265
689.037
690.855
699.410
692.169
701.089
694.953
690.169
687.779
690.360
699.706
697.561
701.582
695.114
687.446
699.764
686.532
698.340
695.842
699.612
697.968
700.784
693.910
696.430
690.709
689.810
692.674
697.170
686.657
693.824
687.562
699.843
686.184
686.055
685.508
696.190
690.731
688.943
694.998
684.745
691.560
693.228
698.349
697.599
686.875
694.435
689.024
697.703
687.564
687.321
691.614
684.106
696.361
691.220
692.411
686.000
688.709
683.704
696.174
691.069
683.517
694.580
683.641
689.608
687.315
685.099
684.081
688.805
690.182
689.634
683.081
693.540
688.081
683.331
689.019
693.676
690.869
694.467
692.076
690.059
688.437
694.986
681.663
687.339
679.703
679.973
691.523
682.933
687.843
685.986
687.322
684.183
688.847
691.247
681.794
685.612
691.817
689.105
685.608
681.639
683.242
692.312
681.627
686.564
689.725
685.379
680.794
682.563
689.803
677.866
682.533
688.164
691.897
692.178
691.851
682.122
690.400
676.603
686.151
678.220
689.179
685.270
689.952
691.225
684.626
687.524
688.184
687.598
683.922
679.955
680.060
690.984
683.163
681.361
682.540
681.114
676.297
681.022
680.692
685.857
682.011
691.503
678.115
689.625
690.404
687.543
682.450
686.161
693.223
686.283
685.888
693.446
695.953
688.220
689.194
703.926
697.618
699.534
705.220
703.816
697.921
700.150
696.616
703.895
708.219
706.454
708.304
711.479
705.839
710.838
703.075
706.466
715.192
712.119
712.392
718.658
717.765
709.585
724.727
725.145
715.067
718.303
722.480
724.647
716.115
719.704
722.138
724.626
726.431
729.148
732.223
735.304
731.109
735.784
728.008
737.277
732.726
735.977
739.123
743.033
732.425
741.088
732.601
744.218
736.484
739.746
739.757
747.602
739.793
741.709
748.048
743.214
744.435
756.507
746.945
744.772
753.589
752.267
747.216
746.473
758.883
758.764
749.185
764.737
765.117
758.026
765.691
769.326
760.104
758.576
764.460
771.008
764.043
773.228
771.521
772.216
768.403
764.058
766.582
769.542
777.955
773.919
779.442
780.724
779.576
784.979
777.235
778.860
772.499
774.269
783.177
774.971
785.905
781.065
781.628
790.056
793.693
783.943
793.505
786.341
794.750
798.155
796.976
785.527
789.609
802.211
796.008
796.374
805.671
793.536
794.234
797.408
801.741
802.208
802.984
798.614
810.095
813.387
804.371
801.642
801.946
813.244
804.639
814.809
816.867
812.346
817.176
810.865
809.776
816.598
815.603
823.512
826.865
818.269
819.447
815.681
827.122
828.495
824.273
826.222
832.744
823.361
822.198
831.598
828.017
826.106
836.990
832.296
831.040
833.937
843.173
837.551
832.384
831.548
845.316
844.415
837.807
849.503
842.614
846.882
839.447
850.852
846.684
847.707
844.255
846.724
852.572
848.556
858.847
856.966
851.302
851.005
851.359
848.036
859.936
859.354
866.021
855.778
852.900
853.617
858.791
862.789
861.051
860.724
859.368
857.318
859.349
857.938
864.921
857.467
864.144
852.027
855.729
854.421
849.016
856.987
857.584
853.274
846.095
847.481
850.652
857.943
853.601
849.680
844.995
844.487
848.067
845.004
845.343
853.183
842.919
844.858
849.351
846.009
843.042
850.332
850.838
854.330
853.326
853.747
847.321
853.310
852.577
841.033
841.536
848.064
842.742
839.571
841.423
837.956
847.149
837.564
847.508
847.762
835.093
835.999
848.856
847.660
841.857
844.343
842.953
833.703
841.159
845.769
833.421
844.206
840.222
838.018
837.878
843.708
839.238
831.178
842.542
838.331
842.705
843.253
832.455
835.101
835.228
830.691
842.144
840.341
827.801
836.000
825.442
824.995
828.743
831.780
833.696
826.373
828.097
835.184
823.428
836.502
823.096
828.723
830.815
829.941
823.516
825.852
825.815
833.707
824.205
820.047
826.161
828.073
823.271
833.678
821.601
819.020
820.882
832.526
831.616
824.440
826.584
826.031
830.054
829.213
822.937
826.020
824.483
815.993
823.035
825.040
815.519
821.443
821.908
820.077
822.548
821.158
812.979
825.260
810.909
815.910
819.055
809.607
819.331
818.896
814.964
818.122
811.507
820.969
812.800
807.013
818.905
820.692
806.167
806.049
808.444
806.115
816.639
815.834
810.066
817.180
818.524
808.039
808.456
809.857
816.705
809.651
815.254
811.378
812.966
814.339
806.294
811.720
815.252
803.758
808.056
808.109
807.898
808.299
807.712
807.474
797.512
802.067
797.316
809.989
809.173
810.930
806.534
807.654
809.885
803.365
802.010
800.869
798.477
796.426
807.275
802.537
801.883
796.352
807.106
798.169
805.276
790.794
791.963
793.709
804.840
803.115
798.945
789.730
800.419
791.671
799.024
789.353
788.911
785.871
797.963
785.467
791.030
794.957
783.412
785.124
795.544
783.511
789.114
794.502
786.460
788.549
788.286
779.099
790.195
790.042
786.024
785.473
779.409
789.740
784.018
787.585
776.867
787.283
785.340
776.540
774.300
775.474
770.593
773.594
769.448
780.436
779.923
781.654
766.837
770.458
764.610
774.858
764.053
770.405
770.104
763.784
763.017
762.164
760.414
765.033
761.657
770.339
762.237
768.916
764.195
767.844
756.460
767.575
768.250
757.983
763.499
761.523
754.712
761.452
761.254
755.440
757.544
759.066
759.152
757.706
751.663
750.541
751.895
757.438
752.989
756.836
750.554
756.744
745.351
753.250
754.990
755.744
744.411
749.296
741.331
754.824
747.161
753.099
748.135
737.936
739.383
739.212
743.978
739.534
745.943
741.151
742.664
748.853
739.178
738.981
735.103
745.867
744.134
737.938
730.473
737.317
730.834
734.306
733.263
739.942
730.134
736.651
740.661
731.944
729.355
732.481
722.859
724.662
735.991
731.193
735.613
735.781
733.144
720.676
718.563
719.339
724.000
728.970
729.877
724.208
724.922
716.534
715.309
727.057
714.946
719.328
713.051
712.390
712.882
710.596
715.150
715.656
715.330
715.634
722.708
709.665
716.143
715.384
719.521
715.844
715.828
718.983
705.004
708.899
717.184
711.338
708.113
714.642
714.188
705.797
706.407
708.053
699.957
712.660
712.301
700.049
709.794
701.313
709.353
706.412
695.921
695.861
707.395
700.379
693.814
701.590
699.697
704.367
689.303
693.655
689.567
687.642
695.549
691.948
693.897
691.278
689.567
699.104
690.340
691.408
694.572
689.036
684.017
686.084
684.985
696.390
681.968
684.541
684.719
693.494
689.067
702.000
692.613
700.350
700.187
693.709
701.874
695.439
700.796
707.708
700.427
695.904
706.859
711.056
709.104
701.843
704.251
713.476
709.888
714.410
709.602
708.342
708.057
706.061
721.320
722.251
723.243
711.244
718.258
714.052
712.407
725.499
722.696
713.538
727.063
729.311
720.438
719.492
725.117
732.187
719.512
733.812
730.667
732.704
734.375
732.310
737.926
740.882
728.736
740.502
731.033
737.903
730.599
738.590
733.825
744.309
733.215
743.396
745.594
748.082
745.108
740.699
749.379
741.965
743.756
753.577
745.353
746.809
744.717
752.317
759.557
753.971
753.631
753.350
761.616
764.861
753.401
752.356
760.885
752.685
764.230
755.580
756.394
762.920
757.381
768.064
766.999
761.595
773.629
767.253
762.965
768.680
777.112
766.441
768.992
772.247
774.246
783.073
773.941
782.706
784.782
778.696
784.241
778.540
779.960
783.146
780.594
789.292
782.396
780.938
788.697
792.562
787.889
793.009
782.403
795.631
790.775
798.247
786.081
790.493
791.150
790.185
790.977
792.204
804.628
794.793
799.477
795.224
801.357
796.261
807.164
801.219
808.415
803.989
811.200
813.767
816.109
812.410
804.095
812.259
816.645
817.370
812.468
815.682
808.720
824.421
821.363
826.178
812.251
823.000
824.808
819.914
830.086
824.879
828.007
820.284
833.721
829.755
825.716
834.638
821.458
835.373
823.403
826.304
828.299
828.508
828.723
833.458
828.472
830.414
836.391
840.565
835.080
833.137
848.763
845.759
838.022
839.807
842.443
840.867
840.912
842.703
841.128
844.662
857.355
854.988
856.604
848.533
858.501
852.099
848.783
850.306
858.827
864.049
851.188
858.733
855.360
856.291
846.106
858.190
853.990
847.184
846.448
853.028
842.500
835.777
835.844
843.781
837.056
829.460
833.372
837.845
837.383
824.640
836.557
834.729
831.520
818.986
821.762
824.814
813.600
824.816
823.931
820.935
817.421
818.653
811.299
815.790
810.898
812.009
813.769
806.594
806.114
795.577
799.402
795.906
792.391
795.474
789.133
789.384
795.364
796.360
791.916
791.152
794.324
785.277
781.238
782.101
787.873
775.829
773.186
772.421
777.901
768.979
767.424
767.977
762.342
771.030
759.081
765.662
771.246
761.462
754.254
755.295
765.605
751.875
751.100
758.006
745.701
745.824
743.204
745.041
752.337
744.259
735.983
745.498
733.186
739.132
743.394
734.244
736.066
740.255
726.617
734.896
722.092
720.148
733.345
730.419
730.875
720.762
726.727
718.258
715.232
708.248
713.369
720.447
705.750
708.750
705.403
707.505
704.201
709.896
707.741
703.128
704.929
701.551
690.997
690.445
694.441
686.436
687.073
693.398
688.557
694.008
685.938
677.592
681.175
675.184
676.039
680.852
674.289
668.373
666.434
679.917
677.733
675.699
672.067
667.776
661.573
662.167
656.822
655.641
666.148
666.258
649.423
663.472
646.769
659.337
657.617
642.035
655.048
653.251
642.871
643.649
650.344
645.964
644.061
640.453
630.313
630.099
636.110
629.451
628.390
626.355
633.904
631.301
621.204
622.337
628.730
613.777
625.512
612.527
614.537
622.541
617.695
612.152
615.417
612.115
615.356
600.972
600.148
604.677
606.757
607.588
592.025
594.261
602.473
593.326
591.544
598.162
597.494
589.989
584.063
594.168
585.023
582.446
576.493
575.335
580.315
585.597
575.923
572.026
569.389
571.724
565.254
569.959
570.118
572.028
577.400
570.179
570.145
568.335
576.390
566.701
572.022
570.476
568.290
569.635
572.509
568.430
576.788
576.934
567.925
579.325
575.265
573.876
580.908
572.189
567.350
573.493
566.369
567.727
569.177
581.141
577.497
581.643
577.290
571.188
576.428
569.350
578.329
572.972
569.816
577.504
583.374
580.265
569.265
576.144
581.410
570.025
571.592
573.575
584.001
576.742
580.636
579.181
569.900
578.288
583.336
570.411
585.731
583.600
585.252
578.694
580.147
573.575
585.570
573.638
579.900
571.441
571.543
585.101
582.995
582.833
587.308
573.360
573.661
587.665
576.980
582.108
574.784
574.357
577.797
582.535
588.226
583.790
573.835
573.938
580.207
589.611
579.458
585.869
589.746
580.119
576.953
575.468
575.274
577.497
580.968
582.276
585.445
584.956
587.831
580.090
578.150
578.578
588.108
579.760
579.643
580.026
590.778
580.770
592.402
580.186
581.500
587.726
582.148
592.964
590.453
588.821
593.228
593.045
586.989
585.855
589.991
584.058
583.797
593.215
583.933
592.811
588.538
579.543
591.901
584.540
589.950
586.962
589.964
589.419
580.740
582.994
590.962
595.720
587.407
585.829
590.056
596.040
587.073
583.496
585.758
590.214
582.702
585.303
588.191
595.678
587.665
591.787
586.135
584.967
590.131
593.701
598.488
593.825
586.209
597.878
588.767
590.718
592.932
592.335
591.200
596.267
596.000
592.700
595.489
591.389
597.014
596.779
600.329
593.589
587.790
585.705
592.078
595.739
589.457
590.010
599.777
588.105
586.871
589.920
597.935
589.370
600.491
598.727
587.014
601.116
601.056
591.717
596.021
600.868
598.278
594.872
589.714
592.555
592.923
593.349
594.579
601.716
593.996
596.774
587.727
582.634
586.285
583.499
577.896
575.968
579.810
576.948
570.238
567.838
569.181
568.800
569.827
563.420
565.275
552.744
552.318
554.115
550.066
553.183
538.610
548.051
547.662
543.974
538.743
538.889
529.786
524.736
532.471
526.886
524.869
520.639
522.679
521.431
511.274
517.317
507.460
507.236
512.244
502.147
498.097
506.004
500.688
497.185
499.403
500.617
492.270
488.061
486.698
487.085
481.762
485.142
485.700
484.428
468.389
475.374
467.790
470.411
464.365
456.555
459.112
463.324
458.413
454.332
446.342
444.669
451.742
451.154
438.570
438.813
443.226
436.109
441.800
439.763
427.430
431.029
435.491
426.688
417.861
417.435
423.946
409.915
408.174
408.176
417.873
402.684
400.290
404.972
410.406
398.948
393.269
401.892
392.432
386.520
389.226
392.004
381.024
389.676
388.150
382.634
381.192
369.698
369.801
374.951
364.403
373.261
366.794
370.382
359.367
363.614
357.525
347.944
357.969
346.432
346.384
339.806
336.277
340.191
334.283
329.799
329.496
338.083
335.071
325.517
323.336
320.320
328.278
326.420
316.884
314.744
320.334
313.765
314.934
315.537
308.253
311.626
304.023
299.511
303.637
293.863
298.893
289.357
292.898
280.159
287.714
284.398
276.461
274.309
269.426
270.228
272.404
270.181
260.983
260.246
258.862
257.527
257.416
259.597
253.081
257.266
252.570
251.882
247.397
251.692
247.596
238.811
232.748
230.063
235.869
233.147
222.866
224.423
230.826
222.909
222.392
223.847
210.312
211.477
211.538
212.534
214.269
203.774
208.475
207.601
200.389
193.764
196.289
202.546
194.641
198.300
188.789
189.602
190.287
186.004
178.926
183.227
182.595
167.892
174.568
175.157
176.489
178.589
170.153
174.702
168.248
174.895
165.950
165.739
170.141
169.757
170.353
168.679
172.097
173.663
171.357
167.736
160.588
157.765
156.936
158.190
169.293
156.083
166.894
166.195
166.377
161.387
155.509
166.105
163.857
163.910
164.523
165.313
149.989
156.632
159.906
157.954
152.135
158.280
146.016
148.434
157.602
152.690
147.511
152.318
146.841
149.244
148.469
146.905
154.553
147.684
154.445
151.188
144.496
152.460
137.441
143.143
144.289
142.141
150.306
145.112
135.156
149.076
146.720
140.885
142.857
132.983
139.014
134.927
131.235
130.228
129.586
135.855
128.087
134.318
127.458
136.724
132.214
137.605
129.537
133.874
126.780
123.823
126.249
134.548
134.931
124.412
130.928
125.272
125.213
132.483
413.067
398.384
402.723
395.368
401.139
383.136
391.942
418.159
399.405
414.812
407.840
391.983
405.643
373.017
393.742
380.826
365.455
367.542
377.740
361.888
360.980
368.514
383.742
368.571
344.369
386.377
367.081
358.822
364.162
375.688
383.534
369.290
356.330
330.242
329.058
372.449
326.176
368.119
367.129
365.486
322.132
335.926
323.871
318.771
346.160
357.793
340.040
318.761
324.754
322.894
313.542
315.036
326.809
308.695
311.104
291.575
329.235
292.464
294.265
314.942
285.806
294.910
317.521
290.218
285.961
307.158
286.098
282.768
310.796
267.194
302.785
290.671
279.069
298.681
264.041
271.426
280.454
294.795
270.825
291.977
249.264
250.381
283.074
262.681
272.130
239.843
250.270
274.604
244.207
260.467
242.342
252.530
278.718
273.244
274.932
269.265
262.233
219.163
240.398
266.326
220.304
229.394
227.825
255.922
226.564
236.899
138.416
141.485
127.483
118.835
95.624
137.564
126.269
120.344
97.695
121.401
144.682
103.403
103.127
113.197
109.121
131.599
116.532
116.273
139.170
101.784
96.766
116.641
130.375
129.183
114.623
96.108
144.435
124.785
123.178
133.647
110.835
136.431
126.817
138.700
101.784
127.329
102.500
95.502
102.953
137.146
94.807
107.617
121.058
128.452
125.457
134.176
137.956
141.765
111.998
144.149
139.830
111.598
101.232
127.913
118.677
142.605
115.235
99.499
124.442
107.519
96.753
116.680
129.372
98.759
125.078
100.375
134.447
112.184
115.750
128.472
99.732
132.967
130.469
126.685
103.954
116.489
143.822
119.280
137.002
101.655
101.227
99.274
141.663
123.388
117.846
113.178
145.257
109.275
103.527
121.014
124.468
101.516
140.497
121.406
131.101
111.014
127.952
133.883
144.663
138.437
103.024
133.247
110.151
108.765
127.872
111.089
107.041
97.948
104.077
110.578
102.035
109.771
131.645
124.299
146.252
136.833
108.718
139.077
129.015
97.829
136.501
134.039
141.767
145.298
138.390
127.979
103.505
121.063
106.703
144.158
132.455
116.348
141.968
99.058
139.693
96.879
139.790
111.363
115.835
132.698
127.226
118.805
110.979
137.095
106.801
139.842
125.851
139.400
119.772
140.874
120.921
102.978
135.450
105.611
128.326
144.848
138.760
103.576
133.967
136.182
111.112
121.528
117.760
123.499
128.866
112.994
135.960
121.815
98.699
142.831
135.223
103.805
145.701
116.700
135.839
125.115
98.807
107.575
103.137
135.264
123.963
96.807
137.388
103.338
137.916
133.445
117.085
98.102
127.257
98.503
122.176
123.623
122.890
121.768
106.333
134.948
117.963
137.737
115.945
128.919
117.662
122.430
134.404
135.198
122.840
131.798
98.482
133.458
120.538
108.947
113.057
106.074
101.513
105.744
105.393
95.306
94.369
139.827
105.566
106.904
124.188
94.844
132.764
144.390
126.472
103.949
136.003
121.159
113.907
111.457
135.329
103.945
133.532
124.243
131.842
132.763
139.560
133.157
108.345
101.666
103.207
114.556
106.068
109.886
115.426
95.770
113.725
141.585
121.837
107.662
141.297
122.445
