823.346
829.086
831.567
819.985
825.046
819.359
828.225
827.573
829.331
819.904
829.931
823.126
827.460
824.505
823.991
832.062
816.997
824.964
821.469
821.958
817.206
819.782
815.333
822.369
821.592
827.738
824.350
817.108
828.368
814.316
813.350
823.624
826.959
815.467
813.676
824.093
811.531
815.514
813.124
819.110
822.905
822.521
815.448
814.009
811.599
807.661
812.869
818.239
810.538
821.805
817.261
810.757
819.225
807.220
811.325
808.487
807.334
811.577
813.881
803.496
817.976
816.782
805.516
810.661
809.889
807.646
805.646
803.876
811.378
804.887
803.954
803.088
809.929
814.927
799.128
806.587
807.587
811.282
805.096
803.062
812.833
807.923
805.406
811.918
804.779
802.618
803.428
803.672
802.641
800.077
800.382
807.902
794.106
804.204
798.264
802.226
806.069
793.513
807.340
791.820
798.693
796.471
801.771
793.353
798.834
798.388
799.108
794.768
801.073
792.348
791.775
794.048
791.893
801.895
798.496
790.659
796.660
790.438
798.107
790.439
791.352
789.232
785.800
789.656
793.113
797.309
784.788
786.646
790.549
797.648
784.237
786.265
783.593
788.374
784.877
783.981
791.987
780.588
795.941
789.664
781.246
778.876
779.893
777.360
778.182
778.318
779.570
780.832
773.465
772.793
778.414
775.263
782.243
784.296
775.418
771.697
774.825
777.911
770.440
769.714
778.328
773.224
773.675
766.968
762.503
765.213
760.321
763.066
768.284
762.411
762.397
756.634
766.816
760.748
766.419
766.141
752.396
763.455
763.481
757.034
759.173
755.616
753.903
748.528
760.529
756.170
759.154
746.505
745.742
752.516
741.866
744.961
744.364
745.902
738.394
752.631
748.006
740.043
736.666
744.126
737.143
738.276
739.755
739.374
732.422
735.665
740.548
741.714
732.760
732.588
729.309
739.408
726.883
733.013
725.455
735.458
732.945
720.751
724.909
734.627
729.579
717.387
728.240
731.517
725.480
723.089
715.520
716.641
723.404
724.591
710.778
715.368
713.634
713.732
717.901
709.736
720.219
720.203
704.691
705.604
704.518
716.247
701.784
711.920
713.010
707.954
703.364
712.137
708.582
708.895
700.563
695.650
706.137
708.920
707.023
705.612
696.860
690.671
693.056
694.420
689.489
701.768
686.439
689.853
694.397
697.948
684.720
697.522
688.419
687.644
693.687
681.445
682.021
678.392
685.949
688.393
685.161
675.834
675.107
685.026
684.549
672.764
678.938
682.007
676.264
684.423
671.402
681.756
670.195
666.834
673.838
676.733
671.164
669.110
664.896
674.378
675.046
662.517
659.914
664.106
660.779
659.718
670.354
666.600
667.763
665.204
653.016
659.947
656.273
658.518
659.229
661.851
654.222
662.143
651.038
648.532
659.193
651.105
650.656
650.683
644.172
654.653
648.916
654.357
650.097
638.381
650.221
638.934
646.187
636.881
643.460
638.447
639.322
632.482
637.768
636.296
645.069
636.321
631.995
638.234
641.289
632.312
631.043
630.778
640.114
642.344
631.239
628.898
635.512
631.539
639.512
641.806
637.663
633.028
639.956
632.365
637.918
629.210
638.760
634.201
635.818
634.458
629.155
637.122
630.942
630.826
628.252
635.519
627.378
639.177
634.209
625.055
636.088
636.012
625.964
625.953
639.165
628.702
631.674
636.809
639.074
634.952
631.579
639.407
639.194
626.113
629.827
630.087
627.542
633.837
633.738
637.044
634.398
631.555
624.833
627.044
625.482
626.120
625.254
622.267
627.292
631.537
622.596
635.133
634.417
632.183
631.239
626.220
627.346
635.948
622.535
623.504
628.578
631.203
629.985
635.055
635.942
630.746
630.048
629.699
632.123
626.935
628.773
620.460
630.912
635.599
620.762
633.313
624.516
630.225
625.465
623.200
621.779
625.736
631.187
624.447
634.632
628.850
627.198
634.104
634.329
625.302
629.277
627.707
632.482
626.737
623.791
628.343
619.565
618.872
629.235
630.370
623.690
617.393
631.928
630.313
620.737
624.704
630.760
618.885
619.481
619.996
630.190
621.292
617.537
626.503
623.416
624.405
626.495
620.729
620.724
624.690
629.253
630.348
617.867
618.984
618.168
628.000
618.288
616.458
621.037
617.303
623.259
629.513
625.079
616.397
628.694
629.215
624.917
620.861
629.284
620.847
616.145
619.732
619.047
618.608
620.782
616.678
615.824
617.117
623.699
624.976
615.767
614.316
619.544
622.003
625.032
619.014
615.113
616.841
614.656
623.288
627.028
620.491
618.026
618.732
623.206
618.792
613.385
624.930
618.321
618.257
618.650
615.487
619.871
612.410
624.249
616.080
619.852
622.737
616.309
620.218
615.633
621.844
614.031
611.944
618.205
616.900
619.995
610.347
615.568
620.274
614.578
626.587
631.582
620.634
628.742
626.951
629.393
636.373
624.427
626.619
640.706
636.982
640.925
634.443
644.423
640.843
647.739
646.871
639.324
643.182
654.558
650.435
643.955
646.373
646.045
652.195
652.148
657.622
651.456
652.199
661.249
660.941
662.926
663.105
664.554
671.538
662.003
668.350
669.344
676.495
677.996
668.211
684.324
684.340
678.406
676.762
684.749
685.765
682.144
685.431
688.257
694.034
693.635
684.085
689.723
694.486
688.209
699.816
693.049
693.068
701.072
694.942
710.133
703.311
713.373
702.477
702.730
703.482
715.480
719.762
720.321
718.984
720.211
717.201
725.709
714.662
729.009
730.378
717.928
729.706
719.638
733.863
724.019
726.333
732.182
739.353
738.685
740.699
742.533
743.018
733.974
748.420
747.915
747.031
738.068
753.515
749.750
742.671
748.891
751.249
756.976
748.987
758.593
760.215
752.784
762.971
753.568
756.731
763.707
757.822
766.076
761.258
771.919
764.477
766.130
772.164
776.723
768.713
771.204
774.164
777.631
777.540
786.817
782.236
780.009
787.435
792.136
792.306
788.365
797.862
795.467
800.714
794.718
794.914
794.745
799.299
807.210
796.556
805.955
801.149
811.576
814.126
802.980
802.577
806.377
803.680
813.991
820.288
811.104
816.465
813.051
825.802
823.617
824.874
828.438
824.516
823.746
824.315
835.826
834.512
837.479
831.095
833.885
828.510
843.792
838.063
834.722
841.558
839.837
847.410
850.815
852.248
852.107
842.694
847.131
854.079
849.873
852.951
861.184
855.474
853.707
858.912
857.429
854.009
857.063
863.793
859.118
864.971
874.172
867.743
875.929
869.997
873.263
878.200
877.443
884.453
875.720
877.288
879.770
876.877
873.190
872.404
876.837
873.748
877.145
873.239
871.429
864.198
876.132
868.660
870.992
871.439
859.936
860.117
868.723
859.158
859.531
868.792
865.935
856.430
866.116
852.724
865.227
850.484
850.695
863.327
862.186
851.809
859.800
857.646
846.877
855.743
845.102
844.214
842.136
850.736
843.783
840.808
850.619
839.042
841.729
846.909
833.672
846.583
839.271
845.461
837.797
844.687
840.112
842.896
830.758
829.659
829.305
838.573
837.411
838.430
824.560
830.764
820.967
826.176
833.982
832.379
826.010
822.145
825.511
826.158
828.665
818.365
818.977
824.430
809.701
818.372
814.577
821.969
812.027
813.440
807.755
818.703
809.029
803.814
810.594
812.916
805.100
809.908
799.518
811.821
799.372
806.882
807.516
806.208
807.488
800.946
798.667
801.223
793.774
800.918
796.850
795.479
796.587
786.221
790.071
786.683
784.150
796.641
788.408
779.938
789.998
786.605
785.410
777.925
786.808
775.409
783.028
781.738
782.262
783.918
782.086
774.598
771.671
768.043
774.022
773.802
775.329
766.951
775.350
764.005
765.572
767.917
771.567
773.781
767.010
766.709
769.582
769.318
767.451
762.044
767.791
755.928
753.997
758.507
757.207
750.354
750.556
748.837
759.946
747.695
751.214
747.977
755.269
747.391
744.122
754.515
742.973
741.332
749.511
744.209
742.741
748.098
750.491
748.036
742.322
746.722
743.146
737.999
740.550
744.354
738.437
729.900
740.249
737.841
726.776
730.009
724.670
723.372
725.945
721.214
719.782
724.282
732.785
722.486
731.822
719.920
722.624
720.722
727.602
719.665
718.671
720.255
710.314
720.004
720.948
709.747
716.290
715.844
705.182
718.092
707.358
717.120
702.297
704.715
703.725
710.242
704.928
707.946
707.452
705.919
704.222
701.556
711.849
704.984
708.930
699.867
706.877
707.265
706.499
695.525
708.433
699.126
694.180
695.069
700.470
695.286
697.447
705.133
694.810
690.981
689.826
690.651
700.779
696.251
691.116
697.359
692.611
701.373
698.909
700.756
690.449
695.357
700.037
691.792
684.420
691.905
691.497
687.884
694.396
687.563
693.099
696.982
680.905
683.684
680.386
689.170
685.931
694.406
689.570
689.031
679.655
686.663
677.977
689.064
685.108
689.004
679.084
688.192
683.164
676.186
684.172
685.809
688.279
682.478
677.646
673.566
671.900
682.982
676.670
683.953
672.197
683.038
673.325
672.750
675.515
682.689
670.313
679.982
679.607
674.341
667.274
666.534
664.759
675.459
678.545
677.269
666.530
665.621
669.757
661.838
667.455
670.136
670.097
673.534
666.092
668.777
666.435
673.375
660.510
670.057
667.613
663.192
663.025
658.511
669.223
659.092
664.157
667.054
667.591
656.204
664.584
658.863
659.303
654.305
652.964
657.251
657.924
662.581
653.176
657.805
655.549
657.005
658.592
653.358
656.228
648.011
654.677
651.413
657.752
652.333
658.388
650.661
654.989
647.976
643.521
649.740
657.770
648.801
655.634
646.920
643.465
647.805
640.895
641.892
644.277
654.421
644.545
653.506
644.565
642.343
646.487
639.508
636.330
642.792
646.625
641.370
645.024
648.617
642.953
633.980
646.769
637.186
634.465
640.643
632.036
636.802
642.072
643.250
639.753
631.078
641.211
631.537
637.091
628.049
640.852
641.272
633.945
627.708
633.250
637.908
625.322
637.254
628.547
625.147
636.297
624.982
629.688
629.475
627.556
621.037
634.642
66.217
68.998
75.169
80.620
76.131
82.739
63.595
70.268
62.406
58.560
77.986
64.741
66.052
59.428
65.220
67.537
60.395
70.094
68.026
59.304
76.551
57.987
66.320
67.354
77.615
66.916
83.360
67.138
70.818
57.127
82.706
60.287
77.520
81.814
83.302
78.637
82.742
68.788
73.581
74.779
71.364
66.229
71.490
63.925
68.622
72.868
81.178
227.950
221.137
269.455
203.503
260.415
205.222
244.560
275.519
243.410
226.124
203.359
243.720
187.506
214.957
245.277
220.763
212.045
206.222
251.578
266.531
190.679
246.394
187.064
187.117
207.977
251.600
269.470
257.198
227.621
215.034
222.946
229.811
233.267
247.495
205.257
262.426
185.098
209.884
267.295
217.032
182.230
243.812
200.273
245.150
253.872
232.360
225.226
187.463
273.303
190.961
222.462
219.379
211.977
108.713
113.447
106.996
102.350
127.336
134.916
119.008
106.274
102.250
119.481
102.874
124.887
141.579
124.229
150.009
123.402
112.186
124.657
109.800
147.721
143.157
111.080
137.093
136.263
116.962
131.287
149.758
115.998
117.162
111.073
112.891
129.119
145.051
106.594
129.851
128.095
142.683
133.159
142.841
103.229
143.523
123.287
114.396
103.960
128.180
101.319
120.709
141.031
114.826
127.255
137.875
125.636
150.610
128.386
111.196
147.761
131.390
129.903
114.705
124.223
113.090
152.221
144.262
103.660
144.719
112.534
139.713
134.464
148.053
129.139
108.500
119.839
146.685
103.440
114.272
116.485
127.242
105.343
107.639
146.442
109.654
144.122
103.109
102.549
137.098
132.390
151.615
126.018
139.568
105.288
107.117
122.328
106.218
142.009
139.002
119.346
120.448
146.917
147.642
135.536
135.520
109.470
134.908
124.364
102.455
124.821
113.614
113.702
118.320
121.858
145.978
146.287
137.415
113.534
113.761
110.268
140.581
114.608
113.222
136.103
118.022
106.092
109.603
142.412
103.085
121.267
141.654
109.545
114.172
150.181
115.477
110.968
129.169
118.420
111.691
137.224
109.064
121.830
135.370
133.298
112.700
134.930
146.465
113.948
109.398
133.247
111.460
117.078
108.186
111.606
128.664
143.591
135.108
119.979
128.008
131.529
120.722
126.696
118.896
131.585
130.565
105.877
138.389
117.911
117.471
151.270
134.651
125.302
101.770
108.669
101.639
125.673
133.549
133.152
141.066
107.149
135.732
132.897
118.678
143.142
116.130
152.190
142.722
151.843
108.325
138.664
120.535
126.077
105.374
146.897
107.515
147.271
126.401
102.655
123.374
107.752
132.998
108.846
142.534
112.050
140.990
140.389
150.914
132.753
152.333
150.516
102.832
152.058
117.187
124.593
106.947
109.575
133.718
123.145
122.236
119.833
151.862
125.987
119.399
115.968
120.114
146.865
135.047
110.504
130.130
145.556
121.525
128.828
121.234
152.586
140.031
114.265
132.659
122.152
110.260
130.973
138.319
112.522
131.111
144.682
108.008
146.591
110.363
113.784
101.715
109.208
118.872
123.774
109.589
130.955
133.172
141.995
135.981
120.716
135.889
136.551
109.788
111.175
106.314
104.508
122.921
141.585
120.146
104.399
129.194
137.206
152.244
116.931
120.534
150.348
147.927
106.143
146.911
140.449
140.341
121.666
118.540
122.265
150.550
149.002
112.570
131.374
132.026
150.475
106.709
121.314
112.423
139.739
143.437
111.598
104.624
102.503
138.413
113.015
146.051
121.884
104.462
108.759
134.013
137.193
122.150
110.051
112.206
123.304
131.360
111.683
127.026
141.042
147.577
146.961
117.871
139.213
119.915
133.143
106.946
136.228
106.852
113.807
140.005
114.737
102.445
109.974
128.377
140.424
137.773
139.836
143.216
102.392
127.839
107.623
146.591
143.575
151.992
142.998
143.342
134.855
127.183
146.913
152.910
137.671
140.242
119.526
103.654
105.464
114.345
137.395
108.512
107.251
121.971
129.210
148.476
130.600
112.981
120.237
149.553
115.529
119.886
101.391
141.563
113.158
133.965
135.139
139.448
117.368
125.368
111.379
120.949
133.704
120.858
135.000
129.784
130.011
111.285
110.052
146.153
119.158
106.444
117.452
141.209
142.015
144.930
150.515
111.222
144.232
107.177
112.944
115.538
107.889
137.216
126.677
147.906
138.412
144.091
147.549
142.247
116.297
126.737
133.637
124.243
128.794
121.772
108.171
123.005
139.402
147.711
127.318
131.635
118.488
136.493
152.681
107.529
104.692
133.464
111.789
112.382
101.703
143.271
106.112
151.366
116.375
141.675
102.034
112.650
141.009
132.239
125.181
101.886
132.064
142.319
141.230
132.055
151.175
125.639
139.009
128.261
138.285
124.746
130.055
119.781
113.930
101.201
116.775
141.009
107.135
151.127
129.145
126.358
111.195
102.692
116.390
144.549
141.066
145.895
149.870
142.345
116.921
138.542
105.617
145.042
149.818
113.721
142.034
140.763
106.507
142.771
107.018
106.557
122.273
143.327
111.806
102.848
107.924
150.782
130.406
124.318
151.155
145.615
107.989
133.956
124.866
143.338
118.593
103.611
102.499
152.779
138.048
101.580
116.455
133.701
128.554
103.444
124.583
104.718
105.209
118.427
107.221
139.222
148.164
133.938
114.068
106.507
103.469
125.135
106.630
122.852
127.119
125.236
124.733
127.465
134.183
129.033
151.679
136.157
112.939
152.026
110.758
118.877
125.021
101.214
131.302
151.700
106.313
106.590
126.379
114.820
148.287
117.404
123.086
144.979
122.425
134.470
117.457
112.870
108.229
116.257
117.512
149.108
127.998
123.374
108.639
102.808
118.698
115.861
124.111
147.410
144.510
114.136
115.357
133.061
117.883
142.682
101.698
116.989
127.328
147.670
138.019
128.461
130.498
118.086
152.490
139.940
150.463
120.880
120.140
138.278
142.387
147.094
104.538
151.380
114.467
113.533
109.260
103.800
137.291
116.475
139.159
104.592
132.039
101.869
110.044
147.302
135.877
123.031
147.372
150.535
135.001
123.877
135.451
124.753
136.281
112.552
132.148
138.741
110.506
139.136
107.530
103.855
101.517
105.029
131.678
130.399
143.978
101.527
111.112
139.613
130.471
118.235
145.448
139.878
148.465
129.972
149.826
134.140
140.898
150.614
128.408
119.454
113.536
114.102
146.943
133.207
106.550
104.649
106.308
103.022
146.317
142.607
110.914
138.942
122.232
142.060
138.043
125.722
148.712
120.492
136.237
144.851
148.983
123.633
103.222
117.404
150.988
144.475
118.329
140.210
131.809
121.023
126.143
109.717
112.117
111.886
106.040
131.488
124.946
125.496
151.038
122.183
144.156
105.225
121.405
106.019
128.967
136.266
133.373
150.366
152.966
115.470
104.207
116.373
145.830
102.802
133.344
147.970
126.019
104.345
132.222
125.263
132.516
139.582
148.566
148.547
131.260
108.221
103.365
126.362
142.533
105.447
106.704
102.225
124.435
129.447
130.663
135.510
128.439
111.338
116.685
124.374
114.184
116.323
109.337
105.605
132.450
136.288
127.340
122.988
116.297
142.492
143.215
125.605
132.871
142.247
140.585
142.428
123.509
152.911
123.001
146.686
133.340
144.391
134.579
143.990
112.738
135.653
135.760
148.524
120.723
149.972
136.690
135.101
115.996
128.515
139.810
108.484
105.561
145.461
144.257
112.503
110.956
141.110
125.980
130.746
114.251
150.418
115.969
118.779
134.337
131.429
114.618
103.788
150.352
121.891
132.684
120.009
112.503
130.201
152.663
128.433
127.710
148.329
105.630
108.115
