649.951
660.306
665.475
666.467
655.303
665.875
667.820
662.830
660.306
661.044
666.424
674.400
667.245
671.612
667.067
673.564
667.253
670.025
673.333
684.609
671.371
676.153
684.967
677.306
686.032
687.649
687.149
688.597
689.646
681.381
694.823
683.516
690.908
688.082
697.214
689.515
698.121
701.669
694.111
703.797
694.376
702.924
697.244
708.343
704.336
707.405
711.425
710.630
702.777
706.292
705.778
711.759
707.297
712.243
710.793
713.991
708.606
710.369
717.322
711.121
715.179
723.040
716.544
729.936
730.085
719.491
726.162
724.187
722.088
732.731
725.232
738.020
739.378
734.687
728.876
736.771
737.134
741.135
731.423
734.023
745.441
745.623
736.922
742.348
746.135
741.583
746.366
748.977
751.366
743.352
747.116
744.497
755.054
747.255
754.384
748.444
755.837
750.571
754.210
764.684
766.978
770.004
755.653
765.685
758.046
771.987
768.898
765.230
762.122
774.331
766.657
767.549
779.850
779.111
772.207
782.974
771.354
773.100
774.258
773.868
783.158
785.039
776.506
779.172
790.382
790.748
783.084
793.063
782.780
793.458
789.490
795.820
791.691
791.029
795.317
798.117
796.326
799.856
805.039
799.625
799.760
809.572
809.287
802.088
815.218
811.836
808.946
814.292
816.513
808.044
816.448
807.573
811.583
818.246
812.826
823.788
827.492
816.688
826.459
826.572
818.586
818.168
818.901
828.541
823.438
823.734
820.842
826.526
824.463
830.634
829.708
835.542
838.004
833.242
828.439
829.418
828.290
829.649
835.295
831.028
828.583
839.425
838.980
844.845
840.987
832.310
835.749
845.152
844.700
847.367
843.147
839.674
840.847
842.110
846.507
838.601
840.891
846.428
844.102
853.032
847.740
842.400
843.401
848.420
852.204
854.918
854.844
852.498
855.516
857.101
861.788
854.053
851.297
859.675
861.968
861.154
852.222
865.170
865.616
857.008
860.843
859.469
857.833
871.317
865.113
859.349
860.586
866.353
860.637
860.686
864.749
863.693
877.311
868.422
865.954
871.400
866.146
880.498
867.589
875.188
867.238
878.536
868.164
873.121
871.169
872.033
872.384
872.434
871.955
884.412
872.902
883.414
877.193
887.994
880.951
886.828
885.539
891.881
880.262
886.954
882.188
889.028
888.444
896.275
894.650
883.506
883.712
892.967
887.253
894.966
892.998
887.082
887.962
890.102
888.906
890.983
893.114
895.972
899.889
904.284
896.303
902.544
896.586
898.073
897.515
898.474
906.113
909.519
897.292
913.456
905.422
906.604
910.648
910.260
912.260
917.125
918.048
906.671
905.376
915.665
918.526
908.987
915.953
918.541
911.436
921.787
915.295
910.204
910.592
922.152
917.333
921.943
914.521
914.711
923.825
918.566
920.282
929.204
921.549
924.391
922.897
925.289
928.120
922.902
934.164
927.157
935.552
932.466
937.219
925.362
924.121
930.205
931.513
934.439
932.628
933.143
937.160
942.204
931.346
942.363
936.494
931.364
941.448
945.555
932.798
937.011
940.155
944.525
948.193
936.680
943.159
948.733
946.156
952.410
954.012
943.315
942.344
954.377
954.323
946.866
956.990
948.839
940.320
952.799
939.336
945.065
945.222
940.125
942.705
942.498
946.388
947.677
933.254
945.118
940.205
941.679
939.862
934.387
939.881
944.259
929.017
935.140
935.090
929.040
928.758
934.586
926.719
926.227
927.241
927.169
930.392
931.621
923.046
931.017
929.822
922.075
921.512
923.255
918.485
921.863
920.455
918.409
913.758
920.999
924.600
912.233
920.366
913.643
923.493
921.791
918.107
912.144
911.351
917.374
914.724
918.988
910.768
907.270
911.406
902.761
912.197
906.760
910.102
911.936
899.041
899.545
897.504
906.803
905.515
893.850
897.561
894.870
904.765
901.249
890.988
901.096
898.316
899.636
891.356
894.489
896.245
888.382
894.985
887.438
890.212
886.017
883.685
892.801
888.658
893.749
880.513
878.621
881.717
887.808
878.823
879.091
883.536
876.191
881.830
886.735
872.138
881.831
880.144
881.711
871.786
880.661
876.518
873.753
872.876
872.759
867.288
873.047
864.706
876.091
877.972
863.993
876.239
872.590
873.860
863.041
869.887
860.003
863.291
868.906
861.712
867.764
863.970
858.455
864.799
857.096
856.511
854.913
855.895
856.043
851.126
855.751
848.639
856.165
847.266
847.029
845.477
845.070
850.892
854.946
855.048
848.748
848.339
852.634
843.729
850.173
847.741
852.185
849.526
836.779
849.767
836.477
839.873
835.711
842.313
838.743
840.471
834.731
829.473
844.049
829.366
829.485
829.959
828.530
836.499
835.512
830.300
832.102
830.390
836.042
830.460
827.198
821.713
832.875
822.655
827.219
824.069
825.453
815.730
826.700
817.937
816.730
824.092
812.589
825.022
820.672
815.411
813.253
823.421
814.014
810.247
815.922
813.832
805.022
804.515
805.309
808.780
812.180
817.504
820.482
819.154
825.393
822.863
824.241
820.537
833.879
821.928
824.418
834.730
826.239
829.485
842.153
835.487
832.354
847.929
848.278
836.299
842.688
851.100
849.593
856.916
843.860
846.699
859.014
858.935
858.836
866.792
866.950
866.314
871.219
873.406
859.987
876.056
869.664
871.358
870.102
868.957
872.794
877.659
887.264
881.541
875.344
885.987
893.031
888.076
893.631
894.955
886.674
893.943
893.063
903.331
899.878
903.073
907.385
901.978
907.049
910.375
912.893
913.965
904.199
918.530
916.625
917.373
918.363
913.471
912.899
922.201
919.841
926.177
927.656
927.970
926.294
938.313
925.683
940.281
927.940
938.104
934.215
943.418
946.619
941.073
938.486
945.060
941.211
941.748
956.936
951.749
962.005
960.527
955.421
961.299
968.246
956.681
961.999
964.968
962.449
974.619
977.366
965.554
972.630
982.081
978.712
973.710
987.132
984.552
985.593
985.559
989.423
981.984
993.205
990.689
991.835
997.582
998.304
995.018
1005.407
991.856
999.479
1003.254
1000.261
1010.402
1011.899
1003.184
1018.272
1014.110
1020.526
1017.592
1019.806
1025.000
1021.688
1018.662
1024.259
1019.517
1030.893
1021.073
1030.628
1029.750
1039.463
1040.693
1030.996
1035.844
1030.884
1041.806
1041.009
1041.181
1042.850
1052.504
1048.479
1055.664
1053.204
1054.761
1061.348
1054.472
1051.642
1061.797
1064.854
1056.026
1057.384
1068.341
1067.144
1065.129
1072.440
1072.411
1077.998
1075.004
1083.338
1070.401
1073.471
1081.065
1079.968
1079.671
1090.879
1085.709
1081.506
1081.621
1089.389
1092.372
1095.612
1096.826
1094.802
1093.152
1100.981
1095.897
1106.673
1100.529
1107.697
1102.717
1108.459
1119.057
1113.015
1111.711
1114.378
1118.051
1115.006
1122.176
1121.379
1118.115
1125.471
1122.388
1125.717
1125.476
1115.421
1111.465
1112.102
1108.837
1118.336
1108.088
1107.775
1116.374
1118.302
1114.363
1109.023
1109.276
1117.594
1113.846
1113.284
1103.043
1105.866
1113.498
1105.565
1112.962
1114.509
1098.871
1103.754
1097.702
1105.615
1109.416
1099.029
1104.826
1097.992
1103.904
1099.814
1097.583
1101.504
1102.798
1095.945
1092.539
1094.357
1104.318
1098.463
1099.013
1097.771
1094.178
1095.976
1098.156
1085.607
1094.432
1088.477
1083.796
1093.910
1090.569
1081.332
1083.702
1086.455
1088.388
1086.063
1081.321
1081.520
1088.058
1087.298
1077.011
1084.112
1086.375
1083.535
1073.360
1075.777
1081.704
1085.919
1071.228
1081.940
1072.767
1082.487
1082.874
1079.765
1073.241
1069.635
1080.915
1073.682
1074.691
1076.722
1073.543
1076.920
1066.312
1065.180
1062.048
1067.227
1065.409
1067.204
1061.818
1065.938
1067.103
1065.106
1070.466
1056.136
1066.707
1056.622
1055.913
1069.224
1056.019
1054.919
1059.981
1057.554
1059.606
1054.505
1049.365
1050.660
1056.324
1052.271
1060.608
1052.393
1050.363
1054.807
1057.849
1046.670
1043.253
1050.805
1050.046
1053.968
1050.345
1053.470
1045.866
1040.883
1051.645
1046.894
1051.150
1052.128
1041.160
1040.924
1049.259
1036.541
1035.237
1042.504
1045.026
1033.048
1037.067
1037.534
1032.509
1034.226
1035.632
1037.930
1035.476
1040.133
1034.474
1040.623
1030.372
1033.132
1030.782
1034.593
1029.805
1025.643
1023.977
1034.113
1020.915
1032.681
1019.419
1028.867
1033.574
1021.018
1030.633
1024.644
1019.160
1021.052
1027.476
1021.721
1015.037
1019.290
1020.351
1024.738
1026.737
1023.752
1014.851
1014.656
1011.981
1011.004
1007.844
1012.840
1014.031
1016.166
1005.195
1006.941
1019.730
1014.344
1009.343
1007.210
1010.487
1003.204
1010.364
1005.733
1000.754
1008.578
1008.295
1003.531
1006.466
1006.601
997.812
1009.344
1008.540
997.196
998.278
991.733
999.888
999.718
994.058
996.736
997.307
990.955
986.374
987.336
982.901
991.155
988.224
989.515
978.745
981.820
977.795
979.724
979.684
978.887
975.907
970.804
974.705
981.614
970.557
977.659
975.339
972.288
972.243
969.486
964.846
970.108
957.564
964.932
965.271
957.150
962.419
960.871
962.179
951.916
958.018
959.857
947.021
944.232
946.575
949.591
944.332
946.563
941.122
946.063
949.156
949.597
937.946
947.109
939.955
938.540
933.990
930.026
932.885
934.457
929.849
930.167
923.648
929.052
928.878
933.948
928.486
919.869
916.958
916.461
922.702
917.041
916.484
925.013
915.641
912.923
910.480
908.082
910.431
917.162
916.247
913.280
908.066
913.489
897.171
902.018
904.694
894.074
899.776
900.775
904.478
902.648
895.170
893.769
901.570
898.794
890.549
894.877
881.830
893.520
888.084
886.602
887.004
876.960
878.148
888.354
874.255
875.790
871.363
873.979
878.576
877.959
875.657
870.337
875.268
876.508
876.831
874.815
867.502
864.287
863.504
862.359
855.856
856.668
854.911
851.777
864.869
853.301
860.667
854.285
856.554
853.812
844.054
847.473
851.563
843.921
839.449
847.754
850.339
838.802
841.761
834.284
836.805
844.390
839.763
833.791
833.996
841.429
830.152
828.329
827.245
824.485
826.517
827.008
824.484
826.292
817.471
825.486
822.812
828.046
816.081
811.390
812.022
816.104
813.266
817.152
814.738
811.255
811.814
810.052
810.276
801.940
808.246
800.004
804.625
802.204
794.635
801.843
800.108
802.164
804.091
790.526
801.415
794.828
796.400
785.113
793.418
782.679
784.327
783.402
783.364
788.605
786.908
785.226
784.647
788.063
775.384
776.512
781.605
774.380
769.290
768.806
764.596
770.332
757.380
752.552
763.239
760.203
760.336
753.353
755.794
749.093
737.756
746.931
747.344
740.520
729.963
736.859
732.277
726.388
721.986
732.304
727.119
728.666
716.939
721.863
714.878
708.450
704.521
700.411
708.755
702.645
705.719
703.171
694.263
699.505
687.791
682.326
693.090
682.207
680.468
687.541
685.820
670.707
672.599
670.331
672.012
671.676
673.578
656.057
660.213
660.897
664.090
659.448
647.009
654.739
655.604
650.976
650.100
648.465
635.507
641.716
630.317
628.197
630.339
627.140
619.448
627.779
625.801
618.508
616.550
614.824
613.250
607.578
614.280
600.641
596.689
599.656
605.991
596.425
595.439
599.372
584.188
583.602
588.552
591.065
576.115
579.424
570.202
572.149
577.584
567.048
574.946
567.778
559.656
569.807
562.152
554.696
559.584
555.284
544.109
555.997
540.574
549.550
536.262
535.579
531.267
543.159
531.958
534.147
525.834
525.293
522.399
525.518
528.267
525.394
517.699
515.246
516.140
505.835
512.840
506.287
495.684
506.093
504.629
501.391
488.672
498.253
485.776
490.101
479.378
488.450
487.072
484.528
481.963
475.692
470.628
474.271
475.598
473.376
459.481
464.533
466.053
453.580
456.748
458.635
449.608
442.616
447.405
441.589
436.043
439.808
443.512
439.897
431.174
427.300
427.405
433.126
421.729
414.816
415.412
410.777
420.104
419.733
403.817
404.118
400.848
405.733
407.280
400.861
391.064
388.036
398.560
387.148
395.646
388.399
391.306
386.954
382.512
371.155
373.868
374.513
366.633
366.500
368.685
367.783
356.689
353.731
356.268
361.244
361.322
345.197
346.703
340.735
342.725
346.987
332.859
213.297
152.990
214.788
216.269
171.201
177.688
230.073
191.285
183.843
197.064
176.757
227.774
221.594
228.754
216.892
163.424
173.041
188.451
177.861
187.891
226.943
189.925
172.789
230.479
160.781
167.077
195.661
164.312
219.014
202.470
210.741
202.567
164.180
151.543
226.055
218.261
196.448
201.441
177.425
158.500
153.093
154.076
208.525
208.052
227.633
185.867
233.216
164.413
212.994
177.367
168.640
181.790
189.744
194.390
179.893
190.509
192.950
175.691
185.170
197.166
227.232
172.838
177.372
192.205
187.431
154.313
183.272
199.766
160.955
199.655
195.660
198.295
184.238
184.622
231.498
151.453
228.992
177.348
231.028
203.745
230.869
161.058
185.665
182.634
230.488
197.998
170.871
185.613
182.602
159.945
229.416
184.089
230.685
199.885
165.584
175.672
168.267
192.145
217.149
193.916
121.415
92.766
121.645
121.645
100.063
111.522
115.279
101.632
101.814
127.631
119.551
85.396
101.429
87.158
112.562
93.436
128.492
124.884
97.439
122.927
103.000
91.667
102.399
111.210
100.484
107.393
128.651
117.857
111.222
88.619
84.530
114.916
113.045
122.571
92.553
92.087
115.805
100.215
94.713
102.375
121.837
104.916
105.579
126.084
107.218
97.600
111.019
124.047
101.053
85.074
87.417
85.160
121.446
95.834
91.493
106.648
114.701
100.546
117.670
126.310
122.362
93.072
94.786
114.285
129.475
121.801
102.124
95.986
116.363
127.968
125.969
98.609
108.217
83.898
84.692
104.606
121.267
95.598
88.262
84.068
93.698
113.163
99.136
109.655
111.826
102.018
115.802
117.311
88.791
108.124
98.757
127.936
90.409
99.545
122.223
107.140
110.255
115.741
123.143
127.517
94.056
89.221
100.241
98.424
112.980
92.796
103.642
128.145
104.218
108.256
100.572
117.709
91.846
87.345
102.805
87.135
114.386
93.190
104.257
105.967
119.355
88.299
116.863
88.104
104.709
84.636
123.136
104.213
127.418
87.852
114.116
125.691
86.263
98.476
119.275
122.460
101.210
106.025
117.471
114.327
94.992
124.741
90.390
124.134
115.700
125.203
127.214
112.982
92.961
113.181
119.329
112.246
103.028
96.711
84.812
109.389
90.776
96.540
100.941
110.120
118.677
110.255
88.442
122.371
104.604
87.273
93.117
117.909
109.485
125.628
127.177
116.293
104.802
127.789
112.039
95.657
100.241
128.088
128.310
121.632
119.137
108.857
128.065
127.988
114.753
108.539
108.590
95.424
115.213
122.814
126.907
97.464
86.810
97.534
93.349
89.453
108.525
88.920
107.357
114.739
95.949
106.438
126.447
89.596
96.162
120.597
102.206
85.374
88.935
88.802
129.344
119.053
106.731
86.485
89.519
85.557
85.702
93.686
86.616
111.263
91.936
123.293
89.101
103.010
127.425
118.629
97.065
118.656
113.802
87.229
99.531
125.562
92.388
108.623
88.527
90.494
93.920
121.338
100.732
116.593
124.432
110.517
105.831
105.434
105.538
112.476
123.899
114.286
129.399
88.688
102.690
93.692
121.393
90.342
84.879
94.808
85.457
124.367
120.693
129.359
117.655
98.932
110.826
118.134
120.906
105.410
93.971
129.704
110.174
97.248
120.253
94.748
108.024
127.736
118.849
87.974
110.611
94.511
103.744
101.693
101.817
90.313
96.788
84.244
100.259
95.524
93.034
97.600
120.951
85.365
112.034
87.900
102.458
110.091
104.544
118.987
102.431
122.257
110.520
109.876
129.441
121.196
90.909
89.802
124.415
110.903
90.923
93.685
106.805
114.649
95.823
96.589
106.809
101.671
122.079
112.590
109.702
124.304
90.092
114.869
123.330
114.905
85.754
115.176
126.422
112.364
96.290
99.493
113.106
109.287
107.514
121.816
124.283
119.685
105.288
105.130
115.657
110.694
110.649
112.268
129.726
86.094
112.114
101.247
124.560
106.198
113.262
115.169
115.676
114.681
98.517
129.498
97.005
87.909
123.733
98.712
101.342
89.176
83.976
96.278
127.714
89.096
106.884
110.200
98.378
87.678
95.222
122.507
122.263
87.734
85.735
122.373
102.525
109.426
87.594
99.888
111.484
119.859
116.823
99.186
86.881
128.417
87.583
95.770
111.304
88.854
88.959
109.123
88.805
105.380
89.012
104.998
104.679
86.244
89.531
95.841
104.690
122.200
113.381
114.605
98.790
117.935
112.681
97.006
102.026
115.608
112.065
106.026
84.620
114.795
104.491
96.607
113.463
94.342
84.035
88.715
100.979
129.794
99.093
86.762
88.073
88.571
101.346
94.937
86.047
109.758
97.845
103.973
106.574
84.886
86.263
100.003
116.722
101.009
115.042
101.851
110.216
100.075
128.284
129.384
121.762
104.680
113.147
113.364
128.171
115.785
88.943
103.079
124.156
115.640
97.737
95.068
87.603
128.885
84.881
105.919
96.694
112.621
107.201
114.355
104.550
126.300
84.261
105.979
125.129
94.093
112.940
100.824
86.003
118.161
90.061
101.699
90.672
118.601
117.676
86.875
106.742
102.114
122.072
106.560
113.531
126.598
98.389
126.079
118.800
105.293
124.689
100.672
114.169
125.254
125.593
107.217
128.963
122.746
115.525
91.258
124.957
127.630
101.428
108.461
95.570
99.621
90.456
88.042
122.001
106.702
125.975
98.150
123.439
99.885
117.814
120.011
107.099
118.004
95.491
97.567
128.778
106.456
94.107
93.796
95.256
89.429
100.535
104.117
96.960
113.529
92.980
122.817
117.553
94.121
86.702
117.276
95.521
123.508
104.351
127.073
111.876
128.652
105.600
104.577
97.561
