189.796
190.047
196.055
184.152
190.405
195.064
204.270
192.194
196.603
203.344
197.592
201.646
215.529
218.228
205.049
212.248
222.938
213.373
221.682
225.588
220.233
232.942
229.477
238.431
230.265
235.884
232.504
235.253
243.384
249.798
250.507
251.545
246.388
243.124
246.597
253.656
253.702
263.155
260.054
259.563
262.325
261.353
275.755
268.194
265.992
275.693
274.244
282.850
287.014
275.332
282.046
283.737
289.527
286.387
290.602
288.558
291.636
296.682
307.422
300.017
301.562
310.880
313.092
303.167
305.911
306.840
316.141
314.186
318.024
326.472
324.979
332.198
323.120
327.410
336.505
331.664
337.801
337.365
344.986
347.334
341.217
342.693
348.169
354.151
356.101
359.139
353.127
355.768
360.058
366.115
364.758
364.826
362.605
375.772
375.697
381.270
382.706
370.807
380.344
383.560
383.997
390.896
395.315
392.629
399.285
392.486
393.470
397.130
392.933
401.020
403.509
407.001
407.982
405.684
416.326
408.544
413.232
412.614
427.500
416.998
427.825
418.653
423.327
432.292
433.252
429.447
436.716
438.055
446.401
435.266
443.004
452.869
443.268
446.580
452.407
448.977
450.495
464.174
454.841
468.827
464.038
463.190
472.217
477.198
479.461
472.190
469.472
473.512
478.786
489.594
489.237
492.778
493.806
497.813
487.990
500.982
501.125
493.494
497.091
502.213
501.652
502.815
507.609
516.798
508.555
508.647
512.346
521.017
516.568
527.010
522.539
533.346
535.588
524.060
526.200
522.488
533.120
533.955
525.100
531.133
527.599
524.809
530.669
539.898
537.009
527.311
528.743
525.949
537.363
532.579
533.992
535.221
541.039
537.225
544.056
536.750
538.782
540.370
530.819
534.404
544.901
541.825
543.384
546.375
541.491
541.964
541.993
545.993
544.808
536.205
536.705
538.870
536.698
539.343
547.474
539.871
541.436
547.565
540.162
548.348
549.136
545.293
543.966
555.275
550.819
547.480
544.193
542.628
544.400
553.506
551.090
544.450
550.606
558.238
553.759
559.962
549.787
552.896
554.658
548.585
547.278
549.606
560.906
549.395
553.765
561.638
554.362
561.080
550.198
565.701
553.994
559.579
558.129
567.346
552.373
564.105
565.707
557.060
554.870
558.374
569.427
566.467
555.953
568.751
561.780
564.642
567.872
557.709
566.943
559.280
561.312
562.263
564.166
567.016
575.094
562.124
566.707
563.944
563.816
574.426
576.025
565.514
566.860
568.432
569.160
566.317
569.528
569.401
568.218
568.266
577.156
580.518
573.086
574.401
575.013
578.761
583.748
573.625
579.569
572.381
572.071
578.392
583.968
578.928
581.210
577.155
576.678
581.015
580.256
587.565
580.722
574.822
587.543
580.870
577.877
590.067
590.473
586.359
592.626
585.479
584.787
586.368
594.082
590.000
580.950
587.014
589.412
589.300
585.607
596.413
590.238
589.355
593.854
592.705
586.501
584.819
587.490
594.637
592.419
597.757
600.548
601.179
589.058
586.764
588.602
591.726
591.215
592.894
600.111
593.377
600.081
593.573
597.072
595.290
606.618
596.295
594.179
600.870
607.786
603.201
593.562
600.198
605.470
600.876
606.263
602.069
595.822
611.849
597.047
597.096
607.652
605.153
608.384
601.046
604.968
613.171
603.964
607.834
606.620
611.459
613.013
616.914
614.681
622.310
617.424
622.716
620.808
615.369
626.325
613.245
622.813
627.646
623.965
620.219
619.427
632.234
617.621
624.862
630.520
622.662
635.196
630.719
624.909
638.026
625.384
629.077
640.567
637.500
633.659
632.774
631.247
643.165
633.722
643.112
645.073
642.968
648.923
635.955
650.902
642.328
644.357
648.898
646.371
639.491
640.659
647.460
643.966
650.546
655.263
657.980
647.579
648.438
655.140
650.255
655.214
664.204
654.557
656.151
658.031
658.183
659.541
655.619
663.932
655.772
669.053
672.357
659.544
659.721
661.388
672.649
662.602
670.002
674.106
668.449
666.266
669.775
669.931
673.260
681.302
672.739
676.146
673.819
681.248
679.973
677.564
689.107
687.239
683.531
676.308
690.246
678.474
688.833
688.808
690.459
682.380
682.903
686.536
694.584
697.022
695.616
687.344
695.543
692.887
697.531
690.050
697.724
693.841
692.521
694.330
701.791
698.993
699.262
704.797
709.919
697.942
704.207
704.066
708.780
711.438
710.106
707.275
717.142
712.721
715.510
712.914
717.755
716.054
716.258
718.878
722.259
722.533
712.913
721.793
713.982
718.242
715.118
724.800
718.957
731.578
725.787
724.893
731.451
723.142
723.901
726.569
727.480
727.122
725.583
738.022
734.127
730.968
742.361
738.299
738.150
729.685
734.193
732.696
742.700
741.273
743.756
737.770
741.575
746.829
746.857
744.188
750.270
745.029
745.948
744.273
742.431
742.567
754.170
749.991
755.453
751.218
755.228
760.638
761.142
753.572
753.389
757.854
764.182
752.483
756.394
768.064
764.383
769.719
760.615
764.415
759.805
763.986
770.640
764.156
767.268
767.962
771.019
765.123
775.614
771.333
764.890
763.743
769.076
774.141
774.814
765.117
776.271
776.346
761.996
772.497
775.403
765.298
771.707
769.286
772.681
768.106
764.456
768.113
773.949
773.703
772.587
761.065
769.121
766.021
771.141
768.618
762.294
773.594
766.712
764.963
776.144
761.131
776.337
771.068
772.416
763.644
775.609
763.507
766.530
776.464
768.347
762.044
763.984
774.197
763.679
773.027
769.446
768.703
771.640
766.139
771.687
762.767
776.334
763.144
764.163
771.768
766.145
765.408
769.951
768.543
772.049
776.949
773.269
765.313
761.532
771.966
773.784
772.909
773.957
767.180
771.804
767.237
776.789
776.926
764.599
771.858
761.779
761.901
774.044
762.763
768.995
765.144
764.025
769.484
773.525
764.702
774.688
765.288
764.227
766.150
767.774
763.233
766.280
777.160
768.062
766.945
773.035
763.206
763.369
770.845
771.982
771.773
764.375
768.663
770.451
771.041
776.722
773.929
768.309
772.397
764.862
767.685
770.875
763.521
764.222
777.504
765.717
772.308
777.332
776.825
765.989
770.420
762.838
767.903
765.239
761.847
767.370
774.146
763.835
766.409
763.937
772.910
771.927
775.071
771.783
775.153
773.589
769.076
762.129
770.583
764.177
765.607
777.048
773.930
773.202
769.038
771.011
775.849
771.079
770.577
767.417
775.315
772.720
769.157
772.532
772.257
763.628
776.520
765.978
769.899
777.778
776.686
774.228
777.073
767.075
763.163
765.265
771.616
774.831
771.620
769.410
772.188
767.327
774.567
772.763
766.472
764.758
765.333
777.812
770.643
769.162
777.181
762.623
775.034
775.085
764.327
763.435
777.099
776.516
762.846
762.344
775.929
762.799
777.697
763.200
773.784
772.040
769.770
765.303
778.507
767.312
775.905
782.872
771.766
780.112
776.610
782.145
784.238
777.954
785.083
787.867
773.261
787.085
778.367
782.698
784.569
790.281
784.882
787.366
778.423
791.898
794.331
780.136
787.400
788.593
787.987
786.548
793.935
795.049
784.065
789.884
789.002
798.336
786.539
789.247
789.241
794.466
802.772
793.281
790.727
799.607
797.301
796.348
804.599
800.448
797.249
807.178
795.584
810.361
806.646
804.118
800.055
811.245
809.157
802.594
798.852
805.409
803.835
808.563
802.460
813.169
816.292
811.185
804.358
815.555
809.491
809.168
807.651
811.088
807.230
818.112
814.664
818.373
817.920
813.656
819.678
826.101
825.805
812.607
823.808
827.409
818.825
817.175
829.561
828.085
818.034
826.305
820.036
826.122
821.409
826.930
823.027
829.980
827.335
834.075
824.009
824.805
828.212
828.053
839.319
828.554
832.910
834.920
835.749
833.307
830.287
830.005
831.718
843.894
844.042
834.956
834.050
845.959
834.325
844.240
840.386
845.345
848.977
847.234
852.190
839.433
850.893
840.577
842.166
840.012
840.597
852.398
842.493
846.712
853.728
845.601
845.232
858.704
855.734
848.260
859.915
854.391
853.847
855.045
862.160
855.940
856.034
854.998
859.538
864.926
855.295
852.617
862.509
854.661
869.354
863.233
858.085
867.125
857.179
865.226
860.345
866.107
873.680
864.420
868.894
866.349
868.846
861.420
877.966
874.136
868.997
867.994
871.612
874.891
876.685
881.733
881.644
870.943
877.032
869.253
876.828
877.477
871.031
871.655
887.136
886.874
881.544
873.190
874.806
888.025
875.816
883.586
879.336
877.614
888.939
884.662
883.711
890.798
891.604
881.079
884.267
892.542
880.523
891.400
879.881
894.366
886.315
894.937
881.335
895.387
893.948
886.749
895.834
895.147
892.922
887.558
886.729
887.213
887.522
895.429
892.917
882.196
883.009
893.084
884.945
889.822
880.478
893.080
881.933
889.776
885.715
887.995
891.549
889.962
888.643
881.947
884.789
890.400
889.111
891.237
887.609
894.173
883.684
884.252
892.007
887.927
893.776
887.498
895.304
888.976
895.101
889.541
881.377
890.324
891.067
884.899
883.147
893.194
887.079
893.388
894.482
881.307
889.866
887.584
888.846
887.038
885.168
893.849
884.093
884.167
883.620
896.886
881.130
881.569
887.421
885.628
881.757
883.243
883.198
886.588
886.433
895.158
895.577
882.171
887.104
888.838
896.775
891.027
890.914
882.136
894.768
882.396
884.736
883.761
883.597
896.821
890.780
888.532
886.497
895.871
885.589
894.343
891.026
892.851
894.676
885.368
886.722
883.683
892.133
888.466
891.002
882.598
891.718
895.491
890.245
897.011
882.158
893.775
894.834
896.576
886.590
891.374
882.764
894.709
888.306
883.595
888.900
889.199
895.426
892.038
886.568
897.073
883.666
893.677
888.539
886.050
884.796
890.592
886.141
897.566
892.926
895.184
896.768
885.162
886.317
890.922
892.369
886.426
897.654
890.922
885.186
883.930
898.332
896.163
895.002
896.677
898.106
892.542
897.559
898.720
886.863
893.103
886.039
894.934
896.604
897.644
885.075
889.695
893.331
898.574
896.647
891.575
883.157
888.554
896.902
897.448
888.456
889.766
887.983
891.525
892.352
891.883
891.035
894.202
887.999
897.234
888.213
898.321
887.084
888.508
898.505
894.975
887.113
896.536
892.353
890.151
889.884
898.652
888.726
883.758
884.938
883.582
895.749
895.101
894.399
885.963
894.193
890.691
897.522
890.319
888.615
883.390
895.776
896.770
889.097
884.348
889.815
885.929
895.126
888.306
896.093
888.719
898.430
884.804
895.475
893.902
884.171
885.169
893.169
888.718
890.614
888.383
896.331
895.010
889.200
883.701
883.606
886.069
891.847
883.114
891.205
883.604
884.322
898.730
898.168
883.311
894.381
892.983
893.654
892.639
887.154
891.538
893.942
885.048
884.617
885.772
894.016
886.435
890.562
898.436
890.340
897.301
898.364
890.208
883.231
892.878
897.978
891.990
883.862
897.477
891.803
890.628
888.366
889.329
893.241
897.642
896.281
888.752
894.781
896.485
893.621
888.716
894.935
891.074
896.932
893.958
892.442
884.580
893.037
892.147
884.621
888.102
897.905
882.595
887.509
897.208
883.839
888.928
897.874
898.067
883.010
892.196
885.151
897.481
888.985
887.297
885.726
894.085
882.917
883.455
898.181
886.782
888.888
894.921
892.012
885.096
885.532
894.829
893.639
890.776
894.525
888.758
894.972
892.977
891.219
896.002
883.377
894.918
889.807
897.285
889.485
883.306
897.073
895.720
897.811
886.975
897.586
893.967
896.592
887.728
889.287
892.422
885.684
895.058
885.118
885.978
887.985
887.918
895.738
883.106
893.162
893.364
886.750
891.160
895.100
887.196
891.482
888.072
892.676
893.653
895.395
894.023
893.087
890.399
890.753
885.521
894.519
883.331
890.932
887.415
889.976
894.309
888.571
893.831
893.035
895.510
883.266
891.737
885.168
895.738
894.736
887.025
890.933
887.099
887.585
889.396
891.045
891.930
885.079
892.721
887.873
889.940
883.790
897.541
888.512
893.794
889.032
889.301
882.205
892.720
890.517
886.422
886.320
891.744
898.278
893.247
892.821
890.413
893.397
895.167
894.140
892.365
900.566
886.028
893.100
896.156
902.234
895.791
901.128
894.542
894.535
893.320
893.628
890.140
893.298
890.934
891.971
893.376
904.443
903.074
895.531
904.729
894.409
899.101
893.312
891.993
894.290
900.772
895.957
905.690
899.856
896.861
903.296
903.623
894.572
901.920
897.659
904.397
896.148
907.445
900.743
909.216
909.150
900.778
900.249
899.739
911.656
905.550
900.118
906.554
910.365
910.739
900.915
906.713
914.445
906.315
913.153
906.008
914.138
904.004
911.034
902.503
905.892
906.983
918.275
918.548
904.426
905.724
910.382
914.789
916.754
905.732
909.263
909.679
919.542
906.888
913.216
918.030
906.923
906.787
916.434
912.699
916.024
921.025
922.920
914.939
916.664
924.228
923.005
910.998
914.401
914.478
918.808
921.093
917.099
912.371
924.507
911.395
926.770
920.408
920.372
921.915
924.230
922.193
920.970
916.412
919.782
916.666
925.278
923.800
923.090
929.934
920.161
922.288
929.144
927.034
920.602
927.873
922.933
919.430
920.304
925.037
932.176
918.605
923.188
924.493
920.156
929.949
930.520
928.036
925.957
923.701
927.788
935.949
927.316
931.717
932.903
936.781
935.115
925.207
936.943
926.822
932.706
928.714
932.819
938.146
940.074
938.337
939.797
941.306
932.824
938.244
928.670
932.376
936.430
930.972
941.738
938.028
931.872
940.590
944.137
933.469
938.255
935.165
942.631
935.925
937.563
937.549
941.107
935.144
932.495
936.143
940.631
944.257
945.787
932.861
937.265
947.994
935.021
941.147
947.717
947.675
943.086
935.695
937.102
938.006
949.220
948.686
943.385
947.284
950.720
939.583
938.779
936.711
945.456
938.396
937.403
946.684
933.604
940.184
939.414
932.814
928.497
932.285
943.272
936.491
936.628
937.491
938.108
927.436
929.080
927.942
922.986
931.544
929.734
930.053
926.255
934.520
932.536
933.440
932.516
930.496
930.607
929.492
927.067
927.187
915.769
919.914
927.465
923.971
921.279
919.281
925.678
922.217
926.022
911.592
917.567
913.511
917.187
921.252
921.013
914.645
914.461
911.208
909.960
907.586
910.959
912.740
918.819
915.738
907.794
906.150
908.729
907.678
913.619
899.068
909.756
898.683
899.541
910.990
897.769
902.927
908.821
897.343
898.051
907.739
908.717
899.280
903.439
898.948
905.729
899.956
899.741
902.163
895.848
892.717
892.094
891.551
898.499
891.629
895.417
886.252
893.032
898.402
892.300
884.554
892.423
882.101
882.172
883.611
888.764
882.539
882.347
879.969
885.728
883.332
884.894
877.754
880.026
884.660
879.357
882.423
877.348
887.822
880.895
878.115
877.112
878.942
871.200
879.791
873.812
879.471
876.020
874.016
875.815
879.797
872.827
875.714
866.300
878.657
869.734
868.203
864.220
870.699
871.928
872.107
873.763
872.047
865.378
868.114
865.574
868.670
863.378
858.790
867.264
867.736
863.812
867.188
858.615
865.456
852.300
855.002
855.897
862.737
861.312
861.918
848.738
857.112
856.108
851.522
852.663
855.732
856.926
844.580
859.320
852.649
857.081
856.028
855.415
846.751
842.494
854.808
840.290
848.372
844.505
843.101
848.440
843.306
841.862
835.635
845.479
847.609
835.026
838.406
833.803
834.107
832.472
840.140
843.824
842.626
832.621
839.317
830.241
839.375
841.260
841.548
841.553
832.559
834.969
837.778
837.428
830.809
832.680
827.665
838.588
827.072
829.519
828.340
825.079
833.808
837.774
831.202
835.952
838.810
829.787
823.977
833.960
836.397
830.529
829.720
824.716
837.268
822.721
827.406
825.362
834.677
824.627
826.541
828.610
829.149
826.459
822.672
825.941
831.600
835.444
831.050
827.191
835.098
834.846
830.598
827.292
822.353
821.512
822.928
833.642
827.229
822.296
830.666
827.314
823.179
827.953
830.486
830.065
822.222
820.063
826.515
825.800
824.647
824.847
827.734
826.660
820.319
831.723
820.758
829.470
828.948
818.290
829.062
817.422
823.093
831.273
831.898
827.266
831.799
827.938
826.508
822.327
824.393
827.838
817.623
827.522
827.355
829.422
816.962
828.736
827.754
816.799
817.138
824.288
823.409
818.366
828.631
819.900
829.057
826.001
817.045
816.212
820.028
825.539
824.484
819.362
813.082
826.254
823.691
822.518
816.941
819.142
812.751
822.364
817.618
817.928
817.635
819.345
820.261
819.648
824.837
825.918
824.230
814.053
813.527
813.952
814.343
823.030
814.119
821.876
810.751
811.233
809.754
820.625
825.010
821.699
815.741
822.030
824.757
822.880
817.230
819.608
812.030
822.077
819.166
817.485
818.135
809.661
808.875
814.491
823.231
808.452
813.681
822.985
807.380
813.302
814.153
819.848
811.886
807.412
812.270
820.582
816.638
814.066
809.853
818.943
808.656
815.789
815.051
816.103
816.085
811.727
817.823
818.492
811.850
820.449
814.054
818.206
815.919
808.393
806.716
817.946
807.435
811.932
818.776
814.022
818.644
813.751
812.239
813.202
816.499
803.262
812.983
812.246
815.170
812.984
806.099
804.414
807.598
803.560
806.016
803.193
802.404
226.403
199.881
217.511
164.226
174.999
179.696
157.517
166.823
183.000
215.372
154.708
196.481
221.514
186.022
211.970
175.809
195.944
193.788
221.475
201.763
207.592
187.297
213.244
178.707
185.784
171.390
192.839
182.016
