922.699
929.234
918.773
924.952
928.994
921.377
925.015
921.335
926.140
922.611
925.114
913.459
921.108
922.633
925.069
924.602
916.030
922.013
916.385
919.272
915.723
922.673
910.183
909.252
912.599
909.843
905.483
911.078
908.510
916.970
912.036
914.877
911.085
902.228
913.939
906.344
908.521
912.256
900.203
897.790
902.667
911.196
897.810
907.270
909.857
900.621
903.943
899.412
895.937
904.543
892.983
891.570
895.180
895.214
889.773
901.677
889.717
899.789
900.244
887.849
891.297
896.296
893.389
892.682
883.509
884.498
896.109
897.333
881.675
889.929
891.087
889.251
883.307
890.799
883.000
881.428
890.812
884.571
883.244
886.948
884.184
875.003
881.245
880.291
872.922
873.314
884.022
872.948
882.490
881.999
879.102
872.402
871.531
869.218
878.422
879.859
872.928
877.869
867.164
868.216
867.138
868.580
867.172
869.856
875.849
868.495
864.371
861.500
866.835
867.888
865.914
869.137
861.309
856.860
864.939
869.882
858.282
865.248
867.447
855.967
852.797
859.850
865.424
862.879
852.595
853.389
863.951
848.629
863.244
852.260
859.648
851.769
846.335
854.776
855.712
852.636
858.399
854.939
855.457
854.550
853.198
855.124
847.468
846.602
843.909
841.104
839.201
840.915
851.166
840.981
835.866
834.976
846.601
849.389
841.400
832.910
835.958
834.732
846.292
842.190
844.589
830.736
837.864
830.647
841.433
836.975
840.226
833.171
839.569
831.357
833.062
825.774
833.472
839.877
824.379
832.617
839.314
834.054
832.369
838.425
839.087
826.387
832.956
835.126
836.439
823.277
826.760
833.381
834.318
824.603
835.979
835.475
830.173
833.483
826.948
837.192
823.578
829.927
830.998
822.533
822.471
828.057
836.919
822.378
831.204
828.460
829.468
822.353
831.601
827.511
833.753
832.124
832.747
827.544
828.652
829.141
834.866
825.808
832.263
820.384
824.002
820.273
821.110
826.172
833.894
832.648
820.906
822.649
832.731
830.588
819.700
824.886
817.490
829.172
822.690
829.898
830.698
821.146
820.530
823.192
823.316
828.757
829.666
828.570
830.888
826.686
820.069
818.949
819.944
829.465
825.170
824.478
827.294
827.273
818.512
815.554
815.696
821.839
816.150
818.548
818.887
824.359
819.638
814.677
817.529
822.305
826.719
818.005
828.155
820.888
819.658
817.316
813.266
826.767
827.617
825.697
824.923
818.247
815.938
820.522
824.791
825.322
822.027
826.381
822.424
824.940
827.086
813.881
820.744
812.744
817.516
822.976
825.450
812.462
814.000
825.718
812.599
824.211
813.422
820.526
809.761
820.312
822.158
817.298
822.841
818.790
824.481
817.830
817.383
811.655
816.657
822.442
815.399
808.526
816.699
814.791
813.425
815.820
821.547
820.626
813.038
809.635
807.387
816.346
817.164
810.166
820.636
813.475
814.458
819.656
821.536
806.594
819.267
819.767
820.153
814.600
814.033
813.069
809.205
811.129
815.801
810.544
820.266
808.400
816.309
816.293
808.685
815.324
812.054
809.690
803.965
808.630
819.108
808.441
811.664
810.134
813.144
807.869
806.309
808.904
811.451
804.062
813.724
807.046
805.188
811.855
803.570
802.514
811.220
80.589
61.779
67.152
75.654
78.476
74.445
73.182
56.972
59.187
62.343
78.707
74.837
76.726
62.039
76.224
68.493
59.664
81.619
68.299
57.335
67.932
77.861
69.982
70.290
60.385
62.003
80.438
69.046
68.237
75.806
59.900
83.381
81.401
82.046
64.669
65.272
84.305
82.219
57.369
66.936
84.517
64.933
74.920
67.314
82.863
58.671
65.950
57.589
247.649
194.909
236.706
223.432
224.239
210.615
184.563
273.682
256.326
264.417
213.605
256.751
257.365
271.910
272.724
203.773
248.403
242.924
198.669
253.668
199.998
272.182
272.174
203.901
212.620
212.279
263.151
251.001
260.757
231.000
254.975
224.804
230.788
266.513
210.167
261.186
242.773
202.755
194.711
221.257
257.800
231.549
199.881
219.382
211.457
266.591
224.388
199.257
239.073
273.335
251.174
264.876
150.629
109.198
110.511
105.871
109.720
138.238
124.288
115.905
113.130
144.987
105.426
122.236
128.346
107.039
133.704
106.982
142.212
115.653
115.696
149.442
115.866
151.878
150.959
123.696
102.076
139.989
127.550
143.842
111.207
147.881
103.538
110.555
103.140
119.487
151.723
130.136
127.610
125.491
121.676
136.485
134.470
121.696
119.828
107.178
132.672
114.728
135.538
110.705
128.044
133.141
104.945
112.100
138.512
104.088
115.310
136.591
135.942
151.612
145.422
144.331
121.900
136.603
124.283
116.777
143.636
126.072
123.993
119.892
132.840
143.638
119.193
122.449
104.306
112.450
132.367
151.089
151.121
105.136
109.100
102.166
115.815
114.693
143.194
124.194
109.346
122.550
148.223
121.732
118.008
135.778
141.653
142.858
119.699
126.604
104.893
105.882
119.488
107.488
122.945
148.293
104.105
144.386
108.139
134.993
120.743
120.171
104.831
103.000
143.092
125.706
111.822
134.788
140.254
133.174
116.806
145.415
109.219
144.815
151.507
125.598
133.876
131.493
115.108
116.477
144.092
121.475
122.290
123.932
118.706
126.913
135.164
102.505
121.289
146.785
125.960
128.538
125.442
130.143
147.792
145.653
125.342
135.108
119.610
117.374
140.431
104.503
123.152
125.645
124.273
109.587
138.952
126.382
146.563
107.584
152.266
126.748
102.923
147.424
146.808
125.121
137.026
117.830
113.463
111.936
146.931
112.847
103.232
138.031
105.268
109.162
114.955
120.437
134.282
115.193
128.727
137.676
104.765
108.912
147.906
124.961
130.758
104.260
134.884
105.560
137.603
114.708
146.039
122.797
105.692
118.845
114.407
134.291
148.245
129.466
115.995
134.969
137.748
139.638
140.005
102.855
117.480
147.585
145.629
137.373
109.299
120.363
128.803
131.545
146.502
114.991
104.559
113.387
105.102
130.922
141.320
127.356
129.496
113.824
104.966
108.788
133.110
151.848
127.485
116.449
131.866
135.298
101.471
120.228
134.181
137.144
143.114
149.040
141.800
140.699
139.407
105.629
146.693
122.917
136.264
102.088
136.306
137.281
146.041
103.949
141.720
117.074
140.703
144.478
135.637
139.900
148.088
103.762
117.906
144.385
129.419
117.822
136.362
137.159
132.096
147.443
113.368
113.852
110.546
117.608
139.655
113.954
144.115
106.151
117.193
131.105
112.176
108.776
149.417
107.841
126.931
152.260
147.988
121.781
122.510
102.663
106.396
131.163
151.474
135.065
130.209
125.697
123.346
116.181
116.556
119.698
139.668
149.801
109.037
118.739
128.982
132.997
123.455
127.919
116.158
142.585
110.828
151.102
133.539
107.308
128.207
117.939
148.890
112.458
112.436
113.212
102.465
123.761
119.562
151.233
143.894
117.445
139.238
131.540
152.764
113.935
104.336
125.298
140.605
128.151
114.028
148.222
142.781
127.515
137.025
117.741
105.378
113.617
118.796
108.471
117.580
109.249
141.343
119.826
115.860
131.898
124.311
144.966
113.836
137.675
122.467
101.975
132.329
106.733
144.330
101.186
121.298
149.963
120.663
104.803
108.705
119.282
116.272
116.982
124.940
105.212
144.271
144.158
135.935
119.935
120.449
102.266
148.574
129.407
141.874
135.677
128.519
151.503
125.708
150.480
147.695
113.519
102.762
103.828
114.504
133.809
152.284
126.749
142.301
120.067
111.780
125.420
116.193
102.054
138.553
106.474
141.286
111.180
149.966
142.296
102.599
130.192
131.302
143.335
121.511
103.022
116.948
128.613
127.312
104.077
137.779
118.222
117.073
137.178
145.855
122.559
107.356
137.905
142.442
152.659
147.250
125.515
151.318
150.746
137.610
137.171
110.049
132.396
111.980
138.013
144.333
153.106
114.572
115.009
151.973
115.021
102.778
115.006
134.260
118.288
122.592
107.476
138.266
143.475
147.708
133.228
126.294
133.344
135.644
141.669
136.180
118.985
106.654
124.221
103.394
149.371
145.041
140.874
113.422
151.775
133.827
110.543
107.519
124.821
133.203
101.333
141.776
115.202
126.558
110.393
147.256
139.146
117.668
131.248
110.243
147.835
137.357
101.203
112.387
109.194
142.811
144.699
110.573
119.593
129.210
125.335
145.940
148.471
118.795
129.995
145.819
132.407
124.570
119.180
147.754
133.423
130.323
143.274
150.864
132.746
130.957
115.681
135.132
122.813
115.715
117.611
108.164
147.726
135.159
117.980
140.619
142.237
145.867
117.872
103.647
152.873
115.044
111.607
120.830
149.801
113.156
152.668
128.073
107.681
140.276
132.819
127.854
147.920
153.062
143.151
149.814
151.322
140.080
113.623
150.179
112.355
136.635
146.299
119.671
127.756
148.199
114.606
134.403
101.845
152.585
126.948
101.354
140.428
130.309
131.977
125.636
116.213
125.278
120.658
107.107
141.964
136.483
125.775
136.775
108.485
127.322
119.202
107.747
116.146
108.344
151.181
145.538
108.433
143.796
118.075
103.441
143.516
148.035
102.141
118.569
101.444
114.102
124.743
103.519
111.005
149.888
118.123
120.653
104.842
117.175
136.359
101.846
103.715
109.491
133.175
101.693
147.314
148.582
128.589
106.703
145.291
133.422
103.213
132.053
130.228
117.774
131.375
121.122
136.428
150.305
128.461
126.900
142.279
132.634
133.416
151.388
143.358
123.081
122.740
133.517
119.155
148.285
122.386
151.590
144.698
102.689
109.790
138.910
115.847
142.479
143.081
113.307
123.690
110.305
107.829
127.290
126.157
115.760
131.326
132.555
142.823
110.977
111.872
131.983
140.553
151.206
137.516
118.712
146.312
151.362
141.916
112.701
146.634
122.950
109.516
142.500
126.869
138.730
107.484
144.363
129.664
152.698
149.612
131.279
125.168
147.390
130.138
144.172
120.810
113.980
150.610
138.076
141.817
119.710
115.769
115.429
123.194
129.498
152.427
145.934
146.193
132.151
148.320
134.573
135.734
149.645
101.821
119.617
152.463
149.524
139.077
126.696
124.017
118.624
119.439
140.170
120.704
115.678
150.010
148.381
139.727
126.768
145.387
125.587
139.967
109.990
147.463
109.627
120.743
147.290
117.701
111.149
152.095
101.800
124.551
108.818
148.171
123.405
136.576
112.757
124.978
132.391
101.505
149.120
139.821
112.231
148.102
140.634
115.979
104.219
114.144
122.948
129.128
151.536
120.443
102.389
151.958
135.865
148.942
122.574
117.971
122.435
119.205
101.438
110.242
108.323
101.217
117.565
127.765
151.688
108.548
107.370
129.246
102.983
132.952
102.685
126.805
132.318
120.050
149.012
112.671
128.475
129.623
121.551
106.117
112.607
107.313
147.585
131.096
118.340
134.849
127.609
132.228
135.461
120.008
122.562
126.187
149.572
121.384
116.922
135.681
119.676
150.161
149.208
101.852
145.439
149.337
126.112
130.965
124.859
108.670
144.657
110.183
129.644
120.093
111.896
144.639
122.790
141.798
110.436
101.413
114.854
121.479
145.392
148.400
104.803
131.324
148.982
140.972
144.660
109.285
123.270
129.636
117.925
115.022
142.224
110.725
120.790
114.087
148.500
108.712
147.248
149.135
133.395
130.096
121.142
101.931
143.575
128.687
142.075
140.135
120.161
142.764
109.624
107.060
123.335
123.382
104.510
104.809
108.626
129.631
128.584
127.997
139.876
147.121
123.231
138.831
110.382
130.303
118.110
137.908
129.523
131.137
146.115
105.619
123.836
117.299
102.549
118.698
119.383
116.777
140.547
120.477
120.178
123.233
119.167
106.526
111.602
114.666
139.515
148.313
131.394
138.009
149.587
134.038
128.693
140.639
136.968
108.122
131.669
149.864
129.091
106.320
132.366
112.296
109.482
137.323
142.182
137.281
144.702
112.193
121.958
116.986
123.276
119.898
132.289
133.475
106.537
127.956
133.536
131.069
150.844
103.532
101.684
141.712
105.599
121.837
111.426
148.064
140.784
111.962
151.816
118.087
133.113
116.641
141.299
110.941
131.186
108.561
149.138
116.751
114.700
149.584
106.481
105.161
144.514
118.808
149.145
153.065
121.947
119.909
102.321
121.135
112.683
143.901
122.239
111.978
143.312
134.305
117.057
143.695
116.277
121.823
146.113
148.289
106.225
127.293
121.001
116.846
116.272
147.094
138.693
149.433
120.929
149.075
133.196
133.136
126.271
140.895
126.448
125.992
121.907
131.608
103.027
136.128
137.545
123.464
143.651
123.993
102.235
114.720
109.885
101.362
138.562
112.493
148.879
129.766
148.787
140.654
106.548
138.470
141.083
128.144
112.863
125.646
146.658
147.435
140.915
101.699
114.127
120.866
115.661
117.946
107.417
117.424
119.609
112.275
107.941
136.683
141.534
121.299
140.773
141.941
138.869
135.573
112.908
107.059
109.991
152.524
105.918
137.716
130.022
151.007
140.083
143.842
142.476
111.935
152.916
143.287
132.242
127.734
141.482
128.967
124.121
137.018
138.321
106.421
131.832
151.017
149.732
138.317
102.653
108.270
108.932
120.134
148.621
127.052
118.944
146.446
104.643
134.462
133.281
142.637
151.605
146.005
116.022
112.437
134.317
103.418
107.027
123.346
138.166
116.924
126.734
149.850
141.714
119.490
142.079
124.366
117.058
115.638
121.579
116.653
147.281
113.812
145.631
134.255
134.197
117.110
118.520
124.519
127.290
116.400
133.599
142.608
150.784
141.281
146.485
143.065
115.364
105.832
113.001
109.240
148.015
122.117
145.803
128.604
115.510
110.489
106.153
109.489
136.827
103.063
121.755
121.606
102.020
133.851
129.182
102.809
131.957
125.286
104.839
120.444
135.491
108.163
137.702
129.019
116.123
123.659
131.194
117.895
137.146
124.912
119.454
112.104
141.676
151.897
132.362
116.380
152.516
119.145
111.282
149.265
104.663
127.344
146.631
143.371
126.133
121.295
101.155
116.732
126.099
110.725
114.499
134.417
137.519
105.024
108.386
116.474
139.174
103.655
111.297
151.436
114.531
126.527
121.978
140.877
128.346
107.839
102.531
141.402
140.921
115.648
144.709
122.118
122.493
139.111
102.300
145.460
138.549
103.234
136.009
146.556
115.539
104.795
104.936
146.555
102.059
149.603
138.776
121.305
150.863
114.783
129.356
147.402
127.007
152.344
117.840
136.452
129.873
116.537
142.182
144.667
145.533
127.076
118.541
125.409
145.634
104.862
113.259
105.787
127.904
136.244
121.053
147.719
128.739
152.933
129.098
140.544
115.151
140.823
126.826
109.300
123.107
138.975
104.785
144.615
116.784
102.945
131.780
103.890
132.509
134.551
110.133
133.414
152.773
113.286
143.087
149.940
152.823
143.728
106.161
106.352
144.304
117.540
127.932
103.179
150.546
132.169
119.494
142.934
109.384
133.233
122.479
119.322
129.058
127.835
149.750
113.085
109.366
150.645
131.184
112.193
136.700
124.994
114.091
153.095
115.214
129.814
110.105
138.483
107.640
134.787
144.391
151.323
118.602
135.131
126.586
121.705
121.512
148.375
104.432
108.797
113.571
101.586
135.941
151.178
146.829
111.590
147.482
121.838
122.778
128.420
144.378
104.131
115.572
138.122
141.002
144.206
129.020
140.709
134.674
128.920
136.731
103.162
108.685
143.494
149.998
109.166
135.796
138.347
126.648
107.202
146.865
119.368
101.273
105.582
143.458
104.487
125.976
148.317
101.783
118.620
123.546
138.296
129.696
125.780
117.492
123.354
106.694
119.567
110.288
128.040
141.064
102.615
106.359
117.272
123.834
105.288
143.659
113.339
116.842
141.618
138.387
107.233
103.831
118.991
109.195
110.223
144.643
142.510
123.737
126.657
122.061
135.990
117.892
134.545
126.759
108.727
149.236
140.605
119.212
131.178
105.494
151.448
142.532
131.138
116.007
140.940
102.781
119.576
114.026
114.324
147.315
111.078
148.211
118.519
146.994
134.633
120.694
115.153
148.339
105.538
114.920
137.695
152.955
116.540
123.229
151.976
114.311
102.616
131.384
116.291
107.373
141.850
146.066
128.628
148.260
139.609
130.709
135.782
127.506
108.933
126.578
101.744
130.825
147.613
152.006
112.110
150.782
104.532
115.712
105.640
127.335
153.109
105.365
108.132
119.793
127.664
120.190
119.418
150.589
143.604
131.937
150.853
107.541
114.813
116.661
107.496
103.181
133.386
110.109
120.164
145.438
112.097
133.748
151.223
114.935
147.323
109.895
131.912
124.760
102.855
119.642
118.449
149.684
139.971
145.410
137.984
145.581
139.097
110.414
132.070
103.841
132.775
108.419
106.807
102.524
132.738
128.815
135.559
136.856
107.994
103.543
152.597
123.895
132.486
117.808
135.353
121.269
125.800
151.799
115.588
120.181
134.859
134.086
146.188
150.845
104.708
113.262
118.069
148.239
103.181
117.898
103.843
150.364
106.986
106.109
138.006
128.739
115.228
126.654
151.460
133.049
138.273
102.759
105.198
120.547
101.874
107.228
115.190
141.618
133.686
149.137
112.357
131.580
146.971
107.637
109.234
151.046
122.350
114.823
127.843
136.295
131.539
113.038
135.656
127.889
142.832
151.793
105.889
144.379
121.287
148.192
108.500
105.238
118.170
113.465
131.186
145.109
122.871
144.654
118.827
144.401
134.142
116.704
143.252
104.607
134.738
101.811
130.191
139.397
131.282
95.986
143.390
100.617
104.538
137.519
145.545
112.952
111.407
118.880
97.806
137.712
138.155
105.441
103.546
123.525
145.042
145.993
101.687
135.086
