715.649
728.341
726.356
722.100
731.451
734.107
729.808
722.679
725.219
728.318
724.400
726.521
741.123
726.362
739.103
741.918
739.914
740.864
744.722
745.681
735.299
735.489
741.696
739.010
743.419
750.005
746.050
750.206
750.739
753.377
761.728
750.880
761.904
762.617
765.813
767.867
757.381
773.227
769.594
764.207
775.037
778.203
773.076
782.296
771.918
783.924
778.901
777.459
791.109
780.556
792.030
780.766
786.175
788.072
800.870
797.883
794.576
791.484
798.874
795.640
801.333
810.702
810.183
810.499
803.784
814.532
816.222
812.175
819.066
819.586
811.382
821.389
818.867
819.912
829.898
826.920
825.205
836.099
830.840
827.431
827.950
832.709
833.221
838.579
837.597
837.035
838.704
844.374
854.469
840.666
846.490
854.442
846.915
862.562
855.993
858.687
854.872
860.217
866.619
858.673
865.229
869.891
867.415
867.150
872.836
869.970
881.910
879.941
880.410
885.067
876.125
879.214
877.118
884.644
891.319
888.587
884.622
892.557
901.820
893.616
891.207
897.703
899.537
904.905
907.297
901.623
904.647
916.618
912.519
918.902
909.448
914.413
923.706
921.983
913.859
928.155
919.628
919.866
925.403
921.317
929.245
933.842
936.644
939.092
928.425
931.136
930.939
940.779
938.557
939.594
941.072
943.020
944.295
945.825
949.989
961.095
955.413
950.735
964.296
960.973
961.345
960.438
966.519
959.552
967.005
976.061
964.450
968.576
978.902
969.139
981.531
974.912
981.453
985.165
991.158
990.217
982.955
991.600
996.211
986.747
989.171
1000.461
994.365
996.114
1005.827
998.798
996.296
1005.129
1012.570
1013.126
1009.511
1012.802
1007.000
1012.226
1015.564
1013.603
1016.078
1025.199
1020.513
1028.576
1017.582
1024.761
1023.799
1027.606
1025.218
1035.907
1040.331
1034.346
1037.758
1041.485
1034.057
1042.844
1042.541
1049.701
1050.878
1048.030
1053.136
1047.397
1046.770
1055.488
1062.053
1063.908
1056.491
1054.067
1059.071
1064.195
1053.494
1056.251
1062.020
1055.593
1064.208
1057.577
1064.102
1054.678
1055.783
1064.714
1056.354
1060.414
1050.826
1054.905
1065.308
1051.436
1052.961
1064.037
1054.746
1065.356
1053.349
1063.828
1051.524
1058.039
1060.176
1054.104
1062.464
1058.596
1053.845
1057.232
1061.792
1053.122
1064.138
1059.307
1060.324
1053.262
1066.572
1065.610
1059.552
1056.725
1066.111
1058.328
1058.624
1053.737
1058.183
1064.921
1054.718
1053.364
1060.099
1055.039
1057.362
1061.273
1063.216
1056.940
1061.417
1061.493
1066.010
1054.492
1064.789
1068.664
1054.530
1054.762
1054.058
1061.039
1055.092
1054.462
1063.409
1066.405
1057.474
1054.733
1066.726
1058.016
1055.099
1067.009
1065.292
1062.368
1063.045
1059.721
1063.416
1066.364
1057.849
1055.688
1057.906
1064.033
1060.253
1059.625
1063.001
1056.257
1068.301
1069.302
1071.166
1070.288
1062.391
1069.741
1070.640
1057.721
1062.256
1064.279
1064.630
1067.217
1058.197
1061.977
1056.155
1066.771
1065.783
1070.753
1069.503
1067.355
1061.481
1061.777
1063.287
1060.372
1069.152
1061.651
1068.686
1066.456
1071.568
1066.478
1058.331
1058.087
1068.234
1066.726
1060.403
1072.861
1060.127
1067.636
1066.088
1062.552
1063.386
1061.049
1057.990
1065.365
1060.924
1065.707
1060.302
1063.847
1058.331
1072.813
1069.996
1072.373
1071.547
1070.756
1068.709
1066.388
1068.570
1071.871
1060.946
1063.280
1058.843
1061.867
1065.339
1072.690
1066.426
1067.707
1066.012
1061.503
1068.611
1071.170
1062.193
1069.462
1068.317
1061.334
1071.862
1066.022
1062.785
1068.054
1060.950
1074.245
1061.621
1068.208
1070.439
1075.391
1072.785
1072.689
1072.094
1063.122
1076.244
1075.927
1062.535
1069.510
1071.862
1062.065
1067.953
1063.305
1075.251
1069.770
1067.308
1067.481
1073.536
1072.171
1074.745
1062.995
1076.359
1070.403
1062.809
1074.251
1061.931
1060.431
1058.241
1059.366
1058.719
1064.149
1069.580
1061.388
1060.229
1053.524
1063.057
1048.782
1053.241
1046.412
1060.618
1047.637
1051.660
1056.571
1044.910
1041.107
1038.950
1052.869
1047.092
1040.338
1037.843
1033.836
1035.230
1034.639
1044.386
1035.129
1029.336
1036.066
1034.656
1028.673
1027.862
1028.576
1026.258
1034.375
1020.805
1028.944
1028.459
1020.817
1024.244
1020.343
1013.352
1019.993
1020.674
1018.998
1021.945
1017.423
1013.914
1014.475
1005.585
1004.934
1008.191
1015.504
1006.266
1004.559
1009.917
1009.315
1002.674
1002.839
997.933
1007.140
1006.328
994.310
989.216
1000.449
999.520
989.349
989.956
995.010
997.687
989.302
993.962
982.138
991.153
980.115
986.829
982.287
974.991
979.929
976.005
975.239
977.935
970.993
974.379
980.542
971.619
971.228
964.440
969.108
963.811
965.676
966.085
959.311
964.088
958.655
967.991
967.012
960.118
950.758
958.443
962.431
959.592
952.578
961.133
951.299
951.135
951.702
956.305
941.998
949.480
941.548
943.435
945.345
941.906
940.017
943.736
943.081
944.237
929.576
938.979
931.622
929.096
939.370
936.998
923.240
936.138
922.783
925.277
928.184
928.103
921.509
924.924
924.296
925.726
926.053
917.834
915.486
924.361
914.862
908.326
913.841
917.356
911.330
914.744
905.954
902.428
909.870
908.586
900.697
907.891
903.625
903.422
902.485
899.155
903.314
893.178
892.249
892.493
894.206
885.673
886.802
885.367
897.004
894.255
889.967
890.768
885.844
879.792
886.410
877.003
885.196
873.722
870.792
873.503
872.151
882.306
867.176
879.105
867.390
872.742
866.553
875.692
870.348
869.168
859.435
866.221
866.455
855.652
856.604
858.775
859.800
852.616
854.544
847.774
851.097
856.681
844.921
847.060
848.934
854.478
859.256
847.035
851.967
847.145
856.703
855.326
853.160
848.521
860.853
862.850
857.152
861.874
852.738
864.115
854.415
851.537
861.748
854.097
858.813
853.261
856.123
866.540
855.700
858.505
862.838
868.125
866.999
860.882
863.727
861.248
863.010
864.409
858.396
871.534
867.245
862.216
866.308
869.249
866.070
868.770
869.586
868.485
867.018
872.599
871.638
868.642
868.302
864.898
878.650
873.321
879.320
866.907
868.732
872.332
875.445
879.056
872.552
870.143
874.244
869.161
868.005
879.963
872.511
883.829
869.674
869.895
881.554
885.002
882.684
877.911
883.443
884.577
886.227
885.908
882.013
886.200
885.912
883.981
874.072
879.240
876.778
877.107
879.219
887.560
881.362
891.508
892.938
887.911
879.117
881.649
883.087
889.107
881.876
887.335
883.938
894.206
895.780
896.771
883.584
893.453
884.217
898.240
887.772
890.488
898.059
891.160
888.911
888.484
891.825
900.750
887.668
900.967
898.914
896.312
887.418
894.844
894.946
897.021
898.422
898.032
891.374
902.126
891.850
894.020
891.454
904.338
902.621
898.833
906.944
897.434
906.287
903.495
897.426
898.725
899.009
901.973
902.122
900.711
901.569
910.583
898.482
908.516
897.693
909.971
912.792
900.903
909.774
901.251
902.325
911.613
914.673
906.953
902.620
914.862
915.505
903.633
915.756
909.128
903.890
904.072
911.784
904.588
918.740
913.365
918.171
916.254
907.635
916.332
920.787
907.282
907.809
921.660
912.748
911.260
919.361
923.403
919.970
912.545
920.911
911.553
913.328
913.638
913.786
914.785
920.945
918.516
925.507
915.609
918.953
925.795
925.010
923.489
927.060
916.939
918.731
920.729
929.355
931.332
918.429
928.386
925.713
922.193
914.089
915.549
913.692
921.588
920.673
915.551
916.627
914.976
920.984
921.296
914.868
915.147
908.472
917.828
916.127
914.721
911.081
912.974
909.702
919.074
907.759
905.289
910.377
904.094
913.205
915.958
902.278
904.895
907.360
906.369
914.312
899.665
899.816
907.779
912.003
904.840
911.236
901.340
900.608
899.974
895.051
906.472
899.741
897.320
900.570
904.856
905.054
900.476
902.153
901.953
891.785
897.935
902.818
903.149
895.616
901.325
889.039
895.986
891.599
890.332
894.010
899.072
888.607
890.605
895.793
897.227
884.459
892.231
890.904
887.755
883.501
892.925
886.986
881.264
893.337
885.407
876.698
890.400
885.849
878.485
883.867
878.023
885.360
879.167
888.378
885.283
880.541
882.855
873.484
881.930
879.319
876.148
884.000
870.478
872.802
876.480
868.654
879.260
881.016
867.364
869.619
871.470
865.420
875.294
863.996
870.000
876.790
867.899
865.849
869.468
874.486
863.015
872.371
872.217
867.130
864.275
866.547
864.210
871.067
862.799
870.432
865.000
865.068
867.785
861.138
863.799
867.363
858.105
861.295
856.664
863.109
857.798
860.077
856.577
853.212
861.364
862.193
858.694
858.189
859.839
848.239
846.060
846.186
853.293
858.567
847.608
853.318
850.190
845.134
854.994
844.169
854.661
845.795
851.169
852.656
838.359
839.686
851.390
852.484
844.851
843.965
839.382
848.281
835.128
846.246
848.709
835.731
837.258
839.934
845.602
843.501
840.214
839.283
830.302
832.596
841.379
839.627
827.975
839.494
840.496
838.247
827.251
832.624
835.311
827.392
831.398
831.148
838.058
835.541
830.743
831.078
821.197
826.850
827.995
831.279
829.567
830.114
820.055
820.892
827.060
835.247
830.802
831.613
832.560
826.800
824.583
831.876
823.253
827.752
828.667
839.027
836.512
826.203
832.226
835.163
831.199
838.498
835.045
829.873
838.106
827.282
836.310
839.049
834.837
830.639
840.387
830.922
833.490
836.000
841.478
829.618
831.036
831.893
832.058
833.757
839.089
842.894
833.368
846.812
833.441
833.617
847.586
840.350
844.454
833.033
844.803
847.142
843.603
848.262
837.904
847.013
835.252
845.235
846.357
843.246
838.935
846.166
840.038
839.525
837.188
852.083
842.585
839.344
848.271
845.625
846.476
840.517
841.931
841.809
850.396
848.250
855.160
855.106
849.096
856.027
855.952
853.613
857.182
851.919
855.461
851.814
854.159
851.548
848.823
846.368
848.825
855.629
857.679
851.666
860.730
851.654
852.182
854.832
851.265
858.524
850.129
856.661
851.007
856.459
851.058
850.630
853.860
863.558
863.333
851.930
852.756
851.804
851.142
860.106
865.020
854.118
858.916
860.506
852.801
863.520
863.002
859.387
853.173
858.597
855.075
868.326
856.027
869.453
859.595
859.207
869.933
861.326
858.671
860.165
862.293
871.573
856.978
865.756
867.708
870.940
862.269
871.465
868.072
860.953
865.834
862.965
868.540
868.181
862.386
868.167
869.679
860.604
867.449
876.331
862.440
865.571
866.210
872.923
869.688
865.714
867.718
866.175
874.550
870.471
879.519
866.873
871.104
876.553
876.222
866.897
873.592
875.630
879.887
874.088
877.317
870.837
877.775
877.618
882.196
868.291
884.364
873.992
881.503
872.106
884.305
872.039
876.091
879.415
881.438
873.002
885.806
875.558
884.830
873.108
887.421
879.071
880.199
878.013
888.415
877.750
883.799
878.137
888.830
880.966
876.511
889.749
891.789
879.155
882.485
881.940
883.974
880.955
892.363
892.841
885.810
884.071
886.395
887.271
890.949
897.907
896.916
892.696
888.685
887.767
895.291
899.121
893.798
896.480
901.358
902.456
900.980
901.826
903.940
901.333
893.913
896.653
904.196
902.239
898.338
894.584
901.463
908.009
908.116
896.485
909.523
912.752
913.605
906.278
900.939
908.943
909.832
903.393
916.277
903.248
907.805
902.209
909.645
911.466
906.578
919.670
913.434
917.916
912.690
919.828
917.937
915.972
913.125
921.312
916.498
909.668
918.335
914.525
912.643
923.603
920.699
927.304
921.264
914.655
918.514
919.807
926.453
929.981
930.697
922.090
921.181
917.727
925.351
923.405
930.236
931.108
920.699
932.844
928.650
930.949
932.274
930.013
938.833
934.093
928.688
939.511
932.572
926.003
940.718
931.070
942.250
939.612
936.433
934.317
931.883
939.943
939.783
939.477
933.588
946.817
945.658
937.516
935.753
943.816
949.815
950.168
939.642
941.586
939.386
948.206
948.541
943.586
942.096
940.562
943.318
952.701
953.072
952.183
956.101
947.091
952.520
944.149
949.268
953.984
956.675
947.504
946.865
951.443
956.973
959.920
958.824
961.130
962.009
957.278
961.988
960.149
950.640
957.853
959.973
954.521
956.622
959.779
960.091
960.156
967.995
968.236
959.452
962.416
966.263
961.535
968.097
964.987
964.871
961.614
975.173
961.989
965.673
963.676
969.949
964.303
967.330
975.714
965.739
975.866
978.549
970.178
979.740
977.681
971.191
980.085
968.631
984.033
973.747
981.186
977.522
971.181
981.067
976.893
985.219
983.340
974.109
982.966
984.450
984.122
976.756
990.966
980.580
986.261
983.545
979.621
976.118
979.603
973.938
983.004
974.939
983.085
985.484
981.768
971.597
974.049
981.227
970.834
980.717
970.491
982.402
969.840
980.088
978.151
972.795
975.282
969.275
978.305
971.078
972.229
982.087
975.343
975.959
970.446
978.563
977.237
967.768
979.223
967.590
971.880
978.720
974.478
968.875
969.807
963.071
973.332
965.000
967.939
962.800
970.478
976.710
976.156
973.892
964.374
973.058
967.901
970.707
974.547
972.600
970.350
967.056
973.556
973.089
972.101
963.425
964.233
966.775
960.368
965.159
966.137
960.203
957.428
958.529
956.304
961.879
962.010
967.441
958.653
958.355
959.974
960.965
958.438
954.471
955.199
962.802
956.200
959.554
956.938
957.744
951.195
956.190
954.818
958.334
950.212
954.704
949.189
956.453
952.579
960.400
955.908
960.450
950.282
946.754
959.264
950.205
951.804
944.897
957.382
958.711
952.638
955.318
958.352
955.005
954.355
943.146
956.889
944.568
951.450
948.454
953.533
949.001
943.619
940.997
948.456
953.429
949.312
942.288
951.805
947.502
948.838
945.971
941.090
944.894
943.342
951.817
938.703
937.174
946.966
938.967
950.744
948.168
936.676
949.617
937.809
948.450
940.709
942.181
946.516
933.517
937.363
934.916
936.711
939.851
946.033
943.925
943.905
943.379
941.068
933.365
941.593
937.751
933.738
941.303
929.992
935.125
933.612
942.529
939.010
941.822
939.845
941.404
941.066
927.795
927.070
933.268
935.345
930.391
936.342
928.152
928.872
933.253
935.469
938.171
923.818
928.917
924.366
921.917
933.011
934.897
931.290
933.976
927.973
931.256
922.387
930.956
928.063
921.667
918.450
929.803
922.191
922.090
188.981
217.062
233.660
157.105
189.610
204.973
153.211
163.579
167.624
165.489
195.186
194.634
211.837
221.360
154.558
181.623
228.106
224.083
173.875
212.821
169.823
231.366
221.768
228.952
184.240
168.237
175.273
215.468
154.694
160.569
165.171
196.329
213.099
165.798
198.072
184.979
225.263
202.968
168.324
169.138
158.182
214.255
197.849
213.069
190.294
217.858
232.877
232.318
180.041
168.139
224.173
154.912
211.739
172.698
212.597
159.514
215.470
214.718
210.480
204.511
178.220
173.880
151.734
186.001
155.611
151.376
193.069
165.485
209.386
190.236
162.315
182.366
220.421
209.466
205.153
184.918
223.585
209.260
176.027
196.554
155.271
204.591
231.355
216.653
192.589
161.404
178.744
180.043
224.364
226.532
191.667
185.369
226.965
215.780
151.849
168.239
161.532
205.846
175.013
164.663
91.432
119.655
92.263
85.552
96.902
99.147
123.675
107.232
103.562
99.973
111.316
107.629
129.683
119.179
85.113
100.369
109.768
113.034
115.384
99.305
118.835
115.732
112.677
111.682
119.601
105.640
121.320
104.121
96.664
95.055
88.320
85.828
87.164
119.059
126.910
91.354
122.596
106.753
94.820
109.662
110.502
88.771
86.087
108.958
102.174
94.562
125.589
85.952
89.393
119.407
111.810
109.256
87.103
114.723
122.071
97.714
125.197
123.495
112.232
90.033
109.827
90.386
96.936
127.516
104.746
103.079
122.004
119.452
91.868
98.798
116.311
103.210
100.215
125.008
105.467
85.780
96.465
107.433
95.905
117.625
124.519
90.358
90.572
103.602
86.834
113.403
116.196
95.442
102.144
124.110
109.506
97.652
96.943
115.208
128.913
120.387
84.707
119.114
88.845
93.555
118.996
119.035
93.808
116.804
91.474
120.918
91.316
110.621
115.509
113.694
88.469
96.905
107.168
96.019
95.850
92.360
92.972
108.838
93.079
89.468
115.133
97.960
87.220
87.425
97.804
86.565
94.403
96.026
105.118
85.354
121.929
94.656
114.284
109.335
104.045
95.134
98.214
92.743
94.487
108.104
110.206
98.103
104.450
120.246
112.591
122.532
116.963
93.683
91.253
126.078
98.040
94.168
91.076
87.729
100.676
109.377
123.639
128.103
95.798
119.057
120.121
92.309
102.147
109.759
106.577
97.859
91.188
127.909
103.975
115.349
126.637
112.207
110.676
121.044
121.896
126.589
98.816
91.185
117.252
98.280
126.024
112.836
122.129
89.542
105.436
88.084
108.696
128.352
128.858
122.036
119.658
107.684
107.981
90.169
104.949
98.524
93.613
97.263
84.044
89.497
119.362
89.619
119.478
96.430
104.312
106.422
117.434
100.526
91.300
103.686
109.807
110.721
121.577
97.122
106.452
85.340
102.658
97.050
119.125
102.191
127.740
112.140
107.388
96.555
83.855
87.421
118.020
93.487
95.221
105.609
88.606
91.893
95.170
89.367
124.149
96.560
111.846
116.767
100.228
112.392
110.431
125.239
95.478
122.270
101.819
119.013
88.344
102.090
111.283
99.209
93.710
111.104
126.012
90.751
88.908
120.697
116.845
92.168
123.061
101.061
84.177
88.267
109.528
126.006
89.480
118.142
99.570
128.317
127.182
96.000
123.112
100.568
98.530
105.350
103.273
114.575
128.515
125.897
84.404
