676.757
682.524
678.821
685.143
682.239
691.155
686.392
682.890
689.742
690.485
690.710
690.497
688.645
696.197
688.730
693.508
696.056
689.630
692.138
693.517
701.847
703.147
695.274
693.565
704.452
700.470
694.084
695.604
709.409
696.282
697.745
713.382
711.410
710.126
707.013
704.332
712.018
709.469
718.395
718.497
710.123
707.616
719.464
714.942
715.971
710.495
720.365
713.576
726.543
724.721
724.163
718.790
718.708
729.337
729.097
731.835
723.052
724.485
731.258
736.131
733.141
735.213
739.019
727.814
732.390
735.313
734.281
735.083
736.369
730.316
737.546
739.863
739.860
747.951
741.440
744.812
743.213
747.881
755.710
753.817
758.982
754.678
751.359
759.117
758.096
766.493
756.978
758.490
765.586
769.502
761.756
770.408
774.897
771.397
774.971
772.111
782.225
782.838
782.543
779.198
778.183
785.039
782.823
789.268
784.645
795.395
796.043
790.035
802.233
796.814
805.011
796.090
797.637
799.351
805.801
802.274
808.131
818.048
812.407
820.121
822.230
815.780
823.285
824.648
829.568
824.102
820.294
820.637
822.659
832.237
837.626
831.735
828.312
843.964
832.910
846.629
840.573
848.986
847.485
849.372
845.814
841.074
844.430
847.926
853.362
852.416
850.104
863.920
852.651
860.021
855.089
867.075
861.051
860.128
876.696
871.719
866.242
874.746
872.194
877.244
875.795
875.734
880.727
883.044
888.999
879.619
895.599
893.395
894.519
889.670
900.258
898.162
897.828
899.202
893.733
910.376
910.477
908.204
901.628
907.983
917.318
913.827
915.508
909.164
913.967
919.986
913.964
914.845
920.569
919.833
930.628
934.574
936.246
923.837
938.066
927.115
930.499
932.328
938.471
946.605
946.309
938.239
939.688
947.014
941.927
947.335
944.810
948.437
949.591
953.873
962.623
964.400
959.163
961.161
964.076
969.242
960.442
973.888
972.058
975.043
969.918
973.613
975.229
981.395
981.798
977.605
982.153
985.694
993.903
980.974
984.139
983.420
994.151
991.124
1001.765
991.698
1006.415
995.855
998.206
1008.884
1012.857
1006.074
1008.424
1016.730
1005.309
1009.892
1015.602
1023.812
1012.406
1018.576
1023.969
1030.822
1017.734
1031.391
1034.751
1036.225
1032.624
1026.200
1039.861
1031.408
1031.823
1044.346
1040.750
1042.038
1035.997
1050.649
1045.910
1049.685
1042.421
1053.079
1052.316
1048.850
1051.903
1063.889
1065.413
1059.290
1065.148
1064.752
1057.849
1055.234
1051.155
1060.330
1056.203
1055.010
1061.181
1060.688
1052.381
1053.378
1061.512
1057.018
1059.670
1058.073
1052.278
1056.057
1062.915
1066.243
1065.460
1063.373
1061.280
1053.698
1060.887
1065.314
1062.233
1058.802
1059.092
1053.982
1059.824
1053.029
1056.979
1058.582
1067.215
1060.236
1064.227
1066.352
1060.889
1061.749
1052.382
1054.612
1055.660
1067.240
1054.577
1067.450
1065.850
1056.920
1063.037
1057.348
1054.038
1055.790
1064.094
1062.370
1063.219
1061.235
1053.668
1055.462
1067.496
1067.702
1057.188
1060.505
1059.722
1061.239
1054.651
1059.217
1065.298
1067.062
1059.430
1058.811
1063.101
1059.817
1060.211
1055.693
1066.032
1061.706
1063.527
1059.526
1057.010
1067.132
1057.126
1065.237
1066.046
1056.259
1056.289
1069.519
1063.100
1070.537
1058.498
1068.353
1056.956
1056.763
1062.947
1068.348
1063.255
1069.083
1065.065
1070.735
1058.214
1067.297
1057.423
1068.158
1069.216
1061.201
1059.780
1068.634
1065.385
1065.495
1068.631
1068.056
1061.396
1065.401
1064.424
1062.939
1057.678
1071.197
1071.495
1069.159
1067.292
1065.343
1057.362
1066.570
1065.455
1059.823
1059.580
1061.853
1063.895
1073.191
1060.887
1069.147
1058.407
1067.647
1069.121
1057.717
1070.091
1069.163
1070.908
1060.434
1059.093
1065.244
1067.373
1067.012
1063.098
1069.682
1074.178
1058.417
1059.397
1069.900
1073.359
1070.394
1067.886
1065.253
1061.377
1067.123
1065.904
1074.320
1069.182
1063.043
1069.568
1068.965
1064.017
1071.632
1059.683
1069.427
1074.475
1060.058
1073.660
1061.737
1068.880
1061.260
1065.437
1075.049
1065.942
1074.326
1073.908
1070.532
1070.304
1066.834
1074.858
1070.770
1062.982
1070.897
1073.543
1061.734
1074.802
1064.717
1075.646
1071.049
1063.920
1061.146
1072.575
1076.121
1066.452
1075.797
1073.811
1066.959
1075.969
1063.271
1062.726
1074.284
1061.961
1066.056
1069.883
1064.017
1063.236
1067.143
1067.379
1060.994
1056.861
1049.488
1053.112
1051.078
1055.600
1045.781
1043.538
1049.183
1048.011
1049.489
1052.857
1037.987
1048.265
1043.785
1043.314
1038.890
1044.492
1044.015
1044.553
1029.500
1037.439
1039.843
1035.642
1025.710
1036.555
1027.562
1036.823
1033.886
1022.376
1031.407
1028.361
1018.286
1023.420
1015.703
1027.380
1023.854
1021.101
1013.280
1014.324
1018.531
1009.708
1017.678
1018.116
1011.380
1013.335
1016.016
1008.583
1010.089
998.891
1008.182
1001.443
996.633
1004.365
999.253
1004.510
1005.223
1001.792
998.177
988.983
992.899
991.756
991.975
989.351
990.286
989.095
980.436
987.524
990.531
981.667
980.092
987.077
984.935
986.294
984.165
970.901
972.719
969.528
972.612
978.989
970.678
970.116
971.268
966.274
968.433
973.565
970.244
965.930
957.969
954.176
956.739
956.159
959.191
963.475
963.454
963.235
952.544
960.304
954.282
951.719
945.088
956.362
946.184
949.216
951.776
943.327
935.769
947.931
940.598
937.393
941.328
931.493
936.045
931.831
933.772
929.093
934.755
937.572
928.581
931.672
925.997
929.878
920.978
922.319
918.029
924.982
928.136
928.259
918.200
919.668
916.021
922.904
914.290
919.060
905.986
906.208
907.924
917.810
912.004
908.950
909.898
909.105
901.899
900.353
906.576
907.981
899.756
904.629
895.053
892.187
903.408
898.129
896.895
893.824
897.118
895.770
896.858
895.922
891.875
883.980
892.263
888.145
875.026
881.895
885.261
882.138
882.869
870.742
869.003
870.783
877.977
880.189
869.561
868.639
871.947
868.464
867.879
869.183
870.249
859.911
865.103
863.986
855.816
859.025
857.622
850.428
862.291
855.997
858.868
857.452
846.564
854.722
855.919
845.634
856.266
857.554
861.835
855.647
850.087
863.186
857.622
853.045
850.696
857.494
854.919
859.047
865.703
858.563
855.409
862.377
857.772
864.393
853.479
853.801
854.533
864.919
864.150
867.009
869.211
869.989
868.068
870.322
858.777
867.829
862.950
868.264
863.879
866.613
871.924
874.158
866.860
874.008
872.723
873.546
866.663
870.744
874.401
875.535
865.801
875.244
877.085
872.846
875.482
868.706
879.736
867.729
875.698
866.852
876.833
880.002
875.924
880.809
870.237
871.949
877.449
877.006
869.011
872.735
872.484
877.443
880.767
878.690
874.867
880.587
882.890
885.663
884.277
881.591
877.401
888.305
884.111
874.736
879.875
884.179
883.505
891.088
887.747
884.098
882.737
886.762
889.376
890.564
884.322
883.567
889.300
882.401
894.113
883.347
889.599
893.228
880.942
886.236
885.047
896.566
893.277
888.035
892.858
898.796
896.281
899.191
885.132
890.430
900.815
894.679
892.139
895.016
893.150
896.197
888.413
889.940
893.975
900.089
903.694
904.390
894.193
893.640
892.740
890.621
903.066
891.577
899.537
907.327
903.119
900.185
908.643
895.340
907.414
899.079
896.280
904.463
899.699
899.889
900.948
901.724
909.756
904.634
912.548
900.104
910.566
907.129
910.425
912.444
905.877
911.805
915.175
901.013
908.800
912.254
913.863
914.902
909.148
912.319
903.677
910.995
905.669
906.344
907.317
908.480
911.847
908.237
915.399
913.002
915.930
918.979
914.413
918.848
919.734
910.855
916.024
909.990
920.349
924.637
925.187
923.189
923.491
925.523
920.659
918.211
918.972
924.101
926.999
917.907
922.331
928.555
915.584
916.991
927.234
920.064
928.435
923.452
921.375
917.057
925.059
931.092
923.739
916.416
916.383
928.586
923.828
921.482
913.321
912.275
921.949
914.893
923.143
917.830
913.164
918.289
922.571
916.222
908.709
910.360
917.024
916.059
917.000
919.201
907.181
910.818
914.307
910.735
916.465
902.977
907.298
903.913
909.585
900.055
901.614
912.702
904.933
912.598
902.178
909.503
896.666
900.522
898.167
904.751
901.362
905.002
903.924
906.855
905.660
906.616
891.353
896.283
905.546
900.023
897.811
891.569
889.349
898.056
894.212
889.873
891.949
898.873
894.325
899.543
895.844
898.094
897.889
897.492
889.446
889.053
895.865
889.907
887.607
889.409
887.117
892.059
894.437
878.918
886.975
883.869
887.086
876.258
879.908
889.518
876.512
883.837
885.372
874.644
880.330
872.298
883.662
878.728
882.827
884.071
879.075
876.341
875.020
878.415
877.233
867.536
880.807
878.298
872.272
875.318
874.203
865.408
878.476
864.503
866.443
871.773
864.070
867.360
873.910
868.903
865.184
865.198
867.778
860.968
863.885
870.603
865.547
869.698
857.940
859.080
857.332
867.487
857.145
864.312
864.363
859.178
861.463
853.095
866.392
861.553
861.040
850.120
865.229
849.147
855.679
849.649
852.612
862.603
860.916
848.064
852.823
846.252
849.156
847.210
857.253
857.012
849.460
842.536
842.763
850.861
847.089
854.025
841.859
854.744
850.653
851.845
838.986
850.397
850.915
840.627
840.412
842.345
840.371
844.885
848.965
844.764
842.046
844.430
846.819
831.840
835.834
830.763
838.432
835.616
837.505
833.211
837.869
830.778
838.924
837.724
837.182
828.539
830.739
828.227
834.159
835.478
834.839
824.609
830.510
826.559
827.975
835.710
833.778
826.394
823.604
832.333
820.245
828.338
826.377
827.050
823.350
824.364
825.207
835.653
822.773
831.966
826.068
834.514
831.573
834.965
827.788
828.747
837.944
830.277
839.290
833.538
839.703
839.778
837.620
833.407
837.511
841.327
831.508
832.675
840.422
838.394
835.175
837.703
829.158
835.330
840.748
844.587
836.798
838.115
834.298
842.938
841.916
831.737
845.464
836.797
838.148
835.237
840.615
842.115
833.126
845.649
844.942
845.658
848.908
834.786
836.896
846.237
844.628
848.870
840.581
850.626
846.095
839.038
851.458
847.558
838.037
838.105
852.429
852.148
853.923
847.675
848.378
840.296
843.302
855.427
844.277
850.897
840.777
847.426
851.626
853.681
857.124
850.885
848.192
847.966
843.966
855.927
852.265
845.744
857.070
856.192
846.620
855.050
859.623
855.772
847.080
846.149
847.227
859.799
860.821
853.062
854.748
859.669
847.718
851.821
848.956
851.341
859.442
863.212
850.126
853.132
853.657
855.575
853.048
863.239
865.782
861.385
859.891
860.540
855.772
859.422
863.693
859.182
864.870
865.284
866.994
869.525
865.873
859.063
864.729
867.475
869.795
857.478
857.543
859.373
861.827
867.542
871.729
863.649
858.646
865.489
870.197
873.077
871.545
873.929
870.733
870.760
874.679
860.647
863.496
865.123
864.665
872.508
866.864
873.726
877.089
870.914
862.338
877.825
869.822
875.058
872.137
869.551
875.688
867.008
872.742
874.374
869.556
875.116
873.701
871.774
868.779
870.269
877.013
882.726
868.014
873.725
880.537
872.112
875.507
880.371
871.969
870.678
883.708
872.894
876.918
881.404
872.598
874.789
881.200
886.589
872.479
884.910
878.162
873.451
885.138
878.122
887.006
876.590
889.115
886.921
889.023
889.972
876.157
884.489
888.745
891.137
887.512
887.315
880.559
882.099
892.643
889.609
889.999
892.090
887.041
896.188
890.922
891.963
885.337
893.775
893.977
899.224
886.118
901.920
899.103
891.854
890.549
904.039
899.497
902.649
893.188
898.969
903.376
898.702
896.777
905.057
899.598
902.848
905.140
902.389
910.787
898.815
904.456
906.741
905.520
910.918
902.198
906.671
900.242
908.929
907.534
911.477
905.722
908.441
913.182
915.958
910.933
907.861
918.870
917.302
905.503
910.678
907.202
918.522
910.788
920.788
908.652
921.249
917.679
911.944
918.572
924.780
913.054
924.898
914.248
921.063
917.189
920.885
922.081
916.452
923.393
928.055
919.380
929.780
919.996
921.309
919.346
923.810
930.167
929.202
929.026
922.098
932.837
922.750
923.098
925.007
930.070
926.920
930.202
934.666
940.151
931.132
928.097
942.869
940.971
928.796
939.636
943.700
935.992
945.490
945.042
942.977
935.266
947.510
936.405
934.478
935.600
946.312
935.064
942.253
950.162
948.521
938.495
950.520
942.260
942.904
941.290
942.432
947.958
956.037
943.265
954.100
950.510
951.852
948.636
949.045
954.169
947.380
958.763
945.459
947.221
949.116
962.522
962.267
960.959
961.701
963.907
951.502
959.327
955.708
953.400
959.122
952.722
964.251
967.517
954.889
958.668
963.676
960.215
969.899
957.132
962.629
964.333
972.253
961.553
960.685
971.878
963.537
970.236
972.365
964.399
965.042
965.467
969.425
974.086
970.534
967.279
966.032
976.808
976.883
977.866
980.950
975.502
972.963
969.516
982.063
973.022
975.618
973.520
985.064
978.551
971.983
983.625
986.554
973.434
981.778
981.727
976.628
985.208
984.916
986.779
975.325
987.184
983.780
980.442
975.673
984.755
977.526
986.469
977.279
978.046
982.045
974.292
981.343
978.828
980.777
972.244
985.468
977.190
977.163
979.094
981.085
977.299
982.209
983.556
971.090
973.741
968.756
972.990
969.376
969.246
977.599
973.457
969.025
973.091
976.074
967.432
964.593
972.377
972.221
975.890
976.188
975.901
964.217
970.642
976.383
961.542
974.557
972.241
973.527
972.586
968.608
963.957
968.921
965.611
967.098
966.750
969.880
967.744
963.183
957.693
971.474
972.349
961.751
966.855
960.732
956.069
964.144
970.617
966.316
964.335
956.647
962.064
965.415
959.091
964.049
954.906
966.701
961.713
960.686
965.571
956.713
960.095
953.186
965.667
959.205
959.757
954.711
954.297
953.809
954.850
959.817
947.830
963.412
959.115
948.242
961.512
949.291
949.150
947.830
960.490
950.261
952.118
949.543
946.970
954.167
957.181
944.625
954.489
946.809
954.703
942.941
953.262
951.099
946.653
949.321
942.680
946.434
951.849
942.497
942.538
944.946
949.507
949.818
947.560
941.468
946.019
948.321
941.122
949.062
949.030
937.257
938.659
947.357
938.157
942.649
941.334
947.992
948.067
939.727
944.046
948.144
941.929
947.914
935.764
946.329
941.777
934.265
939.285
939.354
944.726
943.871
942.172
933.386
939.286
931.249
937.718
935.748
934.159
930.128
943.072
943.383
930.615
940.782
941.598
934.689
939.657
929.039
928.341
935.922
939.310
927.596
927.835
933.357
934.972
929.029
937.379
938.441
938.215
931.379
925.937
924.740
927.121
936.848
935.366
934.923
925.247
920.826
924.281
926.899
919.679
928.525
919.437
929.659
918.374
923.029
926.820
924.925
921.319
917.121
916.969
925.439
922.948
914.316
910.605
923.429
916.584
920.475
915.924
908.071
916.893
914.115
909.866
903.283
912.507
900.793
901.600
895.696
908.232
892.442
899.053
893.362
899.490
899.866
887.784
898.581
898.151
887.210
886.644
892.140
879.439
884.088
891.015
876.075
880.368
879.098
882.237
886.434
884.284
871.550
869.265
868.868
874.413
869.524
875.750
869.423
868.537
867.397
859.526
869.312
863.143
859.374
862.914
855.390
865.207
853.117
857.172
848.820
856.558
845.297
858.861
844.472
856.980
854.779
840.306
847.574
836.457
835.251
843.035
838.132
836.357
835.507
839.035
834.905
841.277
838.253
838.669
835.259
829.270
836.733
821.910
828.857
826.509
820.900
828.622
817.826
818.081
814.109
819.285
817.369
822.588
819.665
812.075
815.895
811.904
809.572
813.265
806.005
802.234
804.152
798.226
806.146
806.861
796.759
802.848
793.158
801.699
798.591
793.930
796.977
793.253
793.924
796.862
792.610
779.519
790.436
780.541
778.741
785.188
785.168
785.589
785.711
777.500
781.970
771.465
766.973
780.533
765.297
772.057
763.647
769.341
762.133
765.580
766.543
764.143
766.618
761.776
753.217
756.129
758.738
764.691
752.987
759.493
754.750
747.757
745.588
744.715
755.096
744.725
746.454
749.585
737.260
736.757
740.965
732.861
731.839
731.644
728.660
733.545
736.600
731.350
724.810
736.187
727.996
726.736
725.612
721.594
722.033
722.932
724.662
723.980
719.983
716.793
725.303
715.721
711.859
720.869
705.250
714.958
710.975
708.682
703.916
703.591
712.419
702.586
700.117
702.615
694.734
698.993
703.325
695.409
689.239
694.261
698.055
691.655
696.106
698.442
689.570
221.884
190.417
207.128
229.805
229.038
195.729
207.025
197.866
211.859
232.162
166.673
185.824
176.066
185.429
185.074
194.188
229.963
219.393
193.548
175.219
195.175
151.771
220.920
207.701
149.882
191.628
210.279
221.329
156.932
208.089
215.109
167.363
174.886
191.007
219.028
159.376
180.342
226.524
215.178
225.554
226.400
217.666
164.045
159.588
180.866
213.838
158.185
192.376
153.209
179.523
175.855
208.841
208.561
217.199
219.681
210.205
200.775
155.138
230.406
190.418
215.390
177.563
177.771
162.028
154.716
159.887
178.754
159.541
196.353
212.160
198.397
165.289
148.419
182.365
215.020
223.600
212.608
178.925
162.636
173.978
161.331
181.447
201.726
147.653
197.000
184.016
223.374
146.933
221.589
182.789
212.830
162.681
212.802
148.725
182.242
159.096
226.515
226.306
184.910
169.537
107.426
123.294
97.206
125.189
90.189
110.817
91.576
102.497
91.526
96.682
110.438
124.016
113.593
120.958
126.127
93.223
96.923
96.581
98.033
113.098
89.457
116.128
107.931
117.333
106.516
95.477
110.910
