860.978
860.175
852.979
849.302
855.017
860.525
856.851
858.773
862.523
854.270
854.669
863.229
851.286
852.522
857.651
853.042
864.928
865.476
863.715
861.232
867.226
866.214
861.217
861.387
860.630
867.055
858.930
867.384
868.538
859.687
871.884
859.896
860.385
858.802
866.489
865.547
866.170
858.895
868.243
863.586
863.273
864.186
869.807
871.444
864.582
867.226
874.584
875.357
874.222
878.169
872.198
877.736
870.443
867.392
866.916
877.050
866.733
874.647
874.645
868.351
879.877
871.194
874.471
871.288
876.222
871.939
876.363
872.615
877.067
877.781
882.628
874.998
871.763
877.000
884.582
887.989
880.199
876.115
876.426
886.557
878.022
884.062
875.352
890.668
880.382
883.737
884.243
882.585
883.043
890.946
890.740
883.667
884.301
882.102
884.887
887.310
882.513
882.840
886.179
896.679
894.508
884.170
889.704
894.702
890.456
887.525
893.944
886.974
894.077
896.996
884.910
895.295
894.223
900.995
894.864
890.343
900.194
898.331
895.602
902.835
891.756
899.462
899.622
904.391
900.292
891.549
894.262
894.495
904.452
896.502
895.626
895.366
896.029
898.997
905.407
907.307
906.982
896.294
906.273
907.320
905.066
911.710
908.004
905.997
902.019
909.984
899.640
908.155
904.436
905.312
910.302
910.687
907.056
915.947
913.584
903.091
912.661
912.748
910.330
913.045
917.914
914.918
919.317
916.036
911.719
908.046
907.935
909.178
909.355
918.258
915.281
918.493
923.108
910.807
911.294
909.788
916.988
924.310
918.513
915.125
919.859
912.732
921.992
917.627
916.737
927.413
924.963
924.861
927.864
924.505
920.501
923.897
915.595
927.421
929.928
926.072
923.034
932.041
932.516
924.884
928.847
928.627
920.283
929.254
921.447
916.550
917.716
916.529
921.754
916.091
923.363
925.567
917.079
919.033
924.836
921.884
908.907
914.192
916.118
916.743
910.672
907.059
920.838
911.081
904.392
905.880
903.402
909.434
917.587
902.585
901.904
906.436
901.403
901.934
904.949
904.038
907.757
912.063
904.063
904.003
911.570
904.817
907.326
899.595
907.980
896.927
898.200
900.255
902.128
904.234
895.268
898.821
892.332
895.828
890.437
890.653
896.329
903.063
892.273
890.522
889.625
896.512
895.091
890.441
895.711
887.891
886.064
895.982
886.349
886.846
884.904
885.406
892.700
890.102
890.393
885.363
882.227
888.816
879.641
880.994
888.141
878.832
885.830
881.223
878.397
883.648
884.241
877.556
874.728
878.300
882.293
880.543
879.506
882.528
883.877
884.355
871.800
870.728
868.936
882.492
879.552
876.534
866.659
875.581
869.185
872.173
869.917
868.733
867.090
876.120
876.771
867.334
867.037
871.902
862.585
860.562
870.778
867.927
872.134
868.068
873.035
865.883
871.149
866.875
870.266
861.601
866.005
869.250
858.528
864.503
866.483
852.153
864.126
856.526
864.719
855.070
863.507
851.954
858.872
857.954
850.542
847.626
860.593
861.501
853.596
851.419
852.595
846.705
848.732
848.787
851.740
850.091
852.921
855.936
854.922
855.539
852.576
852.342
844.407
842.890
843.848
850.226
836.786
847.761
843.488
836.317
842.328
844.895
844.375
847.776
848.582
840.607
834.326
831.221
844.537
837.024
841.322
844.946
831.904
835.599
835.735
837.953
830.584
826.769
836.472
836.418
828.017
835.802
827.371
831.627
836.519
831.022
823.612
832.549
829.558
820.611
833.530
833.461
829.233
820.793
826.719
821.537
830.236
825.627
823.252
821.735
827.672
823.103
826.820
827.736
837.521
835.154
834.334
823.707
828.750
824.191
837.663
831.539
831.979
829.622
834.258
841.094
828.535
832.487
835.370
838.877
828.422
839.928
840.452
828.437
836.081
842.457
834.425
835.691
830.898
843.350
833.329
836.757
834.450
834.806
832.193
845.941
846.866
840.269
845.614
844.533
834.201
842.904
842.465
846.748
842.995
844.521
846.382
848.641
843.393
836.855
845.423
843.403
851.261
840.792
844.362
838.701
839.183
844.525
841.259
847.815
848.531
839.318
850.487
852.679
851.073
846.130
842.792
850.999
840.899
848.174
848.193
848.628
854.813
848.996
843.237
846.264
853.630
852.802
842.557
849.691
857.147
851.721
851.902
858.321
855.707
859.386
851.942
859.436
850.914
847.153
851.128
858.246
854.920
849.850
854.302
855.318
854.417
862.469
854.217
852.457
860.010
862.789
864.091
864.624
861.896
864.150
851.194
863.136
862.248
857.731
864.704
857.474
854.211
866.530
853.621
857.932
858.727
856.744
868.481
856.976
861.186
868.822
860.493
866.844
871.060
858.688
867.129
858.077
864.878
868.349
861.234
869.062
871.803
860.491
857.991
867.939
863.345
869.573
865.219
872.712
870.483
873.593
866.031
861.871
876.348
873.070
867.927
869.566
865.353
866.614
872.837
871.358
875.019
874.881
874.229
874.407
868.548
875.414
870.189
864.961
875.264
871.219
872.160
868.077
877.120
877.144
882.004
880.675
877.334
878.420
873.532
880.613
871.096
878.791
872.071
874.927
884.742
879.850
874.045
879.885
880.732
872.434
883.186
873.142
882.953
873.866
885.783
879.514
876.087
886.275
878.444
884.819
888.752
880.925
879.409
877.767
883.665
883.579
877.251
879.367
884.392
888.344
886.665
893.844
880.401
887.101
895.820
892.989
884.333
883.513
885.837
896.989
898.354
900.008
898.322
898.862
888.325
893.781
888.377
898.521
892.275
894.949
898.898
894.009
893.937
893.230
892.567
907.278
906.977
904.747
905.026
899.174
898.696
898.839
896.383
910.495
910.769
910.236
902.802
911.273
905.861
907.639
905.592
900.782
902.143
906.026
913.763
912.518
910.490
908.053
911.121
910.308
905.094
910.566
907.062
917.512
919.274
915.025
913.959
923.376
908.529
909.628
919.478
917.849
915.658
915.723
915.246
915.476
912.647
925.992
920.220
913.894
922.969
922.417
928.535
918.770
921.114
927.674
923.638
919.539
923.136
927.638
923.394
924.234
930.822
935.101
931.424
924.138
936.285
927.129
932.940
934.498
932.100
936.242
936.467
933.307
935.703
937.298
934.633
932.077
943.550
939.535
944.888
936.382
945.187
940.991
934.268
946.937
948.347
937.667
944.208
937.019
945.241
940.587
937.570
940.474
937.657
942.960
943.955
940.580
946.534
939.514
949.757
954.507
953.950
951.153
954.792
945.481
946.462
947.776
951.510
947.517
955.955
960.985
946.878
947.070
947.708
961.077
960.220
950.203
957.619
954.763
953.993
963.246
966.212
958.549
959.652
967.195
958.227
968.550
960.206
954.882
957.565
963.862
957.374
969.554
960.492
971.971
970.609
969.031
965.046
966.948
962.663
971.119
965.107
963.684
974.891
963.466
971.444
979.528
979.502
964.825
971.458
972.455
981.984
980.178
982.952
977.744
969.438
979.186
974.724
976.822
984.092
980.430
974.325
974.671
977.649
977.527
984.570
987.541
974.717
977.289
987.330
987.876
990.437
978.116
984.106
982.461
987.117
982.370
981.885
979.346
984.772
975.646
983.357
986.980
983.879
982.116
971.282
976.861
983.288
979.328
973.431
980.830
983.859
977.681
981.279
980.669
967.870
975.029
980.397
981.066
972.177
971.400
975.700
972.130
977.584
978.388
980.056
978.845
978.392
969.271
970.119
972.120
970.882
963.803
964.476
962.874
964.327
972.713
969.908
973.733
967.757
976.253
967.434
973.788
972.343
969.904
968.938
962.812
970.086
964.842
966.868
964.660
966.362
963.781
965.069
970.339
958.537
956.081
968.858
958.025
962.024
968.718
969.658
955.131
965.071
965.229
965.262
964.217
961.877
960.169
963.015
958.761
956.616
961.749
960.204
955.110
958.028
953.060
957.717
949.760
959.497
954.026
951.380
949.961
955.836
954.155
962.708
959.969
958.817
959.744
952.354
950.541
953.741
953.952
955.156
960.080
958.305
958.627
958.484
958.040
943.770
958.666
957.683
951.899
956.251
945.885
955.471
949.480
948.177
947.410
952.698
945.296
954.095
950.437
944.831
945.808
940.485
941.331
944.031
948.841
952.692
950.970
938.247
947.324
944.453
941.916
948.193
935.955
941.345
944.934
935.240
943.435
949.101
949.423
939.912
940.892
947.624
934.036
938.617
940.698
940.909
932.393
933.165
939.970
938.285
943.544
937.074
935.677
929.088
939.006
935.389
928.257
934.816
934.775
939.355
939.472
938.440
926.483
927.012
935.154
926.404
936.212
928.555
933.499
939.396
937.187
938.950
925.664
934.275
924.133
929.004
935.477
931.155
923.590
933.138
931.338
927.106
930.146
931.482
922.162
922.117
922.010
925.766
924.588
918.524
928.320
929.719
922.934
925.297
918.210
918.006
916.832
917.961
914.166
925.419
914.191
921.329
923.399
907.724
912.328
910.292
909.035
913.896
908.416
900.687
904.989
899.182
907.147
900.824
897.823
903.501
899.915
892.188
897.645
900.102
895.237
890.357
893.923
893.535
896.432
881.678
886.616
888.169
884.768
891.790
879.471
887.223
874.102
883.889
882.541
869.678
880.070
870.995
866.792
871.300
867.248
876.788
873.688
862.839
868.186
862.795
870.926
857.077
864.053
856.464
867.275
853.455
859.002
861.523
862.187
846.848
850.110
854.481
846.223
841.806
841.358
851.870
846.976
851.045
841.633
839.020
839.600
843.351
844.216
835.776
830.051
827.253
838.909
827.720
827.727
825.899
832.861
830.694
826.735
826.362
822.903
817.235
826.885
822.629
819.414
814.680
822.757
812.037
813.178
806.195
807.165
807.406
814.838
816.132
813.179
814.354
800.085
808.132
796.904
793.956
797.569
798.079
793.006
800.556
789.186
790.170
793.510
788.836
789.475
789.815
783.149
790.197
792.545
778.480
790.847
785.055
781.861
778.574
774.493
772.708
773.409
769.606
780.400
774.069
773.535
772.209
771.949
775.308
761.345
762.879
758.610
764.801
759.175
761.564
765.341
753.864
758.175
756.742
763.068
757.787
759.995
759.223
745.423
751.186
745.120
743.820
745.392
740.706
740.611
738.973
747.230
739.706
732.572
738.639
744.488
730.456
737.463
738.240
735.747
730.859
728.311
728.800
727.000
723.813
723.818
719.908
720.753
714.514
717.093
726.501
719.687
723.014
712.253
718.748
717.515
712.214
714.358
705.879
701.673
708.172
704.106
702.638
701.156
696.096
700.711
702.174
693.046
698.478
703.591
701.725
700.983
697.673
686.994
683.267
696.894
77.378
67.871
78.685
59.785
76.916
64.159
64.136
76.835
87.530
81.941
60.966
86.545
71.875
61.488
78.052
72.421
72.212
59.712
67.262
60.972
80.651
78.645
62.866
73.260
80.268
80.286
62.043
73.623
76.179
79.354
59.755
80.935
78.323
84.965
65.107
76.876
83.703
72.361
81.843
81.604
77.141
64.550
65.479
80.138
71.056
79.533
261.451
233.142
280.982
202.677
233.153
234.689
228.368
217.524
230.836
234.441
243.676
270.261
205.363
221.460
228.675
216.145
194.538
229.766
268.651
250.291
194.891
220.938
262.114
208.154
202.089
211.891
249.493
191.069
217.321
238.727
227.631
258.511
264.602
266.748
276.312
259.740
202.249
272.335
209.810
205.035
189.196
252.555
249.641
231.800
269.842
194.986
201.007
200.662
204.423
209.193
222.486
224.719
241.335
221.355
111.925
152.157
138.206
126.356
142.560
147.510
120.950
127.017
102.152
133.930
150.131
105.062
103.998
128.241
117.325
135.496
121.591
145.412
149.811
112.336
148.713
109.831
139.497
122.905
132.311
128.902
133.033
110.888
99.402
115.566
122.750
108.229
108.631
102.782
144.203
103.836
112.906
122.440
129.421
128.839
119.550
137.581
136.637
104.922
116.651
135.362
143.238
112.453
112.627
130.180
130.289
97.958
111.863
111.505
118.437
135.937
137.397
134.898
108.305
113.649
111.566
127.634
111.271
147.396
129.157
120.551
125.052
124.533
128.869
144.342
121.556
127.371
118.172
109.597
107.633
123.999
143.177
147.538
142.712
137.221
145.442
130.078
147.512
142.675
119.832
102.131
123.111
136.576
143.109
146.163
102.868
103.114
120.120
136.788
141.977
139.956
100.111
108.055
103.321
142.541
122.985
134.158
127.596
140.885
101.694
113.153
120.269
128.746
129.527
128.538
102.627
101.586
120.897
143.312
101.800
135.492
119.217
104.221
95.698
138.575
145.127
103.585
130.009
106.767
140.650
132.583
111.471
129.540
144.212
98.693
145.254
142.759
133.085
127.427
111.533
126.829
134.231
132.242
103.447
119.032
107.211
124.446
127.888
124.253
139.516
105.629
105.254
139.843
106.452
132.435
115.114
135.375
132.534
128.889
114.271
137.509
137.671
102.014
111.138
96.299
101.896
109.176
143.946
106.291
142.639
120.672
122.111
112.300
125.064
136.747
100.013
115.034
112.837
141.809
112.531
107.530
137.399
141.496
96.875
136.136
133.041
121.384
127.199
140.834
111.335
111.559
144.410
97.325
120.232
127.665
133.525
113.919
141.908
95.716
125.031
107.280
108.026
127.308
133.953
130.917
134.334
108.259
136.180
107.756
108.942
132.985
126.887
104.201
101.154
99.123
95.203
101.663
145.582
97.221
97.510
107.132
97.492
97.308
136.387
107.625
112.350
95.423
120.335
132.054
112.775
106.679
118.123
141.757
98.612
130.043
108.034
103.384
106.254
141.254
115.977
102.207
132.881
113.710
107.430
129.217
106.255
116.121
136.494
138.443
111.445
127.522
140.538
125.854
140.237
136.051
143.883
125.570
144.301
97.192
107.694
110.017
98.945
144.495
120.834
108.317
130.855
95.861
130.696
107.877
125.094
113.775
130.745
109.071
120.912
99.982
141.912
124.622
139.225
142.603
117.474
143.048
145.823
106.744
97.389
113.514
126.968
135.853
123.817
108.999
108.846
132.021
134.589
125.603
130.142
122.620
101.042
144.167
96.227
122.033
139.101
131.198
143.378
118.536
97.497
100.123
133.779
105.501
122.951
105.039
114.371
140.998
100.231
146.119
123.783
105.619
97.395
140.340
140.090
104.278
97.334
107.750
134.769
146.014
135.436
110.915
97.361
132.065
103.963
140.875
100.833
119.340
141.311
122.816
100.153
136.862
115.732
134.690
123.348
94.402
120.003
137.688
100.810
126.085
135.077
138.756
95.434
133.529
96.333
124.815
109.396
97.264
130.606
112.093
138.244
141.827
120.852
106.365
135.108
99.858
95.078
141.122
103.096
106.421
115.194
107.076
134.343
100.803
130.064
125.347
118.631
137.775
135.693
114.577
94.554
113.076
103.877
124.314
112.403
114.844
121.717
107.289
101.336
97.130
137.493
135.119
117.642
126.584
102.313
94.778
130.812
99.006
122.611
114.452
126.669
130.429
94.971
107.685
128.590
131.898
108.835
140.042
106.373
101.812
132.683
101.263
92.144
119.253
115.516
113.217
129.750
125.266
95.500
114.306
118.991
121.694
107.155
122.067
128.448
141.663
141.343
100.186
104.012
115.956
138.285
102.602
123.584
102.114
141.509
97.449
125.354
105.039
125.359
137.376
103.274
130.034
118.862
135.626
101.095
115.475
110.024
117.629
124.175
122.813
105.127
133.159
113.941
118.053
120.175
129.270
132.540
99.848
120.411
114.152
113.463
107.200
96.723
103.057
113.658
127.916
94.267
98.808
91.939
111.188
116.269
93.260
104.992
108.113
106.034
117.493
96.439
111.182
139.991
113.406
114.969
118.507
108.222
109.506
121.423
126.100
92.271
134.372
113.314
138.013
138.059
97.259
132.802
110.461
127.917
116.680
109.674
105.526
135.522
97.825
139.456
89.424
108.795
139.231
111.829
89.434
134.851
88.915
109.393
129.275
102.757
91.565
94.738
120.504
136.280
124.410
100.826
96.448
130.167
99.791
92.069
108.090
117.045
126.200
134.434
131.872
108.904
137.507
112.720
94.236
96.175
100.003
90.180
123.396
112.544
114.967
102.478
135.716
126.083
113.910
129.613
138.889
108.292
121.165
112.618
117.244
100.558
128.073
137.775
101.693
113.274
127.645
135.780
97.408
92.452
94.376
127.640
110.654
98.251
130.701
109.187
135.184
130.925
132.725
112.700
111.994
112.011
105.208
94.670
128.572
116.834
134.529
126.448
122.628
141.494
123.333
91.832
120.400
100.596
109.136
99.631
125.411
116.216
98.764
118.640
135.473
99.452
130.308
133.043
124.797
127.951
102.274
142.258
116.712
131.612
136.372
115.256
91.705
116.875
129.081
128.819
142.052
115.642
120.198
91.869
138.465
126.288
136.431
104.500
130.746
140.766
94.164
96.900
99.145
122.718
110.882
123.738
126.217
115.871
123.406
118.394
127.765
117.218
109.454
96.614
132.832
99.174
97.584
137.516
112.099
108.417
104.815
140.179
125.270
126.627
100.350
138.760
125.897
139.350
114.239
118.668
123.594
138.124
97.731
133.736
144.556
134.853
99.575
144.087
129.231
105.936
136.279
104.014
119.237
103.396
144.201
134.336
94.625
130.684
120.937
133.191
95.949
130.678
135.680
121.145
126.712
114.040
110.793
94.831
127.720
108.346
142.539
131.244
117.695
128.074
107.359
118.238
142.267
108.210
112.186
123.298
140.214
136.608
103.883
96.542
111.281
106.590
128.742
106.845
107.874
101.796
121.514
107.526
126.812
120.367
121.826
142.445
112.250
124.847
125.394
106.879
120.490
100.250
120.512
134.060
139.735
139.636
129.438
109.065
133.471
103.038
141.771
98.682
124.951
