878.243
883.114
882.795
884.514
876.126
883.750
885.752
879.667
885.694
879.591
872.529
881.925
873.481
881.937
881.321
870.371
876.491
867.799
877.121
865.239
866.399
863.292
868.414
864.193
867.855
860.736
872.880
871.354
872.646
866.255
864.435
864.592
867.133
856.513
860.161
853.046
863.201
852.878
854.552
852.367
855.886
862.888
858.662
850.304
850.266
851.522
849.777
858.706
854.308
852.252
851.180
850.472
842.919
850.356
852.064
853.332
848.312
846.346
845.275
842.131
845.466
834.966
836.470
846.231
832.258
840.060
833.746
837.780
839.566
838.184
838.706
827.616
833.424
839.821
828.790
829.883
833.231
823.589
823.726
822.401
826.898
833.600
831.991
822.285
831.571
821.271
824.793
823.159
817.455
821.182
820.573
818.906
820.988
821.898
812.850
814.652
820.427
820.498
817.338
816.068
811.656
808.546
818.263
811.455
808.580
816.899
817.106
816.394
810.543
822.174
817.310
825.676
814.388
830.846
819.559
820.194
826.652
831.229
827.430
836.064
833.909
833.320
833.834
837.096
842.415
841.515
844.972
846.520
846.873
845.079
854.308
854.279
853.968
853.031
848.591
859.102
867.361
865.462
864.502
861.135
860.974
864.511
862.446
868.456
876.743
877.778
867.409
870.552
873.210
879.862
888.012
885.655
890.595
891.493
891.606
896.815
886.866
887.321
891.511
902.401
891.155
894.945
893.313
905.665
902.115
905.618
900.170
907.887
916.468
917.707
904.983
916.980
916.965
917.029
917.608
916.183
921.739
927.728
926.837
931.413
935.064
930.842
937.756
926.708
930.491
931.732
939.965
943.584
940.222
947.645
947.629
945.544
946.233
947.417
946.874
957.955
948.649
951.499
954.413
960.142
960.890
954.171
959.535
960.730
960.662
959.024
967.997
977.544
977.413
977.861
981.385
973.860
969.894
978.449
986.796
982.455
991.372
990.685
993.359
981.416
994.060
990.130
998.905
997.908
1003.309
994.812
991.712
995.309
997.704
1008.806
1011.049
1011.243
1006.575
1008.132
1013.901
1013.653
1008.162
1022.907
1011.915
1013.244
1014.215
1027.614
1026.459
1027.371
1031.299
1031.574
1028.955
1024.369
1034.210
1038.737
1035.146
1039.382
1036.255
1036.266
1041.476
1049.205
1044.136
1052.924
1042.996
1044.524
1046.890
1059.097
1050.206
1062.845
1052.642
1063.013
1066.531
1070.897
1068.722
1060.601
1072.873
1068.745
1068.235
1065.676
1066.792
1074.923
1077.113
1080.632
1079.130
1089.322
1079.533
1087.161
1083.263
1090.381
1082.530
1098.868
1098.995
1096.035
1090.056
1104.619
1093.325
1106.816
1103.175
1101.293
1112.947
1113.686
1111.138
1103.318
1113.085
1108.942
1109.733
1115.128
1114.461
1115.522
1123.362
1114.460
1119.708
1125.051
1117.181
1123.609
1116.375
1111.747
1113.078
1114.986
1117.677
1115.008
1120.151
1114.751
1117.645
1113.435
1117.616
1117.082
1107.323
1105.214
1111.491
1112.736
1116.544
1105.918
1101.867
1101.812
1114.152
1111.841
1107.520
1109.207
1097.485
1098.081
1106.419
1108.263
1105.440
1096.102
1099.439
1104.143
1102.415
1092.849
1105.784
1092.859
1104.439
1092.207
1103.091
1100.710
1089.287
1095.126
1090.150
1096.676
1093.777
1090.031
1096.314
1086.798
1093.293
1085.548
1087.004
1086.001
1080.817
1087.909
1087.819
1088.425
1079.140
1084.056
1080.020
1091.045
1083.681
1088.743
1083.130
1076.836
1080.714
1079.243
1086.912
1072.241
1083.508
1082.605
1082.831
1082.580
1081.303
1082.765
1070.628
1082.477
1071.746
1067.247
1076.275
1077.515
1071.102
1068.960
1074.657
1069.303
1062.403
1070.568
1060.799
1066.026
1068.452
1066.150
1064.816
1062.681
1071.613
1055.941
1069.753
1059.958
1067.249
1054.984
1057.247
1059.337
1052.040
1063.657
1052.592
1051.286
1055.273
1052.399
1055.083
1058.467
1054.205
1051.375
1047.166
1059.536
1058.615
1046.502
1053.615
1057.361
1056.904
1052.011
1051.001
1052.563
1046.059
1053.739
1042.645
1047.072
1048.525
1044.287
1048.525
1049.030
1036.966
1047.472
1038.720
1037.042
1033.798
1037.148
1034.698
1039.610
1033.565
1042.843
1035.943
1040.648
1035.269
1028.780
1035.625
1028.310
1029.912
1037.437
1026.073
1034.293
1023.685
1031.623
1036.719
1023.860
1022.029
1033.809
1024.302
1025.275
1032.422
1028.151
1019.027
1026.152
1021.810
1015.228
1016.562
1026.174
1028.060
1016.498
1023.702
1024.378
1019.154
1015.266
1015.837
1019.842
1012.754
1011.596
1008.938
1010.784
1011.537
1009.196
1009.726
1012.806
1007.355
1013.104
1009.784
1004.461
1001.938
1013.855
1009.914
1006.091
1005.176
1007.090
1012.169
999.854
1010.998
1010.622
1009.916
999.949
997.076
999.769
1001.155
1006.268
1000.527
998.746
988.741
992.943
995.060
985.738
985.998
992.277
990.952
993.099
980.875
986.560
988.795
990.390
974.696
982.763
978.971
977.520
978.060
977.480
971.326
980.863
973.669
973.886
971.217
967.237
969.216
967.511
971.921
960.134
965.817
954.834
968.925
955.944
965.109
963.531
950.224
962.340
953.458
956.728
951.311
957.478
957.195
941.407
947.243
947.484
951.879
938.618
950.688
947.493
945.705
943.000
934.476
934.790
936.635
927.504
942.235
935.218
931.122
926.943
932.190
928.732
922.040
928.888
918.860
916.687
917.673
925.259
924.174
914.279
922.017
916.575
920.330
908.955
919.224
909.374
906.363
913.106
904.174
906.801
912.637
908.325
909.168
898.137
898.756
904.710
893.815
904.877
890.546
897.678
896.121
899.600
900.020
898.347
896.819
885.716
885.120
884.590
894.954
882.849
889.248
890.179
876.256
889.365
878.704
874.977
886.118
880.673
868.873
877.586
873.425
868.280
874.201
867.543
864.875
860.901
867.124
860.378
866.848
870.699
862.611
854.650
862.791
862.068
857.502
856.316
854.842
855.180
845.725
854.211
848.440
848.649
845.568
844.668
852.023
847.697
846.732
839.478
835.258
840.782
839.750
832.173
834.959
841.265
832.350
832.790
838.031
838.886
824.821
834.401
827.651
820.728
833.308
825.149
823.171
823.389
818.631
814.106
819.271
815.938
819.312
812.565
810.057
819.337
805.844
811.423
817.298
803.186
805.786
811.047
811.669
810.813
805.628
801.752
794.075
806.502
792.618
805.505
790.933
794.602
790.813
793.291
800.616
785.628
793.931
796.908
786.393
786.099
779.293
791.224
789.314
775.244
781.086
784.657
778.532
786.089
776.755
778.033
765.091
775.106
768.290
757.659
756.399
756.246
761.092
757.610
756.442
747.880
749.228
745.853
748.843
740.704
744.716
731.234
732.288
739.058
726.290
728.180
734.977
726.073
730.693
715.547
721.661
709.395
720.125
715.312
707.968
703.128
704.318
701.050
693.529
704.388
696.339
691.344
691.450
693.864
681.162
689.661
676.996
675.544
674.138
674.443
681.796
665.935
671.750
663.268
665.702
664.918
664.896
655.436
657.583
651.067
650.327
654.995
641.129
652.637
646.669
635.273
645.777
630.487
630.045
626.169
633.969
631.160
622.458
624.525
616.692
622.444
610.040
616.773
612.095
610.699
613.394
607.908
606.049
599.215
594.793
605.378
596.657
594.815
593.718
585.262
587.026
590.573
585.704
576.801
573.273
571.433
566.490
564.389
573.310
560.058
557.132
561.445
568.074
552.806
558.088
561.069
555.874
552.801
541.826
550.430
549.366
538.698
538.738
532.620
538.337
525.841
523.272
532.796
528.840
519.586
514.038
511.569
511.407
520.972
513.657
503.840
509.327
503.488
508.872
501.184
495.158
497.830
489.124
495.633
489.285
485.284
478.182
485.937
484.620
476.195
479.115
475.601
465.554
470.165
460.384
467.100
464.366
464.111
466.916
464.464
447.717
457.495
449.927
453.718
446.017
445.972
441.748
431.748
440.953
436.011
433.434
428.983
428.490
425.932
421.227
424.282
424.605
410.763
419.288
413.698
404.677
413.540
399.470
400.696
396.901
399.434
401.471
402.240
390.339
392.517
384.559
391.150
388.479
388.995
372.705
374.699
381.840
371.132
376.413
368.013
365.339
360.061
360.611
361.468
351.231
348.864
356.605
349.618
342.361
345.557
342.676
347.266
344.000
343.575
336.809
341.712
330.229
331.171
330.699
336.938
324.447
321.316
325.841
322.462
322.648
318.194
323.628
312.005
315.970
309.839
316.674
314.181
320.228
316.815
316.933
312.684
313.147
308.459
301.014
306.497
303.749
303.917
297.883
292.517
305.179
291.677
289.040
289.491
294.976
283.600
294.471
286.029
288.806
292.508
282.571
284.149
282.662
276.080
273.563
279.318
275.350
269.198
274.674
270.263
265.210
266.205
268.375
271.190
263.649
257.287
262.086
263.818
261.244
251.216
253.119
249.381
255.214
249.900
256.117
251.702
244.525
255.189
247.862
248.881
246.451
246.233
247.722
244.204
245.627
234.425
240.413
231.363
229.339
237.264
231.141
233.329
225.759
233.316
226.383
225.133
230.219
223.731
216.410
222.482
217.236
216.810
208.264
207.446
217.042
218.705
212.332
215.791
200.610
212.147
212.702
197.360
208.092
196.284
202.336
204.382
193.798
192.920
190.181
185.142
190.278
187.617
195.156
189.653
186.409
188.838
186.945
178.153
187.409
181.069
174.078
175.565
170.952
178.535
170.793
178.859
173.547
173.058
169.879
164.838
158.105
166.067
164.271
160.515
158.331
165.538
162.668
156.565
148.684
161.351
148.142
155.981
154.799
152.271
141.412
140.675
142.836
144.130
135.075
135.246
134.937
142.645
135.675
132.926
140.384
129.926
128.532
129.208
125.414
125.815
119.170
118.526
130.189
118.957
117.121
111.867
111.266
111.106
120.094
108.363
117.651
117.510
113.685
101.931
109.869
112.445
101.476
101.491
98.171
96.756
91.737
94.086
93.919
99.948
97.984
94.749
97.879
85.213
91.037
86.979
91.200
83.036
88.783
82.984
79.470
85.560
84.673
73.087
79.852
210.707
193.554
162.718
236.133
191.430
213.837
188.998
160.927
214.847
238.292
197.017
237.763
182.406
227.040
205.315
177.521
174.821
185.583
196.995
204.224
226.089
215.168
173.392
204.437
233.416
228.523
191.393
241.505
159.651
199.402
160.007
160.138
182.288
217.868
240.192
174.022
233.227
224.558
186.415
178.920
212.236
204.052
179.253
192.559
161.376
209.729
205.338
171.612
223.619
223.980
177.603
225.818
207.311
167.654
225.526
176.926
238.853
232.598
208.474
231.927
165.857
215.534
233.386
192.578
185.705
188.036
161.650
160.748
179.359
162.181
225.076
217.118
185.513
165.353
165.625
167.564
237.148
164.410
160.417
235.168
166.367
165.818
157.948
180.140
200.494
223.154
189.671
171.168
194.262
163.687
229.507
230.604
206.030
173.396
188.505
226.131
214.248
185.564
159.138
212.924
91.329
105.593
106.138
96.885
97.045
122.577
102.137
128.119
88.705
103.272
108.260
105.334
97.338
97.779
110.078
123.760
116.333
107.757
102.114
126.795
103.673
97.969
86.693
92.487
88.383
104.820
111.698
113.129
97.125
89.584
109.583
98.568
101.627
125.822
111.571
103.346
100.883
103.619
101.781
110.611
106.712
103.368
99.004
114.598
93.123
129.619
115.670
103.829
117.823
123.134
126.637
120.898
123.819
91.579
110.700
89.687
91.656
91.801
128.499
126.381
124.430
104.872
120.364
112.154
119.340
127.959
123.365
97.745
103.511
89.351
114.180
97.791
128.044
110.209
109.405
85.027
130.142
99.295
115.710
107.387
87.598
110.621
115.240
106.473
95.703
115.054
114.769
101.125
98.478
118.485
120.632
88.225
128.683
86.984
114.574
121.275
100.504
110.120
85.179
91.716
119.554
117.211
87.634
86.949
107.607
86.773
103.500
129.234
92.383
104.024
84.621
117.176
122.568
125.735
115.371
122.300
123.369
112.375
126.194
99.111
123.854
89.890
127.946
106.635
86.194
125.963
108.351
95.295
111.698
90.185
97.481
118.798
98.791
126.220
106.833
92.654
108.960
129.547
105.525
110.007
87.269
119.460
111.149
89.559
87.970
120.017
123.682
128.864
110.642
107.598
91.327
98.460
113.511
110.583
123.459
98.396
94.322
97.319
93.385
123.487
95.677
100.218
125.405
86.913
93.055
99.718
95.937
92.720
113.202
87.960
100.387
107.902
105.106
127.222
110.371
118.215
120.664
122.554
100.984
106.817
86.117
119.086
96.398
89.825
104.161
83.932
115.811
100.819
103.851
120.209
96.000
117.221
123.277
128.931
121.188
104.878
117.253
109.798
104.386
102.592
113.236
105.989
124.553
120.903
114.962
120.580
97.783
86.804
109.750
112.631
106.229
122.639
94.358
90.294
120.362
119.921
105.607
90.709
124.893
84.664
106.954
106.895
124.391
125.754
122.277
87.421
129.369
99.538
101.167
91.769
100.186
115.059
84.362
96.916
88.783
86.077
84.593
104.412
89.370
102.812
121.002
126.166
112.530
110.691
83.948
129.723
107.065
111.769
100.248
111.257
115.698
129.641
102.033
96.770
122.728
94.580
99.076
85.258
87.064
91.081
104.073
88.433
93.449
90.552
89.897
85.857
113.044
112.716
104.687
108.227
119.032
125.422
92.992
87.686
116.848
112.682
111.765
109.157
87.160
87.607
97.361
124.163
105.352
128.436
89.414
127.904
108.641
107.259
113.035
104.604
102.263
104.794
109.930
85.119
128.421
95.161
112.822
104.265
112.462
88.863
94.498
116.880
114.696
88.270
127.592
121.030
116.884
123.341
116.370
117.041
118.069
92.228
92.137
86.681
100.421
96.603
111.117
91.435
121.420
110.964
90.988
100.929
120.547
90.523
88.623
115.081
111.787
115.201
112.596
124.905
110.462
91.918
91.513
101.115
92.667
87.717
87.138
92.383
111.671
111.459
91.458
87.141
95.795
97.834
99.574
95.459
125.648
128.818
102.098
116.410
93.398
125.330
91.133
91.290
92.710
104.880
118.839
96.303
88.088
105.968
129.455
87.813
93.091
124.397
125.466
103.969
84.627
108.337
88.643
121.674
111.056
109.082
117.120
105.931
96.183
128.435
109.059
94.007
127.169
84.106
114.066
92.529
96.598
122.206
83.910
93.725
86.064
125.107
105.435
90.070
91.879
111.888
124.950
102.790
106.815
86.910
121.673
106.963
94.933
114.803
129.128
126.665
109.998
125.304
95.987
119.695
127.160
108.215
99.410
102.783
84.968
125.623
88.830
92.388
125.307
116.875
118.956
108.457
93.470
90.869
88.153
101.790
112.137
103.591
88.956
84.164
117.487
107.537
123.700
101.247
86.865
119.214
95.976
88.132
126.287
113.281
127.917
102.001
117.922
84.249
127.638
111.368
108.456
114.275
123.255
127.819
88.702
116.690
127.272
118.569
118.087
90.612
100.233
120.599
95.540
86.011
118.911
84.273
84.918
115.082
104.897
113.338
86.573
107.311
108.886
84.800
98.706
102.632
84.775
93.330
96.079
94.360
91.049
110.466
116.974
122.772
85.320
124.482
116.074
116.413
97.862
110.313
120.314
91.799
112.930
99.847
93.264
99.727
94.075
105.664
122.997
106.975
103.871
87.442
128.144
114.210
109.324
114.538
111.703
127.777
90.650
119.396
85.560
120.337
113.789
117.117
96.675
85.198
129.052
88.173
99.218
102.612
110.554
104.951
110.958
111.396
113.369
92.753
86.465
87.862
98.363
106.104
116.103
122.552
92.299
93.955
123.636
117.366
112.159
126.679
87.876
90.055
98.658
112.756
129.236
104.941
97.587
98.874
118.976
114.944
128.754
103.097
109.056
89.692
128.703
89.482
96.045
97.705
87.150
115.912
88.182
104.199
113.489
88.032
108.277
122.594
86.825
128.430
129.141
118.669
111.451
102.264
113.397
100.484
92.806
86.050
100.392
125.797
104.218
90.891
107.923
117.754
101.460
117.372
126.508
89.133
120.394
93.920
107.643
95.784
125.867
104.285
102.808
91.313
85.705
121.154
98.209
120.720
109.276
102.347
114.952
108.053
93.817
103.413
92.192
104.741
95.067
85.548
93.897
91.203
122.755
119.253
96.962
105.696
111.722
126.331
90.439
124.877
104.690
125.637
113.475
108.949
112.472
105.568
100.466
123.786
120.213
102.466
99.915
115.875
114.157
121.389
85.919
88.583
100.490
114.777
87.922
129.620
125.481
113.034
92.134
111.429
107.351
99.914
117.079
124.779
113.775
124.089
105.367
125.194
129.015
124.718
85.774
115.455
114.431
104.399
109.628
101.793
100.239
111.961
115.339
106.103
127.789
90.527
115.618
120.868
96.876
113.682
120.232
126.296
96.563
83.901
91.032
121.068
88.885
103.033
120.229
125.869
104.762
94.968
110.305
121.871
104.993
103.404
127.585
102.115
119.610
92.167
91.167
97.437
93.510
115.676
127.184
89.826
90.462
126.640
100.554
110.144
119.422
98.710
122.244
110.794
126.043
121.785
122.933
90.462
125.093
114.671
94.750
128.973
101.443
91.236
128.239
114.316
95.092
109.443
106.390
124.341
120.031
120.101
102.077
119.059
91.433
97.875
91.852
94.939
114.898
125.342
85.228
87.713
88.988
125.408
95.903
118.524
128.946
117.188
95.988
129.314
122.046
89.115
129.743
114.463
110.309
91.096
113.738
120.118
95.764
107.756
128.596
126.877
108.846
125.165
107.302
89.873
125.222
101.388
112.825
100.820
122.915
128.403
115.071
116.652
110.036
99.083
127.124
119.360
103.145
104.792
85.463
118.142
88.910
127.016
106.397
89.139
101.601
111.337
112.481
100.540
98.600
86.761
124.288
114.556
125.222
110.547
85.362
110.298
119.830
99.200
88.711
129.148
90.726
111.301
122.463
113.309
118.139
93.955
116.066
104.515
87.186
88.747
101.947
101.569
102.587
83.967
124.419
