449.867
450.757
443.250
439.228
441.938
449.615
447.244
455.731
453.240
450.217
459.708
450.920
455.041
462.964
467.095
464.682
460.744
464.516
460.718
476.249
464.424
475.695
475.859
466.789
472.703
472.751
474.179
482.686
474.676
486.828
489.672
486.250
482.559
481.605
485.243
486.685
497.719
498.872
491.465
497.746
496.715
501.081
504.999
506.794
508.515
503.350
508.027
505.231
507.649
507.764
515.309
520.678
527.861
516.452
522.015
523.177
523.013
526.809
539.318
535.166
531.470
537.289
542.627
545.978
547.187
552.347
548.338
555.539
548.908
549.634
556.624
555.134
556.592
560.515
561.068
566.641
570.611
564.618
576.843
567.113
570.195
581.311
577.172
573.170
573.082
586.969
582.332
584.238
580.205
593.936
599.210
587.517
590.913
593.217
601.107
593.861
595.824
599.124
612.440
607.144
607.236
604.588
616.307
609.350
615.829
620.580
623.366
626.309
625.489
630.074
632.295
638.847
633.154
638.625
631.894
645.184
634.019
637.306
643.621
645.678
653.660
648.397
646.575
660.557
657.341
652.254
662.826
666.083
659.158
669.420
665.873
671.264
672.085
676.659
672.650
669.335
683.058
673.085
684.952
680.221
686.067
691.409
691.417
692.484
684.729
698.696
692.060
698.320
696.781
699.815
697.703
701.209
714.407
717.339
718.929
718.514
713.493
711.297
720.377
721.809
721.769
729.505
727.808
723.870
725.329
728.134
738.788
734.244
729.604
739.181
739.218
750.940
752.290
742.957
750.301
753.963
758.436
757.551
756.677
763.504
764.393
768.811
769.838
769.562
774.127
773.824
775.078
780.758
770.106
776.194
780.851
780.172
787.879
779.816
790.673
783.619
794.536
785.225
790.606
794.757
793.015
798.712
796.197
809.082
805.364
811.239
802.633
807.811
805.853
807.946
822.846
819.496
816.344
825.600
816.500
823.033
834.849
832.440
823.159
826.137
841.847
842.629
833.791
844.322
847.277
840.606
849.557
851.938
848.638
850.440
855.935
851.348
849.662
857.378
861.360
858.812
858.554
865.105
867.125
863.706
873.486
867.339
869.635
869.201
863.419
865.750
878.830
876.169
878.358
871.370
869.772
873.296
868.616
864.413
868.463
868.088
879.141
870.427
866.407
877.818
874.515
878.935
867.030
870.639
877.481
865.568
879.752
867.277
874.642
880.837
869.273
869.401
876.485
869.247
876.020
871.317
871.853
878.542
878.382
867.625
871.536
878.773
883.445
879.819
881.719
868.541
881.699
871.019
881.347
870.452
882.377
876.463
884.246
876.426
871.668
876.216
875.385
883.851
876.261
872.809
878.239
882.497
871.996
870.783
879.963
885.611
874.108
875.701
874.719
882.075
886.492
873.007
884.137
876.145
881.319
880.388
878.993
885.443
878.019
877.403
888.251
882.142
888.157
888.127
875.207
885.713
883.497
888.703
886.215
888.170
875.338
881.304
878.089
880.697
883.959
875.178
885.539
878.068
889.529
881.713
876.646
881.791
880.615
876.930
890.499
883.700
878.295
886.813
890.318
882.016
888.504
879.178
891.979
880.319
892.867
890.175
887.540
888.983
891.713
889.608
880.626
881.916
894.009
883.190
894.178
879.459
881.930
893.239
894.449
888.709
883.826
884.736
886.348
893.771
893.286
884.590
889.306
892.335
882.704
884.457
891.663
885.381
883.805
896.654
883.723
897.752
896.420
892.914
891.772
884.392
894.017
896.998
887.204
886.145
891.354
893.948
883.997
891.700
898.618
886.765
894.676
893.946
897.936
896.538
890.958
900.063
889.598
899.731
896.258
888.275
888.718
889.596
899.143
899.977
888.065
888.966
896.690
890.988
900.772
900.335
889.841
890.817
894.191
893.258
899.810
894.399
887.723
887.905
899.397
895.087
898.477
898.582
899.473
900.656
903.550
895.426
899.316
894.422
892.449
895.662
888.343
898.120
889.263
897.547
888.281
884.303
895.855
891.101
887.767
877.140
889.662
874.867
885.766
884.960
884.449
870.641
881.833
877.229
881.135
875.601
876.558
867.039
862.290
871.515
866.328
864.986
861.501
856.402
860.846
866.443
863.893
850.665
850.253
848.770
846.224
856.628
854.754
844.344
853.406
847.612
842.108
837.595
837.452
845.478
846.194
840.414
833.435
837.025
828.369
839.698
840.050
832.317
826.610
836.537
827.776
820.628
819.608
820.952
826.544
822.286
824.489
823.144
826.457
819.374
815.415
809.587
812.063
816.149
808.926
811.360
816.320
808.441
801.685
805.287
799.311
799.259
806.631
794.557
795.493
796.317
790.991
799.274
795.961
788.318
791.224
785.247
792.790
785.987
779.144
784.164
787.720
782.748
784.024
771.823
776.043
782.479
775.161
773.801
774.887
766.331
775.127
775.401
773.429
771.230
766.123
765.281
757.702
761.476
761.770
757.392
765.715
759.384
758.068
750.410
752.476
751.634
750.701
745.718
752.592
754.585
753.237
747.591
736.007
740.580
748.751
738.513
736.570
730.612
738.089
739.651
733.496
734.357
728.363
734.920
725.322
722.019
721.035
721.086
724.455
725.321
725.789
727.546
716.524
721.388
713.709
707.337
705.530
716.488
711.992
717.497
712.363
702.286
711.220
707.721
710.952
708.612
693.724
693.982
706.001
698.144
696.149
699.518
694.796
696.729
689.583
693.071
692.450
682.717
679.484
676.775
682.598
680.219
680.266
682.502
671.356
682.294
679.161
671.182
670.411
678.110
667.696
665.876
670.916
662.566
657.929
670.944
660.380
662.623
663.188
653.263
658.882
664.306
660.277
655.353
649.620
649.856
654.935
644.609
654.445
647.481
652.987
647.543
650.667
657.708
655.546
657.018
663.450
657.882
654.292
669.320
664.469
670.253
661.651
667.005
675.115
670.865
668.122
668.160
677.147
672.382
681.581
678.250
685.788
680.174
680.550
692.000
687.543
685.970
699.005
693.864
701.889
692.145
696.623
699.894
695.748
700.047
699.643
702.687
712.167
709.318
719.680
720.875
712.318
720.141
713.037
723.223
729.458
718.468
728.256
730.616
731.847
725.576
734.520
731.118
738.075
737.768
732.276
743.476
747.465
742.887
749.904
740.933
752.852
747.090
749.167
749.090
760.286
761.206
765.645
764.233
761.615
768.775
770.799
765.780
766.179
774.509
762.597
768.110
768.725
772.348
782.100
776.806
784.375
779.922
779.587
780.651
780.524
793.638
790.551
785.346
799.985
788.582
797.060
794.892
792.078
804.480
794.666
804.220
804.674
808.961
801.053
807.482
810.923
809.907
822.080
823.459
816.045
827.193
821.754
816.613
820.593
834.204
832.948
826.350
836.433
838.974
839.896
837.862
839.417
846.329
847.402
847.753
849.327
851.958
845.211
845.522
845.734
853.367
850.192
858.437
860.620
863.345
857.294
866.766
870.428
869.686
871.736
873.054
866.965
875.766
871.156
880.933
880.431
875.975
879.161
877.510
879.775
883.855
883.656
894.373
889.071
892.170
898.192
900.254
893.782
903.082
902.792
899.859
898.055
899.293
897.489
904.382
909.023
909.968
909.581
906.321
907.335
920.982
918.668
917.772
927.386
924.560
926.650
931.687
935.189
929.060
932.864
939.129
940.616
941.079
930.736
938.527
939.707
936.860
950.342
950.598
951.648
948.793
943.169
945.335
958.797
954.728
958.927
960.893
966.458
961.080
961.949
958.948
971.370
962.374
961.927
970.011
962.898
967.086
961.915
957.486
968.415
957.341
952.165
956.288
957.342
952.378
949.959
958.576
960.267
953.630
948.365
954.354
946.022
953.563
939.736
939.025
946.082
944.982
945.819
948.336
947.433
942.424
936.075
939.005
930.370
931.723
940.282
941.063
930.754
926.633
938.451
935.574
923.781
923.611
919.293
920.436
933.048
931.505
928.741
919.690
914.224
925.941
916.683
914.266
919.663
912.074
908.202
909.232
919.530
915.500
908.485
917.699
909.266
900.608
902.725
909.832
905.536
904.660
906.433
904.607
907.430
895.715
895.492
898.833
900.122
899.069
895.159
895.807
895.553
892.717
892.875
887.837
890.231
891.864
885.288
889.175
880.641
885.591
888.278
889.299
882.172
873.206
876.138
873.322
873.681
879.180
881.808
874.662
877.399
878.498
865.423
866.663
866.315
869.487
869.692
864.552
866.230
871.418
868.277
859.595
859.880
860.454
862.662
864.413
856.020
854.481
859.629
853.812
846.400
851.324
850.592
859.223
850.737
847.002
853.571
844.391
849.878
838.576
836.364
846.823
847.808
839.093
841.432
841.353
845.726
842.846
843.577
829.656
833.783
837.536
832.655
836.843
830.547
827.531
824.788
828.984
831.910
824.724
829.853
816.094
817.267
826.160
827.223
824.817
826.224
822.569
817.751
810.394
817.419
808.432
805.374
809.448
810.244
812.180
808.099
804.816
812.784
803.897
807.165
810.224
807.060
809.312
806.469
807.688
791.087
794.605
790.332
800.197
791.305
800.125
788.143
799.210
786.103
785.478
788.878
785.436
786.090
782.724
781.097
778.534
779.864
781.615
785.227
772.727
771.420
781.469
779.398
768.575
776.513
777.743
769.890
771.889
766.753
763.460
766.895
762.384
766.143
765.849
768.664
771.320
759.761
763.183
769.158
761.845
768.896
768.085
761.568
758.404
760.571
768.898
770.045
764.260
762.235
753.740
766.310
752.388
758.390
754.144
756.803
751.182
760.818
755.083
759.793
752.496
752.810
762.309
754.534
752.960
760.598
754.882
747.715
752.918
747.844
759.403
757.316
749.095
743.921
747.729
750.202
752.432
754.237
750.441
741.150
745.962
740.915
748.848
748.631
746.580
739.845
740.432
746.989
746.239
744.662
734.561
741.373
736.735
746.123
736.099
747.226
733.525
745.480
734.664
732.277
732.369
742.954
735.255
731.231
735.076
733.854
728.048
726.543
733.615
740.374
726.990
732.719
726.174
736.608
735.259
727.805
727.617
731.861
729.774
723.172
734.859
727.740
721.858
731.002
731.533
732.546
725.667
728.359
727.714
720.847
729.610
730.414
724.562
722.690
723.838
722.194
718.080
716.467
715.197
712.799
718.470
712.725
711.502
714.786
720.035
709.853
714.872
715.934
722.602
715.226
713.858
709.560
706.555
718.052
719.453
709.253
708.625
703.565
717.070
716.115
701.819
711.678
707.136
708.612
708.726
706.920
707.685
706.349
710.737
697.158
709.586
708.198
697.349
702.124
701.712
703.668
696.339
707.229
707.300
705.399
702.684
704.298
696.780
704.025
699.723
701.420
690.388
693.525
689.460
690.459
693.883
702.531
688.546
690.173
688.806
695.448
699.171
685.166
692.489
691.466
685.238
688.598
683.492
691.222
696.493
681.758
695.685
687.031
688.461
683.504
677.896
689.131
686.718
678.096
685.390
688.168
682.088
677.454
688.300
688.993
682.095
680.097
680.325
675.181
675.932
676.255
681.853
683.554
672.709
681.813
671.758
678.850
669.137
672.634
676.547
666.573
662.727
667.063
660.362
663.308
669.180
658.757
667.332
654.979
666.308
652.075
664.303
662.186
656.943
660.957
657.444
650.760
643.704
649.890
640.101
651.428
652.110
648.112
636.718
644.514
644.600
639.910
644.605
637.558
635.821
633.930
637.114
631.483
636.758
635.656
628.086
620.840
631.890
619.649
619.989
617.849
618.313
619.498
617.223
621.905
616.801
606.590
610.274
606.092
604.290
611.062
612.412
604.454
609.555
598.955
606.026
607.913
603.315
593.503
590.911
600.793
588.816
601.643
591.474
585.222
589.363
596.177
588.084
582.499
588.057
579.607
577.742
575.435
588.198
585.657
583.522
578.904
574.468
574.252
574.928
564.717
577.331
570.479
570.109
570.629
568.904
561.465
571.573
569.941
558.954
555.192
561.762
557.117
557.395
557.191
551.658
557.157
544.606
549.478
552.879
552.657
545.295
540.682
539.498
540.171
539.425
546.120
545.534
538.121
531.026
537.430
530.116
538.526
536.669
524.911
526.324
529.350
522.562
524.139
527.442
530.935
516.827
522.508
521.179
517.499
511.437
514.339
511.156
516.982
518.201
516.559
513.526
507.276
500.954
504.729
500.551
505.093
506.383
504.845
501.901
500.125
495.161
500.201
502.340
488.947
485.723
497.548
490.395
483.055
494.012
483.655
481.433
490.464
480.586
485.896
480.319
478.419
482.684
476.961
473.298
479.727
472.022
467.020
477.763
464.155
465.728
461.955
459.641
462.334
466.073
464.853
466.737
463.031
455.935
452.658
455.916
451.155
458.658
458.560
452.915
443.449
448.110
446.184
445.138
451.058
442.926
441.213
448.394
434.779
439.136
431.558
437.592
431.481
430.228
427.115
426.996
434.515
432.659
432.758
443.524
442.467
445.072
443.330
447.622
437.715
440.698
453.232
455.131
449.526
443.738
451.738
448.985
460.850
463.006
453.861
459.265
459.728
463.490
457.724
469.567
465.206
460.238
470.506
465.332
468.048
477.989
470.640
480.139
476.182
474.725
478.465
485.272
490.403
485.537
481.441
490.434
482.493
485.850
496.926
488.139
490.336
501.731
489.655
499.313
495.923
497.784
508.525
509.869
509.551
501.196
514.377
510.871
509.566
512.759
514.192
520.051
523.928
516.093
512.217
522.318
517.138
519.927
517.847
522.786
521.434
527.586
529.886
524.132
525.672
531.445
528.307
536.251
534.030
539.298
544.966
547.475
545.293
537.970
541.977
540.682
557.311
546.657
557.865
556.021
547.948
551.782
561.600
560.670
562.403
569.817
565.319
567.658
565.510
568.686
572.988
565.897
564.424
581.449
581.889
579.079
573.897
581.202
585.390
574.455
585.216
577.633
590.479
594.047
593.054
589.466
598.913
595.703
587.279
601.295
598.667
592.316
592.069
594.058
605.639
607.449
601.965
609.489
607.245
609.974
607.426
605.691
617.406
621.159
617.832
613.505
624.628
615.502
625.093
628.807
629.834
619.195
626.381
626.108
636.944
633.805
638.732
638.037
642.054
632.407
636.416
638.928
648.477
649.601
637.063
652.452
650.241
642.817
656.937
644.248
660.502
661.868
662.081
653.355
663.579
652.206
658.346
666.725
661.616
662.453
663.206
663.252
666.822
667.272
673.597
672.891
669.344
684.235
682.896
676.174
687.583
686.889
681.477
678.853
693.625
686.545
686.868
684.178
695.500
696.237
687.770
702.071
701.813
704.676
707.362
702.120
707.890
711.349
705.663
709.106
715.034
710.783
704.584
705.647
707.144
693.180
693.685
700.071
687.863
681.086
683.289
685.312
679.532
669.079
672.225
664.481
664.490
670.187
658.603
661.323
662.792
649.600
649.077
645.982
653.587
641.990
639.802
645.970
633.430
635.631
632.349
622.336
628.334
628.625
612.063
620.774
612.710
612.476
604.119
609.363
602.489
594.073
589.626
586.731
594.154
593.713
586.552
583.289
577.857
583.141
573.330
578.319
576.974
559.367
564.874
565.199
562.775
547.800
547.532
547.188
554.185
546.152
535.685
536.880
543.492
534.584
532.862
533.004
529.111
521.048
518.923
524.630
519.491
514.442
514.277
504.961
497.446
499.633
500.717
491.259
497.768
496.168
493.690
480.437
475.242
470.210
479.903
473.140
474.092
460.248
461.170
454.648
452.362
452.559
450.343
453.914
451.809
444.881
438.467
436.278
442.770
436.915
435.287
433.407
421.725
423.571
412.566
414.225
409.668
418.805
407.005
404.089
411.343
399.927
395.357
389.069
387.884
397.371
393.143
385.502
384.891
381.232
368.577
373.674
378.099
363.258
371.014
362.977
355.940
351.758
356.353
349.244
349.757
346.590
346.060
341.506
330.466
328.847
335.492
330.986
319.502
331.492
315.708
324.332
317.255
311.101
302.504
305.251
306.849
307.004
300.706
297.104
290.386
291.555
279.939
283.868
275.468
286.797
270.102
266.281
268.108
270.484
264.236
262.082
252.931
256.151
255.502
249.941
242.406
242.350
250.167
238.313
230.396
237.404
232.779
224.797
232.990
220.952
217.745
215.470
221.847
212.338
215.559
211.237
199.285
202.681
200.377
200.743
190.590
190.431
182.401
187.741
184.720
181.497
182.485
181.005
176.381
173.776
169.594
156.960
153.961
181.186
223.687
181.207
171.068
180.228
243.970
173.425
235.350
200.431
243.203
227.766
197.244
226.735
228.159
224.934
174.593
183.717
224.870
204.815
215.527
200.260
211.456
220.528
243.962
169.320
171.536
244.025
203.358
219.864
193.503
247.680
247.139
217.004
218.710
182.209
222.107
217.419
217.899
228.129
231.845
172.351
180.820
243.630
189.534
192.390
182.857
206.867
214.689
187.573
201.026
216.002
245.638
230.633
221.174
187.709
168.709
180.413
218.035
186.128
182.643
239.132
205.102
180.665
220.972
193.397
174.791
208.018
193.899
218.413
189.345
176.876
198.956
228.043
186.652
229.544
199.807
198.850
219.268
224.586
164.697
226.855
214.530
229.384
226.628
167.395
235.770
197.318
162.917
231.321
163.108
173.217
189.148
243.896
204.661
196.947
173.565
236.006
173.695
174.985
203.845
120.840
112.054
97.596
115.962
128.120
95.264
111.763
98.391
123.156
117.346
125.391
129.010
111.559
125.466
124.197
131.598
88.607
114.256
129.809
130.342
94.900
122.109
99.371
97.932
118.097
128.931
126.966
97.992
96.874
93.267
100.581
104.486
132.087
88.762
109.614
101.149
129.744
126.530
102.507
121.972
100.290
115.684
106.744
100.733
114.459
125.338
102.390
112.751
100.108
125.769
101.267
93.211
124.906
94.124
96.935
118.311
125.237
101.183
103.074
92.261
108.488
