893.596
877.092
879.054
874.198
882.808
884.624
873.974
873.811
869.348
874.166
866.361
875.787
870.732
868.685
866.054
857.302
857.355
855.257
860.838
858.561
852.477
855.211
852.713
849.259
846.114
840.855
854.256
839.952
840.992
835.210
838.370
831.304
841.235
838.059
835.000
829.121
824.561
828.300
824.633
826.228
826.046
820.954
819.436
827.183
826.745
825.269
808.709
809.128
813.127
810.777
817.435
806.084
814.479
802.283
797.874
810.431
802.072
800.288
802.117
800.628
799.706
800.894
799.490
790.982
795.447
787.433
784.238
786.853
783.437
781.337
784.525
777.983
774.903
771.643
775.746
776.272
773.132
774.511
769.499
774.764
760.480
770.912
763.399
754.093
768.432
760.555
756.872
759.977
752.131
753.394
751.946
763.971
760.978
762.768
753.786
758.384
759.784
759.802
745.294
743.398
756.138
754.933
747.713
755.773
753.208
740.056
746.436
742.881
737.011
746.961
748.566
735.881
737.620
739.277
734.013
732.059
741.078
735.563
738.370
739.481
740.756
730.384
737.755
735.405
737.841
731.218
738.103
724.532
723.995
730.214
732.831
730.361
733.940
722.304
729.650
731.744
720.617
725.519
729.996
718.476
728.638
726.243
726.191
717.409
712.414
717.059
711.497
716.411
718.112
711.862
713.496
715.959
706.207
707.641
707.931
708.705
715.078
705.684
706.114
710.393
704.415
713.669
699.415
711.179
705.092
708.508
705.219
704.285
705.512
702.009
707.754
698.660
705.077
693.948
692.732
698.236
691.650
697.290
695.649
691.148
691.820
695.201
685.911
687.305
692.146
696.335
693.033
684.522
684.949
686.524
692.351
694.416
683.507
677.512
684.317
676.429
686.497
677.211
674.361
682.115
680.811
683.390
685.344
679.449
670.195
682.348
676.710
673.491
675.161
681.027
678.525
668.595
670.814
664.066
666.101
665.006
665.262
669.296
671.053
670.712
659.946
667.362
664.601
658.487
661.095
670.975
654.555
663.384
659.162
660.180
659.321
661.285
650.693
650.552
655.515
662.062
656.978
647.636
661.853
646.330
658.440
646.061
655.503
650.702
652.218
649.731
641.017
642.772
643.807
652.460
639.034
641.893
642.018
640.944
641.333
645.445
643.452
642.197
648.256
640.913
631.356
642.334
632.849
635.889
636.982
636.395
631.208
632.517
628.078
626.038
631.862
633.320
630.088
630.438
628.178
627.297
627.525
628.617
626.583
631.437
631.223
621.114
630.106
619.861
627.290
629.296
629.253
624.165
626.221
623.945
629.546
641.220
641.000
634.637
639.531
635.907
632.470
632.221
643.853
639.119
643.682
639.114
648.584
642.306
644.910
656.692
643.072
655.220
653.802
660.697
661.571
655.925
649.731
650.414
650.784
659.035
668.440
662.938
657.778
659.702
673.223
659.432
671.271
675.525
664.618
674.969
676.222
674.819
678.871
671.170
670.763
673.803
674.192
683.126
686.914
685.973
690.244
679.914
678.347
689.447
679.793
692.131
687.054
691.964
698.041
698.457
694.671
698.177
688.190
704.110
693.333
697.557
703.322
699.908
706.004
696.988
711.564
713.265
708.568
712.468
707.656
709.576
712.113
709.662
712.696
706.731
714.108
708.970
712.429
724.514
715.381
718.329
722.296
717.524
730.403
730.647
720.673
720.782
730.287
722.081
727.326
731.135
729.465
741.808
730.102
736.800
739.956
739.048
740.937
742.810
746.453
739.568
739.495
739.420
746.775
749.094
742.996
741.913
747.865
756.721
747.163
760.029
750.390
751.406
750.035
752.761
755.930
766.661
760.442
760.867
766.853
763.462
769.433
764.073
761.863
772.980
776.865
767.022
777.762
778.371
769.525
779.641
782.013
785.135
786.406
772.503
781.099
789.709
789.687
778.399
791.995
790.055
782.484
793.823
790.385
790.028
787.324
789.751
801.663
795.286
796.305
797.832
801.624
800.216
804.451
799.055
803.344
802.485
810.902
812.832
803.601
800.683
812.255
815.698
811.149
805.527
806.461
814.947
811.070
814.004
819.023
812.016
818.898
819.939
817.812
820.163
826.461
830.271
826.701
826.272
832.805
830.217
835.782
826.718
836.713
838.499
835.258
834.399
834.085
843.249
843.472
842.492
78.340
66.152
60.246
78.458
66.860
73.278
80.800
70.235
57.703
71.102
69.606
63.043
72.695
54.925
66.428
70.138
62.902
58.117
76.767
59.182
63.658
63.756
53.134
68.497
70.894
72.520
57.324
72.826
66.927
70.788
76.596
55.545
77.561
75.966
66.917
54.130
63.721
57.503
60.759
76.148
74.269
74.423
70.261
77.077
55.618
73.195
75.203
65.363
57.795
223.718
195.723
225.348
259.798
219.639
251.577
195.255
250.388
221.456
253.587
184.828
248.933
260.393
216.959
193.535
179.899
248.182
260.504
212.377
203.621
263.266
207.960
200.164
192.211
262.005
237.711
194.427
218.685
224.949
223.663
230.139
244.620
172.216
263.118
183.791
220.340
247.714
239.272
213.007
179.605
183.491
224.855
246.800
189.621
217.665
216.181
259.497
240.461
243.139
191.605
217.676
97.814
144.965
100.636
104.615
122.741
110.171
138.088
118.459
107.863
142.287
99.479
134.142
117.210
103.064
129.705
101.160
104.845
106.811
135.370
137.721
106.256
104.326
124.863
118.595
104.717
123.517
119.416
139.255
133.368
145.519
143.386
132.832
140.346
108.994
112.321
100.856
143.909
137.882
95.226
105.247
103.889
95.061
144.296
129.321
119.493
129.893
116.121
112.654
108.737
144.945
127.069
106.545
118.648
122.983
135.838
94.854
145.798
129.511
123.613
114.600
145.573
118.236
99.969
107.041
94.892
113.017
101.124
111.834
136.645
114.719
138.497
137.626
95.814
126.190
112.416
119.404
117.671
129.271
113.880
138.579
139.499
136.596
129.066
139.660
102.478
94.888
143.401
114.199
103.352
128.974
145.571
140.249
132.321
134.056
142.121
102.619
146.739
120.673
145.634
98.767
121.240
142.811
97.083
133.776
134.125
128.325
126.415
126.162
134.483
101.051
114.801
134.064
139.852
100.509
97.016
110.619
118.948
146.654
112.588
138.539
145.277
113.411
134.285
126.861
119.886
115.057
115.486
125.715
107.717
116.995
129.670
137.234
145.702
100.940
132.423
119.842
145.960
136.576
104.095
144.806
129.901
123.942
146.670
99.904
101.392
116.664
128.218
102.961
135.417
107.571
131.744
106.272
109.186
117.226
128.927
134.624
102.721
137.848
144.931
102.415
109.220
112.897
144.475
120.282
102.754
142.864
132.360
101.281
136.824
132.973
114.934
106.527
105.526
122.562
119.745
100.496
111.452
132.035
130.440
118.114
133.247
102.547
113.636
104.095
104.974
142.194
125.015
96.824
116.431
122.489
136.738
109.116
121.780
101.677
131.956
138.129
120.616
107.833
118.480
104.144
141.258
143.923
132.268
120.531
131.767
112.638
111.953
109.025
125.854
119.333
138.091
136.132
103.228
102.061
131.477
121.721
128.421
102.554
141.688
145.552
126.531
140.703
102.546
140.685
131.677
113.831
124.129
136.776
111.504
121.759
111.460
120.771
113.794
121.310
120.727
119.996
121.875
122.483
132.420
109.417
122.665
101.956
137.375
146.387
108.251
100.784
102.126
111.090
137.570
106.569
117.873
115.613
142.265
118.684
108.956
119.624
100.967
98.730
104.046
136.137
99.676
127.082
103.016
97.109
114.845
111.800
115.851
95.299
126.202
112.427
105.017
102.302
128.599
135.993
107.821
115.660
105.130
139.232
129.068
105.626
100.256
124.366
96.017
97.182
118.412
111.244
121.198
138.529
96.476
107.047
105.909
132.233
142.958
121.907
142.093
99.044
110.713
118.543
133.116
116.134
136.925
133.757
131.285
135.664
109.933
141.170
121.855
97.627
100.449
136.126
95.253
132.770
145.896
140.418
129.981
144.550
122.399
129.375
113.325
105.763
139.061
132.763
122.448
105.138
128.340
118.813
129.178
99.206
103.366
133.715
115.313
102.115
118.829
128.285
143.351
134.710
101.729
124.676
146.354
125.612
110.382
101.158
115.898
133.572
129.104
114.393
118.221
122.772
130.991
135.927
143.306
109.582
118.580
99.206
108.524
98.134
137.777
130.531
103.828
103.780
103.867
116.687
123.555
113.991
139.383
131.791
144.287
99.742
100.644
125.228
123.198
138.367
139.658
123.854
98.162
97.810
133.873
109.112
128.521
109.094
104.101
143.626
137.296
107.028
130.927
126.108
115.530
103.938
98.231
142.198
109.853
133.435
129.606
106.587
133.581
136.633
115.455
100.459
104.955
98.836
126.112
119.859
117.940
117.994
102.211
147.546
99.572
129.070
141.682
136.601
149.066
114.418
121.900
113.621
135.445
111.040
110.293
116.708
126.968
106.455
148.543
137.995
128.186
145.716
134.867
145.927
103.150
100.719
126.913
150.111
150.663
110.973
127.036
108.007
103.019
150.362
140.571
106.895
126.041
148.986
112.894
138.500
143.575
118.249
102.893
120.484
103.690
142.576
122.280
128.594
115.344
105.415
147.629
122.117
123.130
116.494
127.863
110.981
112.455
132.245
134.471
113.010
111.305
137.872
111.202
120.481
121.914
104.173
113.954
134.057
152.025
140.161
113.957
147.057
135.666
152.326
116.725
151.035
113.269
139.297
101.956
148.003
152.480
118.428
125.140
112.737
102.453
121.721
144.816
110.334
124.873
106.924
111.212
132.485
121.409
132.289
152.419
120.690
145.474
124.811
115.831
128.677
106.541
110.577
133.753
148.893
141.837
150.828
113.564
115.314
141.201
132.358
149.566
127.332
129.170
131.268
135.398
151.624
121.255
143.901
145.037
100.840
113.411
127.512
122.167
107.681
104.155
146.067
132.083
125.295
121.454
124.680
128.875
132.324
131.863
131.011
132.620
122.585
150.470
149.820
107.579
127.622
145.098
133.604
114.890
100.468
116.135
111.122
137.612
110.827
137.705
111.216
139.432
103.914
115.070
145.657
120.795
129.271
107.356
129.930
142.562
111.705
144.514
121.111
107.435
120.006
103.074
143.297
104.041
99.708
138.447
117.722
102.374
122.308
114.355
146.297
126.697
119.776
114.775
129.842
134.140
107.250
126.565
125.418
107.142
98.852
111.402
138.671
121.721
130.287
116.158
111.925
116.518
117.040
105.820
110.356
111.621
129.401
111.833
148.600
140.581
107.014
131.230
119.985
130.648
114.255
128.813
108.448
138.968
120.540
114.894
144.591
135.468
147.267
141.556
108.996
121.225
130.687
119.842
145.063
102.870
131.533
113.220
147.478
138.214
143.783
113.885
129.440
112.284
111.543
145.504
135.084
111.703
97.288
97.436
136.830
127.171
128.815
140.095
120.951
135.904
135.577
99.759
147.062
119.773
124.888
115.827
136.516
108.487
146.609
132.275
101.524
147.902
135.709
97.445
133.202
117.388
142.798
110.202
134.658
140.495
110.670
104.375
100.494
125.258
137.601
135.569
119.525
107.011
122.473
144.575
140.051
108.601
139.675
122.861
125.485
100.077
121.599
105.664
120.422
109.200
141.498
121.842
146.461
111.011
128.404
128.022
127.073
108.969
128.675
139.882
111.545
143.364
144.207
98.378
137.551
108.416
106.964
98.589
104.270
102.127
136.167
118.101
95.963
101.183
111.735
134.353
96.658
131.462
117.737
145.649
140.089
97.826
143.623
146.575
126.987
107.154
124.998
110.403
109.541
107.507
123.248
138.052
144.840
103.039
127.108
122.710
145.101
104.956
120.196
104.616
108.130
104.218
125.620
102.001
104.068
116.440
126.451
115.894
143.817
131.876
126.753
97.714
110.106
112.296
126.570
103.637
142.612
95.866
110.289
102.710
143.601
113.808
124.931
102.566
135.262
123.181
98.297
124.985
132.449
126.101
106.785
144.616
141.854
132.409
133.268
132.449
127.761
134.966
107.317
110.383
118.796
96.865
145.062
138.366
130.229
120.047
121.808
102.491
134.349
114.716
94.979
109.989
125.463
104.459
119.489
123.327
127.609
141.742
104.188
118.121
141.350
112.244
104.279
118.926
108.448
134.637
136.118
124.216
121.321
146.542
125.501
124.831
114.541
129.444
105.494
134.530
104.106
139.050
127.930
111.665
110.978
116.562
121.308
100.960
144.963
134.449
110.734
98.113
135.192
110.510
95.195
137.461
131.203
102.632
110.143
99.745
135.490
138.801
145.550
104.097
98.798
145.989
107.774
136.401
135.274
134.662
100.446
101.768
144.825
138.278
145.176
132.181
110.749
144.813
138.159
122.815
145.607
124.312
96.920
117.083
99.327
116.137
114.660
111.029
95.164
115.233
104.008
117.573
115.265
134.513
139.647
135.035
126.028
106.941
114.985
139.861
141.888
146.038
96.522
102.887
128.143
133.640
105.662
119.899
130.632
114.960
111.909
124.492
97.183
106.704
109.975
124.226
106.186
129.436
128.742
144.896
104.990
108.477
133.475
132.341
103.996
122.045
125.134
123.687
125.499
142.777
127.396
103.636
125.954
125.741
124.178
118.982
95.350
95.119
142.750
115.936
146.605
128.923
113.459
141.276
109.174
102.138
132.710
112.643
121.021
117.940
135.489
97.888
123.987
140.446
128.241
97.535
98.199
129.052
122.968
141.618
96.082
133.072
140.442
122.267
112.471
107.032
107.748
107.084
111.294
146.729
113.645
139.941
126.001
99.261
138.083
132.558
133.822
134.340
98.082
126.438
135.653
108.835
100.856
117.904
118.200
119.555
143.837
120.100
134.800
117.267
106.441
111.907
141.127
138.598
100.325
107.218
144.658
129.468
108.157
126.372
102.892
114.636
121.270
132.574
123.138
146.730
134.950
95.832
116.720
114.776
114.114
101.688
113.472
138.572
107.972
109.046
115.122
99.503
117.045
99.520
103.322
124.302
139.161
101.558
113.112
105.456
115.856
118.980
140.475
136.006
99.367
127.083
124.569
100.430
123.227
127.071
140.231
143.309
118.776
104.392
99.995
140.936
115.157
140.599
140.704
108.158
110.010
105.712
142.049
111.497
139.356
128.876
99.522
121.441
97.042
101.028
126.024
114.453
144.866
142.930
117.585
131.479
129.261
133.474
132.337
123.650
97.807
137.792
135.454
100.259
99.004
95.915
123.000
126.497
114.962
98.249
104.901
103.072
103.535
120.605
103.617
101.535
106.820
136.948
146.220
136.004
128.333
118.357
119.785
126.158
109.966
102.264
103.864
135.014
128.551
101.471
134.101
145.072
138.328
129.167
140.072
104.459
137.568
116.028
96.924
102.811
146.030
95.069
129.104
135.583
111.925
125.743
100.024
96.361
146.065
117.168
112.739
103.297
144.865
140.773
131.427
146.455
118.946
130.225
106.810
121.831
145.664
144.382
132.966
133.431
129.019
101.894
104.514
124.430
112.708
113.950
139.533
113.387
112.066
128.306
106.909
119.012
131.338
100.412
121.471
140.711
132.563
120.795
127.066
109.318
142.481
120.093
113.208
120.380
140.889
97.295
127.161
124.341
138.135
106.081
132.587
115.706
111.499
98.207
143.727
102.848
136.128
113.698
134.940
140.414
117.165
117.513
123.113
113.915
128.146
116.591
106.632
136.753
113.610
145.219
138.945
114.387
122.271
107.888
102.715
138.586
135.180
97.576
115.962
126.544
118.094
114.888
132.043
118.084
136.724
113.936
102.720
95.427
132.631
116.876
132.735
137.366
131.046
111.653
143.352
138.460
96.518
137.642
131.227
106.288
113.938
142.697
146.585
129.468
97.140
143.270
97.744
108.164
103.466
95.078
120.997
144.320
124.220
96.828
108.771
125.344
128.544
121.825
104.780
138.473
98.410
132.194
136.701
138.776
136.616
101.650
137.512
110.614
120.557
108.536
128.133
146.393
142.543
115.807
126.465
105.196
141.110
97.425
124.031
114.016
139.230
99.400
97.928
115.439
143.547
105.863
107.266
138.982
131.931
142.700
109.626
99.292
101.879
96.274
112.190
124.722
129.292
106.300
127.472
103.576
117.568
124.801
128.590
140.160
108.795
121.518
125.227
133.322
123.225
135.779
100.521
141.084
128.174
141.339
116.086
138.577
102.176
119.490
110.087
98.777
111.066
118.924
104.449
121.518
116.706
130.393
109.011
109.203
127.476
143.943
103.639
108.614
98.010
143.361
137.908
126.577
131.444
141.181
143.248
106.001
99.230
144.014
122.191
114.186
128.536
114.040
114.943
137.730
116.822
137.375
144.053
137.966
108.529
123.976
105.603
95.049
117.100
114.978
138.363
139.283
95.168
94.780
144.457
121.032
121.008
107.079
124.800
104.033
117.100
116.815
108.195
146.374
141.547
116.463
127.168
125.109
109.001
137.016
149.697
135.451
125.078
149.542
105.828
144.839
112.048
136.127
146.891
111.602
109.567
129.034
121.465
122.202
121.096
131.209
114.658
127.162
117.282
151.235
138.334
150.367
104.853
101.673
135.850
137.597
151.052
133.359
117.881
128.998
138.928
137.046
103.231
129.241
130.818
143.563
147.102
142.475
106.003
113.130
149.197
134.067
121.245
150.034
129.910
150.333
116.693
125.380
138.918
108.542
122.120
115.277
102.266
107.921
122.667
107.203
109.818
122.259
130.217
149.612
123.826
145.664
115.132
108.756
127.646
105.651
127.756
136.800
113.867
143.571
152.302
148.892
149.385
146.298
109.657
127.841
114.661
147.409
131.467
126.936
118.046
121.331
140.513
152.345
106.597
138.442
149.842
118.623
122.877
146.561
128.860
101.827
133.653
103.008
111.415
142.753
150.477
131.459
148.481
148.865
144.862
123.898
138.468
