651.312
641.925
641.304
644.436
645.416
655.982
650.755
646.932
656.492
647.965
648.481
655.757
661.085
654.241
660.071
654.775
658.405
654.483
658.660
662.227
656.608
664.586
668.148
665.609
673.764
673.234
664.810
667.497
675.749
665.521
668.337
670.089
677.163
672.690
679.182
685.595
675.799
688.743
679.477
686.013
687.888
680.416
679.310
684.743
695.914
692.612
692.625
697.821
684.340
697.175
695.519
701.532
693.410
696.044
703.074
695.366
702.690
703.433
704.909
697.570
697.144
702.810
701.183
713.716
703.718
716.028
709.258
708.426
713.795
714.142
719.051
720.764
723.747
723.200
725.005
725.593
713.936
724.865
717.922
729.339
722.666
718.498
722.036
720.297
734.875
733.538
722.308
734.037
734.340
728.266
739.575
730.211
734.004
740.338
737.498
738.786
745.881
738.770
735.191
736.035
746.111
738.190
741.841
752.957
751.947
743.588
753.193
744.832
753.120
752.337
761.155
750.879
754.006
756.475
762.963
754.799
762.119
752.427
753.483
754.390
756.899
766.302
770.344
770.560
763.406
762.315
771.185
769.954
767.494
768.316
779.348
777.563
771.527
780.548
773.066
771.108
782.248
787.522
779.019
787.018
788.543
784.719
785.139
785.338
781.323
781.472
793.021
789.578
781.576
788.993
788.937
782.340
777.586
788.829
781.241
783.860
786.673
786.425
790.055
782.048
780.242
781.263
786.713
786.019
785.169
790.111
784.384
785.622
786.144
783.615
779.774
788.720
779.697
775.833
778.440
778.134
787.478
777.532
773.185
783.253
777.939
779.179
786.731
786.918
784.902
774.713
778.007
783.440
780.667
783.712
783.182
784.777
774.877
784.723
782.410
783.907
775.773
769.392
773.938
768.928
770.804
775.712
769.381
768.144
772.402
775.611
771.351
781.992
776.381
773.241
776.923
779.935
766.857
772.870
769.096
769.767
780.532
777.511
779.701
779.886
776.935
779.045
774.581
775.302
775.978
767.894
770.249
779.585
764.644
771.960
779.094
776.442
764.114
774.905
765.226
770.789
765.196
773.592
771.697
767.630
771.511
774.514
765.048
770.421
773.921
765.419
772.231
761.967
775.573
765.193
763.434
774.570
772.169
761.284
765.872
773.776
763.226
772.994
767.636
766.695
764.131
759.390
769.058
769.717
758.511
759.300
761.313
769.231
771.938
766.490
766.460
767.748
768.786
768.523
756.311
767.328
766.129
768.083
771.385
757.482
769.855
755.750
755.668
769.062
758.141
763.249
760.485
754.020
764.958
761.546
758.867
764.902
754.962
757.657
766.782
758.396
759.143
768.307
763.640
755.971
761.845
761.364
765.236
762.222
765.690
753.222
760.967
751.143
759.554
757.564
757.794
765.432
753.808
752.278
751.307
757.834
761.808
756.104
756.863
751.795
751.773
751.996
763.751
751.115
762.301
761.314
757.144
753.446
748.315
747.433
751.749
749.103
760.522
755.757
757.251
749.277
753.684
759.992
747.783
748.762
749.021
759.673
759.523
753.913
754.337
758.894
761.308
754.143
763.681
769.539
759.204
759.170
766.634
772.069
772.302
771.930
779.557
775.245
781.031
773.898
779.888
790.980
782.254
783.039
784.702
788.519
793.396
794.910
797.295
793.379
806.035
810.219
803.488
813.822
808.573
817.614
812.669
809.622
809.338
819.901
819.137
828.939
817.220
830.006
820.903
827.985
832.073
839.274
840.555
837.013
842.811
832.094
835.671
841.835
839.666
849.574
847.941
844.627
859.526
859.637
850.052
850.521
860.674
864.264
862.579
857.467
869.140
861.976
877.080
869.130
879.319
871.821
882.482
886.020
881.706
886.263
891.813
892.019
882.607
894.494
893.245
897.800
902.627
898.731
899.480
901.274
898.174
899.870
900.427
899.806
911.620
906.632
917.249
915.461
912.535
917.203
922.351
917.884
919.630
923.056
921.590
930.022
934.251
936.722
936.235
940.389
941.626
944.671
948.126
947.658
952.455
947.725
944.891
956.282
958.295
953.250
962.238
951.090
955.800
957.242
956.657
971.204
969.123
975.945
964.780
977.772
972.327
969.577
983.899
986.470
976.539
983.135
987.453
984.658
981.722
985.293
988.548
995.012
993.148
998.072
1004.807
1004.085
996.122
1008.710
1000.013
1002.280
1002.845
1003.826
1008.184
1008.616
1021.455
1025.433
1018.616
1028.288
1018.709
1028.697
1022.356
1030.882
1036.449
1026.204
1038.967
1041.768
1044.666
1034.513
1038.968
1038.287
1041.823
1051.029
1045.751
1044.787
1054.648
1053.285
1053.842
1065.946
1058.827
1055.653
1068.233
1061.251
1064.713
1071.763
1066.634
1066.699
1070.384
1069.456
1074.798
1085.602
1076.476
1077.661
1089.932
1079.349
1096.666
1093.194
1096.221
1097.351
1092.217
1101.715
1099.536
1106.741
1105.106
1109.362
1104.479
1110.621
1106.580
1118.548
1106.652
1116.058
1106.630
1111.693
1103.638
1094.258
1092.237
1099.801
1102.097
1101.674
1088.540
1082.255
1086.172
1085.474
1081.228
1076.232
1080.111
1080.237
1084.520
1080.011
1070.022
1071.944
1063.934
1072.543
1062.219
1063.537
1057.748
1055.557
1056.106
1050.504
1050.423
1057.832
1047.727
1047.978
1040.711
1051.310
1041.936
1037.263
1039.910
1033.499
1030.391
1035.842
1028.361
1037.101
1035.162
1034.193
1021.299
1021.339
1015.246
1016.462
1024.805
1012.796
1016.129
1013.783
1006.437
1013.178
1007.093
1005.284
997.057
996.706
1004.760
999.638
1003.063
985.790
994.221
994.710
981.038
983.576
990.711
986.713
986.872
972.848
978.534
979.802
974.592
978.135
962.448
975.348
963.479
969.428
953.972
964.222
950.543
962.636
956.982
955.231
955.489
955.604
948.008
937.258
945.439
948.359
942.618
937.729
939.529
940.263
928.007
933.342
926.120
932.774
932.341
918.419
919.113
919.821
914.551
917.972
917.864
913.402
915.229
906.582
907.419
908.322
895.436
894.544
898.986
903.423
896.415
897.132
898.110
887.817
888.053
883.489
882.075
882.977
882.752
884.217
877.587
868.506
872.877
868.156
869.521
871.650
857.658
862.270
861.276
861.987
856.163
857.585
855.057
846.384
843.260
846.259
851.688
852.695
843.919
838.993
839.952
840.258
832.364
837.433
828.452
824.641
833.614
824.636
817.379
818.541
827.632
814.189
813.211
812.307
810.245
805.042
807.157
808.165
804.709
798.613
808.641
800.440
804.396
790.496
798.776
793.808
785.798
781.964
786.767
793.080
790.175
787.172
776.378
770.161
779.746
770.504
778.340
764.216
770.921
763.707
770.439
758.401
755.311
766.934
758.453
760.651
753.288
758.956
753.828
749.170
746.238
750.331
750.696
741.852
746.231
744.679
745.819
744.718
747.188
742.763
752.277
751.534
749.530
744.675
756.616
755.950
753.067
753.376
754.166
760.839
756.180
752.983
752.271
752.691
767.299
760.842
762.601
758.388
758.723
770.416
760.652
768.290
765.269
769.897
764.894
768.767
766.683
770.448
781.402
773.027
771.546
775.827
782.495
779.801
780.388
787.367
786.693
780.492
781.445
778.621
786.255
786.111
781.037
790.753
785.370
789.368
796.817
792.774
794.183
794.780
787.135
794.130
798.497
797.738
794.937
791.820
802.089
803.496
798.578
798.010
797.007
808.164
803.241
813.578
804.350
815.541
802.134
806.523
810.702
816.082
818.424
815.173
820.250
810.384
820.453
821.434
821.367
813.216
815.252
818.259
824.070
826.731
826.334
817.935
832.559
832.895
821.222
825.681
823.414
833.145
835.940
832.867
837.005
834.208
834.330
840.577
834.738
831.336
841.477
838.125
844.641
847.806
834.754
849.152
840.629
839.841
839.338
840.831
843.773
853.765
846.392
844.820
851.601
854.915
859.430
849.299
858.677
860.295
850.551
861.296
851.299
853.901
853.196
864.365
868.004
856.488
860.451
872.654
866.153
860.600
871.251
876.118
865.891
878.522
866.105
866.881
876.348
870.355
881.410
884.037
879.391
870.915
875.428
872.921
886.244
889.876
888.076
890.025
878.276
888.148
881.883
885.410
887.855
882.997
884.046
884.329
895.532
888.433
886.601
895.065
896.040
901.934
890.153
906.657
900.094
903.046
899.532
901.584
902.828
904.082
907.473
908.379
901.665
913.585
910.389
913.330
908.417
913.030
917.984
907.208
915.493
922.831
913.423
911.174
925.822
913.129
928.077
919.770
923.037
930.553
922.947
928.335
928.624
923.243
930.588
920.037
927.176
931.559
928.109
925.892
927.034
929.414
920.863
927.110
930.945
925.532
927.003
925.944
918.247
925.243
928.023
931.092
927.659
932.843
922.647
922.425
928.575
920.020
926.857
922.315
919.211
929.500
918.606
925.366
926.563
921.568
918.728
921.515
924.902
930.044
927.619
924.417
929.114
922.461
919.940
926.109
922.930
920.357
929.798
924.170
917.117
918.303
923.987
925.912
929.080
918.694
919.947
926.184
932.085
927.405
919.451
920.169
919.607
931.896
918.327
928.577
929.569
927.642
921.112
928.704
924.297
920.161
925.072
919.739
917.157
924.528
926.259
920.008
927.768
922.060
924.365
921.565
930.188
929.797
924.818
929.357
918.927
917.618
924.651
929.001
930.592
922.879
917.427
926.397
923.494
927.802
928.151
921.626
920.394
918.803
921.704
921.260
915.217
921.894
926.445
927.129
918.662
927.920
919.385
929.723
919.504
927.910
928.059
918.231
923.677
917.030
926.168
930.124
916.221
920.882
924.648
916.804
916.335
919.643
917.221
926.099
918.841
919.090
929.498
926.756
919.765
917.547
916.449
923.140
916.024
920.827
921.310
919.481
923.999
921.529
916.909
927.531
921.722
918.031
916.823
927.003
915.320
918.422
918.289
922.324
915.696
920.742
920.459
923.909
924.642
920.304
926.918
918.683
920.566
920.948
917.621
913.373
918.639
921.609
916.611
913.180
919.824
917.349
913.237
928.180
916.555
918.509
927.447
921.641
923.453
915.821
916.660
920.858
924.002
924.423
917.849
917.176
912.591
915.150
920.488
917.702
917.741
918.878
914.982
912.228
918.828
920.559
915.711
926.990
927.114
919.600
911.260
924.581
922.592
924.675
911.779
922.393
911.798
915.533
922.679
919.836
920.375
917.011
904.294
909.420
903.573
911.720
898.290
900.784
903.929
905.605
893.375
906.742
892.095
895.386
888.011
900.190
891.112
889.346
888.800
891.840
887.036
889.483
881.927
879.726
877.915
880.249
876.337
868.486
877.138
868.750
863.692
865.057
863.190
862.249
860.421
858.564
862.637
862.359
860.853
865.467
853.764
852.342
853.039
852.739
857.756
842.913
846.120
853.307
838.976
849.943
841.874
840.546
838.862
845.536
831.024
829.563
840.859
833.626
832.790
834.565
831.493
826.343
824.728
821.133
816.107
827.231
812.995
814.393
816.660
809.558
806.806
819.484
808.326
812.488
804.529
811.618
802.275
797.339
805.054
804.281
792.272
792.956
795.166
787.427
795.937
787.316
795.533
795.967
786.060
780.554
789.570
781.830
777.819
787.561
777.674
781.665
782.039
773.539
779.494
777.271
766.549
762.876
764.388
767.953
767.660
765.948
761.880
759.570
756.999
764.733
756.110
757.129
748.881
750.703
755.021
756.106
747.944
747.291
748.130
736.210
746.076
733.447
742.820
743.224
728.580
738.836
729.597
739.951
724.007
727.049
732.344
720.196
722.797
728.328
724.247
721.034
726.765
713.999
710.117
715.806
716.747
704.490
707.557
709.477
711.695
702.821
703.232
711.041
705.254
693.754
698.697
699.098
694.813
688.661
700.888
692.619
687.547
692.883
679.675
688.196
683.903
690.614
686.079
686.846
678.297
675.782
676.810
674.754
673.917
664.730
663.994
675.923
661.180
663.743
664.863
660.857
665.168
668.135
653.457
658.381
663.478
654.260
651.134
647.671
645.222
656.481
643.022
640.621
647.549
645.917
647.396
647.818
640.261
636.935
643.353
631.839
626.289
633.368
632.346
626.874
626.345
629.412
634.213
633.029
628.531
634.150
643.020
635.445
638.324
638.442
639.616
640.153
647.976
637.687
639.186
649.773
642.121
641.329
645.231
650.674
645.476
654.502
653.983
654.547
653.097
646.346
653.391
651.848
658.894
646.161
649.059
649.616
659.527
659.228
665.156
654.212
654.413
666.119
662.325
659.159
663.138
663.655
669.133
661.538
667.067
658.707
664.278
668.405
671.833
675.465
674.408
675.051
664.822
676.774
667.621
674.260
669.123
670.003
668.237
677.883
668.470
678.343
679.359
680.404
671.953
677.594
673.955
676.468
688.684
680.631
679.829
690.067
687.635
677.728
678.477
692.889
679.788
690.374
686.733
686.075
693.156
688.428
694.479
685.350
687.958
693.751
688.169
691.377
694.229
699.242
699.058
695.198
702.686
698.715
699.211
699.779
695.282
705.445
697.818
697.583
697.375
709.053
702.414
702.967
712.187
702.402
701.708
712.680
712.997
716.160
716.017
715.546
714.741
710.147
711.078
718.820
711.909
716.353
716.942
710.714
724.674
711.449
716.956
717.277
726.326
720.629
717.064
717.787
726.877
726.248
718.258
724.085
723.163
731.981
722.562
730.643
735.990
733.282
729.876
732.807
737.658
738.786
727.954
735.896
742.363
736.138
742.212
745.004
737.599
743.948
745.638
746.206
739.179
744.568
738.200
744.249
737.454
750.328
744.452
751.483
751.502
750.725
746.119
753.517
742.067
745.974
754.871
757.438
757.533
752.218
745.947
751.801
762.370
760.778
750.867
753.403
756.425
753.931
762.177
754.053
754.784
761.831
756.713
765.131
768.272
756.322
759.337
761.335
765.728
771.820
763.630
767.306
767.561
777.231
769.617
768.221
771.200
775.420
776.702
767.850
773.062
768.463
767.768
756.026
760.161
758.203
751.701
754.756
762.632
748.875
758.558
758.583
754.038
750.694
745.303
750.651
737.770
738.242
735.409
748.593
745.295
732.131
739.433
733.086
739.580
727.051
723.935
728.343
722.863
720.823
730.611
721.699
723.253
726.465
713.716
710.778
717.705
708.947
709.096
708.328
704.732
717.496
712.411
702.469
712.363
710.285
706.669
694.348
706.656
699.277
692.347
701.229
690.137
691.011
692.992
690.231
681.279
689.049
685.838
677.715
684.173
681.080
673.957
677.070
678.101
674.611
669.041
670.272
674.625
677.140
676.994
666.907
658.821
671.295
668.608
669.076
659.220
655.232
658.304
657.716
649.356
655.078
649.627
654.510
651.118
646.129
644.717
644.937
646.114
636.022
635.554
639.308
633.875
644.375
640.724
626.334
633.360
626.877
626.819
628.478
622.617
620.249
626.521
622.714
627.926
623.016
620.548
609.479
614.977
622.235
606.749
616.271
614.043
616.251
605.053
612.315
603.280
604.745
608.725
597.889
599.510
597.638
598.507
589.092
592.136
596.212
583.552
593.640
583.466
580.048
582.575
586.206
581.338
573.636
580.990
584.614
582.096
582.185
568.799
568.115
569.392
570.732
573.052
567.858
570.938
570.926
559.820
561.147
554.781
565.791
557.538
553.872
559.992
552.366
556.950
555.329
552.857
539.596
548.504
538.083
545.270
545.184
534.612
537.273
536.823
541.032
537.999
532.507
530.333
533.899
528.601
530.363
525.640
517.381
525.293
520.775
512.287
510.927
519.152
512.068
507.669
509.063
512.024
507.082
509.142
510.094
510.145
512.194
496.506
499.213
492.888
503.267
503.979
495.160
500.521
486.568
485.591
487.076
490.008
485.000
483.536
481.864
473.313
473.753
480.778
470.139
478.666
468.531
470.560
465.473
471.111
470.098
459.117
458.063
460.914
455.790
450.593
456.806
442.671
455.104
441.229
441.161
437.953
439.019
440.630
444.109
441.969
430.130
423.655
430.331
434.025
424.329
418.422
424.343
419.204
412.132
408.893
409.076
411.114
404.680
406.388
412.274
400.830
407.541
399.831
396.691
401.351
401.710
396.874
394.694
389.922
386.115
389.041
376.726
373.182
381.484
384.106
371.953
376.141
375.265
373.463
359.020
361.430
363.906
361.310
356.749
357.741
357.112
348.182
358.199
347.950
343.743
339.765
345.156
333.848
346.666
334.515
330.454
337.169
336.970
329.508
334.842
319.121
316.264
321.348
325.590
317.307
320.017
313.584
309.164
313.851
315.725
305.134
305.383
310.653
302.358
302.096
302.454
298.270
292.509
287.654
294.803
286.786
291.609
279.490
287.753
285.438
281.694
274.837
276.571
277.796
271.329
275.316
260.013
268.475
256.487
254.329
255.200
256.502
254.274
250.743
250.009
250.711
249.921
242.610
240.122
233.740
237.742
230.505
232.912
241.260
225.286
221.616
232.676
224.818
220.700
224.181
224.948
209.983
214.109
210.139
218.568
216.082
211.175
199.950
205.292
207.867
207.227
200.950
203.330
193.227
198.798
195.815
191.440
179.946
182.139
187.658
187.645
175.916
173.458
181.261
174.021
166.575
168.901
160.742
166.726
167.262
154.826
162.344
153.438
159.636
150.120
150.203
143.325
143.119
149.108
138.151
137.954
137.052
146.246
129.515
135.223
130.073
123.215
128.126
129.740
131.123
119.029
120.172
123.852
121.897
113.249
111.126
109.661
117.119
110.971
111.918
171.134
230.531
157.981
182.200
233.594
200.705
152.201
196.739
174.507
151.639
195.254
199.707
153.243
217.491
206.331
224.819
212.340
173.553
200.102
190.192
197.456
172.057
210.296
233.136
206.253
174.901
233.094
179.962
174.541
165.336
153.177
161.533
156.757
212.094
233.259
189.270
191.611
202.768
191.795
158.107
177.412
171.954
152.416
196.141
215.402
176.067
190.460
160.766
206.367
189.990
194.693
181.187
158.740
175.329
166.317
213.565
156.484
