767.903
771.129
770.200
760.519
767.339
766.150
762.964
755.549
760.529
755.692
761.907
762.119
757.815
756.167
754.662
750.305
752.155
751.573
758.510
755.111
753.578
756.258
746.946
755.753
750.870
753.575
746.688
746.940
742.496
749.544
740.374
733.602
739.199
734.166
737.722
744.771
733.898
740.709
727.816
732.974
727.329
728.932
735.008
732.041
733.584
729.723
730.304
727.836
719.382
730.301
730.903
729.140
716.217
728.529
722.678
724.673
714.333
726.333
715.291
718.616
722.789
710.085
717.686
709.301
717.927
713.584
704.886
710.739
709.046
714.173
712.978
709.266
708.317
696.482
704.406
710.398
705.980
701.173
692.782
701.839
690.684
700.197
693.271
695.283
691.445
688.304
687.556
695.613
689.759
682.647
692.172
687.790
680.234
682.670
692.148
692.449
687.208
685.706
688.820
688.165
681.510
685.397
677.065
672.539
684.198
682.855
677.676
678.920
683.534
682.730
683.521
682.165
694.273
687.411
696.020
694.550
698.213
688.318
687.007
686.709
691.643
688.985
701.573
699.497
699.824
698.773
702.874
707.095
697.282
700.070
711.410
706.141
701.008
701.237
704.605
716.184
702.370
711.026
709.545
719.365
719.843
715.725
717.351
716.094
720.826
715.545
722.222
717.157
722.634
721.760
722.588
717.620
725.605
727.769
728.378
725.672
734.758
725.392
730.765
738.115
726.862
734.009
734.943
738.612
737.428
731.012
732.356
742.320
743.373
734.956
737.621
739.480
743.507
747.321
739.860
744.757
754.212
745.657
746.298
756.869
747.741
744.891
759.414
759.919
755.190
756.990
759.820
760.598
752.469
754.021
761.820
768.217
758.175
757.178
755.897
759.926
763.724
771.623
759.794
772.977
772.773
777.720
773.319
771.044
778.514
769.342
767.460
773.946
779.005
782.297
771.154
783.758
785.214
787.498
777.983
775.346
777.274
781.310
787.857
780.644
792.815
795.170
785.244
798.358
793.397
786.187
792.067
796.432
796.371
793.893
791.966
791.734
793.223
794.176
797.036
794.016
802.163
801.817
797.133
812.064
812.363
813.075
801.829
814.257
812.732
809.733
809.936
818.716
808.206
809.271
820.302
817.134
817.757
818.662
812.077
826.909
814.113
826.120
822.162
819.001
819.246
831.271
827.222
822.137
836.575
823.786
831.760
829.090
837.429
838.169
830.440
840.325
834.510
841.119
837.721
846.495
837.541
838.457
845.820
849.121
849.809
841.569
840.316
849.294
852.579
853.402
845.462
850.780
853.592
847.648
859.597
851.808
859.753
853.539
858.915
862.200
865.528
862.837
866.991
868.452
855.976
869.766
864.135
860.422
874.157
862.299
876.098
869.270
874.052
877.031
872.940
880.180
870.509
883.713
888.035
880.934
889.675
884.534
880.773
890.266
888.496
882.693
887.150
900.264
889.126
894.282
896.752
903.839
892.717
900.556
905.462
898.325
900.692
904.664
905.265
913.333
910.531
907.691
919.607
918.564
916.055
918.529
915.179
913.475
926.691
928.172
928.449
932.843
933.962
928.703
932.996
925.337
938.466
937.222
942.791
943.216
939.221
937.221
947.832
945.638
943.929
943.900
950.283
942.554
943.191
957.336
958.816
957.945
948.183
951.150
956.166
963.462
965.969
959.523
955.267
970.467
969.328
962.241
970.111
965.589
976.497
973.216
970.641
975.903
971.851
977.954
984.988
979.710
974.988
977.952
979.103
983.364
989.985
984.919
993.319
990.545
987.147
988.373
992.535
999.956
994.241
1002.301
998.786
1002.236
1000.624
1007.049
1011.404
1014.032
1013.714
1012.383
1018.483
1011.643
1016.534
1022.428
1020.864
1026.037
1027.643
1023.831
1019.794
1017.813
1028.369
1032.385
1027.066
1026.977
1027.058
1028.580
1031.946
1042.127
1044.175
1037.587
1032.236
1037.772
1039.146
1040.501
1045.835
1045.901
1047.856
1047.352
1049.942
1049.169
1046.694
1050.685
1060.365
1062.866
1053.750
1052.898
1062.193
1058.824
1060.070
1059.433
1061.094
1068.790
1074.014
1065.849
1073.821
1068.048
1080.083
1071.422
1083.723
1085.956
1076.953
1086.317
1075.549
1079.879
1088.379
1079.738
1092.779
1087.411
1084.238
1088.693
1086.959
1088.123
1095.969
1103.157
1101.658
1096.244
1097.966
1109.777
1102.718
1110.650
1113.854
1116.316
1111.491
1107.021
1112.280
1107.457
1120.319
1110.189
1122.238
1124.497
1115.386
1117.070
1130.593
1130.500
1132.438
1120.736
1129.697
1136.338
1135.402
1132.234
1135.051
1131.715
1139.667
1137.605
1140.784
1130.908
1136.180
1134.027
1123.923
1124.554
1121.847
1123.991
1134.975
1130.126
1129.592
1123.271
1119.568
1120.946
1121.639
1126.535
1113.745
1119.458
1119.920
1108.065
1109.403
1113.146
1108.445
1104.138
1107.445
1107.162
1105.545
1107.515
1098.967
1109.706
1097.319
1108.431
1101.091
1096.318
1097.841
1102.119
1095.231
1097.992
1093.080
1100.861
1084.624
1090.958
1092.059
1081.864
1091.220
1085.866
1079.825
1087.862
1087.036
1081.929
1079.695
1073.022
1081.808
1074.155
1082.512
1070.485
1072.701
1076.187
1078.741
1068.228
1066.416
1064.856
1072.754
1073.783
1067.034
1061.666
1063.449
1059.825
1059.597
1059.166
1060.418
1065.277
1057.542
1058.518
1055.798
1050.613
1059.520
1058.738
1049.406
1049.966
1049.372
1052.328
1041.987
1044.949
1047.353
1039.701
1035.074
1033.502
1047.317
1041.576
1040.060
1029.076
1034.094
1041.523
1034.981
1027.057
1025.050
1024.500
1032.045
1026.841
1027.112
1031.905
1030.318
1019.128
1025.524
1015.040
1021.740
1015.177
1025.029
1023.651
1017.970
1018.624
1006.419
1009.183
1018.184
1003.530
1013.172
1012.441
1004.890
998.670
999.307
1005.489
1001.450
1002.374
1005.150
1002.298
997.991
1002.082
1000.679
991.280
1001.114
1000.790
991.929
985.744
996.589
988.915
988.559
994.817
990.366
982.642
987.890
989.136
980.013
984.039
980.913
976.413
970.887
970.349
980.539
968.313
976.130
971.732
963.218
977.595
971.593
966.971
967.972
961.440
962.557
959.926
965.951
965.964
961.852
964.751
956.138
962.635
954.504
957.748
950.825
952.906
945.721
954.119
946.377
954.849
944.272
945.103
943.655
944.788
948.341
939.278
947.292
941.536
939.806
937.324
942.068
936.725
931.790
933.878
925.696
923.967
936.981
935.394
930.445
918.867
927.782
928.628
925.501
915.057
67.182
74.246
73.933
82.491
65.284
83.947
60.670
68.903
56.724
71.176
63.929
58.036
64.449
66.017
64.305
69.769
70.931
74.789
67.896
70.413
78.571
68.437
62.652
68.986
81.364
74.047
82.734
82.413
74.421
74.981
56.188
75.016
68.700
72.285
61.395
56.548
61.364
70.020
61.055
63.631
78.694
56.276
65.886
83.429
82.263
82.821
60.960
219.612
200.399
193.395
193.474
260.310
199.987
193.294
219.232
224.644
214.309
205.785
192.355
260.300
247.965
212.929
196.427
252.180
260.382
218.608
239.245
241.374
258.703
191.319
262.404
232.895
219.076
194.627
203.615
204.745
190.519
186.819
225.279
186.667
200.226
271.045
204.208
272.594
230.456
206.958
263.653
252.612
217.387
233.599
234.638
186.436
213.207
255.264
188.309
253.177
268.297
188.156
234.857
265.592
132.519
104.106
142.535
124.300
128.719
102.709
131.420
146.640
140.485
139.122
118.488
148.254
148.413
143.245
109.114
141.303
104.667
117.217
139.880
152.959
109.391
144.880
122.540
120.905
142.205
135.401
146.956
131.379
140.738
123.189
133.971
146.235
122.746
111.454
102.472
140.865
106.477
113.867
105.993
132.862
151.701
116.718
149.005
146.762
111.347
145.443
137.246
132.217
127.411
112.032
106.262
131.751
146.258
140.522
101.486
131.939
152.427
123.520
151.105
122.307
144.333
145.488
113.022
127.179
111.012
136.715
140.150
138.211
108.257
121.473
116.220
108.770
127.124
150.595
105.601
150.495
125.956
112.012
130.238
120.457
131.200
120.931
103.630
120.935
130.495
130.643
142.043
121.984
128.890
109.284
130.429
108.715
124.788
101.463
119.702
132.805
133.132
146.136
128.447
120.155
133.422
116.546
130.343
124.620
152.541
105.634
142.633
101.308
111.769
134.319
106.479
102.923
136.844
117.142
127.137
143.780
151.339
115.109
122.576
105.127
116.232
121.867
137.506
119.865
108.764
140.229
131.863
141.376
102.535
125.251
153.045
106.438
101.319
152.019
104.568
103.126
131.498
108.865
140.109
127.850
124.459
123.353
150.461
111.664
101.705
116.107
112.628
152.974
116.353
145.337
133.893
101.297
107.035
111.880
131.182
103.533
143.397
112.924
114.988
141.684
119.844
132.499
130.998
135.577
124.152
128.178
142.931
110.299
138.472
126.756
142.804
148.044
118.264
148.685
125.642
124.979
149.403
125.498
121.184
103.332
146.363
110.844
112.684
124.557
122.295
131.492
139.334
121.779
124.466
152.124
126.502
149.630
108.144
103.168
101.193
142.083
131.931
136.126
141.961
134.920
147.987
126.494
147.809
142.093
123.208
126.605
151.813
114.123
142.658
144.863
105.198
147.392
139.893
107.079
129.737
128.851
142.205
149.744
152.965
145.143
121.262
106.493
117.684
105.072
107.695
130.903
142.005
137.631
119.810
143.585
143.575
128.097
123.712
135.900
129.533
116.323
113.283
137.005
108.709
142.748
108.897
110.366
106.936
109.712
137.929
111.621
152.244
145.604
112.579
126.715
109.825
104.918
107.662
102.747
147.674
143.341
110.173
128.543
146.586
139.409
110.551
130.396
122.026
110.006
140.873
131.372
129.104
124.792
104.576
145.956
128.670
132.961
136.862
116.289
150.513
118.729
138.451
135.341
117.251
113.112
106.378
138.883
152.443
108.786
116.977
119.369
139.581
135.786
144.129
113.578
127.813
147.923
122.675
119.549
105.512
137.904
139.518
139.535
146.324
144.862
144.962
125.996
111.782
117.248
108.550
124.536
132.410
133.597
130.551
121.159
150.065
113.318
116.083
116.917
136.662
137.678
127.172
144.626
113.622
108.271
113.066
142.016
112.144
110.610
133.290
106.413
117.261
121.555
107.457
112.577
139.068
120.591
119.978
151.399
104.122
116.665
134.057
134.781
104.781
111.777
150.180
102.892
151.899
140.026
131.058
142.551
126.748
113.466
128.522
103.676
142.363
129.964
153.106
113.671
109.603
120.030
126.802
108.068
142.827
114.713
105.435
118.605
145.827
103.341
132.355
101.881
101.755
145.157
117.628
119.180
131.168
105.758
148.661
119.846
124.678
144.870
132.650
111.379
126.762
143.199
145.850
147.379
125.348
111.270
123.485
121.368
143.777
142.794
127.130
119.806
126.385
121.699
121.394
130.161
108.499
109.942
117.090
124.651
134.218
131.188
105.848
111.977
122.764
131.170
113.449
132.898
115.754
147.359
125.639
138.105
103.134
127.871
128.964
123.630
102.664
128.639
130.667
133.967
125.177
143.839
114.645
127.380
133.738
131.001
129.487
106.449
146.921
144.539
107.549
126.789
104.394
119.172
146.767
130.216
117.449
129.311
137.725
112.773
152.543
123.970
135.493
145.029
145.494
123.007
145.682
137.497
107.789
129.450
127.631
143.193
109.995
132.712
121.734
107.896
147.212
110.995
114.346
152.059
151.269
152.870
143.621
132.149
141.683
102.429
129.841
135.639
110.959
147.109
143.859
137.901
138.525
120.038
122.144
142.344
107.257
119.046
116.235
107.708
126.975
125.971
151.574
118.041
144.066
149.061
142.065
141.626
130.164
103.901
128.464
135.591
128.095
109.379
135.736
144.272
144.481
108.822
145.591
106.163
139.649
111.883
150.844
119.791
103.612
137.857
129.700
140.161
108.410
132.219
140.847
145.682
111.228
103.319
118.516
109.050
140.148
108.924
126.920
128.006
138.575
151.144
138.208
150.955
151.702
150.955
132.925
129.951
117.728
135.110
110.289
141.774
144.741
114.820
126.272
104.517
132.407
104.259
148.175
132.473
144.882
136.631
133.248
127.677
130.637
111.968
120.477
115.760
122.439
102.454
138.803
112.505
141.634
143.573
105.370
104.958
101.164
117.085
121.421
105.958
114.022
147.803
133.791
112.138
136.003
104.857
134.752
143.352
103.086
142.182
124.638
138.068
109.330
119.226
138.266
123.406
102.577
112.746
104.985
101.871
111.783
139.782
130.304
147.270
130.003
116.763
145.938
102.257
151.862
150.630
121.412
152.421
150.287
120.345
145.796
105.816
147.079
107.706
107.505
142.497
124.229
152.696
138.681
104.515
117.441
107.788
139.380
121.414
142.545
152.960
114.055
127.301
118.752
110.926
135.261
131.584
151.035
137.476
111.666
118.171
103.893
143.251
111.229
121.370
123.770
130.814
146.216
137.998
128.682
127.675
115.155
129.246
151.564
125.767
134.645
112.773
104.948
113.028
145.884
131.607
114.739
138.554
106.232
148.159
149.826
151.236
133.462
150.605
115.701
139.459
118.345
149.633
136.534
114.975
101.860
114.335
151.916
117.674
121.285
127.053
108.553
121.240
112.910
117.208
135.454
125.943
106.121
146.279
148.265
123.723
149.251
136.063
130.787
128.626
126.403
120.593
130.401
102.009
119.351
150.385
107.188
123.009
138.696
143.543
149.743
138.146
102.321
110.937
151.402
121.449
116.701
118.981
118.392
138.580
125.898
134.905
114.765
139.665
116.261
122.418
134.816
137.944
138.182
112.394
108.171
139.275
131.213
152.530
119.629
150.063
129.172
127.416
125.946
120.429
146.560
116.503
103.107
126.922
109.994
139.127
115.435
128.393
152.029
135.351
151.205
128.691
142.806
151.418
142.224
138.039
151.911
135.984
150.629
148.233
144.357
113.502
126.386
114.604
121.194
117.887
112.966
139.769
142.561
119.479
132.680
145.887
149.382
114.008
118.647
110.149
127.091
147.146
113.128
120.870
112.949
144.292
139.871
136.137
138.441
101.962
139.434
144.919
104.339
139.269
134.867
149.014
126.526
111.355
127.336
110.128
148.872
126.798
144.348
107.646
136.462
124.767
108.392
114.950
144.387
151.509
137.152
109.760
123.570
113.720
142.438
150.387
117.987
126.690
119.436
130.875
124.051
121.523
126.381
128.033
108.038
119.417
130.552
121.126
103.706
135.876
133.799
148.396
152.509
144.238
139.008
106.288
144.236
142.908
107.596
141.753
132.611
132.579
149.573
118.665
119.142
128.225
103.938
119.171
131.411
130.165
110.640
144.360
142.833
145.240
146.505
147.097
130.561
141.585
135.068
139.226
140.296
131.834
101.782
152.332
150.333
142.189
139.718
124.141
112.348
143.818
127.063
122.633
107.525
102.822
103.496
121.105
138.522
144.851
122.760
118.524
129.130
110.334
142.109
127.039
118.981
149.363
116.523
103.651
105.547
121.310
116.570
123.651
136.297
139.555
110.006
106.714
125.262
133.416
115.996
148.448
152.225
127.301
110.882
107.610
150.666
102.069
105.929
112.737
146.230
124.217
127.592
101.846
110.314
133.329
140.788
128.430
119.040
130.774
132.057
135.019
150.276
119.072
151.519
147.442
146.505
137.448
106.026
134.796
126.770
129.015
119.530
124.980
132.241
147.357
116.582
119.661
113.486
121.097
133.436
108.604
116.014
120.926
119.527
114.341
141.613
126.695
131.897
105.249
149.055
140.397
134.350
105.612
143.880
152.790
102.506
148.972
132.361
127.188
137.924
120.327
110.638
108.446
113.571
114.657
112.076
102.589
109.790
151.527
130.213
106.095
151.521
139.423
148.830
147.659
144.610
136.843
132.169
113.060
132.307
147.932
128.796
135.545
128.435
126.067
119.956
152.808
132.083
140.863
117.262
126.240
103.027
131.880
119.789
142.767
124.594
146.723
122.111
138.384
147.995
102.101
146.915
153.009
110.804
111.157
148.991
103.339
142.421
101.682
111.806
122.251
133.645
120.207
152.781
138.479
127.014
110.347
143.360
144.369
120.648
122.368
137.500
129.672
110.445
122.099
115.962
113.208
135.771
123.568
141.260
102.958
126.704
113.946
112.398
147.458
116.658
140.327
139.070
107.984
120.588
151.265
112.819
110.265
129.205
118.946
151.052
102.351
110.956
132.631
146.963
123.371
106.177
150.287
124.996
143.065
131.869
151.430
134.356
134.245
107.260
123.704
117.628
151.413
142.732
102.379
107.666
109.349
110.216
124.854
136.527
135.069
107.894
134.384
124.255
151.665
115.325
102.515
102.710
113.319
129.703
128.169
116.572
130.458
106.376
105.553
122.044
107.276
142.361
136.036
143.166
107.045
148.392
139.456
130.608
129.443
106.872
143.242
124.690
119.156
115.723
145.349
116.267
149.985
144.134
123.669
120.341
150.596
147.899
108.184
125.017
108.596
145.162
109.454
119.740
109.778
145.123
120.140
119.999
114.725
151.663
121.236
128.358
137.097
131.303
140.401
121.277
146.609
136.623
136.565
109.924
110.634
136.168
141.555
120.630
121.407
139.894
120.543
143.635
125.693
103.397
102.502
112.743
116.984
149.437
126.620
125.696
133.698
128.346
137.008
123.391
113.436
145.573
113.933
124.651
140.810
150.152
151.160
110.398
126.873
127.521
135.594
130.628
130.355
119.498
120.549
108.711
113.740
134.445
134.567
129.814
105.125
106.155
111.572
152.887
139.535
152.600
126.645
113.212
116.264
117.661
105.999
126.941
145.936
152.385
123.939
138.517
132.023
151.220
116.574
113.540
116.796
128.905
124.942
147.607
147.389
145.969
141.825
110.663
145.150
135.134
105.953
117.305
101.568
130.430
142.700
150.908
138.439
150.822
147.674
101.948
128.127
121.438
107.202
109.246
109.826
117.516
101.914
148.349
104.798
115.204
109.225
101.418
134.136
119.766
129.013
102.719
148.827
113.439
133.779
146.416
115.882
