830.687
837.550
843.835
844.197
841.062
842.213
836.739
853.135
845.392
846.650
859.101
849.389
857.015
856.182
859.473
857.259
866.696
858.949
865.327
867.311
875.712
867.626
880.571
881.356
882.388
878.167
885.284
885.435
884.283
893.590
880.140
890.882
887.506
894.801
887.725
902.537
903.017
905.091
894.807
898.697
902.274
912.491
905.733
910.322
916.455
914.532
909.913
913.736
919.950
917.856
920.017
930.903
920.450
936.635
926.662
928.897
941.780
933.985
943.271
942.100
937.316
945.635
937.222
945.559
946.962
944.987
949.859
954.173
960.319
964.459
967.157
963.085
966.225
972.679
963.083
967.632
966.988
979.972
966.561
971.473
973.590
984.375
986.203
977.753
982.256
986.015
985.504
997.923
989.883
987.597
996.640
999.094
1001.790
995.915
1010.323
1000.289
1006.098
1007.000
1016.149
1015.469
1005.790
1007.638
1019.746
1019.578
1025.014
1022.182
1016.269
1024.332
1029.406
1021.720
1035.638
1025.593
1042.588
1042.971
1037.370
1046.192
1049.441
1047.090
1042.088
1050.444
1047.380
1051.007
1056.639
1054.840
1062.573
1053.828
1054.479
1063.515
1068.480
1071.209
1073.410
1067.172
1064.790
1068.163
1076.935
1072.603
1072.236
1085.837
1075.584
1088.764
1080.552
1089.335
1093.282
1095.896
1100.601
1093.193
1091.214
1102.790
1094.322
1099.640
1109.686
1103.891
1103.806
1101.283
1103.966
1118.754
1104.014
1112.756
1112.135
1097.582
1100.852
1098.363
1093.970
1092.670
1090.206
1085.865
1097.939
1088.018
1083.830
1091.816
1083.117
1077.425
1079.674
1076.842
1073.107
1071.377
1074.163
1074.426
1067.785
1069.594
1064.337
1060.414
1054.737
1066.931
1052.636
1061.402
1048.942
1047.631
1054.272
1054.430
1042.198
1041.414
1050.061
1045.708
1046.953
1031.765
1033.911
1026.425
1025.353
1029.311
1032.965
1028.517
1024.575
1017.010
1021.318
1011.979
1016.126
1017.327
1008.048
1019.282
1007.792
1006.466
1003.887
1009.961
999.674
1004.491
991.324
991.244
1000.508
993.793
986.970
993.872
994.316
982.397
977.312
975.445
985.315
984.739
969.022
967.563
968.199
965.037
976.347
962.308
957.704
969.072
967.065
964.350
952.536
955.691
960.051
949.610
950.887
947.529
954.679
951.718
946.742
939.391
945.114
935.872
932.211
940.193
927.478
937.323
929.151
933.682
926.976
925.213
926.460
915.381
919.497
914.683
917.427
911.776
913.717
912.917
900.958
911.406
900.720
905.800
902.871
892.484
899.844
888.254
899.147
890.750
885.277
889.659
890.910
875.114
887.716
882.159
875.617
874.524
872.314
866.845
863.182
869.821
868.959
867.836
857.053
861.316
851.093
854.867
856.096
848.280
843.959
851.277
846.076
839.084
843.417
840.955
845.577
840.699
841.090
838.686
830.480
834.407
831.696
826.105
826.285
816.758
828.508
819.760
816.598
820.281
814.132
810.300
810.443
802.732
811.441
810.860
800.678
804.971
806.144
793.995
800.908
797.480
789.961
792.300
789.126
780.892
778.502
786.373
777.476
776.267
768.532
770.235
767.374
772.742
770.115
773.656
759.093
760.414
762.460
759.306
755.002
760.813
754.277
745.081
748.174
747.889
751.993
744.208
747.227
744.056
742.498
746.083
737.168
739.789
739.796
748.905
751.044
742.607
742.897
757.696
743.292
756.403
759.288
759.583
755.350
748.534
760.591
753.485
761.132
760.375
759.693
768.993
763.537
764.145
764.048
757.838
759.743
763.634
761.507
771.228
762.000
763.271
774.959
765.017
780.920
776.616
771.396
777.035
777.734
771.803
780.629
776.081
780.059
774.215
781.800
786.711
789.662
777.591
791.932
791.248
781.475
781.952
789.831
794.401
793.472
799.712
800.188
794.547
796.450
789.455
804.075
792.014
806.074
798.996
809.017
799.523
800.366
798.141
799.792
799.445
804.825
809.470
802.829
815.567
813.037
818.799
813.051
817.514
814.788
809.729
808.863
821.945
819.130
826.397
822.782
818.370
819.002
830.485
816.642
816.875
833.106
820.089
828.684
821.802
836.360
832.135
838.442
835.134
827.171
830.144
827.356
839.942
830.979
834.499
842.378
838.029
842.811
847.067
849.775
840.906
851.363
852.766
852.627
850.204
841.055
842.201
853.746
847.498
845.592
846.823
848.143
851.170
858.299
863.119
864.682
850.565
857.984
855.066
852.751
866.974
869.141
871.176
866.618
871.858
871.454
860.305
870.483
875.371
865.025
865.667
869.238
879.052
867.487
880.655
879.825
868.920
874.147
884.896
884.580
882.501
877.938
879.758
890.431
889.573
878.080
885.905
892.846
884.492
892.942
895.298
887.368
897.011
886.774
893.643
899.456
900.845
903.199
899.269
901.453
901.587
904.242
906.454
894.842
900.163
901.583
905.369
905.256
912.888
902.460
902.044
906.891
903.128
903.976
908.415
916.546
919.615
910.554
910.931
911.975
918.848
922.665
926.698
920.311
921.361
924.778
916.725
924.566
925.271
918.507
919.750
929.283
927.206
924.838
922.801
933.456
920.543
928.282
933.471
924.753
932.029
924.750
923.683
930.609
934.081
929.539
932.454
929.041
924.064
919.119
930.109
919.114
921.371
931.290
932.707
931.527
919.598
920.169
933.309
923.044
919.583
921.150
927.637
923.901
922.100
926.929
932.135
918.264
928.187
917.543
927.876
920.021
918.615
931.215
922.271
929.655
920.037
925.059
929.904
919.456
928.307
924.645
925.098
930.367
924.203
924.368
924.825
917.121
926.965
917.942
918.675
923.906
917.208
928.649
930.594
926.783
926.256
917.423
921.503
918.215
924.077
916.734
921.545
917.582
923.039
918.466
921.652
916.828
927.635
919.425
924.569
916.933
925.159
928.910
929.813
922.814
917.771
930.030
919.225
930.544
917.933
928.302
928.528
931.006
917.385
926.266
924.554
926.390
924.054
922.337
927.095
923.697
918.621
916.756
917.204
922.764
918.020
920.014
915.292
925.622
919.238
925.959
923.526
926.020
925.792
918.974
927.870
922.846
915.894
917.706
916.783
925.012
918.580
919.937
920.075
926.408
928.308
917.925
915.229
928.071
917.700
925.138
922.484
926.844
925.184
916.747
915.359
916.944
924.809
925.755
923.347
916.011
913.842
925.571
920.289
915.977
922.953
916.783
916.063
922.740
922.462
927.782
924.749
915.178
922.093
921.766
926.127
926.059
915.877
922.264
920.112
918.078
912.612
916.886
921.669
918.387
918.671
915.646
927.979
915.732
924.663
922.670
915.336
915.025
923.128
912.918
913.913
922.123
922.709
924.165
916.779
921.155
920.158
923.035
918.350
918.469
912.456
926.705
922.427
925.498
913.615
926.099
920.607
915.689
923.602
926.255
923.606
923.258
914.207
925.686
926.618
922.425
908.316
922.279
917.814
907.753
909.523
902.908
904.287
913.330
904.949
904.001
904.948
906.773
904.644
904.049
901.411
894.576
891.033
896.257
885.271
880.785
891.008
886.490
891.963
881.507
878.847
878.306
877.270
883.418
882.560
870.716
876.225
878.711
873.010
871.643
873.743
859.216
866.684
866.054
868.320
862.894
858.288
855.246
861.045
847.837
847.051
852.859
847.293
849.800
854.654
845.514
841.260
843.548
836.707
847.758
845.773
842.279
834.504
837.693
839.774
826.492
835.498
834.508
834.219
818.459
830.762
817.330
814.922
825.704
812.933
820.299
816.474
813.098
812.706
817.095
811.024
807.771
807.631
801.093
804.127
808.279
797.590
794.125
798.601
804.534
791.374
798.240
788.885
796.654
795.406
792.065
785.866
790.585
791.454
787.399
785.611
783.627
775.700
783.261
774.962
776.292
767.822
762.965
767.464
775.719
769.752
768.952
759.520
763.421
758.161
754.700
760.230
752.081
759.165
747.488
744.760
751.195
753.420
744.406
745.393
751.857
742.416
749.683
748.466
737.417
739.711
733.987
734.289
731.413
732.773
723.273
722.803
729.753
731.271
726.552
730.259
715.531
715.835
726.488
725.533
713.264
720.232
718.134
711.572
713.473
710.874
714.625
710.711
701.327
700.235
708.751
699.834
699.107
705.215
691.155
689.970
687.007
698.854
683.240
695.580
684.627
682.461
680.092
677.724
680.020
677.733
684.748
678.627
668.613
671.086
670.648
665.465
666.383
665.644
667.795
659.805
669.143
655.741
665.653
666.829
661.377
657.574
654.153
647.230
654.247
645.584
657.920
647.370
640.215
647.259
637.159
640.294
641.119
633.138
641.700
633.874
641.622
631.577
631.169
632.927
625.772
628.249
630.460
632.649
640.675
635.156
633.246
633.242
643.876
630.836
642.642
638.351
645.086
643.991
634.240
643.204
642.121
642.845
641.327
647.304
644.626
644.677
644.554
648.850
656.988
652.833
647.292
657.612
646.879
651.222
652.457
648.798
649.729
653.591
654.071
650.972
655.952
659.696
654.162
653.199
664.048
661.824
654.257
663.599
660.667
666.449
671.224
670.131
659.916
660.729
664.984
674.794
666.324
672.633
673.193
664.034
666.690
665.947
665.087
681.697
673.068
669.197
671.596
683.019
674.896
670.544
670.840
672.776
680.600
679.690
688.661
679.713
688.259
687.111
685.870
690.285
687.260
687.072
685.753
684.632
688.226
694.263
684.505
684.763
699.062
695.243
689.766
692.591
701.723
695.161
698.820
694.013
702.532
692.785
694.001
705.549
704.864
707.880
693.746
709.763
709.230
705.558
703.704
706.388
703.494
704.810
708.850
709.283
702.612
707.868
703.916
704.911
703.375
704.998
715.306
714.645
705.858
718.312
722.544
712.301
715.110
716.381
712.814
726.174
722.226
717.247
726.787
718.873
729.685
727.717
731.420
730.158
731.893
724.902
732.723
723.437
719.911
734.129
736.719
735.516
735.665
735.285
739.429
731.677
730.034
737.754
738.376
733.494
732.505
732.021
741.937
741.302
732.022
738.357
744.826
745.448
735.525
742.051
741.654
737.254
743.920
741.746
745.675
743.668
754.436
742.807
756.850
754.589
753.368
743.170
758.940
749.119
755.121
746.476
746.997
756.225
755.916
762.882
764.729
757.654
763.907
762.217
762.950
764.840
757.607
755.824
757.937
756.123
770.655
762.423
771.030
772.118
760.614
764.714
763.866
770.711
772.079
775.184
768.781
771.597
778.825
762.488
768.518
767.290
767.115
771.400
769.802
755.022
763.887
754.374
763.195
748.846
756.655
753.043
752.752
754.774
752.467
745.206
741.658
749.415
742.418
734.910
736.620
745.685
737.359
739.881
739.047
735.007
726.142
730.456
733.333
722.326
721.220
728.655
717.576
725.536
723.150
712.761
715.552
717.540
716.734
710.183
706.444
703.070
712.809
703.799
701.168
698.706
698.248
697.827
693.353
701.420
702.991
699.464
692.198
686.407
698.426
690.573
682.148
695.751
682.246
687.969
687.991
688.069
673.215
672.204
677.238
669.134
672.745
675.457
665.039
675.005
664.588
664.866
659.714
661.098
666.826
662.155
664.594
663.863
653.587
652.429
649.144
660.875
656.279
657.465
652.989
655.899
639.093
638.331
645.328
637.230
645.563
638.210
633.895
631.791
636.067
626.836
632.519
630.818
632.294
627.578
620.523
628.822
631.166
621.679
616.364
612.260
614.750
620.594
615.309
614.006
614.950
604.749
607.937
613.504
607.758
601.537
610.458
603.269
599.883
606.007
600.273
593.402
601.730
597.614
599.582
599.229
596.325
597.046
581.288
585.838
590.556
591.599
580.517
582.829
586.318
582.374
577.011
580.848
571.618
571.843
570.591
570.469
566.735
567.588
562.249
570.547
559.977
566.931
554.990
552.337
556.533
547.684
546.352
546.338
549.893
548.755
552.821
539.035
553.093
550.523
544.022
538.509
543.628
543.732
540.191
529.997
542.134
526.772
532.829
536.729
534.957
528.073
532.715
520.868
528.752
524.805
523.691
523.302
515.655
521.266
517.509
520.830
504.466
517.392
515.324
502.908
500.722
512.236
511.158
508.762
496.239
503.303
496.035
494.757
489.644
490.079
485.586
496.036
487.523
484.310
490.365
476.222
474.355
475.765
483.168
468.676
473.030
474.987
474.788
459.564
458.628
467.612
460.373
465.630
457.300
461.006
452.760
445.906
444.860
445.730
446.191
439.264
440.153
438.816
440.415
434.997
437.286
430.676
430.112
428.484
420.967
425.192
417.185
421.120
413.296
415.430
416.084
416.685
404.488
417.356
414.864
405.467
398.681
404.677
391.819
393.653
395.301
391.976
392.245
387.291
380.230
379.339
391.890
386.478
374.328
379.447
382.337
373.521
375.014
369.745
375.284
370.060
367.973
355.680
366.089
354.902
362.396
354.636
349.754
354.916
352.317
353.720
348.946
347.935
345.723
346.799
334.984
342.855
333.976
327.661
334.892
334.690
324.196
325.464
322.423
326.115
318.251
311.479
320.710
308.270
312.264
314.178
304.165
301.274
296.957
302.157
305.291
290.495
298.784
290.495
287.930
288.943
282.107
285.787
284.876
280.527
273.950
275.249
283.680
281.479
270.330
266.796
264.353
262.896
266.775
257.587
255.096
262.824
254.828
260.532
247.352
248.862
245.020
243.771
237.825
241.079
240.301
233.152
236.859
237.845
236.124
226.662
229.458
222.187
223.234
231.582
229.591
215.984
224.896
215.971
207.373
218.325
207.997
203.892
213.934
208.196
197.299
206.994
202.886
198.077
192.917
193.297
190.176
189.904
187.374
192.113
181.711
175.751
186.759
184.066
180.004
174.431
175.118
166.862
164.465
166.942
161.552
159.031
159.084
165.114
161.743
148.183
144.128
154.120
152.254
139.833
150.656
482.608
456.956
431.020
449.510
423.502
415.893
438.227
414.654
408.300
387.142
393.419
417.131
369.586
388.377
384.019
366.240
360.361
365.551
368.413
343.675
362.683
349.734
334.825
346.551
352.039
318.222
312.117
357.120
332.881
343.761
327.560
345.224
325.790
332.323
313.039
325.516
307.227
328.236
323.573
332.448
338.518
342.060
326.632
306.724
311.469
306.601
338.801
345.887
323.596
335.358
337.347
329.149
311.896
339.113
314.733
296.395
329.638
293.646
324.611
318.306
304.894
324.393
302.696
333.812
340.676
299.979
318.378
330.047
301.233
332.608
307.521
333.933
315.743
316.298
317.311
295.213
288.517
315.587
322.315
299.203
311.006
302.363
329.267
296.256
299.994
292.856
284.342
317.576
317.432
318.123
280.157
325.833
310.594
278.373
324.632
299.182
322.165
296.015
322.572
289.342
282.736
303.154
295.722
285.941
297.277
303.788
282.349
278.726
300.673
293.021
289.246
293.025
294.179
293.378
298.386
284.734
309.098
310.000
295.970
305.936
313.444
296.201
274.771
275.864
308.521
278.072
284.049
276.220
299.146
291.778
293.123
261.926
292.921
299.857
277.711
286.220
301.330
290.061
271.872
281.116
277.231
267.246
298.503
265.093
273.593
252.957
301.281
290.408
282.508
281.207
292.320
295.615
254.167
263.299
284.207
287.027
260.445
262.454
276.467
281.245
266.632
282.431
265.295
275.386
287.314
276.607
261.404
242.130
256.687
286.896
288.850
260.336
255.336
243.099
280.294
278.950
248.709
259.718
241.778
279.367
285.942
280.917
257.738
255.370
233.857
266.852
277.182
239.555
262.774
253.136
262.538
255.947
237.816
274.932
278.856
274.159
254.923
242.019
267.524
274.140
235.130
272.399
228.665
260.834
248.788
273.044
223.207
223.222
261.497
231.813
242.753
230.137
238.429
218.911
234.094
221.001
259.943
234.578
245.813
245.177
115.734
113.418
137.399
131.480
137.449
135.564
106.017
132.250
129.134
129.526
104.630
108.151
131.586
150.506
134.749
118.994
101.371
113.475
122.037
119.127
146.269
134.219
125.624
122.006
145.268
127.067
128.555
104.533
130.575
119.809
122.322
147.853
110.397
145.260
140.167
136.837
129.042
140.984
148.415
136.372
127.652
114.966
141.352
103.416
123.214
127.958
113.372
129.904
127.693
146.674
136.430
110.314
151.711
150.067
106.050
120.084
133.199
102.250
148.852
101.144
135.196
115.390
104.907
102.440
125.991
104.494
126.010
141.610
135.314
148.559
114.744
152.069
151.628
102.865
116.171
122.171
132.834
150.673
112.403
132.362
151.649
107.814
149.120
106.195
133.585
129.851
113.149
106.394
145.494
114.558
109.044
143.380
111.389
123.138
149.982
146.333
127.793
142.085
123.599
115.380
146.420
137.588
128.083
128.666
123.769
114.334
105.162
126.453
101.689
122.338
129.494
115.691
107.184
127.561
139.441
147.182
113.192
137.369
127.760
144.280
126.438
149.837
127.569
142.241
136.095
111.716
112.985
113.669
106.835
125.488
144.720
110.296
127.121
149.233
134.945
130.880
142.245
140.197
122.403
123.495
104.445
122.854
140.542
113.547
115.445
126.013
103.201
118.493
114.198
106.240
123.955
114.038
141.245
144.507
132.428
132.319
107.189
113.467
102.937
116.546
134.674
118.466
135.892
150.393
152.864
125.818
143.766
126.562
110.118
148.520
131.502
137.331
126.156
152.857
103.194
116.191
103.545
153.110
117.080
147.239
128.306
149.644
134.037
139.170
133.369
117.727
120.643
110.063
101.163
106.463
123.516
128.326
121.656
116.300
104.338
103.636
144.145
110.396
111.548
136.742
113.454
124.113
112.610
151.189
102.268
108.845
146.865
115.853
135.722
128.270
121.327
119.062
114.805
130.403
138.016
136.022
146.350
139.074
152.365
123.456
118.431
117.410
137.218
111.361
145.696
117.557
118.964
109.213
136.066
108.428
134.215
144.763
126.666
106.057
127.866
137.356
127.624
105.092
138.934
123.752
123.342
135.880
103.405
142.035
102.606
