361.846
349.609
356.856
357.315
356.061
356.499
355.429
366.295
361.290
360.591
366.338
369.579
365.864
368.059
375.494
372.392
371.109
368.957
373.716
369.552
372.644
375.389
384.746
377.438
374.131
381.467
376.517
383.055
380.818
383.952
381.739
382.530
380.100
396.308
395.240
391.865
392.353
385.337
386.963
398.518
388.880
402.920
404.990
395.496
398.628
405.336
405.369
399.514
396.598
412.835
412.695
400.492
402.597
401.842
417.462
409.069
414.471
420.434
418.498
409.238
423.552
420.360
420.110
426.913
422.369
420.978
423.505
425.834
431.012
425.785
421.612
420.344
430.683
434.938
430.238
426.615
440.282
436.626
435.701
431.898
432.873
432.901
440.935
446.501
435.565
435.444
446.650
441.338
446.946
445.878
447.508
447.045
456.064
451.404
445.729
457.102
459.147
453.537
453.439
460.531
464.446
453.233
465.876
453.471
466.701
456.995
465.473
457.361
468.781
474.819
474.310
465.516
476.748
466.450
467.180
476.650
474.373
474.542
478.774
476.498
474.075
480.491
484.275
478.066
474.980
481.352
481.201
485.158
490.994
483.891
494.942
496.882
491.423
484.568
498.637
501.383
492.584
491.024
492.912
490.135
493.686
505.307
504.397
499.253
501.729
508.260
510.624
498.604
509.271
511.980
513.649
516.138
508.879
515.323
518.214
520.333
515.249
516.666
523.732
512.435
526.592
522.266
517.909
518.128
523.537
521.242
521.428
531.318
531.362
529.443
531.149
528.001
533.288
535.182
536.916
533.502
533.736
530.115
536.047
543.551
547.291
542.106
544.169
548.272
550.992
540.188
537.421
539.831
553.400
542.253
552.133
548.323
558.188
550.279
547.461
548.533
561.269
551.667
552.964
550.757
564.139
564.430
562.311
557.704
564.283
562.562
558.045
566.798
564.470
562.649
564.532
574.246
572.743
568.979
572.122
577.710
578.391
569.455
575.294
580.465
573.712
583.397
582.771
585.712
575.144
589.623
586.258
582.632
584.396
581.516
591.297
589.229
597.065
593.941
591.904
589.680
600.177
602.073
600.037
590.633
604.389
593.306
596.178
607.823
601.059
607.899
604.710
599.153
598.803
613.514
608.826
611.509
613.410
606.953
617.504
611.431
605.789
621.534
616.216
608.438
614.858
614.757
620.738
622.536
621.020
616.145
629.607
624.522
632.643
628.470
626.371
633.869
629.215
632.231
624.012
634.063
637.253
628.029
629.225
640.522
638.903
633.470
638.002
636.418
640.183
647.327
635.217
635.111
636.896
647.929
641.813
639.521
641.397
655.103
651.161
649.837
647.974
652.663
645.883
662.118
648.894
664.471
655.154
654.022
666.621
666.536
656.810
654.716
658.301
669.147
663.974
669.126
666.410
662.698
671.445
674.798
675.102
668.275
670.344
666.277
674.474
671.302
684.421
681.536
671.822
673.602
680.984
674.951
679.442
690.392
682.414
679.076
690.498
692.367
690.359
693.885
694.375
693.463
692.297
687.855
690.403
693.535
691.041
704.753
695.643
695.407
696.595
697.089
709.047
709.181
698.240
706.588
710.668
713.580
711.040
701.630
703.494
706.361
709.373
718.949
719.429
717.417
722.352
718.778
717.249
715.965
712.373
716.560
728.147
718.447
719.527
732.174
722.693
726.276
726.021
721.601
721.299
732.479
731.069
735.905
736.329
736.551
732.805
729.566
727.746
731.927
731.229
730.972
739.621
733.993
725.014
739.321
730.680
738.580
729.265
728.991
739.589
727.188
742.222
741.170
742.994
731.514
737.885
733.073
731.194
742.078
735.217
732.464
731.200
739.374
732.923
747.177
738.775
739.310
735.562
734.684
733.804
743.749
748.339
746.955
744.375
744.294
743.455
737.663
750.788
745.662
751.367
751.169
737.884
750.879
746.664
745.528
742.977
744.700
743.481
751.779
740.825
754.035
751.725
752.670
751.237
749.773
748.544
743.095
744.095
756.580
754.037
746.926
754.246
744.909
746.447
749.968
758.714
746.181
745.605
752.019
760.258
756.640
758.019
753.553
758.238
749.806
762.072
755.479
753.765
758.699
754.990
758.942
754.500
750.207
756.874
764.838
752.418
754.212
765.327
763.817
763.825
761.125
762.337
763.907
759.573
760.318
769.498
755.656
765.627
757.385
768.747
767.646
760.491
766.924
760.518
763.056
767.733
761.680
766.014
771.799
770.644
766.294
759.334
769.042
770.061
771.143
774.389
761.690
769.843
768.804
763.601
768.159
777.003
776.096
778.758
767.830
775.658
773.959
765.633
780.657
775.682
765.727
766.573
778.077
772.619
770.625
772.931
775.543
768.586
782.847
782.140
779.803
783.251
781.011
784.010
772.077
772.282
774.775
778.535
787.094
786.246
785.405
777.769
783.261
782.747
775.411
778.146
785.886
778.916
778.565
779.233
784.237
784.782
787.062
791.132
790.345
791.474
792.143
790.550
785.372
778.010
788.882
781.141
794.018
781.809
779.917
784.924
783.430
791.823
783.204
792.028
785.739
789.269
793.740
795.918
793.592
795.984
785.885
799.502
799.614
787.315
787.494
796.419
786.255
791.211
787.927
794.805
795.801
790.843
792.715
802.033
794.731
793.949
797.636
801.506
807.037
802.343
802.183
800.648
800.221
799.391
795.160
798.032
808.058
803.806
810.705
811.258
807.069
811.997
812.446
813.532
810.993
808.594
801.775
804.465
810.945
802.318
811.472
815.012
803.924
808.745
807.926
809.858
811.130
819.012
812.864
809.171
817.969
820.858
814.069
807.423
819.320
809.220
822.602
808.933
822.958
817.352
815.864
816.468
816.994
816.943
826.594
814.644
817.007
817.764
817.830
819.276
820.110
824.705
816.804
822.474
829.435
821.735
831.334
832.470
820.628
819.273
827.149
827.225
819.858
830.820
821.001
834.923
826.542
835.729
831.545
834.192
836.036
829.358
832.772
827.547
837.772
828.770
831.242
837.304
839.967
830.223
839.301
828.484
832.231
843.529
837.234
838.910
829.725
838.698
839.897
842.207
841.347
832.725
836.751
843.925
846.526
835.980
844.166
836.689
839.007
846.091
837.059
851.000
851.821
836.413
838.907
842.789
847.999
852.898
852.668
850.705
844.284
851.622
855.414
846.818
852.231
855.247
848.199
855.610
850.635
849.244
859.400
848.712
860.388
859.917
847.233
857.562
860.590
847.875
852.880
848.550
854.869
850.741
857.548
860.472
851.887
863.445
865.064
853.660
852.991
862.986
853.739
866.063
855.036
854.955
862.412
869.583
870.283
860.804
863.306
857.141
868.236
863.252
869.447
860.882
865.699
865.718
873.013
873.643
870.858
873.051
873.821
862.362
876.488
866.640
862.932
863.020
869.207
869.756
873.897
873.510
874.905
875.787
880.705
869.978
870.089
869.721
876.083
874.568
878.105
872.383
880.995
880.191
873.642
880.749
869.883
879.009
881.975
878.044
874.090
876.751
875.710
877.979
871.845
874.595
867.859
869.935
868.102
867.718
867.462
877.641
877.672
876.899
878.991
881.473
868.806
867.559
878.615
869.876
871.007
866.350
865.740
876.781
872.127
877.200
864.867
873.156
865.007
878.659
875.814
867.653
866.655
867.323
866.750
869.543
866.821
867.371
865.514
866.047
867.983
874.024
866.928
875.320
861.998
867.555
863.614
873.970
864.808
875.683
868.349
862.725
864.381
861.093
870.626
867.901
861.906
868.134
870.919
872.269
864.437
863.759
862.646
870.611
859.127
861.765
870.712
862.958
864.907
859.876
871.868
860.525
871.798
867.504
867.352
870.530
866.431
869.388
870.546
867.502
871.062
864.195
857.907
865.591
869.165
868.421
856.752
864.645
866.673
855.098
862.748
857.165
868.768
856.741
855.158
864.106
862.886
869.476
857.789
859.834
861.001
858.499
858.790
863.843
860.629
861.139
865.431
854.788
864.371
855.660
855.906
851.868
856.961
861.109
854.209
861.780
863.400
857.982
855.023
852.083
853.288
864.309
849.736
852.411
864.737
850.142
860.948
850.160
864.324
858.593
861.944
852.946
858.082
860.628
862.402
863.030
859.017
851.658
853.769
855.353
856.589
859.800
849.965
852.924
859.507
847.741
860.058
856.648
854.335
853.891
847.636
856.009
846.725
854.601
851.542
857.111
853.059
857.397
846.093
847.339
843.813
844.492
844.648
858.501
849.093
858.473
842.812
843.921
853.380
848.321
854.391
846.178
854.800
849.050
844.026
845.952
843.061
850.593
846.951
847.410
850.135
847.371
846.045
840.480
852.661
849.464
839.623
840.421
850.897
849.264
842.914
843.048
838.741
847.223
849.662
841.464
843.909
844.656
837.565
847.580
848.142
850.360
845.624
847.506
846.800
835.258
850.600
849.621
849.936
843.570
840.172
835.661
846.929
833.237
844.727
835.490
835.380
842.290
843.760
844.175
841.238
833.813
833.888
841.823
844.940
829.377
836.025
829.439
837.214
835.154
840.086
838.170
828.047
829.091
829.987
839.023
829.677
829.153
826.772
835.889
830.950
834.780
829.856
838.701
826.610
826.914
833.439
833.211
825.259
823.966
834.465
835.971
828.938
830.867
821.981
830.224
830.740
830.563
829.397
829.090
830.149
828.228
832.209
832.965
824.929
824.537
828.290
820.534
827.398
826.203
821.150
823.698
830.515
820.078
820.053
817.100
814.449
821.593
829.115
819.725
820.539
817.595
823.328
823.485
818.561
813.551
819.589
816.573
814.731
813.067
824.928
816.102
821.682
823.576
814.141
824.421
818.947
818.160
814.884
821.730
810.367
815.071
809.397
812.627
810.819
810.045
816.776
808.712
809.311
817.525
806.167
812.087
816.769
807.007
803.901
811.988
805.883
813.883
809.442
809.212
816.036
803.888
804.189
807.798
814.419
802.688
810.045
800.140
807.337
810.557
811.411
814.004
812.735
803.329
799.797
805.031
807.240
808.295
810.262
804.269
809.699
808.627
800.069
797.934
794.910
807.337
801.075
801.320
806.085
805.342
800.885
804.873
797.680
799.081
802.457
806.400
791.242
803.073
794.053
804.175
800.170
798.910
804.202
804.461
801.012
791.876
788.234
796.160
794.429
800.532
798.205
791.721
789.508
798.484
788.578
787.554
796.202
785.559
784.322
792.220
787.093
791.935
798.569
785.961
793.781
789.964
788.544
789.322
791.488
786.647
783.234
788.105
781.409
783.725
782.298
786.068
792.217
790.304
789.806
779.061
789.829
788.018
780.189
773.920
784.456
782.330
780.925
778.701
778.824
776.447
772.597
770.161
779.988
766.390
777.298
770.957
772.971
767.275
771.955
772.700
774.887
770.263
771.480
757.409
771.613
766.872
755.906
767.617
757.113
762.613
753.735
752.010
762.595
751.148
752.492
751.151
757.098
755.069
753.258
749.074
754.237
750.192
753.857
749.655
745.646
741.696
750.439
743.815
738.215
746.279
748.544
737.166
741.605
737.918
744.467
733.577
732.436
741.737
735.560
739.242
738.039
734.179
742.725
735.097
737.231
727.783
727.286
723.505
724.997
724.276
721.214
731.847
730.375
732.838
728.705
725.587
716.988
731.217
724.959
729.329
723.679
722.924
713.372
718.933
710.768
717.950
712.809
708.246
709.645
718.598
713.895
712.983
709.533
716.453
718.529
708.977
715.178
706.290
713.540
708.690
709.330
710.050
701.044
709.648
696.253
700.174
706.313
698.647
704.305
694.859
705.466
696.447
696.552
700.517
700.206
695.907
692.155
690.216
700.183
696.914
685.140
691.308
687.655
692.545
692.705
691.657
679.389
679.931
682.463
685.710
687.143
685.574
677.514
687.097
683.908
674.974
679.012
676.613
670.024
674.844
681.510
669.135
667.226
675.449
670.586
669.684
663.546
663.327
662.994
672.451
664.481
675.157
663.638
671.973
671.489
661.782
666.883
663.279
669.391
659.695
656.094
658.011
656.508
659.216
650.067
650.251
650.175
648.494
657.642
658.015
651.581
647.482
654.388
646.953
645.739
648.586
646.006
646.825
642.506
653.217
650.090
639.104
646.242
649.579
638.799
648.506
648.548
636.147
641.083
634.188
639.970
633.195
638.017
634.666
628.203
632.068
634.640
640.906
630.248
629.132
640.501
636.167
642.204
627.688
641.067
633.024
635.620
632.827
627.754
628.727
628.161
641.127
632.435
628.678
641.022
628.051
639.029
638.508
640.231
626.697
640.947
625.623
624.860
626.050
639.363
632.617
632.890
626.093
628.513
633.325
635.158
630.863
636.647
625.672
630.339
634.792
638.927
627.403
632.312
631.726
638.441
627.825
624.511
631.098
635.871
625.304
634.711
633.887
630.871
630.881
629.304
638.295
637.671
629.435
635.781
625.416
635.867
623.033
630.846
628.848
624.640
625.134
626.941
628.935
629.995
623.985
621.342
625.638
624.854
633.714
629.256
627.722
625.365
624.290
634.034
622.479
636.074
625.107
634.377
628.687
622.519
629.081
624.145
622.187
631.820
633.482
624.623
631.941
633.549
620.789
631.990
624.201
631.721
631.598
627.340
618.938
631.088
627.082
626.542
626.088
621.733
632.974
632.375
623.342
631.144
631.200
628.162
632.124
626.346
621.239
631.482
629.566
626.594
629.545
624.591
628.217
623.881
626.950
626.208
628.298
627.272
617.213
620.741
626.373
620.219
625.350
627.890
628.697
616.349
618.483
615.578
624.501
617.603
623.496
615.758
624.318
627.079
616.520
614.890
625.714
623.064
618.366
619.154
622.130
617.587
618.474
624.225
624.488
628.541
620.823
620.229
614.516
617.834
620.189
614.035
614.203
620.115
615.569
628.207
615.877
615.977
621.192
618.198
622.231
612.356
617.683
621.803
620.583
626.543
620.919
626.452
613.856
619.747
618.358
613.301
626.632
615.889
612.675
620.370
616.965
622.735
617.826
613.215
619.800
623.883
616.090
614.636
616.201
619.689
613.439
620.850
624.975
622.940
624.432
625.224
625.703
624.454
615.604
630.204
619.425
626.951
622.785
630.496
626.607
633.045
626.972
634.490
640.096
644.073
636.480
647.329
640.302
646.613
650.709
640.849
646.502
647.255
646.453
655.915
654.910
654.814
653.053
656.558
651.295
654.634
659.853
668.272
663.157
659.770
671.515
665.567
673.956
676.060
672.075
674.180
672.292
671.222
672.026
672.001
682.771
675.456
685.474
689.432
683.360
679.708
678.626
690.509
682.655
696.847
697.755
688.370
700.015
699.359
689.340
696.552
693.062
707.041
702.515
701.503
705.299
705.748
704.996
704.283
714.140
712.022
708.138
719.274
709.828
708.303
718.810
726.386
719.559
726.503
719.788
716.928
732.961
725.486
723.856
735.045
726.644
730.165
733.903
730.308
741.246
737.007
744.025
732.092
747.728
746.377
739.848
751.115
753.377
749.668
753.471
743.689
747.830
745.326
747.410
754.434
751.594
760.949
754.749
757.541
769.737
765.553
765.073
762.292
762.875
762.526
767.162
772.933
770.248
772.429
770.954
776.562
784.687
785.236
773.088
775.899
778.325
778.702
787.082
793.014
793.992
794.170
783.284
784.220
794.636
790.670
796.375
800.176
800.533
800.029
804.200
796.025
798.643
799.584
806.446
804.007
805.857
813.103
813.902
810.061
821.052
815.720
812.081
812.398
826.497
827.762
818.222
823.955
823.983
823.188
826.027
829.849
827.611
830.947
825.237
840.123
831.796
839.684
833.369
840.210
834.223
838.954
839.992
845.105
849.786
841.462
841.076
856.337
851.014
850.353
854.757
849.607
856.618
853.363
859.477
864.619
868.504
862.563
869.592
865.257
871.732
871.319
868.731
873.858
867.119
878.785
881.811
872.197
881.344
876.155
886.422
876.178
870.738
873.581
882.066
868.707
871.902
881.715
868.213
876.718
864.869
871.361
876.932
876.477
868.012
874.460
862.789
857.427
870.577
867.584
859.759
855.528
868.160
863.066
852.984
866.472
859.658
849.350
851.834
853.559
860.938
856.060
858.652
843.945
846.050
852.859
851.973
854.948
848.950
850.018
839.283
850.399
849.262
845.501
837.551
838.727
842.656
843.737
837.003
837.059
845.203
840.659
835.987
840.692
841.647
829.502
840.036
834.575
829.932
830.934
823.150
823.126
819.737
822.295
829.191
820.312
827.622
830.756
820.848
823.921
822.162
815.424
812.487
822.451
823.796
810.704
820.043
819.819
813.694
808.996
811.901
807.414
803.959
809.526
814.513
811.024
813.107
801.307
808.819
809.872
806.642
804.420
799.310
799.982
791.836
799.989
800.560
794.501
801.572
803.361
788.601
790.094
789.345
788.393
787.800
796.785
793.209
787.899
789.827
783.290
787.047
788.581
780.674
781.058
788.588
778.021
787.067
772.969
780.460
770.858
776.991
771.461
777.997
782.941
767.619
770.246
776.766
765.456
776.643
770.900
762.974
762.240
769.797
772.153
763.468
758.678
767.569
764.326
766.636
759.958
755.852
755.558
754.161
759.003
753.851
762.421
762.708
747.952
748.762
748.159
758.913
757.924
750.586
747.413
744.844
754.670
750.253
748.773
740.128
746.994
750.181
749.984
740.960
749.062
741.709
732.872
735.122
730.298
744.161
731.495
732.668
730.999
732.102
727.994
725.200
734.381
733.096
733.606
726.977
726.012
731.349
725.607
729.722
731.042
730.995
724.998
717.255
718.642
712.105
721.359
719.088
717.282
719.059
722.735
716.697
709.735
705.410
708.769
718.830
716.839
59.481
75.554
81.063
58.194
60.163
75.253
69.217
73.238
71.589
60.213
75.594
64.897
59.099
61.990
79.168
63.554
66.160
57.251
67.463
68.340
68.168
74.378
70.441
59.070
59.866
67.691
