838.310
837.961
838.873
844.467
842.116
835.059
836.918
838.660
842.680
832.330
835.301
842.253
840.285
837.508
846.005
834.953
843.540
844.098
837.827
840.994
840.635
836.281
839.984
835.859
838.680
843.235
834.873
837.114
838.313
849.768
847.488
847.241
847.083
839.356
849.747
843.100
849.080
848.875
840.282
853.011
851.636
847.868
844.338
851.857
846.571
853.418
850.165
840.147
848.042
844.119
854.832
842.619
852.843
855.172
846.419
856.028
846.710
841.835
848.474
850.628
842.229
848.376
856.099
857.690
852.388
854.976
844.107
855.019
848.593
845.856
841.001
842.499
845.937
844.841
851.722
846.848
837.152
848.143
846.723
848.157
848.264
837.476
834.382
833.569
844.598
839.820
840.440
841.576
842.012
839.479
835.022
839.651
837.297
825.800
834.157
836.777
835.593
836.862
833.752
832.452
835.119
823.465
831.989
831.911
825.842
825.983
827.504
830.290
820.086
827.242
830.493
818.642
827.686
823.005
821.719
824.094
813.475
818.416
814.380
820.346
818.179
811.839
809.833
818.226
821.008
809.415
819.446
822.017
811.336
807.531
808.471
807.199
814.004
809.796
812.373
814.169
816.416
809.691
806.064
808.338
809.885
806.480
806.804
804.846
798.624
803.234
798.710
804.081
802.443
800.754
807.060
802.685
793.427
798.722
800.562
796.900
802.715
791.795
791.173
794.159
788.722
801.946
786.379
791.627
792.254
792.908
799.394
788.833
795.711
791.036
788.250
788.280
789.189
793.359
785.147
778.426
782.221
778.660
776.756
784.582
784.384
786.813
789.170
784.820
786.892
780.896
781.499
784.429
781.392
785.043
784.771
778.419
781.793
781.965
780.562
774.169
772.550
766.986
776.810
769.687
775.597
766.567
762.969
763.706
764.836
771.420
773.978
773.003
764.733
765.833
764.168
759.654
768.110
764.469
758.702
755.387
757.196
762.423
757.430
766.647
754.441
755.999
763.446
751.072
758.879
764.466
761.543
748.465
755.816
755.163
751.956
752.092
756.190
754.765
758.934
744.880
757.965
743.986
754.479
751.216
752.706
750.515
743.543
739.684
748.942
747.265
748.828
742.956
739.752
749.166
740.190
740.751
747.252
734.653
736.765
743.952
745.811
743.299
732.545
730.604
733.794
737.586
739.722
740.557
731.547
743.332
733.456
734.172
737.007
738.227
738.938
739.305
741.868
741.326
749.936
743.085
744.093
741.537
754.278
750.837
742.378
744.564
746.467
755.733
755.883
749.016
754.798
760.562
754.545
756.957
760.438
762.140
766.527
767.820
765.721
761.693
758.005
768.976
762.950
773.600
761.937
774.331
774.966
764.564
779.768
776.521
768.806
774.178
778.226
775.745
782.959
780.747
772.614
780.957
779.382
788.199
783.898
783.014
780.370
779.756
784.867
788.643
790.951
797.644
793.926
794.426
800.986
799.574
793.184
795.113
802.055
800.126
803.530
792.659
794.130
802.819
808.376
806.025
812.140
810.810
808.772
807.559
814.993
802.261
809.293
818.517
819.013
818.040
807.691
822.693
821.765
811.563
818.800
822.821
826.573
826.393
821.146
817.405
830.431
819.802
828.485
826.408
826.515
826.367
837.299
828.802
836.502
840.224
836.813
835.373
834.056
841.115
833.823
844.919
837.950
843.231
846.266
847.706
840.002
849.030
844.991
842.668
839.072
847.888
848.876
850.352
849.060
853.807
859.561
861.472
856.423
848.558
854.164
859.620
853.925
858.783
862.034
858.620
868.614
865.797
862.805
866.772
865.144
867.731
866.819
861.952
869.324
863.523
867.979
874.766
867.697
875.173
870.714
869.289
884.058
870.340
871.495
879.803
886.222
874.428
885.724
882.578
881.369
889.702
882.249
890.576
894.203
892.836
887.961
896.970
896.523
890.459
890.769
892.386
899.833
892.640
892.894
896.792
903.052
901.341
894.131
901.689
896.581
903.872
899.784
911.204
908.545
914.176
917.347
912.134
904.376
913.658
916.641
921.963
921.695
912.741
913.013
916.234
914.759
926.013
921.201
920.953
923.976
923.624
931.664
918.273
924.301
921.172
916.590
923.757
914.717
928.729
916.211
917.630
923.051
917.359
921.123
914.776
917.027
925.453
914.133
926.369
911.721
912.414
924.779
912.215
910.025
909.786
923.988
918.720
917.472
912.666
919.518
917.374
913.198
912.706
920.448
909.500
911.633
906.600
916.357
910.349
904.438
908.682
906.645
903.807
909.991
910.275
906.701
903.969
909.867
903.087
916.258
901.453
912.869
900.149
909.264
911.909
902.804
900.733
911.174
906.993
903.969
899.604
904.192
895.915
906.308
906.029
901.082
902.285
901.513
900.873
903.822
894.087
908.246
903.490
893.955
903.149
906.580
894.513
906.342
897.347
893.452
894.342
899.121
891.171
898.541
901.570
903.119
897.214
900.716
894.431
888.473
889.013
894.455
885.833
900.514
894.916
891.146
891.029
886.896
888.216
893.154
885.817
885.690
891.464
883.357
882.523
884.375
881.159
889.381
893.010
893.014
891.582
894.475
893.034
887.293
880.822
883.604
878.948
886.241
886.058
882.950
885.405
875.936
877.049
888.838
881.903
877.555
884.571
878.077
886.703
883.031
882.831
872.740
882.994
878.140
885.891
872.870
873.505
873.723
883.957
883.662
870.263
874.526
871.017
875.792
871.090
869.180
872.660
872.886
876.360
875.575
866.121
866.754
866.597
873.940
867.877
878.329
878.814
872.441
875.317
872.386
871.189
872.145
864.245
866.759
870.184
862.963
868.246
871.290
872.109
862.364
871.319
871.928
867.571
858.488
864.979
871.020
863.809
869.932
859.237
857.639
868.872
857.980
862.407
858.075
856.221
859.014
867.947
865.293
859.220
859.723
865.434
856.117
855.584
857.874
858.266
866.276
858.523
850.735
862.672
852.207
849.972
849.347
850.141
852.426
860.164
855.336
846.478
845.605
851.207
845.128
846.232
845.036
845.610
839.779
844.849
850.977
835.731
834.419
835.706
842.975
842.045
844.248
832.596
840.514
836.835
832.752
837.893
834.697
829.450
825.575
831.913
829.776
827.926
826.432
819.000
821.070
818.852
823.169
827.747
816.864
815.306
823.419
813.709
819.863
816.127
823.202
817.700
821.984
812.657
819.710
809.038
811.365
803.982
815.604
806.499
808.180
813.425
809.619
798.919
805.054
810.779
802.380
795.631
796.320
799.218
799.152
791.845
803.457
795.332
789.615
799.235
796.280
788.870
792.668
795.927
796.304
789.778
792.875
783.505
779.257
784.782
789.129
779.009
778.944
788.303
784.696
788.031
779.887
778.238
781.881
780.565
776.726
782.217
775.221
769.413
768.923
774.958
763.287
776.880
770.498
775.349
763.183
759.297
761.004
771.451
757.325
770.293
767.677
761.381
757.060
763.774
765.713
760.308
754.471
755.368
758.103
760.259
752.501
752.990
758.440
757.475
755.002
741.220
744.458
753.794
745.975
744.714
738.393
742.320
745.961
741.252
742.719
737.317
743.654
741.439
740.888
734.694
743.140
737.392
738.018
726.805
736.047
726.817
730.303
734.970
726.183
724.816
720.974
730.446
718.317
727.112
719.143
726.496
722.629
716.943
724.237
719.539
717.559
710.454
721.741
708.440
719.455
711.854
716.893
711.359
713.361
703.194
703.805
707.807
701.420
712.186
703.330
699.526
702.201
704.901
704.114
705.007
704.440
705.177
692.985
703.178
695.245
696.904
687.232
696.500
689.693
688.670
694.512
688.883
687.649
685.087
687.473
687.955
692.805
689.508
688.906
680.241
674.475
676.868
685.638
677.607
672.744
680.265
676.039
675.856
684.319
679.645
691.070
686.009
680.192
686.475
686.700
682.386
689.070
695.307
697.135
696.942
699.989
686.921
702.605
693.178
697.145
694.336
694.655
704.775
695.984
694.374
708.931
703.601
701.013
710.993
708.548
714.147
708.477
713.249
707.803
703.662
708.056
711.164
708.748
713.222
708.317
711.586
724.424
712.414
719.202
721.227
718.809
714.991
729.269
716.769
724.588
720.384
734.051
720.027
728.091
723.976
735.602
724.452
738.582
726.736
734.224
727.158
732.264
734.801
733.902
743.660
734.184
736.084
739.273
750.339
748.619
746.195
748.804
751.808
739.233
750.021
753.282
749.317
743.980
755.173
750.200
759.969
761.037
748.894
755.916
757.539
756.108
762.939
761.483
757.161
766.767
756.784
769.249
761.374
763.224
762.193
763.596
762.774
772.737
765.253
774.661
765.989
781.050
771.466
767.891
773.580
779.936
771.739
780.440
783.439
786.891
787.333
778.387
777.184
784.568
785.759
785.127
794.085
782.372
795.382
796.064
783.741
790.073
789.733
795.521
800.848
788.050
797.687
795.605
803.863
792.643
805.778
804.482
801.782
799.919
803.100
810.261
813.173
810.688
815.220
806.661
805.497
809.688
806.359
813.227
806.353
814.068
808.521
811.400
814.904
818.282
811.777
815.499
813.138
814.975
825.031
819.051
831.958
828.647
823.363
827.332
831.251
825.675
830.256
833.640
830.154
839.282
829.269
833.579
842.604
832.070
837.519
841.430
836.931
836.523
835.877
840.832
843.656
842.315
838.938
845.432
840.629
841.609
847.318
846.399
849.114
855.083
856.788
849.452
847.957
859.368
862.256
859.601
864.139
857.774
862.243
857.345
859.351
859.511
869.401
864.087
871.321
869.596
875.747
871.963
866.542
871.961
876.673
880.236
881.728
873.247
878.945
881.247
886.968
875.753
876.795
886.916
883.528
888.927
892.293
899.370
898.481
897.327
887.686
894.416
894.433
907.455
901.816
897.560
901.664
900.200
905.542
912.686
905.384
909.916
905.795
919.574
917.762
922.426
917.430
924.742
920.970
917.238
927.768
929.025
919.653
924.353
933.662
934.514
935.590
935.905
926.455
939.453
938.945
941.377
935.352
942.719
937.588
935.625
937.720
946.368
944.079
950.928
950.681
944.788
952.053
949.970
963.323
953.490
959.283
952.468
968.912
955.399
963.573
972.666
966.001
963.537
974.966
973.928
973.684
972.251
967.116
974.108
980.824
981.558
981.992
981.078
988.362
986.461
978.608
982.460
981.717
986.114
986.680
984.808
986.376
1001.054
992.937
1002.892
995.641
994.726
1008.844
1004.936
1003.801
1004.796
1008.262
1017.037
1010.391
1018.250
1005.781
1019.036
1016.458
1015.313
1016.126
1021.363
1028.172
1023.176
1027.137
1025.459
1027.330
1035.305
1026.532
1023.455
1030.792
1039.815
1042.647
1034.574
1043.667
1044.161
1046.948
1047.961
1043.181
1039.213
1050.472
1050.449
1041.995
1057.265
1052.171
1059.600
1048.072
1057.265
1053.528
1051.901
1058.662
1054.456
1061.388
1068.167
1072.524
1059.526
1071.774
1073.367
1065.407
1078.021
1074.781
1073.054
1082.266
1081.292
1076.978
1074.670
1076.681
1085.741
1090.404
1079.527
1084.158
1093.187
1089.264
1098.242
1088.414
1101.870
1098.944
1094.377
1097.760
1096.825
1107.506
1099.873
1098.039
1101.972
1106.905
1106.357
1110.291
1113.657
1112.847
1111.894
1115.819
1108.785
1123.533
1117.318
1120.638
1127.217
1123.987
1128.483
1118.664
1121.557
1128.267
1132.616
1136.093
1124.502
1131.385
1138.671
1141.980
1129.951
1130.790
1139.146
1139.824
1128.862
1129.907
1129.457
1123.617
1125.490
1127.682
1122.474
1129.478
1128.612
1118.618
1122.761
1115.268
1119.787
1119.238
1117.145
1120.165
1115.240
1114.889
1105.999
1106.944
1109.836
1103.782
1108.852
1116.157
1113.148
1100.647
1106.439
1103.740
1104.572
1098.319
1106.491
1097.003
1091.002
1101.980
1097.954
1089.899
1101.315
1097.217
1084.388
1088.760
1082.767
1092.971
1081.603
1091.379
1091.832
1079.948
1089.316
1076.246
1082.871
1079.853
1082.603
1073.516
1081.392
1082.042
1073.512
1069.810
1075.468
1079.487
1074.600
1073.194
1067.025
1059.456
1061.703
1062.972
1067.177
1056.370
1057.871
1065.257
1066.574
1055.527
1053.026
1050.593
1057.216
1060.985
1056.326
1053.152
1058.182
1056.875
1053.260
1044.653
1045.050
1049.132
1043.869
1039.704
1037.554
1042.966
1046.802
1036.236
1038.605
1029.790
1038.043
1037.921
1034.369
1029.004
1026.112
1023.025
1034.683
1021.931
1031.866
1028.926
1029.340
1026.542
1017.108
1014.562
1020.604
1025.748
1017.761
1013.975
1018.905
1015.511
1021.499
1019.308
1012.519
1013.626
1014.892
1010.152
1011.217
999.523
1011.162
1011.418
1003.948
1006.419
1003.767
1006.622
991.292
1004.980
991.576
996.480
997.098
1000.678
986.072
988.531
985.445
985.218
981.878
981.573
992.893
979.549
990.095
984.991
987.210
984.817
974.639
982.302
983.694
968.720
976.633
974.743
965.638
977.021
977.664
971.022
976.095
961.118
966.074
964.643
970.893
968.164
954.902
959.324
961.534
957.413
961.887
949.247
950.777
961.693
955.286
950.275
946.024
952.157
950.357
945.734
947.210
952.296
940.090
949.964
947.786
936.324
947.145
935.535
938.391
938.765
935.885
937.861
937.351
938.064
939.207
931.459
927.174
921.226
933.392
933.764
931.203
929.677
929.535
921.525
67.826
61.809
73.514
75.783
77.644
74.662
78.074
73.763
61.985
70.699
80.158
67.447
73.266
56.470
57.756
72.017
70.376
80.400
64.605
75.159
57.558
80.103
80.713
66.031
72.063
76.875
58.240
58.913
66.022
73.066
80.898
67.778
58.551
79.042
72.227
67.276
56.401
72.099
60.273
70.175
67.458
67.068
65.441
65.271
80.248
65.887
76.179
241.844
191.451
223.370
205.365
270.165
218.196
245.413
253.031
193.546
214.030
221.121
274.016
212.343
247.935
255.588
188.656
229.375
188.929
269.978
254.964
245.744
208.851
261.068
237.273
273.131
263.101
188.831
205.222
226.579
203.137
217.267
252.212
186.095
234.532
222.185
193.302
245.169
230.836
231.884
194.151
182.814
231.244
230.880
246.175
221.267
214.702
267.845
248.427
240.801
194.557
269.298
194.940
258.953
146.407
147.949
112.652
111.758
150.053
123.344
103.817
121.872
119.948
122.001
144.392
137.565
143.119
130.053
140.701
120.234
115.357
148.328
145.395
123.725
151.245
147.815
151.591
147.814
117.706
150.811
133.537
144.300
142.284
144.918
139.318
138.873
115.990
112.529
134.202
134.190
110.884
130.715
137.354
104.582
132.356
150.661
150.489
123.748
133.647
115.460
125.284
102.242
143.814
123.171
107.852
125.180
112.712
140.700
148.122
145.944
103.714
131.409
104.899
111.375
140.161
128.238
104.737
107.738
105.759
120.558
132.141
145.952
112.909
122.203
146.123
131.358
147.636
129.919
141.130
118.437
148.764
130.705
127.374
141.302
131.258
132.002
128.104
142.066
132.478
111.028
129.275
135.229
126.127
127.535
111.183
148.042
109.849
152.541
142.253
106.163
137.625
103.827
131.590
133.916
109.779
120.397
146.929
116.405
136.017
127.114
112.031
145.294
128.838
134.490
116.547
108.479
128.936
106.154
146.849
131.743
138.912
124.399
114.253
129.451
120.726
108.439
134.915
103.313
120.381
108.863
144.225
120.345
115.695
132.546
137.169
104.811
103.608
145.567
125.177
137.400
147.887
142.329
105.038
111.485
114.445
105.791
118.471
141.614
124.347
131.959
120.938
110.499
127.289
150.613
120.665
126.193
116.664
109.057
111.656
113.043
101.167
131.688
126.360
122.878
130.082
128.751
136.812
101.597
119.642
130.933
119.345
110.723
130.567
130.354
115.314
106.721
103.502
142.547
120.022
134.864
123.818
137.475
151.272
119.406
140.573
105.032
140.407
141.222
126.809
140.618
115.280
134.903
110.771
151.982
143.996
142.118
144.913
128.067
122.058
122.900
108.089
108.676
118.121
130.107
132.515
114.073
118.779
146.676
142.732
136.717
113.265
141.622
147.349
124.474
136.637
109.433
147.973
117.931
135.684
118.131
113.052
124.034
136.592
131.401
135.580
143.048
142.854
148.084
142.663
101.292
129.474
126.060
115.844
119.418
144.780
102.737
122.437
110.693
133.759
150.889
118.429
135.812
127.370
116.581
107.166
125.048
125.746
111.501
115.325
141.441
102.793
102.259
139.032
101.193
124.127
146.278
150.725
138.860
119.470
120.273
135.536
103.717
107.807
132.474
124.738
111.872
141.405
122.715
139.026
111.931
105.642
125.597
101.765
116.124
143.381
108.082
143.306
113.573
105.201
118.040
122.817
112.352
112.894
135.701
131.609
146.396
120.288
101.851
109.042
112.834
115.721
109.202
119.397
145.718
149.702
106.091
116.539
107.273
107.656
140.632
146.698
120.742
130.737
150.808
104.274
137.678
118.382
103.153
123.427
112.545
147.215
117.391
103.887
105.052
105.670
140.843
122.149
109.599
122.576
148.164
139.030
132.641
119.801
105.096
136.387
138.450
146.358
103.503
111.183
125.309
121.702
141.033
125.028
129.078
131.452
103.693
113.489
121.919
102.328
117.070
144.698
104.796
135.819
129.514
102.565
136.930
143.483
116.783
127.410
145.137
138.209
108.198
129.598
125.507
137.768
149.040
135.297
106.811
104.052
122.659
130.752
142.559
116.945
120.759
126.345
113.715
143.351
137.394
103.844
133.706
151.587
130.528
124.599
152.891
123.525
119.201
151.814
131.852
124.559
139.002
113.533
118.440
115.895
152.845
116.754
132.332
138.518
150.493
145.016
136.989
105.027
112.804
141.779
151.693
135.220
132.956
126.759
131.701
143.063
120.074
126.276
148.180
145.145
140.949
104.198
118.222
145.363
132.714
101.662
107.257
146.836
103.605
108.267
108.513
143.432
118.251
149.912
151.342
121.979
146.297
147.730
150.252
102.894
103.888
109.560
149.506
143.989
101.639
118.197
138.744
110.840
125.162
102.389
114.759
140.904
115.983
138.562
127.798
118.490
132.877
