869.174
869.025
883.207
872.262
876.457
878.372
890.465
884.666
895.371
890.869
889.266
899.192
901.388
909.261
899.726
909.102
903.541
911.785
908.144
921.739
919.174
923.375
926.013
924.939
923.828
932.618
932.988
930.584
930.336
936.353
946.574
949.639
946.639
952.398
956.697
945.241
957.061
964.993
959.585
963.316
964.584
971.020
975.553
978.869
966.424
980.243
976.848
986.863
981.004
989.734
981.574
996.385
989.342
998.231
992.829
1003.891
1000.058
1004.640
1002.191
1011.208
1007.146
1014.155
1021.708
1018.536
1019.764
1024.264
1020.947
1034.197
1036.507
1033.592
1027.357
1035.688
1038.520
1040.270
1050.134
1041.997
1049.145
1058.200
1046.633
1061.878
1057.533
1056.945
1054.891
1064.442
1068.393
1064.795
1079.301
1077.022
1070.070
1075.629
1089.135
1090.289
1081.955
1090.910
1085.654
1101.043
1088.781
1104.191
1097.059
1102.531
1109.253
1105.196
1105.224
1115.035
1111.231
1111.886
1124.112
1121.322
1119.858
1125.119
1133.615
1130.772
1128.330
1136.894
1144.978
1137.225
1145.671
1136.195
1131.565
1143.559
1131.110
1138.004
1132.911
1130.807
1135.826
1136.019
1138.803
1136.352
1131.281
1139.939
1132.982
1139.344
1127.697
1126.814
1140.169
1138.180
1134.036
1128.668
1133.634
1133.650
1132.103
1130.415
1123.254
1134.105
1136.105
1132.187
1137.154
1123.297
1130.353
1128.481
1125.103
1123.301
1135.293
1134.958
1127.782
1131.205
1122.469
1125.565
1132.977
1123.587
1131.447
1129.718
1117.608
1129.879
1116.475
1127.522
1123.718
1127.249
1123.649
1118.032
1113.880
1114.922
1118.441
1116.224
1114.228
1115.568
1126.588
1119.604
1119.232
1111.791
1111.664
1111.566
1122.913
1123.404
1114.195
1123.343
1117.581
1119.148
1122.289
1119.332
1115.382
1117.768
1111.017
1109.170
1116.825
1120.814
1108.141
1110.546
1112.914
1115.982
1104.184
1117.725
1116.202
1114.756
1114.110
1113.566
1110.606
1111.610
1102.336
1111.942
1103.156
1107.612
1114.481
1107.821
1100.694
1111.758
1112.521
1106.039
1106.625
1099.153
1107.261
1107.486
1106.786
1104.704
1097.901
1096.432
1106.472
1108.512
1108.698
1102.728
1098.697
1097.954
1093.102
1094.528
1097.642
1096.463
1101.398
1094.937
1092.317
1099.204
1102.799
1096.648
1095.620
1097.910
1094.341
1104.121
1093.630
1092.079
1094.410
1087.539
1094.480
1098.724
1093.649
1092.105
1085.967
1093.203
1097.898
1094.021
1087.031
1098.275
1091.902
1098.169
1086.396
1088.803
1083.553
1092.090
1095.649
1085.081
1096.888
1086.348
1087.568
1094.762
1084.544
1092.495
1094.721
1087.778
1090.696
1084.110
1081.876
1081.896
1087.726
1087.436
1078.702
1091.002
1087.445
1087.034
1075.254
1078.183
1076.965
1077.301
1083.546
1079.193
1078.956
1086.101
1086.695
1082.883
1079.773
1075.212
1086.602
1073.228
1073.864
1078.542
1077.882
1070.516
1079.333
1083.259
1073.428
1070.420
1071.072
1081.914
1071.142
1071.724
1068.012
1066.743
1077.603
1067.379
1077.438
1067.028
1062.843
1057.600
1069.501
1064.106
1053.203
1048.984
1045.391
1044.444
1042.886
1038.389
1049.042
1039.241
1036.617
1030.097
1036.334
1024.388
1037.653
1022.594
1029.325
1021.460
1020.894
1021.452
1020.129
1018.797
1017.713
1016.876
1012.480
1009.965
997.977
1001.496
1002.250
993.367
988.690
993.024
988.033
978.174
980.501
980.351
977.316
972.545
967.944
975.384
975.373
969.325
967.861
959.401
963.014
964.109
948.767
951.518
946.158
942.645
949.164
941.830
938.479
932.675
930.196
932.462
925.519
933.004
926.926
925.434
926.227
928.183
919.674
923.002
908.672
913.446
908.842
903.742
905.594
910.704
904.631
893.338
893.216
890.318
896.475
892.806
889.553
882.220
884.863
887.684
876.740
881.300
866.648
873.713
863.362
861.795
871.628
859.270
865.349
854.893
847.373
856.968
855.069
843.385
850.712
841.708
838.199
843.059
831.454
830.554
829.080
833.506
821.622
831.571
823.621
824.758
815.710
811.697
811.418
805.057
813.956
800.860
812.224
805.814
793.382
800.160
795.766
797.264
789.529
786.797
786.638
778.307
784.722
772.090
782.783
777.053
770.240
769.889
773.844
763.992
755.728
767.557
765.282
757.923
761.345
746.654
751.611
739.446
745.721
744.785
736.365
734.435
743.113
733.659
725.027
731.553
727.086
724.114
716.445
718.379
715.441
721.571
719.578
717.880
708.109
712.758
709.387
705.707
697.820
703.358
698.144
693.247
691.207
680.977
691.249
688.983
672.710
680.070
681.153
671.004
672.041
670.109
674.569
657.679
659.778
659.105
651.568
652.340
649.160
657.447
654.028
641.392
645.949
648.317
632.163
642.826
638.248
636.080
633.719
633.932
627.313
615.321
616.405
618.400
615.262
615.912
621.659
613.739
609.499
623.215
616.361
626.502
623.177
615.878
619.006
619.281
632.305
625.679
625.399
629.187
626.823
626.545
629.583
631.538
641.519
633.314
640.209
641.338
631.757
636.012
635.775
634.887
638.965
641.999
636.958
649.924
648.416
642.136
643.088
654.407
642.567
643.584
648.132
653.442
656.625
653.996
661.967
663.154
658.273
659.180
653.195
656.468
662.242
658.602
669.432
664.835
674.650
667.274
665.438
673.131
671.832
672.520
677.737
668.916
680.069
683.524
672.290
672.323
686.471
680.041
688.279
675.128
681.406
690.837
684.797
682.540
683.925
692.491
697.969
698.298
692.850
686.394
696.677
689.359
692.859
694.615
692.300
701.527
706.832
706.750
707.185
708.421
705.123
709.666
711.415
703.368
707.650
713.140
718.318
717.277
706.119
717.363
718.683
719.990
710.288
710.829
726.741
725.798
723.720
715.470
726.242
717.719
727.051
727.048
733.012
733.076
732.646
729.214
731.971
728.095
730.385
742.864
731.538
738.193
735.230
745.896
736.893
742.941
742.356
750.390
742.037
743.673
750.627
743.484
741.405
755.003
758.094
751.933
747.155
759.469
756.664
761.275
751.274
751.831
766.246
764.168
767.858
759.411
767.854
756.958
768.925
762.211
775.635
765.640
774.223
771.887
768.005
779.411
771.558
780.892
781.742
775.386
784.975
779.855
784.911
778.076
775.283
778.415
783.329
780.247
794.021
786.658
788.417
783.816
798.549
794.949
790.249
800.114
798.445
794.138
792.835
794.955
797.570
796.346
795.339
806.328
795.473
799.218
801.493
811.981
803.199
808.413
814.807
814.346
812.124
807.778
818.749
813.520
820.278
810.460
819.512
818.693
813.693
823.338
818.201
820.348
825.478
829.258
817.405
823.459
822.355
821.383
828.826
835.321
832.016
823.613
825.081
838.246
829.227
830.590
835.308
826.730
839.019
830.627
833.628
839.804
841.848
836.466
837.559
835.341
839.409
842.770
833.084
843.853
834.701
842.875
846.417
849.795
836.614
840.947
842.510
844.633
850.293
839.783
841.990
844.492
841.470
844.154
851.253
849.275
856.532
858.592
854.166
849.949
849.503
856.514
856.925
854.981
857.477
858.135
865.210
857.212
853.191
865.340
866.976
865.399
866.431
861.172
861.735
866.637
857.743
862.847
866.118
865.338
862.861
872.007
865.645
872.228
868.917
865.323
868.978
878.801
878.800
877.120
867.237
873.931
874.634
876.190
883.253
882.441
882.559
883.227
871.149
876.401
871.686
884.942
885.627
883.521
887.049
884.143
880.105
877.906
891.367
883.414
880.713
884.792
882.879
893.511
891.115
887.210
888.796
895.430
897.723
892.482
892.623
887.101
896.316
895.119
896.514
897.377
889.634
899.789
891.503
901.171
893.652
894.382
894.364
900.593
901.296
906.383
894.994
901.372
909.487
897.693
897.653
913.583
906.769
908.910
907.512
907.839
907.952
911.192
913.096
914.959
906.158
907.826
910.101
916.856
911.878
910.604
916.651
920.632
911.141
913.765
914.766
920.624
922.436
914.719
914.748
925.764
920.387
920.460
918.050
927.055
922.439
924.479
929.738
926.972
926.430
932.322
926.916
927.453
928.783
931.920
933.780
938.964
931.556
932.623
932.464
929.496
936.037
934.164
929.539
939.068
935.857
944.276
940.450
933.685
932.232
940.145
936.611
934.801
936.831
946.785
935.218
938.582
944.980
951.658
952.606
939.020
940.187
939.649
945.617
950.285
942.612
953.159
949.269
951.019
953.423
942.126
945.679
947.137
942.571
952.485
947.753
936.213
935.490
939.071
944.655
945.209
936.801
932.287
939.979
939.708
930.635
932.947
928.261
936.567
932.242
927.773
938.174
938.348
935.823
926.272
924.929
927.848
932.034
924.320
924.170
925.349
922.484
929.496
930.906
918.509
924.853
927.207
921.291
923.980
919.165
921.250
919.098
925.512
911.082
915.887
922.737
909.480
914.749
909.727
919.230
913.533
919.373
905.540
916.203
908.237
908.361
908.413
902.188
899.168
908.790
899.028
899.532
903.259
910.532
905.678
898.304
906.300
894.558
892.693
897.279
897.839
894.572
893.551
904.324
903.246
892.378
892.927
896.186
892.126
893.711
893.841
891.589
894.575
883.729
883.101
883.109
882.392
887.026
878.747
891.101
876.923
880.640
880.250
883.497
877.080
879.649
876.565
874.231
875.743
878.527
878.925
871.755
882.115
868.011
871.157
873.292
876.705
877.303
865.200
866.945
873.373
864.265
866.681
872.688
874.986
870.243
873.276
867.932
862.374
856.950
867.921
870.661
861.880
855.216
864.973
858.649
867.570
862.002
856.825
859.966
864.003
853.234
860.118
859.046
854.143
859.804
854.277
844.831
844.509
853.838
849.054
844.200
840.860
853.930
849.105
840.652
840.709
842.792
846.612
844.451
845.824
840.633
835.766
845.076
836.368
841.299
833.929
843.315
837.517
838.934
843.890
842.997
836.742
828.046
830.868
835.397
839.923
827.696
831.421
827.591
824.119
831.302
834.262
831.943
820.961
829.496
826.795
828.826
824.842
821.185
818.506
820.393
828.963
815.372
821.326
816.439
817.089
822.474
818.014
823.499
812.435
820.845
821.046
810.134
811.081
819.124
810.322
810.109
815.667
809.664
821.107
817.376
819.758
815.463
825.471
828.057
834.633
832.878
826.906
827.756
825.405
828.130
834.004
843.067
843.614
833.303
839.627
841.989
849.253
843.190
856.348
856.121
848.459
850.926
856.708
853.487
854.793
863.966
865.001
870.089
863.562
858.922
873.948
863.861
872.244
879.052
868.322
878.706
873.134
875.748
879.039
885.687
884.816
876.425
891.938
883.740
885.648
892.755
894.787
889.335
894.382
895.349
898.913
902.849
894.603
899.018
899.635
900.407
899.897
916.942
915.897
905.270
913.239
921.856
918.123
925.426
916.424
916.228
917.421
927.596
927.061
923.275
934.077
928.984
937.920
938.641
935.835
938.835
934.543
938.247
946.914
941.723
945.961
948.926
947.603
944.482
953.402
948.566
959.743
957.729
963.377
958.384
962.453
954.207
956.251
961.569
968.882
971.931
966.703
977.368
979.497
978.314
972.284
972.261
982.933
984.806
980.569
981.631
982.592
983.701
996.286
992.219
992.272
994.934
990.228
991.248
996.280
1004.465
998.734
1009.513
1000.031
1002.563
999.812
1012.005
1018.023
1018.398
1017.412
1017.445
1023.619
1024.861
1019.690
1018.107
1022.270
1028.949
1027.312
1033.806
1026.726
1025.295
1034.106
1035.164
1039.249
1038.759
1043.982
1043.394
1040.188
1048.453
1049.242
1040.312
1049.517
1046.364
1058.661
1051.389
1050.982
1056.165
1058.775
1065.108
1067.619
1064.893
1058.943
1059.298
1063.024
1067.531
1067.322
1068.015
1066.054
1073.894
1073.748
1070.658
1076.074
1074.874
1082.348
1088.030
1078.557
1085.507
1080.808
1095.259
1088.267
1089.897
1092.990
1095.433
1091.604
1093.561
1098.447
1108.365
1104.842
1106.667
1112.243
1115.771
1113.654
1112.291
1113.203
1117.959
1112.993
1116.419
1115.814
1115.551
1129.516
1118.681
1127.661
1122.149
1113.846
1111.654
1125.746
1120.914
1120.132
1111.584
1122.173
1109.385
1109.470
1118.783
1110.314
1119.770
1111.671
1119.253
1113.557
1116.251
1112.581
1108.645
1104.020
1115.423
1114.926
1109.405
1100.033
1099.483
1101.071
1100.094
1099.865
1104.267
1105.804
1102.130
1100.811
1095.620
1093.733
1094.268
1097.318
1101.580
1092.093
1095.567
1089.625
1097.352
1095.496
1102.422
1090.086
1090.232
1090.045
1092.840
1087.887
1095.933
1084.152
1082.719
1082.560
1097.274
1086.922
1084.743
1084.106
1093.241
1081.888
1092.645
1077.603
1081.502
1088.488
1075.900
1075.935
1080.263
1089.138
1088.565
1088.346
1072.500
1087.218
1078.618
1083.887
1083.991
1074.791
1076.452
1078.003
1069.177
1078.359
1078.449
1069.202
1075.618
1064.672
1076.205
1066.790
1069.636
1077.209
1073.704
1068.864
1065.594
1062.819
1069.397
1063.138
1069.373
1067.276
1058.509
1062.394
1069.701
1058.964
1068.790
1063.678
1054.310
1057.654
1063.692
1061.360
1063.804
1058.180
1059.540
1059.081
1056.181
1061.303
1061.526
1051.117
1056.548
1055.435
1053.467
1045.438
1055.753
1057.542
1045.330
1045.072
1052.604
1053.779
1048.396
1047.643
1043.097
1038.032
1039.312
1044.002
1036.757
1041.490
1042.741
1050.110
1037.013
1033.893
1033.448
1043.503
1043.195
1036.580
1030.482
1044.924
1038.321
1043.829
1033.688
1027.373
1029.271
1037.369
1029.574
1031.196
1027.923
1025.987
1033.634
1023.103
1034.800
1032.520
1033.390
1021.314
1032.153
1026.390
1033.981
1025.831
1018.936
1018.171
1016.600
1027.286
1024.182
1022.618
1014.231
1023.334
1012.232
1024.699
1022.678
1016.549
1016.519
1021.783
1014.516
1010.494
1015.683
1009.693
1007.968
1011.042
1007.215
1004.707
1012.934
1016.983
1012.371
1011.875
1015.720
1008.873
1008.121
1007.376
1000.008
1003.815
1001.850
1007.468
1001.632
1004.753
998.243
1010.161
1000.044
992.884
998.462
993.772
999.743
988.192
997.189
990.392
988.680
983.713
990.420
989.831
989.714
983.867
983.807
980.171
989.806
978.419
976.853
977.734
979.316
977.216
970.663
979.295
967.614
972.224
969.028
977.480
976.687
963.988
961.122
967.377
959.921
960.444
971.437
957.437
957.164
966.579
959.490
950.700
950.090
954.935
953.131
950.491
947.903
951.199
956.359
949.108
955.624
940.162
944.924
951.512
942.674
939.403
941.170
944.878
939.395
940.929
929.302
931.027
932.279
932.013
931.942
933.147
937.297
930.558
932.157
934.369
924.965
924.116
927.970
923.415
928.164
917.660
917.103
915.715
917.632
912.254
909.174
917.718
907.886
904.392
910.031
903.549
901.094
905.062
901.921
903.430
909.986
907.509
898.433
895.924
895.980
901.583
893.851
901.860
891.610
889.639
889.266
889.236
881.976
894.533
888.229
886.373
882.204
886.789
888.054
889.017
880.304
883.128
881.901
873.222
882.350
868.726
875.911
878.283
870.373
874.047
870.992
866.339
874.784
867.447
859.288
863.799
862.893
860.592
862.691
862.186
860.435
850.625
858.341
846.734
856.738
854.893
846.887
842.218
841.522
853.681
847.814
846.417
845.851
845.945
848.071
844.857
838.379
840.723
830.307
837.190
836.041
829.181
829.716
834.857
832.517
836.196
822.155
833.738
825.633
821.099
821.482
827.619
816.669
823.966
823.937
819.768
820.171
810.778
810.534
807.168
809.505
810.768
803.158
805.113
811.867
804.344
801.413
800.742
799.128
810.617
804.140
808.528
795.375
793.478
803.064
792.365
789.834
791.596
798.625
795.196
783.716
792.174
782.439
779.373
782.866
792.778
779.604
787.857
774.359
775.058
776.207
198.541
161.663
188.663
209.066
227.382
167.198
181.957
226.359
228.480
166.660
165.958
202.572
226.236
205.418
236.291
223.831
230.829
183.666
241.013
176.894
232.307
164.952
163.611
168.735
204.945
195.487
197.262
219.605
197.894
223.747
209.394
197.863
233.708
220.468
167.664
225.464
161.607
209.741
199.312
190.999
188.565
195.415
164.145
169.282
214.669
161.126
213.257
200.412
203.313
169.079
164.130
175.205
236.347
242.094
181.524
233.098
200.755
200.726
216.893
171.740
223.092
182.762
162.044
172.481
231.480
221.168
197.745
212.434
177.683
233.390
164.776
182.173
242.558
170.570
166.484
240.699
193.176
163.366
200.288
186.552
236.875
213.304
181.708
190.615
214.884
178.704
234.431
225.048
167.711
213.415
202.877
233.893
189.205
170.431
192.247
237.182
183.755
198.922
213.902
171.890
128.237
117.348
130.594
89.540
120.686
89.835
116.545
93.316
92.016
94.387
122.641
108.335
127.279
95.608
131.162
112.211
100.026
133.003
92.455
133.801
106.537
117.778
130.329
124.719
110.103
129.851
103.320
97.967
133.630
127.499
124.096
104.547
91.180
119.835
92.511
91.971
133.325
131.971
105.614
111.727
119.495
114.746
92.874
104.761
119.939
121.602
112.671
118.664
89.642
104.548
114.016
117.109
105.889
129.094
100.424
125.811
99.519
117.295
98.601
107.428
100.529
99.389
97.266
104.666
127.437
91.456
90.700
131.648
122.985
128.360
131.241
103.259
107.712
94.105
125.733
125.968
111.536
118.196
124.481
128.875
120.930
107.070
95.886
113.019
92.409
94.961
123.064
127.654
100.490
92.557
103.145
108.406
93.666
115.738
131.175
89.877
101.397
124.062
131.452
91.669
103.584
133.840
105.467
91.487
123.342
104.496
126.676
113.941
118.718
110.603
95.691
125.211
122.014
114.311
92.342
114.307
131.112
91.608
115.971
93.357
106.158
122.413
126.717
134.140
114.493
120.685
96.253
118.438
119.966
134.827
105.817
106.277
115.194
110.342
98.360
109.188
122.713
125.821
93.504
120.014
103.911
127.476
135.049
106.548
106.964
125.624
123.693
92.896
116.570
104.542
113.259
90.064
115.829
122.096
92.204
133.403
107.494
100.622
131.762
122.885
122.001
132.063
101.912
120.810
93.589
122.889
126.302
128.348
128.639
123.054
121.023
126.412
111.179
109.309
107.450
116.475
115.416
113.744
105.060
107.164
126.877
125.827
130.762
132.542
89.682
