363.376
360.022
368.531
375.803
374.744
377.054
372.956
385.234
381.816
383.405
383.192
386.055
391.527
382.982
398.877
396.653
396.799
395.766
402.095
397.128
405.527
405.608
412.641
402.786
413.463
407.728
411.497
424.151
414.856
421.450
418.394
424.504
420.258
425.004
425.755
432.230
441.088
444.811
446.325
442.857
446.535
444.294
450.407
450.073
454.592
445.772
459.698
461.118
463.524
463.739
461.304
460.553
459.528
468.984
472.595
470.372
478.969
469.903
481.482
487.621
483.640
487.144
491.294
493.023
489.830
484.240
491.951
490.505
496.900
503.562
502.644
503.068
503.521
500.720
512.348
509.392
516.543
513.295
525.225
522.249
515.035
530.552
517.730
523.498
529.178
534.902
531.416
542.573
534.754
535.206
544.287
550.451
546.458
555.065
550.469
556.610
557.658
549.564
550.996
553.478
555.729
561.663
569.780
568.296
564.928
568.678
579.035
574.601
578.293
571.887
574.310
590.007
587.239
585.931
595.658
594.179
590.975
594.596
586.969
598.627
598.522
589.815
596.976
596.812
595.057
595.364
596.086
602.568
605.557
602.311
596.550
598.113
613.300
601.653
607.753
608.911
610.744
613.215
607.944
618.216
618.819
612.756
619.575
618.821
621.741
613.732
622.347
628.612
618.285
621.639
618.158
628.752
619.761
634.952
635.292
628.271
635.478
631.888
633.464
636.848
634.213
630.689
632.731
632.247
645.731
645.768
645.123
633.620
641.215
638.993
640.940
639.425
651.073
647.651
648.128
643.127
652.174
654.483
644.597
651.976
650.933
652.326
648.373
661.317
652.457
655.745
666.619
659.135
654.472
661.131
662.100
662.841
659.434
663.798
659.798
662.037
667.802
669.630
665.185
675.712
680.737
681.950
668.486
671.301
669.650
678.086
671.896
681.227
678.635
689.099
688.553
679.935
692.019
690.816
691.498
681.418
682.922
695.663
692.926
688.286
695.947
693.351
700.155
697.741
702.052
695.909
700.017
693.826
701.769
704.692
706.861
710.159
706.634
704.374
714.759
705.587
716.063
707.244
711.623
715.695
715.490
709.028
715.822
714.999
716.490
715.806
722.283
719.833
716.920
716.940
728.786
721.864
727.024
722.670
724.726
723.760
733.419
732.805
731.740
732.565
736.390
728.588
727.438
735.113
743.110
735.624
742.297
744.449
740.916
749.247
740.191
745.009
749.316
752.976
752.666
742.600
752.426
745.694
753.107
747.159
750.870
760.692
759.823
763.107
749.252
761.341
763.658
762.098
766.112
760.831
762.079
758.044
761.841
762.416
764.461
759.720
765.573
769.801
766.479
770.699
775.510
766.348
770.302
778.461
772.352
776.006
785.461
782.828
782.728
784.793
781.403
789.288
787.045
791.754
789.807
784.988
785.584
788.072
780.818
777.926
778.677
791.014
787.045
785.330
786.522
783.433
788.096
785.860
788.396
790.597
787.017
788.358
775.810
777.765
774.953
784.388
784.564
779.117
781.842
777.906
779.268
785.004
785.882
776.484
774.261
779.435
782.515
772.881
784.393
785.079
786.941
786.407
777.004
771.905
780.977
785.604
774.090
774.255
772.538
784.582
781.396
771.398
774.717
781.334
773.016
772.744
783.641
769.839
781.281
770.770
770.747
773.274
770.767
775.756
773.624
777.413
781.981
783.040
780.711
767.728
780.213
774.631
780.387
769.884
766.789
768.692
771.163
776.414
769.689
765.785
767.689
779.240
778.579
771.460
771.501
767.579
771.803
769.780
764.275
770.357
777.548
778.275
773.242
769.052
774.623
776.098
768.640
765.759
776.571
766.099
775.128
772.408
767.095
777.208
771.886
761.769
762.258
773.749
763.394
766.281
762.830
766.084
768.087
766.868
775.185
769.970
762.050
763.577
772.539
762.266
762.095
759.998
759.782
771.376
773.007
760.823
765.882
766.254
759.341
771.139
771.199
772.124
761.493
763.232
767.300
763.779
766.089
759.328
757.113
768.934
770.314
758.926
756.814
761.651
769.457
755.581
761.443
757.019
765.190
759.391
757.614
756.388
765.050
764.221
767.881
762.446
766.539
765.074
766.871
760.856
767.617
761.109
763.099
762.066
755.422
758.811
764.002
766.799
751.774
751.280
753.620
754.105
765.726
760.463
762.375
762.161
762.621
758.473
752.409
760.543
758.305
749.298
754.729
760.792
755.960
749.926
750.515
750.527
748.873
752.772
758.419
749.449
751.653
754.377
751.575
753.480
747.189
751.859
757.639
757.751
759.762
760.884
745.385
753.102
760.206
757.261
759.004
752.732
763.645
757.882
761.497
759.673
767.015
761.207
764.020
766.280
770.474
779.459
775.217
783.097
778.075
777.332
792.012
793.073
796.376
795.522
793.636
789.445
794.922
797.875
807.372
808.655
797.281
799.624
802.274
814.313
813.577
810.319
807.266
809.350
816.103
812.688
828.277
816.813
828.190
825.111
828.944
826.474
838.910
828.373
829.052
844.264
835.110
841.073
846.677
852.068
845.850
848.027
855.488
852.572
856.082
862.209
859.917
866.603
867.414
863.929
869.017
869.731
875.326
861.842
867.497
871.537
882.555
872.630
884.038
873.595
879.082
888.455
887.720
892.108
892.804
889.183
897.468
888.978
902.396
897.113
893.288
908.310
903.091
904.746
906.055
904.066
907.036
917.323
916.604
912.667
912.849
912.943
923.263
918.701
923.724
929.045
922.918
935.214
925.808
940.925
941.163
936.256
943.391
947.806
948.292
949.013
954.330
953.440
953.589
956.758
950.916
961.656
956.912
963.766
953.973
957.197
967.154
971.386
968.920
967.970
976.143
976.347
979.047
983.198
971.782
986.666
988.814
991.787
979.531
990.103
992.432
987.443
987.387
997.602
989.530
1002.978
1001.998
1000.937
1006.267
1013.956
1007.348
1003.663
1013.566
1005.707
1017.387
1017.312
1018.749
1014.389
1019.697
1024.397
1025.802
1031.827
1030.820
1038.954
1028.176
1035.868
1039.392
1032.751
1044.829
1038.243
1049.123
1048.280
1049.637
1042.317
1055.207
1059.118
1059.266
1058.444
1065.558
1055.304
1059.841
1062.212
1058.270
1068.559
1066.104
1067.309
1075.015
1077.039
1079.369
1083.414
1072.483
1084.442
1081.463
1082.640
1084.848
1095.281
1090.768
1099.447
1091.265
1098.742
1092.132
1091.948
1105.953
1106.647
1110.052
1099.644
1114.880
1104.009
1104.897
1104.175
1110.594
1103.430
1112.838
1102.132
1103.457
1093.291
1098.876
1098.436
1093.537
1086.142
1089.560
1095.102
1092.675
1086.165
1080.936
1080.191
1081.620
1082.341
1070.581
1067.642
1069.982
1069.586
1060.168
1059.808
1069.514
1054.695
1055.298
1052.456
1059.907
1051.931
1047.747
1049.498
1045.572
1045.021
1040.087
1037.166
1036.644
1040.601
1045.028
1032.173
1028.328
1024.934
1035.283
1034.621
1020.139
1028.911
1019.985
1023.623
1014.192
1017.229
1011.109
1016.176
1010.076
1017.158
1003.682
1003.708
1000.909
997.517
1000.923
999.865
999.072
1002.437
986.024
988.181
993.333
980.946
993.904
988.123
986.654
981.640
972.643
975.558
972.292
978.470
973.542
970.517
975.182
960.149
966.409
962.144
962.498
950.445
961.351
950.956
949.682
948.400
944.235
948.530
951.339
935.962
940.262
941.439
930.715
934.680
935.741
930.409
926.109
922.029
920.548
927.446
925.733
923.156
924.016
919.268
916.355
918.502
916.386
917.682
902.822
913.990
899.403
906.216
893.254
897.190
890.225
887.361
891.784
894.011
889.463
885.800
882.630
881.712
888.597
874.804
879.897
876.584
869.234
872.193
868.503
866.399
864.792
857.817
867.650
862.240
855.667
859.616
859.657
851.704
852.232
846.526
849.890
854.711
850.517
845.831
848.001
842.068
831.724
831.855
835.895
825.529
830.655
836.148
828.401
822.147
822.674
814.608
819.206
813.083
812.328
811.274
818.423
806.794
802.055
801.153
798.757
794.883
799.465
792.562
798.471
789.362
798.858
784.431
796.935
783.831
785.606
784.268
778.935
777.211
772.579
777.172
780.092
771.438
767.438
774.073
774.337
761.898
769.811
763.573
756.233
759.582
753.140
757.195
754.490
748.021
744.781
747.827
747.680
735.277
743.489
743.151
750.342
744.044
741.683
741.930
753.060
755.417
745.016
743.694
750.835
744.278
755.581
751.108
747.543
750.066
752.890
751.212
754.838
759.953
759.297
761.455
763.349
765.547
757.224
766.419
770.013
770.897
760.087
763.042
764.157
771.732
773.021
764.756
764.721
772.828
769.310
768.050
768.586
774.833
783.539
785.487
781.177
780.528
777.973
786.803
791.140
790.603
782.140
782.428
792.957
795.432
790.175
790.218
792.234
784.197
791.861
786.247
787.180
789.817
797.544
801.814
791.195
804.666
799.031
803.779
807.968
805.944
804.710
808.240
813.771
809.112
805.720
816.317
809.677
805.277
813.836
816.492
815.854
807.341
811.488
821.627
820.914
816.929
813.279
814.668
815.261
815.569
817.571
817.510
832.316
829.535
822.224
820.266
830.719
830.584
829.808
826.070
833.993
835.902
828.288
841.299
837.755
838.644
831.170
830.519
846.641
836.990
834.557
843.572
840.900
841.778
849.057
852.706
839.647
842.223
846.442
855.058
852.208
853.630
853.847
856.364
856.910
854.149
855.295
856.464
864.598
864.875
860.405
860.281
857.086
868.605
858.505
869.690
864.466
873.078
874.492
868.474
864.574
867.794
871.998
864.509
878.024
881.210
881.708
870.126
882.521
880.325
871.507
883.637
874.894
884.171
883.293
886.060
876.545
878.104
889.894
880.685
889.038
886.386
882.470
884.610
889.293
887.760
893.676
890.161
901.307
888.891
898.495
904.018
895.421
899.316
901.694
906.435
902.555
902.568
909.044
899.498
904.855
914.675
912.121
915.223
912.060
912.548
910.381
913.381
919.164
910.064
911.700
920.169
916.875
911.278
927.074
916.019
924.201
918.536
925.735
930.167
925.265
926.540
929.156
928.776
919.026
932.593
927.472
923.157
931.968
925.049
928.607
927.957
922.262
918.481
919.725
925.244
921.470
932.775
932.997
929.966
931.598
932.954
930.575
930.002
926.202
920.172
918.174
926.998
923.594
920.481
929.999
918.614
926.285
927.477
931.067
918.669
918.995
933.246
925.679
923.155
926.873
919.093
927.007
931.918
921.727
920.260
923.589
931.834
924.854
918.245
927.921
928.355
927.405
930.060
924.466
919.717
920.424
926.557
917.874
928.945
925.404
930.684
916.545
917.754
928.355
922.038
917.110
922.746
926.844
923.612
922.204
921.190
930.277
917.547
931.070
922.354
926.973
920.671
929.147
916.974
917.083
927.248
928.313
923.982
930.168
925.757
922.529
918.415
923.879
924.027
921.124
920.484
917.078
917.921
929.917
930.781
925.962
922.199
918.451
929.713
921.243
925.560
919.233
914.776
930.480
929.769
916.909
921.923
927.714
928.442
920.823
923.726
918.749
922.452
917.867
930.139
923.433
928.219
928.409
919.156
920.218
926.720
921.800
921.236
929.042
915.121
922.339
917.602
914.944
917.915
924.143
915.076
919.396
914.452
913.986
925.942
916.248
916.433
914.245
923.680
917.259
925.814
921.410
923.391
921.106
914.371
923.539
918.682
926.653
919.716
914.488
925.895
919.860
926.816
927.407
925.536
928.044
914.465
916.717
925.471
918.970
923.594
914.204
915.467
920.429
916.506
912.993
926.411
923.243
916.822
915.057
915.094
920.866
918.059
919.378
918.196
924.645
914.674
917.387
919.686
921.587
918.976
923.532
923.447
926.427
916.314
925.132
921.156
921.728
924.692
923.845
924.207
921.155
925.654
924.452
922.056
911.713
917.043
922.271
916.438
925.012
911.548
915.877
913.085
914.595
921.559
907.773
913.090
911.964
903.376
901.168
905.090
900.992
901.277
903.434
907.584
906.366
890.507
891.934
899.008
892.432
883.670
885.551
888.515
885.167
878.464
878.230
890.542
874.990
881.128
881.489
877.828
869.033
870.604
879.924
878.001
863.022
875.272
871.182
860.460
871.975
863.378
867.467
863.284
865.449
862.868
861.344
848.536
850.535
852.528
850.235
848.823
842.513
853.259
848.386
845.804
833.397
833.099
831.811
835.392
831.162
827.253
838.344
824.129
831.772
827.927
820.111
828.266
823.093
827.806
816.273
817.926
818.384
814.808
820.150
814.335
809.221
816.745
809.253
805.833
802.679
803.600
809.482
803.280
802.974
807.503
802.353
797.643
795.163
797.506
796.749
790.952
784.507
792.977
782.545
784.541
790.744
787.838
779.385
782.095
770.374
773.383
776.518
776.305
769.463
771.823
765.896
761.254
769.059
766.164
756.974
763.328
756.323
752.192
765.903
750.865
760.972
757.806
754.811
747.860
748.132
749.246
751.338
749.588
740.122
749.457
734.594
732.032
740.299
741.078
729.745
729.186
728.929
735.239
735.335
720.401
723.011
727.194
722.261
716.486
728.251
720.519
713.259
718.879
711.925
721.014
711.919
712.306
707.490
699.721
703.753
698.311
710.000
700.816
703.637
692.501
692.679
693.382
686.970
688.926
690.635
696.189
689.261
687.454
686.906
690.876
686.015
689.629
674.898
673.254
683.414
677.964
675.979
666.089
666.461
673.885
675.663
661.590
664.325
666.908
665.638
662.479
663.784
652.029
649.893
650.133
654.033
646.185
646.594
655.205
656.367
647.940
638.999
648.576
647.031
636.726
633.593
640.474
631.947
632.686
629.930
639.420
630.980
636.446
626.731
637.712
628.937
642.252
629.620
641.753
638.741
634.982
637.800
646.033
642.269
635.375
633.509
649.073
645.982
648.492
645.678
651.617
648.791
647.846
646.523
647.094
648.207
649.569
655.088
644.168
651.483
655.489
653.400
650.417
660.396
650.233
650.378
656.015
649.276
663.374
654.038
651.561
664.213
657.701
667.135
662.289
664.694
655.797
659.549
672.185
670.696
658.954
668.964
664.646
673.765
666.657
665.580
666.191
673.480
671.018
665.073
674.297
673.568
679.834
668.730
670.702
680.363
682.534
680.469
677.497
680.166
675.379
685.856
675.609
680.872
676.295
680.167
679.107
681.334
690.564
679.756
682.646
690.985
682.418
685.724
684.750
696.478
689.241
686.793
686.664
697.347
690.467
689.868
690.405
700.466
700.699
702.616
693.328
696.913
706.077
694.789
703.372
708.148
695.306
701.954
704.105
706.119
709.236
701.135
709.532
701.187
700.325
713.839
717.126
712.041
704.220
715.090
704.739
714.855
716.549
718.897
716.328
710.337
720.754
718.966
713.784
726.206
718.015
722.520
722.195
726.448
715.008
719.514
728.567
716.526
721.042
725.075
728.149
723.096
733.830
733.993
726.340
731.480
728.309
739.303
730.081
739.838
726.392
728.499
738.934
730.936
732.465
739.636
737.797
745.606
737.475
732.678
738.164
736.751
746.606
736.060
742.359
743.662
737.011
749.465
741.282
745.989
744.404
742.973
745.382
742.827
751.033
757.551
757.648
752.130
747.569
757.336
753.758
759.062
763.366
754.635
751.510
764.141
758.726
753.458
767.872
767.994
767.098
762.723
755.185
769.225
767.125
758.549
767.128
770.311
763.021
760.243
774.486
765.443
762.519
765.810
776.240
773.820
773.785
769.733
765.264
772.493
757.653
757.618
760.600
758.633
752.963
751.464
760.403
748.202
752.976
754.641
746.151
751.942
756.211
740.151
745.360
740.442
734.757
748.440
741.970
732.557
729.519
737.275
729.042
733.831
725.294
732.764
734.832
728.558
721.663
730.525
729.282
715.403
719.081
723.699
712.137
710.116
719.342
706.072
717.573
708.752
705.094
699.521
703.877
708.797
698.612
705.750
706.706
706.477
699.980
696.074
701.865
698.596
690.572
693.555
681.442
694.417
687.767
681.655
691.361
676.498
681.158
674.581
671.571
672.994
668.456
675.765
665.900
665.281
674.618
674.760
662.418
669.793
659.294
657.194
657.818
663.250
655.004
649.567
651.749
647.621
652.529
657.336
645.412
646.232
644.904
645.008
638.749
639.551
638.353
644.561
640.954
636.476
631.819
634.838
637.973
635.173
635.185
624.223
621.783
625.294
624.663
620.082
625.832
615.238
618.067
620.046
615.215
620.358
613.347
615.718
603.721
601.683
605.292
607.667
607.977
605.337
606.226
607.818
593.802
597.697
595.789
586.938
596.611
596.012
586.370
583.630
594.695
580.404
582.044
578.095
589.699
576.477
586.018
577.400
572.625
580.594
569.409
578.588
571.109
562.150
568.116
570.116
572.653
570.671
555.210
557.419
560.050
557.242
549.710
562.388
556.951
558.779
549.474
555.314
553.032
542.951
545.072
545.242
547.333
546.294
533.075
542.048
529.469
530.654
541.728
530.784
527.321
526.561
528.389
528.002
530.477
530.229
517.864
517.708
515.137
522.650
522.308
521.379
513.869
516.189
508.261
510.221
514.266
510.744
506.353
508.976
505.694
502.020
507.629
496.992
497.231
498.485
492.436
495.311
488.602
203.174
186.165
178.729
221.977
167.758
157.619
194.692
194.270
194.450
224.847
156.747
171.790
229.947
231.629
156.517
202.369
206.613
222.050
175.560
228.795
195.361
156.930
210.649
209.500
155.218
170.093
164.882
221.367
196.815
153.457
201.099
209.231
216.756
154.017
201.860
177.428
166.661
152.062
205.799
203.002
167.926
189.561
215.790
211.172
155.582
203.566
181.181
214.434
198.775
201.515
191.128
174.619
198.662
183.857
233.030
158.469
177.772
224.479
217.590
186.157
230.700
230.458
233.487
222.000
222.702
229.880
155.875
206.607
212.271
183.166
195.660
214.306
210.389
185.823
229.770
178.109
202.715
219.688
177.792
212.433
216.110
228.486
203.946
190.553
201.540
178.827
