927.214
923.908
925.039
915.683
924.942
918.387
915.872
923.868
922.564
925.066
916.936
922.558
916.263
927.350
920.392
923.332
924.439
927.100
913.898
917.835
920.060
922.331
920.320
920.247
927.499
914.275
925.981
924.829
920.807
919.528
921.340
913.538
925.292
918.794
915.222
921.823
921.202
924.059
916.643
915.481
919.735
913.014
920.001
928.036
916.481
920.417
919.539
920.424
913.412
915.487
921.723
920.317
921.194
924.839
924.478
926.607
913.525
912.645
922.096
919.958
920.858
912.468
925.347
923.002
912.663
924.629
912.881
921.751
912.566
919.603
911.502
916.043
915.439
916.181
921.572
926.091
919.079
926.536
911.706
919.979
926.585
918.973
913.243
914.283
915.773
913.456
914.881
913.850
903.410
916.010
912.964
907.741
901.884
895.656
904.693
900.209
902.157
904.811
892.040
896.362
885.385
896.454
885.261
895.478
885.221
883.951
887.099
886.988
877.287
880.417
873.341
881.063
877.149
872.238
868.415
877.670
872.990
861.299
866.694
869.211
857.449
866.599
862.423
866.834
862.885
857.841
859.463
857.701
849.304
849.354
856.532
845.367
854.919
850.971
845.728
841.969
842.053
837.914
834.003
838.446
831.109
835.428
830.215
837.348
823.008
831.419
822.558
818.693
829.651
828.613
826.832
815.113
826.284
820.783
810.701
812.216
820.392
805.436
801.701
811.201
813.845
800.345
806.791
801.191
804.879
806.509
791.164
790.237
788.713
791.368
798.015
794.505
787.773
795.378
785.090
792.556
777.216
782.972
781.877
776.357
775.309
775.107
776.553
777.251
776.445
765.940
774.545
767.676
761.581
769.111
763.414
768.515
756.759
752.295
760.665
756.394
755.008
753.854
748.476
748.017
748.686
752.673
743.970
737.267
743.567
739.504
744.833
744.307
745.200
735.193
742.448
736.136
730.540
734.474
734.818
722.439
728.213
725.364
730.010
720.054
721.289
711.661
711.633
713.040
709.758
707.011
706.922
706.892
711.640
703.871
703.725
709.759
703.677
695.466
703.938
691.979
701.836
696.241
692.432
685.468
692.213
692.841
684.556
683.077
679.303
690.789
675.282
677.386
680.079
673.463
673.861
682.608
681.322
681.117
672.138
673.336
661.245
667.181
662.788
663.672
656.871
662.164
657.305
661.327
655.377
656.230
657.205
660.992
657.844
652.272
648.206
653.379
638.502
649.177
646.886
636.650
645.145
645.644
634.947
643.334
636.933
628.903
633.788
631.427
629.681
629.140
633.267
638.279
631.841
641.708
630.350
638.609
635.222
633.663
642.787
635.626
639.794
637.924
641.380
637.201
649.564
652.800
642.218
648.300
645.484
649.476
645.821
653.402
651.722
654.199
647.025
648.699
659.354
652.833
659.632
658.731
647.690
655.156
649.321
658.288
651.025
660.967
662.085
663.135
663.620
661.619
660.344
665.749
670.156
671.267
662.405
670.208
671.216
664.135
666.213
662.898
670.087
672.576
671.650
673.767
673.353
673.819
673.911
669.048
670.858
675.170
682.259
685.066
683.596
677.045
682.371
681.717
687.719
685.388
688.920
681.881
689.586
692.164
688.945
692.261
681.735
694.144
684.461
687.365
691.223
685.983
689.840
683.506
686.878
686.014
687.759
690.036
702.546
692.984
699.008
704.696
696.968
702.402
699.552
703.450
706.958
701.750
695.890
702.954
705.868
701.616
700.070
706.991
713.475
710.058
711.796
714.506
704.486
705.931
713.153
706.884
706.776
704.641
712.913
711.433
713.372
715.135
718.437
715.406
714.640
724.300
725.025
727.394
724.648
721.959
724.245
715.014
716.416
716.435
719.328
728.110
721.630
731.105
723.772
731.541
721.895
721.577
735.053
728.463
734.835
724.936
737.265
733.624
740.653
739.233
735.262
739.764
737.497
744.569
731.843
732.314
744.001
745.967
744.781
737.101
745.992
736.442
741.054
745.151
753.353
751.156
744.752
750.106
749.433
750.515
748.706
756.137
745.813
748.857
757.080
750.370
746.127
757.935
758.235
759.622
756.989
757.236
764.336
754.145
754.660
764.486
756.660
764.383
760.064
760.389
759.867
763.827
766.550
765.835
759.021
770.578
772.909
771.416
769.799
768.646
774.153
772.871
779.942
768.306
769.681
763.929
769.034
772.491
760.022
767.771
758.728
751.686
754.359
756.443
748.818
752.511
748.478
748.449
755.506
748.575
747.234
737.616
747.116
748.179
735.674
733.281
738.673
744.384
735.489
729.616
737.390
736.526
736.047
731.480
725.809
727.978
716.395
716.953
717.718
720.939
715.684
722.409
715.354
707.819
719.691
709.283
714.604
716.640
709.821
712.291
709.382
700.197
705.170
694.788
699.305
702.929
698.918
689.493
687.167
689.007
690.262
682.057
685.948
691.577
691.290
679.139
681.613
686.228
677.330
674.787
674.216
675.950
671.341
673.409
675.005
677.399
666.913
667.367
671.909
658.841
668.342
659.861
655.539
663.238
663.226
653.118
655.136
653.026
654.067
655.441
655.122
648.551
652.650
639.428
636.786
636.223
644.536
643.113
643.480
642.842
626.897
632.041
624.170
632.516
627.979
630.630
623.018
629.219
624.638
624.854
624.197
614.767
623.615
614.919
613.206
615.270
610.777
609.244
614.088
608.210
613.433
610.281
608.522
600.133
602.932
603.239
593.943
596.033
593.004
591.076
595.789
592.944
584.738
595.560
582.204
587.414
589.538
575.657
579.582
573.901
575.093
581.749
581.321
566.733
578.571
569.433
564.271
563.898
569.934
571.561
565.964
556.345
556.689
567.040
553.999
555.547
560.684
552.985
556.203
557.483
550.043
541.339
552.601
544.858
541.820
546.568
543.788
535.510
543.665
531.137
536.631
529.046
530.443
538.694
534.309
525.162
524.446
523.062
531.184
525.214
525.286
518.862
522.100
510.557
522.936
521.294
507.261
506.384
518.134
509.165
512.567
504.069
503.041
506.388
505.423
501.238
501.816
502.099
491.540
495.525
498.211
487.172
62.560
75.509
65.502
77.940
64.954
72.821
76.390
70.287
53.451
76.366
80.445
63.943
69.311
75.676
76.885
71.184
73.244
74.673
75.064
57.943
73.263
59.820
54.388
68.807
59.882
69.307
64.831
53.180
57.688
80.521
76.109
58.328
55.977
58.724
58.356
79.476
66.177
81.019
63.422
55.450
74.854
68.947
60.882
214.125
219.306
217.677
171.935
221.029
182.650
246.059
205.537
205.411
217.376
211.653
243.999
198.570
218.302
224.831
201.114
249.346
241.769
184.373
188.778
227.465
225.563
184.279
239.085
229.761
223.165
209.983
201.523
182.831
228.115
185.460
214.461
192.445
251.230
209.486
181.363
206.506
240.362
172.472
236.785
257.208
174.803
253.126
213.909
220.097
227.262
204.719
213.638
194.885
259.449
210.444
191.077
229.904
173.975
176.253
245.578
257.911
138.211
138.617
110.079
138.652
144.871
110.066
128.396
139.357
103.129
126.024
131.664
107.461
119.481
112.675
127.443
110.563
122.591
114.739
109.607
117.065
101.963
112.386
126.812
116.876
108.814
115.471
107.639
140.600
141.341
146.703
112.771
125.693
135.436
140.377
119.028
117.927
143.009
95.438
107.170
130.552
122.640
118.885
113.285
122.206
102.072
122.490
106.367
135.136
122.537
129.012
130.347
144.552
99.597
110.865
127.077
122.111
113.562
114.957
107.480
141.963
130.069
146.063
106.487
125.029
145.832
130.999
136.889
119.076
116.839
94.908
131.669
123.582
123.719
125.093
128.162
132.836
130.923
110.412
141.830
120.447
146.110
123.508
134.684
119.488
123.674
114.259
127.213
134.083
124.995
145.213
106.100
111.556
141.084
122.784
134.596
130.567
131.134
126.956
116.239
124.237
113.505
99.720
104.182
125.612
113.311
122.479
96.772
101.876
103.628
100.634
107.646
145.662
106.728
112.164
131.356
95.036
145.884
144.079
129.644
107.990
118.414
123.480
125.347
97.438
99.060
123.674
132.190
106.318
137.151
144.337
119.970
116.280
134.274
111.245
127.517
117.159
111.672
135.412
136.707
117.744
105.471
117.518
119.931
127.022
116.677
107.852
95.910
103.561
96.720
127.373
126.769
97.652
99.971
114.473
143.505
97.703
137.952
99.330
139.081
129.668
101.913
134.459
102.211
120.131
134.448
111.785
107.990
139.478
125.431
130.327
137.122
107.833
123.806
138.722
131.587
100.782
130.511
113.909
100.213
125.139
125.579
103.999
124.597
132.260
135.975
99.146
136.701
102.859
113.176
100.906
129.768
112.139
112.861
133.961
123.634
123.806
96.850
107.025
94.933
116.662
101.459
142.045
140.654
145.099
133.924
144.352
134.987
118.353
98.506
101.389
129.835
109.951
146.598
117.114
127.551
133.074
113.566
100.907
115.782
108.003
109.774
138.842
129.812
105.235
133.872
107.809
118.033
117.392
96.238
117.942
101.783
117.710
121.414
113.338
114.725
107.737
128.021
144.070
102.365
110.908
144.534
133.100
130.444
95.226
126.713
109.576
132.264
97.667
125.603
108.914
130.902
107.595
138.327
128.794
105.606
128.055
121.312
119.481
117.007
111.184
133.061
131.114
112.214
107.302
131.031
120.003
119.773
104.727
127.471
135.917
102.790
138.596
126.867
104.582
117.652
123.430
104.178
97.472
121.013
142.787
144.778
118.717
103.305
103.034
97.350
97.067
129.092
126.618
95.001
104.166
132.378
106.726
108.219
111.118
122.917
127.314
112.525
121.767
101.718
137.179
119.087
104.468
118.488
121.786
97.409
97.923
139.947
103.056
114.850
121.086
128.164
138.976
116.365
114.036
137.346
118.436
117.791
115.725
143.920
110.714
105.689
109.124
120.579
104.241
97.125
107.560
129.197
122.479
125.960
120.228
103.565
110.796
110.903
96.515
140.110
98.074
108.596
130.732
100.743
110.382
99.427
101.799
100.572
96.346
140.006
136.126
97.999
118.282
138.289
122.257
129.931
111.500
94.846
95.251
136.517
98.827
132.111
111.500
113.745
124.668
136.952
126.132
99.352
115.501
132.024
103.083
118.320
97.994
103.740
108.368
144.946
105.998
130.549
143.438
123.865
111.533
120.154
123.887
122.399
128.166
116.458
102.748
114.835
98.049
109.080
145.025
125.367
128.684
105.749
133.313
144.896
105.787
101.638
133.867
115.393
94.893
120.377
107.749
114.804
101.390
115.117
128.163
122.877
133.596
107.978
131.512
127.350
98.454
106.016
100.704
113.271
106.282
135.020
127.449
109.223
126.774
131.932
113.997
97.358
128.968
125.098
126.877
105.576
111.259
124.086
130.173
114.507
140.084
133.808
114.060
97.063
110.296
102.669
116.951
130.658
105.659
138.342
98.282
108.451
146.164
104.851
95.325
132.748
122.385
105.728
101.627
97.382
130.288
135.162
109.572
100.076
128.947
129.931
123.005
145.814
133.051
131.650
120.632
126.014
121.654
100.091
100.002
107.104
97.866
118.252
113.917
132.502
139.253
125.831
139.252
130.287
142.909
125.161
124.272
134.670
101.219
128.304
139.073
144.588
121.521
131.677
118.020
144.484
133.074
102.213
145.094
110.799
144.971
109.984
95.946
140.585
120.005
118.454
129.071
139.870
141.325
118.384
128.687
142.402
128.265
96.703
116.533
108.217
119.298
101.291
135.894
130.551
109.921
121.167
142.064
129.103
97.661
95.530
119.158
99.861
96.559
98.294
120.897
95.003
130.488
144.855
129.925
111.301
133.847
95.059
106.873
110.794
131.014
118.811
95.716
119.774
123.816
113.586
121.406
131.497
126.213
110.303
138.519
108.458
105.945
126.040
127.546
119.477
146.124
101.738
114.775
96.380
115.798
141.069
96.623
111.541
133.341
119.811
98.759
111.018
103.050
143.874
121.334
118.090
104.735
146.290
127.495
103.224
138.952
143.008
102.604
108.222
116.518
95.243
100.812
99.892
144.499
129.193
109.527
144.820
117.009
97.001
128.316
116.480
103.836
126.764
125.955
139.488
132.133
124.793
134.235
113.114
95.118
127.007
106.485
112.705
128.522
136.253
115.204
141.833
112.829
119.464
134.658
126.848
96.509
146.677
131.639
143.046
99.900
123.994
108.946
143.997
111.903
119.863
130.348
122.967
110.294
130.575
128.483
136.488
132.757
112.906
104.797
127.959
118.189
134.246
133.530
116.951
141.090
103.413
128.547
119.509
123.391
144.667
98.633
136.827
125.590
116.043
139.647
98.799
133.804
119.048
132.196
141.324
109.098
120.163
104.029
111.458
107.617
108.040
119.489
138.283
129.953
134.726
104.777
100.945
124.662
114.379
119.799
102.985
96.484
100.283
95.465
139.803
108.652
94.829
105.732
101.475
127.557
129.127
114.250
128.375
110.442
121.912
105.509
110.615
139.839
100.158
139.916
95.276
105.605
106.237
130.488
136.802
116.316
103.144
117.632
129.232
140.873
100.722
133.473
146.449
138.380
109.586
122.593
113.966
104.905
106.862
140.215
139.046
126.840
99.345
98.448
133.519
99.662
119.111
106.992
114.282
98.432
94.823
124.437
114.683
146.017
138.237
140.794
103.549
126.555
118.891
133.901
97.043
99.574
105.318
104.571
122.038
114.936
142.573
122.540
132.710
113.676
145.836
96.482
142.983
112.099
120.788
145.709
106.618
125.393
134.587
118.990
144.346
98.967
105.519
104.082
101.733
122.663
107.433
99.312
100.063
118.165
120.511
106.599
128.623
136.343
129.372
142.102
142.740
130.230
114.178
109.978
97.058
103.942
138.713
113.338
125.912
115.589
128.989
111.964
133.483
121.984
100.184
146.423
100.889
99.151
135.082
104.449
105.404
103.139
141.753
97.206
143.809
109.021
127.439
120.950
112.653
118.305
116.910
124.741
107.353
94.979
141.364
116.938
135.598
122.029
139.136
137.833
132.459
109.102
98.199
95.274
122.773
117.824
128.575
117.456
96.929
141.982
142.031
115.917
133.535
137.564
142.228
139.358
101.030
144.557
100.593
115.640
107.388
97.756
129.118
100.937
144.404
114.332
102.733
135.358
121.006
131.383
97.052
135.889
129.323
106.147
123.525
122.865
117.072
136.315
130.380
96.186
105.391
116.088
108.167
123.736
112.696
100.532
127.940
143.092
111.937
99.600
113.034
97.960
102.107
96.502
141.358
125.697
105.752
127.419
137.555
125.084
138.646
135.655
108.605
98.381
121.532
97.398
125.143
135.593
126.883
126.968
120.233
116.957
136.300
144.855
108.943
112.342
115.913
145.632
105.791
136.828
122.415
109.761
123.020
109.843
113.622
123.293
106.664
138.569
110.030
123.731
128.334
126.636
125.693
142.420
107.417
113.321
142.801
128.305
146.766
96.578
99.678
95.972
115.004
122.568
135.863
107.917
114.268
110.175
118.508
142.096
101.422
145.639
135.797
106.916
102.978
104.258
132.088
145.126
105.894
111.818
135.368
120.754
126.351
144.313
135.767
135.441
131.162
101.973
129.719
128.900
141.984
98.524
110.394
103.057
135.294
116.645
143.512
128.553
116.614
116.020
131.432
103.814
138.321
122.185
143.848
124.959
123.971
130.357
146.754
102.038
144.711
121.472
109.693
120.598
129.824
127.987
123.522
136.274
107.672
126.298
113.048
130.094
143.508
130.480
108.980
138.289
112.705
109.149
118.827
124.641
144.442
97.213
103.223
129.166
126.622
140.374
135.076
104.573
99.464
108.012
134.833
136.073
110.832
126.337
102.407
121.183
143.540
108.498
100.758
135.642
123.835
109.601
95.951
137.894
119.355
141.131
96.070
95.478
96.634
129.969
137.476
103.543
112.782
111.977
146.303
100.756
117.986
95.856
115.959
105.558
118.010
95.460
96.284
131.165
119.528
104.113
101.897
118.851
123.695
128.271
103.259
127.673
135.868
97.434
142.651
117.183
111.282
124.210
102.141
106.481
127.914
116.187
115.468
122.114
112.792
143.869
136.403
128.378
124.726
104.422
114.264
119.318
97.517
132.697
131.420
100.483
104.936
100.600
111.540
95.317
133.380
144.330
131.683
116.566
139.160
101.802
104.932
106.725
133.605
102.640
127.996
128.960
142.240
103.033
100.640
135.116
108.004
119.032
107.219
120.525
108.685
101.225
145.227
113.388
121.759
113.134
123.180
116.289
108.478
101.421
135.623
137.956
128.456
100.137
94.796
98.188
115.327
113.756
108.510
118.463
96.319
102.548
108.339
121.281
105.800
130.697
112.236
109.854
124.760
95.505
110.827
144.765
144.897
129.208
137.789
119.515
118.605
145.266
107.699
143.823
101.087
122.099
125.339
137.046
137.901
122.740
103.887
136.018
120.564
100.608
119.655
125.834
145.192
98.852
119.022
114.469
127.350
120.014
110.648
107.872
140.229
138.762
99.503
115.466
135.432
120.265
131.634
140.183
114.245
143.712
139.411
114.698
132.858
144.090
125.943
124.380
120.834
141.386
142.768
120.135
108.367
127.401
96.532
113.616
99.447
104.093
112.937
109.279
104.728
130.174
130.928
98.498
138.846
132.335
104.944
99.958
132.465
112.327
126.993
106.285
117.996
112.561
136.569
141.707
141.228
114.889
133.391
122.356
115.467
102.170
105.868
122.110
144.210
143.477
120.091
116.367
112.374
132.627
129.778
135.737
125.585
97.069
113.457
140.841
131.631
144.375
132.220
113.030
141.373
106.828
143.609
96.133
116.273
135.767
114.231
123.609
138.053
116.905
95.219
129.800
96.441
96.665
140.256
130.252
141.381
101.754
128.285
107.414
95.018
130.867
132.188
124.831
112.064
128.263
127.328
103.735
106.047
133.985
