913.680
922.739
922.994
925.076
922.343
917.368
913.880
921.542
913.827
914.427
924.512
912.117
927.097
927.520
923.315
922.205
912.750
923.548
921.869
919.150
921.766
919.350
918.289
925.474
915.819
925.582
923.626
914.834
919.692
921.182
918.617
914.801
926.055
925.193
925.178
921.385
918.233
919.916
910.432
908.632
903.674
912.314
902.952
912.987
899.373
907.486
897.287
904.065
904.335
904.926
896.692
898.014
899.401
892.215
897.148
894.860
889.694
883.945
888.549
885.999
881.397
876.201
886.451
880.737
879.286
867.334
866.769
865.361
877.570
871.458
871.935
860.657
871.704
861.319
858.580
860.322
864.157
863.758
858.417
846.402
860.280
848.485
856.970
854.422
853.527
840.091
842.360
847.955
834.917
842.097
835.758
830.883
833.238
831.823
838.557
828.312
835.639
822.515
828.878
831.894
823.531
827.779
814.587
815.742
817.973
810.770
808.618
817.869
813.140
816.420
813.424
811.976
802.980
804.808
801.714
801.599
802.568
799.147
804.468
791.690
792.213
788.538
798.764
794.019
789.860
794.522
787.555
790.465
779.060
779.912
776.100
774.022
773.961
770.743
769.480
767.372
778.032
763.011
763.630
761.606
772.782
758.003
759.111
769.180
758.377
753.572
752.016
751.802
755.284
746.517
748.127
756.513
750.916
748.057
751.462
741.991
737.105
742.165
747.084
733.945
743.923
743.388
735.606
737.560
728.509
728.779
734.548
728.616
723.130
718.562
717.485
725.474
723.383
720.388
715.573
715.800
719.407
716.805
716.637
715.241
714.981
700.551
701.310
699.390
708.823
696.182
699.396
697.172
693.907
701.330
694.741
694.967
686.843
684.603
696.101
684.277
686.568
688.321
689.658
685.372
682.980
672.355
684.864
668.839
678.464
674.486
666.202
670.663
676.283
665.522
667.378
665.530
664.576
655.027
661.989
654.911
657.491
661.272
649.382
657.459
648.350
652.290
645.937
642.681
653.103
648.106
637.061
641.295
638.803
641.943
633.716
630.974
631.826
627.505
631.684
629.625
632.761
627.848
638.307
641.782
637.663
628.732
629.163
629.996
643.771
641.920
645.523
635.342
641.572
640.151
642.322
640.624
650.423
644.456
642.062
650.338
648.742
655.518
645.238
647.945
649.477
643.165
650.850
653.386
646.972
646.436
659.963
655.050
655.546
651.865
649.147
655.702
657.016
659.800
653.128
660.607
662.666
665.739
664.715
658.645
657.685
660.999
658.014
658.046
667.700
670.520
669.686
663.164
673.216
662.856
665.149
677.415
677.613
668.328
671.096
679.370
676.590
672.829
682.821
673.737
674.833
684.577
678.089
684.424
685.275
680.484
689.524
675.510
680.612
690.815
691.153
680.956
691.869
684.515
690.790
681.211
684.693
684.151
687.407
686.322
697.973
687.939
691.411
701.474
695.569
695.958
696.445
699.812
689.837
699.742
699.910
701.666
698.586
697.037
701.078
706.613
698.735
704.110
709.270
697.597
704.819
703.264
708.327
713.161
705.847
702.565
715.580
713.746
710.593
714.361
719.968
711.830
709.232
713.816
715.415
713.263
720.172
722.658
715.334
721.592
712.479
721.970
715.273
721.746
729.798
722.794
719.826
722.086
728.399
730.383
719.827
727.693
736.559
733.067
724.261
730.965
728.130
732.297
737.918
738.815
731.745
732.480
731.821
735.205
730.665
734.117
735.822
733.048
740.792
735.017
748.932
740.632
749.176
746.338
742.290
737.324
743.969
743.827
745.600
746.234
745.978
742.922
744.727
743.986
752.624
748.392
759.837
755.192
748.855
747.310
756.706
758.627
755.792
754.464
755.098
760.517
760.702
758.914
761.368
758.326
756.503
763.718
764.766
766.937
757.671
763.834
772.166
774.192
769.064
761.430
767.108
762.723
776.695
766.610
769.129
774.542
762.233
761.042
766.622
760.631
764.948
760.886
765.352
767.244
757.553
759.642
760.686
748.341
751.917
758.122
751.870
750.825
747.864
744.711
736.955
745.971
744.481
744.024
739.970
741.121
732.598
727.422
733.194
738.300
737.834
736.495
720.659
717.969
723.347
721.681
725.311
723.405
725.470
717.376
708.073
721.081
707.746
715.638
717.547
703.214
709.918
705.320
712.274
710.635
698.996
693.268
703.490
699.310
693.895
699.997
697.379
687.269
690.961
683.335
685.273
684.400
690.880
686.941
683.440
682.376
686.303
673.358
676.287
676.718
675.831
673.829
671.992
666.072
671.486
671.304
663.053
658.916
654.817
656.630
667.511
655.679
651.638
652.840
648.094
658.050
648.908
654.132
647.386
641.596
640.554
649.157
644.745
634.753
647.119
636.796
638.984
635.651
636.501
640.867
630.833
630.659
631.841
620.253
628.100
622.033
623.284
618.962
627.775
616.792
616.975
619.802
620.816
619.259
604.125
617.622
602.148
612.314
611.437
609.278
600.766
609.456
604.174
600.609
595.733
589.428
588.708
591.862
589.917
595.887
588.000
585.822
591.440
582.959
577.980
583.019
576.310
581.630
585.491
576.620
581.892
577.908
570.691
563.424
570.132
566.425
565.014
560.612
568.050
566.517
557.996
560.138
564.566
553.573
554.698
559.507
556.881
548.176
554.925
554.213
554.949
542.891
539.518
542.757
535.406
545.547
535.295
532.387
530.602
539.636
535.499
528.585
536.989
521.446
531.531
528.435
531.597
526.255
525.479
521.085
516.672
514.845
508.402
509.169
509.841
504.801
504.076
510.911
510.967
500.551
499.885
500.397
506.920
493.158
503.616
491.025
488.490
497.082
499.795
484.741
496.353
484.006
481.265
491.190
475.738
480.166
479.937
484.063
480.292
467.226
470.775
473.702
466.349
472.325
467.083
466.802
456.339
459.331
454.733
461.807
455.967
455.870
452.543
448.618
448.834
442.596
446.323
444.456
428.745
429.239
440.135
427.660
420.985
426.909
424.491
427.274
422.297
415.683
418.311
419.135
410.283
417.749
403.585
401.728
402.848
406.101
397.058
404.771
396.408
394.538
392.446
393.716
397.796
387.283
382.290
390.743
384.283
386.911
385.545
382.250
377.693
368.750
369.753
366.679
371.088
361.216
366.279
360.648
366.399
359.668
350.076
352.815
346.851
348.587
347.089
341.419
341.936
337.293
334.508
337.987
333.880
331.105
332.479
327.164
332.176
322.934
319.624
323.987
318.997
321.690
320.695
319.670
309.921
312.316
315.811
299.058
301.705
297.464
308.182
291.633
297.158
290.799
295.030
284.506
282.252
292.938
284.943
277.923
286.496
275.839
281.688
280.594
275.337
273.763
265.381
272.840
266.411
266.565
256.658
253.472
256.063
255.307
253.287
252.284
250.667
248.681
252.462
239.626
238.994
237.016
245.753
242.925
242.453
236.137
223.595
229.901
221.141
219.233
227.556
224.834
223.370
223.144
220.956
212.103
213.489
211.843
205.803
212.882
205.444
199.880
196.818
205.124
190.834
186.661
189.142
195.150
194.814
183.658
187.747
179.696
181.109
179.145
181.074
173.340
175.501
169.246
174.408
163.963
159.134
159.148
154.298
164.047
153.474
159.851
149.239
158.493
150.705
155.749
148.983
146.607
142.266
141.506
139.461
144.372
137.899
137.698
124.954
126.300
131.337
408.479
385.135
392.578
412.865
365.190
390.654
344.463
380.307
346.585
348.644
339.677
133.725
147.108
115.430
110.056
122.570
107.241
127.152
112.295
123.107
145.750
156.907
124.989
150.284
147.766
150.446
131.873
113.684
139.052
109.353
131.913
128.519
119.987
114.638
146.547
110.505
151.601
120.768
156.692
120.728
146.525
113.653
147.372
139.749
144.525
113.312
135.373
135.652
152.579
105.541
133.969
123.598
133.448
107.445
116.557
129.976
147.957
107.633
113.139
116.380
116.062
109.080
148.913
153.138
119.714
138.026
115.971
153.305
103.876
106.852
116.427
136.749
136.189
138.557
145.920
135.600
118.130
145.567
135.046
149.003
144.554
132.469
121.019
132.901
124.280
140.909
114.394
126.149
141.847
121.922
152.270
137.595
144.852
136.452
136.771
152.133
108.958
117.186
148.767
117.126
131.886
125.648
119.646
135.499
150.067
139.774
102.013
137.789
116.682
109.744
142.427
120.700
106.935
151.705
124.086
147.418
141.772
112.927
133.789
138.374
152.349
120.338
127.011
107.114
117.743
125.991
108.266
140.439
138.300
114.385
129.875
110.916
113.296
121.727
128.121
125.860
150.290
130.084
140.628
121.568
106.352
138.115
120.677
114.540
118.294
141.033
110.988
103.880
118.027
136.524
124.925
147.619
114.687
130.285
133.742
121.296
113.661
148.052
138.568
134.121
146.119
144.794
139.885
103.748
115.627
126.332
98.223
116.528
125.368
125.971
146.274
133.455
114.744
139.968
147.584
128.127
101.009
125.307
104.027
148.473
130.615
120.282
137.125
105.826
129.217
100.648
147.029
127.727
115.205
123.438
108.808
99.756
96.977
119.845
129.736
102.172
98.229
126.758
117.543
111.193
123.491
119.155
146.145
107.497
124.123
143.003
108.421
111.452
99.114
98.686
101.549
115.808
136.669
122.965
110.389
104.684
109.524
143.222
130.506
140.363
134.060
136.459
137.282
139.840
108.073
103.196
140.642
144.637
123.923
119.982
113.936
117.695
135.574
112.330
105.729
117.481
98.173
132.438
135.830
131.256
138.810
146.350
143.874
139.528
135.919
113.998
110.979
98.367
132.658
100.789
125.295
101.497
101.684
117.842
113.659
111.997
113.991
137.033
132.351
132.780
99.707
135.580
105.551
145.049
105.862
111.478
130.424
102.602
142.306
131.002
140.556
115.517
135.450
96.381
127.976
117.802
140.192
134.565
116.086
100.344
143.765
121.975
122.299
112.044
114.597
106.743
134.974
105.873
126.832
128.664
102.384
119.794
109.944
101.396
142.507
120.352
122.502
143.848
125.263
99.191
107.751
137.242
109.941
115.566
113.750
100.374
109.690
99.777
122.819
126.622
100.415
112.749
108.323
102.311
109.090
108.020
109.893
137.379
95.251
141.427
115.519
123.154
114.387
140.696
130.022
144.612
133.829
109.971
114.476
109.203
105.524
136.027
127.426
112.215
134.503
122.384
106.443
136.749
103.924
134.679
95.374
138.002
116.279
109.984
101.666
117.677
98.451
117.586
94.951
137.009
121.270
100.313
98.162
99.514
125.687
122.766
146.030
133.439
103.028
134.847
112.238
105.896
98.391
111.295
103.557
143.493
98.614
116.437
143.262
131.054
119.351
104.575
115.962
117.639
97.310
131.056
120.401
126.750
124.203
118.127
108.427
140.377
125.136
102.788
111.484
113.403
106.717
125.192
107.956
132.458
127.869
104.681
117.753
102.109
113.010
133.809
127.181
129.424
129.561
99.980
132.739
121.079
130.526
114.118
124.794
114.128
133.694
127.286
107.958
130.563
145.970
132.650
135.410
135.978
106.532
144.792
138.508
133.097
144.058
116.820
106.881
108.457
131.956
102.677
122.534
103.606
144.131
120.253
117.862
96.723
127.019
128.923
138.002
97.991
100.043
145.816
108.363
129.085
144.154
126.243
140.377
117.585
125.950
140.979
140.752
127.732
144.911
95.111
134.498
112.593
113.983
110.168
135.105
115.972
103.481
136.782
94.278
102.839
95.920
105.817
140.623
124.411
113.425
134.812
112.544
140.440
134.433
96.409
94.200
108.645
113.840
107.675
105.230
127.015
112.046
123.206
130.142
111.926
127.271
108.969
93.495
136.996
94.002
96.478
139.018
112.366
108.217
96.215
99.577
116.731
111.141
112.433
129.997
94.582
109.538
99.809
109.557
107.214
111.498
124.563
137.735
135.579
113.506
125.146
137.432
103.016
126.913
121.963
123.682
110.695
106.036
119.654
106.386
94.029
135.925
133.989
109.783
105.831
101.928
106.335
120.183
95.018
114.669
104.336
142.364
130.871
133.764
96.668
109.019
108.236
112.378
116.680
128.054
120.622
118.857
97.971
104.286
99.517
106.631
117.037
113.017
117.304
137.884
116.804
105.953
129.480
98.935
115.415
94.111
120.741
132.192
105.157
127.415
131.448
130.208
94.113
135.122
132.136
110.927
110.648
101.222
103.942
129.406
127.921
141.331
110.925
104.211
140.372
132.349
102.855
120.245
122.197
101.449
138.981
104.627
128.331
109.401
126.484
89.699
101.533
118.935
117.906
129.577
130.518
133.403
93.651
134.479
97.626
126.935
113.138
103.170
100.927
92.961
100.850
111.111
140.472
109.063
108.384
100.810
120.129
89.043
117.371
132.866
120.643
136.602
136.137
131.067
134.105
131.808
107.166
99.620
95.455
105.491
88.632
111.321
109.476
122.276
105.857
140.604
122.073
107.608
100.010
134.853
98.860
114.878
133.300
128.370
106.610
118.155
113.121
128.198
134.920
106.869
126.704
91.296
89.551
90.061
137.346
133.686
104.295
95.612
106.050
96.116
133.166
123.230
91.288
127.130
125.124
124.680
127.285
97.217
96.655
106.170
118.801
120.953
137.239
100.354
115.879
120.854
134.102
121.738
97.572
140.848
135.031
96.769
108.413
98.865
92.674
93.538
95.898
136.637
117.139
127.007
112.404
136.508
125.183
104.005
95.048
106.791
111.298
141.729
103.745
116.820
127.913
95.781
116.565
101.456
112.996
129.189
101.837
93.784
92.837
121.390
129.368
102.142
119.414
134.587
133.952
132.601
123.800
132.240
103.381
132.688
111.830
135.722
100.919
127.125
102.823
104.890
130.982
110.078
133.011
117.111
104.953
102.621
120.175
140.815
96.709
134.794
128.462
98.445
121.688
125.318
114.212
142.790
128.757
136.104
128.736
117.095
135.549
112.556
133.492
106.226
116.557
102.465
93.761
126.900
117.974
130.914
120.542
105.433
133.999
124.317
111.493
102.548
131.430
119.985
118.113
117.662
138.735
142.371
143.161
138.461
112.189
129.696
113.123
104.315
104.001
104.216
97.532
124.625
130.850
143.909
122.928
111.168
132.249
142.640
141.468
128.044
126.979
108.139
112.184
114.409
96.745
127.720
123.191
96.301
139.238
95.006
128.546
99.346
115.388
135.910
123.267
117.210
134.954
108.445
114.322
113.355
141.941
95.716
137.174
144.889
121.133
102.894
130.440
137.202
141.673
142.023
113.181
97.823
137.125
98.417
115.701
108.383
128.234
123.630
142.522
142.056
121.669
118.897
106.878
130.211
127.233
142.565
146.504
127.280
102.257
136.522
120.374
142.060
101.550
128.944
100.977
102.979
130.963
108.124
105.942
96.697
100.069
101.484
118.536
107.128
102.948
136.523
106.059
135.874
139.131
142.398
135.653
138.969
138.810
121.241
134.168
122.876
105.505
105.445
124.515
142.427
115.413
104.087
140.245
127.618
101.956
141.099
97.527
127.780
136.483
107.474
113.196
99.826
144.929
129.384
105.241
141.846
138.852
95.939
138.740
127.770
140.039
125.380
121.755
125.593
117.470
111.286
108.868
137.418
117.159
110.271
141.961
112.942
98.892
95.336
100.675
122.580
106.519
109.317
144.484
103.509
106.011
116.448
143.423
118.900
127.712
125.222
113.874
133.985
103.934
129.551
134.176
132.801
115.692
138.277
107.494
135.175
96.945
136.140
99.558
95.310
103.599
98.179
140.094
96.099
135.082
144.767
116.932
101.643
98.822
139.606
107.911
135.808
99.555
105.933
140.851
101.883
99.248
107.509
96.588
126.412
126.136
137.890
97.977
98.113
139.993
116.353
119.790
108.929
102.965
101.603
141.609
102.841
94.917
95.156
118.259
128.655
113.936
105.911
100.118
102.866
136.320
138.465
126.448
121.766
145.259
118.343
118.156
122.681
100.305
133.897
145.732
118.840
120.958
104.096
136.250
111.022
100.531
106.533
133.618
135.288
145.431
123.237
137.438
109.490
101.826
134.538
106.776
95.591
117.580
107.483
135.071
140.170
146.348
139.203
132.012
139.181
146.217
130.333
129.920
108.041
114.683
136.113
118.992
145.937
128.919
101.038
118.339
111.908
103.547
139.582
95.430
117.277
121.677
100.403
125.028
113.843
101.420
130.826
119.255
132.550
103.439
105.268
94.918
139.069
115.374
124.002
114.119
95.584
97.748
125.813
135.512
131.824
127.457
107.173
136.171
95.940
112.353
111.795
117.000
143.478
96.100
125.822
114.699
96.972
141.480
98.002
111.751
94.967
103.738
121.294
100.878
98.042
101.507
142.232
113.789
114.792
144.700
136.101
95.990
104.645
138.432
110.431
101.939
101.917
118.772
144.749
131.185
144.466
107.178
111.289
130.882
115.314
140.865
126.940
139.740
146.561
137.157
139.603
130.241
114.422
106.973
133.289
103.554
133.321
114.946
124.831
143.051
130.253
126.722
141.812
135.881
103.205
136.039
132.403
108.066
138.820
138.710
132.079
116.182
104.602
109.334
122.590
97.509
127.770
130.918
104.831
122.848
121.854
102.177
109.550
142.732
130.765
117.610
109.330
109.061
112.476
123.343
100.252
122.392
118.125
107.801
110.281
117.806
111.493
103.263
134.286
97.404
134.855
101.259
127.865
96.440
134.160
113.826
96.522
100.795
115.264
108.928
106.467
136.368
145.482
95.510
99.466
116.855
108.874
128.080
99.153
109.095
143.490
111.713
135.363
97.908
133.885
118.526
128.696
141.502
124.059
125.906
97.728
110.375
129.651
143.375
114.170
138.739
145.515
101.512
142.480
143.605
97.621
105.850
144.088
128.790
102.778
110.215
134.909
139.096
101.601
124.645
112.641
125.029
107.487
138.025
98.999
120.967
125.116
104.101
143.938
126.445
131.431
