781.948
777.113
776.922
784.499
785.239
782.736
772.179
770.792
772.540
773.514
773.680
784.220
787.634
777.347
781.873
779.826
780.586
788.153
778.601
787.381
786.484
788.441
785.284
781.696
779.680
782.152
790.881
792.338
779.358
783.174
786.986
794.275
780.036
782.561
787.015
788.809
780.531
780.689
787.033
781.772
791.861
790.825
789.140
795.982
793.058
788.308
783.255
794.290
795.105
791.863
791.228
796.649
791.454
790.057
796.706
797.394
802.826
794.570
793.683
797.192
796.397
804.508
801.201
794.543
803.582
796.900
806.917
806.805
794.705
799.997
808.973
795.529
798.595
809.669
809.911
799.356
802.146
796.791
807.306
810.500
808.178
806.694
808.711
809.310
807.881
807.600
809.911
809.052
809.552
813.735
805.773
806.747
815.204
817.808
811.206
810.804
816.264
819.593
813.635
816.536
809.716
816.253
821.803
809.653
813.659
814.035
815.853
810.162
820.004
819.737
821.609
815.448
819.916
815.254
817.976
828.098
821.602
817.187
826.201
816.085
819.697
831.182
820.520
821.307
828.479
819.516
823.048
829.057
822.426
828.678
831.171
823.867
833.057
824.165
824.600
822.461
829.511
835.781
824.963
827.227
834.854
830.402
825.196
831.000
826.427
826.399
840.218
827.331
827.965
835.831
836.019
829.729
828.615
829.816
830.933
830.427
840.457
834.339
841.754
840.725
840.367
844.764
836.855
840.189
836.298
842.627
847.704
850.010
835.798
850.599
841.586
848.613
841.356
841.876
849.372
846.186
853.929
844.037
849.986
841.850
856.353
855.017
843.359
854.031
849.291
849.659
850.710
857.956
851.384
845.144
847.874
846.322
859.577
846.490
859.938
857.640
859.464
851.765
851.881
855.903
863.752
858.023
860.302
864.543
862.184
866.459
858.943
867.761
860.147
862.837
866.829
869.867
859.099
860.316
866.901
857.408
867.829
860.308
860.081
857.826
873.483
874.180
859.062
869.934
868.928
869.431
861.953
873.318
874.248
863.287
864.411
870.855
871.502
876.897
876.437
879.232
875.138
865.620
869.016
870.962
868.766
866.875
867.940
874.270
879.033
881.677
879.646
871.171
882.505
880.470
884.115
882.999
880.446
870.539
882.314
870.217
872.542
877.715
874.233
874.935
868.489
883.370
873.299
873.561
874.530
867.971
879.727
881.260
867.303
879.154
876.359
871.866
868.865
871.661
877.796
878.618
879.124
878.119
874.210
879.245
874.532
878.175
880.342
879.593
873.816
879.166
868.484
867.512
866.547
879.234
876.086
873.442
863.003
864.480
877.069
876.089
876.774
868.094
871.099
869.577
868.819
864.139
873.175
861.657
869.469
869.265
873.617
871.725
867.782
862.522
872.252
868.226
874.931
865.804
869.853
871.709
863.013
859.828
869.623
865.709
871.489
863.508
872.222
860.471
872.041
866.453
866.010
865.992
866.220
865.300
871.642
870.374
872.067
871.426
859.495
869.708
862.123
856.026
856.700
855.609
870.795
862.041
865.636
856.579
861.935
858.228
866.218
855.690
859.831
866.687
865.016
863.722
856.706
866.558
867.442
866.828
855.157
857.019
863.097
857.893
856.358
853.373
862.823
855.619
865.598
866.577
863.543
853.765
863.756
863.496
854.184
860.701
864.228
853.959
851.722
862.443
863.247
852.517
860.248
861.086
860.065
864.707
862.536
855.908
863.641
849.357
849.123
857.947
863.626
856.893
862.684
858.183
855.197
856.534
851.013
862.314
847.739
848.005
857.398
846.749
859.886
846.860
853.499
859.418
856.987
848.502
860.057
846.503
857.244
849.214
852.887
857.827
850.306
852.916
858.029
856.567
844.891
844.515
859.140
856.900
851.644
849.434
842.992
852.939
854.083
848.257
844.712
842.143
844.407
855.821
850.374
853.662
843.323
850.793
852.192
844.904
844.700
851.695
840.737
848.038
849.700
846.347
839.887
846.272
839.428
842.537
851.951
846.916
839.206
842.650
843.616
847.956
844.715
849.606
844.634
844.223
848.296
847.840
842.627
843.343
848.460
837.047
845.540
835.855
835.111
845.092
840.813
837.440
847.449
836.998
841.715
845.226
836.538
833.714
831.888
840.869
843.674
838.770
836.416
836.175
833.024
837.420
828.985
838.843
838.231
828.971
838.657
837.427
829.652
831.431
833.033
828.797
835.428
825.963
838.614
830.778
831.842
837.071
834.670
835.079
837.277
824.476
833.936
825.069
834.032
837.337
826.637
835.371
827.607
827.563
822.288
835.542
820.906
825.359
832.810
831.163
823.279
818.768
826.101
832.213
823.330
817.974
817.920
824.165
820.968
826.453
824.556
816.719
827.526
814.959
825.134
829.264
821.991
814.822
815.576
828.871
814.402
820.413
820.224
826.904
814.690
820.953
817.720
821.952
821.611
823.978
823.460
815.047
811.557
820.714
809.059
811.479
819.616
820.548
819.717
810.934
807.024
810.406
813.873
818.529
810.938
814.917
818.422
817.033
807.790
807.726
810.604
816.709
817.986
812.364
815.940
817.852
817.751
807.233
802.785
810.660
815.632
812.175
812.216
810.901
802.708
802.109
800.986
813.739
811.502
805.069
809.064
802.716
801.469
797.825
809.580
812.184
804.433
800.598
796.640
803.782
810.126
797.284
801.489
806.861
809.425
807.720
809.016
801.511
800.227
801.294
805.146
806.171
793.578
803.145
801.292
802.398
793.904
800.504
803.280
798.007
801.177
792.197
802.967
793.644
794.577
793.648
802.191
794.193
802.746
795.669
788.141
789.741
790.004
791.651
788.530
799.659
794.218
796.399
796.379
796.543
786.109
786.727
787.928
790.050
789.542
782.096
795.112
789.123
790.030
783.158
790.771
784.223
784.183
781.558
784.779
779.046
784.614
787.046
776.293
783.954
784.328
777.184
773.985
776.133
782.163
782.624
784.777
781.372
773.935
769.626
772.402
780.651
766.712
776.490
766.909
770.773
762.549
774.502
763.937
764.304
762.638
773.410
759.443
765.695
759.574
755.786
766.605
758.306
754.343
754.092
761.989
762.923
764.171
754.494
754.650
761.700
760.508
755.217
751.198
745.060
749.606
743.589
748.534
753.579
755.320
748.973
748.252
753.078
747.891
736.873
742.184
747.447
744.596
736.862
742.553
736.783
732.078
732.831
742.691
743.198
738.925
732.366
737.661
740.314
729.605
728.922
737.990
725.478
737.770
730.548
733.213
719.755
734.464
727.425
725.712
726.031
718.944
730.212
727.700
717.567
724.353
714.210
719.202
718.312
713.854
718.643
718.565
721.872
709.372
717.738
713.430
713.511
710.588
712.331
705.627
710.318
707.686
706.528
711.139
711.688
710.464
706.809
699.851
709.040
696.073
707.036
707.173
706.262
703.126
701.824
692.266
699.398
699.294
700.734
697.059
701.011
697.938
686.143
684.684
694.598
696.992
688.012
685.290
695.459
694.124
686.068
685.930
687.912
678.030
681.829
684.632
687.018
674.790
673.530
678.738
681.189
683.717
681.031
684.541
673.821
669.878
675.421
679.742
677.731
676.523
663.557
671.047
672.076
667.255
671.714
663.848
668.584
665.019
665.320
661.657
670.485
669.917
655.343
657.518
662.795
654.366
660.979
653.213
655.838
655.159
651.280
649.966
654.630
658.332
650.367
654.817
649.705
655.838
654.407
647.235
653.640
652.333
651.845
641.711
645.342
639.292
638.556
639.545
649.906
647.638
644.576
637.806
633.071
644.396
642.560
640.206
641.228
642.386
635.537
639.618
634.393
633.380
637.137
638.694
634.354
639.983
641.777
630.155
628.394
636.300
637.933
634.335
636.239
635.802
634.377
626.405
631.595
631.431
630.728
639.475
627.142
632.203
639.562
635.626
634.687
640.023
640.254
640.419
636.018
640.462
634.511
627.928
633.963
633.990
631.375
631.467
627.996
628.599
632.677
629.138
633.269
635.342
624.217
626.717
632.110
624.122
633.480
636.047
634.629
631.418
638.290
636.146
635.865
637.535
629.628
635.021
626.637
636.424
628.023
629.216
632.611
634.223
627.459
627.364
622.794
631.368
629.784
625.340
621.654
623.230
633.477
634.660
633.065
623.113
631.813
629.915
630.139
622.849
622.781
620.969
629.420
622.204
633.684
634.995
631.776
622.784
621.318
621.515
632.841
634.557
623.265
622.072
626.121
626.115
628.660
627.253
622.033
631.857
620.943
623.629
631.369
620.983
624.248
628.083
630.517
624.363
625.139
619.018
625.292
633.463
619.195
628.665
617.801
624.407
632.619
620.567
622.088
624.791
618.887
625.757
621.731
621.425
631.134
625.673
623.515
628.621
625.139
621.668
624.406
630.168
627.276
625.101
619.225
616.932
618.695
615.729
620.641
621.432
616.062
616.378
629.029
614.787
629.304
615.606
626.273
617.174
619.294
620.174
620.399
614.724
627.633
620.433
615.431
627.335
616.867
628.977
625.221
619.222
614.120
623.250
628.433
613.288
626.628
623.861
615.431
616.729
628.301
621.346
621.132
620.511
626.837
617.044
627.575
615.798
615.528
613.719
619.038
613.676
621.532
623.604
613.838
617.048
616.406
617.895
622.039
614.009
615.153
621.084
622.521
623.787
616.381
614.594
613.259
615.662
612.800
614.824
624.744
622.532
612.669
617.164
625.337
618.264
627.526
622.148
620.721
623.840
634.876
633.060
634.898
633.008
630.434
630.393
642.221
639.076
639.815
645.322
645.190
643.712
645.570
647.521
654.158
654.481
646.525
654.041
646.628
654.444
658.763
651.649
662.497
665.863
659.094
659.212
662.742
658.164
658.981
669.853
663.500
664.763
674.874
666.404
677.149
668.019
680.997
682.532
672.756
675.361
682.450
688.164
689.745
679.648
683.095
690.948
683.520
695.582
696.666
687.449
697.462
690.746
700.148
697.095
698.693
698.679
706.079
705.814
704.730
706.210
714.493
705.424
707.785
705.670
713.079
712.506
713.571
717.336
720.323
716.710
724.141
729.592
726.771
720.837
723.116
726.838
732.888
725.386
732.450
725.687
739.273
730.189
733.521
743.787
741.234
735.175
749.158
744.406
748.752
748.720
741.358
754.764
749.891
748.050
755.409
750.706
748.325
749.575
762.368
763.049
763.707
764.180
760.803
762.235
765.267
761.947
772.983
777.279
765.085
771.353
774.908
767.512
781.854
781.501
773.025
778.748
788.692
776.783
789.938
781.856
794.078
794.679
796.339
786.112
792.543
787.954
792.297
802.006
796.934
803.358
799.885
798.460
807.597
801.461
806.496
810.813
811.679
801.650
808.611
815.556
818.642
818.874
808.519
824.720
812.732
818.232
824.767
826.658
822.092
824.592
825.628
824.899
835.817
837.498
837.961
836.321
839.832
831.301
843.453
831.804
836.752
835.499
841.710
847.363
842.931
846.235
845.088
844.042
842.364
852.859
847.355
853.906
854.770
849.524
864.118
863.563
857.961
863.155
863.474
870.810
869.964
862.110
861.185
869.048
876.959
869.251
876.707
878.749
871.545
870.348
877.181
875.201
875.003
881.409
881.858
879.318
880.935
867.202
877.265
867.867
874.539
875.621
866.692
865.986
871.651
872.387
872.366
866.127
859.747
862.584
856.831
859.679
859.819
856.390
861.240
859.526
851.263
852.658
854.923
850.369
858.929
851.206
852.271
857.678
859.653
843.151
845.819
846.795
843.980
846.433
840.560
846.364
841.044
844.091
839.831
842.827
836.249
836.125
833.514
834.441
833.811
841.915
837.563
840.498
837.568
837.523
833.456
839.727
824.200
823.268
825.065
835.690
830.631
833.867
828.907
821.398
820.953
824.845
816.033
829.600
827.678
820.084
825.690
815.772
818.444
813.202
809.579
818.444
813.759
819.090
810.038
812.510
812.515
803.391
813.811
801.399
811.228
800.481
801.338
798.502
804.154
807.866
796.232
796.093
804.959
806.464
795.196
790.801
797.272
794.367
793.099
797.679
795.061
794.930
790.198
799.295
791.956
786.097
793.255
787.153
787.220
781.162
783.021
776.851
779.337
780.051
774.130
777.990
778.225
771.560
772.841
772.385
780.810
769.452
780.629
774.922
778.543
780.184
774.721
769.389
775.166
773.319
765.983
772.949
761.245
767.620
767.864
756.142
761.761
766.793
764.641
763.242
765.214
752.075
760.754
757.243
762.800
759.145
748.933
758.704
758.986
744.781
751.791
751.522
751.953
744.388
746.049
749.983
739.099
753.115
741.370
750.468
746.842
736.833
747.003
737.493
735.554
738.925
736.076
739.423
729.623
736.886
739.557
727.510
735.830
730.084
724.775
730.305
732.771
728.462
722.279
724.514
722.103
724.537
719.801
721.295
717.640
722.887
713.558
722.553
714.803
726.100
716.302
715.873
722.276
714.693
706.424
705.428
717.494
715.213
713.888
714.986
710.277
710.617
708.864
704.695
703.050
714.068
705.356
704.947
708.827
711.997
698.307
710.715
703.836
709.520
710.200
708.047
697.376
697.810
709.151
705.523
699.695
693.709
699.029
692.306
694.395
699.368
696.959
697.839
704.166
700.584
701.007
694.799
693.787
688.371
693.697
689.704
698.254
688.229
690.213
692.581
696.526
686.198
691.299
696.450
684.100
690.254
687.772
693.113
686.087
689.429
680.754
687.357
689.583
679.962
689.087
682.560
684.926
680.677
681.890
691.556
685.962
682.478
676.131
682.827
678.198
679.894
675.043
684.012
676.102
678.856
683.149
684.614
673.883
678.986
677.203
684.947
683.420
683.985
676.538
682.258
669.586
680.005
668.986
681.511
671.836
675.989
673.915
674.754
676.734
675.053
664.670
679.296
672.452
677.445
662.863
667.140
666.434
667.174
671.818
660.672
668.293
672.337
671.055
674.863
670.089
658.411
667.594
659.735
665.851
665.589
658.090
663.746
657.703
668.865
668.988
658.170
654.922
663.999
664.926
657.355
657.976
667.071
655.789
663.882
657.430
662.181
651.009
659.814
654.682
662.896
654.861
655.958
657.136
661.301
661.287
649.464
655.176
651.021
647.314
657.323
656.367
647.751
644.517
656.914
648.244
653.343
649.208
655.488
650.162
652.033
640.440
644.745
653.955
646.029
643.721
652.653
643.878
645.857
647.005
648.902
638.343
638.238
638.735
649.106
649.768
647.161
648.173
643.639
633.218
644.962
631.719
633.769
635.750
635.736
637.922
630.942
631.084
638.720
643.484
632.882
640.520
641.863
637.889
627.795
628.407
627.305
630.473
631.721
629.857
623.844
639.091
623.416
632.298
627.877
636.180
634.649
623.286
620.423
634.422
79.908
60.566
60.154
76.984
53.122
77.369
78.919
68.012
52.612
57.485
62.941
67.991
61.873
71.634
74.918
79.001
65.519
72.769
67.257
78.988
79.940
65.464
79.134
75.728
67.831
74.892
57.033
68.117
61.930
73.613
67.355
80.584
78.065
76.438
56.268
55.551
75.076
64.630
62.346
62.721
61.046
69.253
54.705
69.441
54.663
78.280
192.272
247.090
221.570
261.170
208.839
176.176
238.783
217.575
255.013
221.386
210.963
198.094
180.042
197.795
260.350
173.322
174.623
172.578
211.504
246.731
190.501
235.769
221.841
211.079
186.280
195.534
167.247
241.613
249.052
238.463
174.140
186.950
237.349
243.829
210.107
222.410
176.782
222.325
252.961
172.778
249.434
251.408
185.008
172.515
171.477
186.489
214.500
237.815
225.028
222.841
180.699
168.941
170.477
227.229
139.606
127.679
133.081
126.099
134.278
127.622
93.277
140.835
140.860
111.774
129.784
106.415
92.153
99.173
95.450
112.520
116.752
113.310
91.338
91.644
101.170
142.029
131.551
110.674
116.741
93.674
127.319
141.283
116.738
94.020
119.584
131.338
90.972
101.434
134.779
139.630
127.819
116.948
95.917
128.674
119.503
106.244
138.974
92.091
90.621
138.823
140.562
133.003
120.282
114.079
120.787
130.740
138.834
95.843
120.132
141.015
114.254
140.267
110.548
137.195
136.639
115.869
129.040
102.599
119.592
128.510
90.556
118.269
101.470
121.920
95.532
99.652
103.628
125.789
129.984
114.268
135.802
135.744
141.018
106.531
103.447
101.899
127.751
112.910
116.698
115.089
96.039
105.893
125.490
122.161
104.539
135.057
125.060
106.074
102.597
93.001
103.610
104.847
127.137
89.506
139.607
129.084
139.069
125.265
136.755
121.065
111.981
102.217
119.363
123.843
131.067
121.638
108.134
123.730
102.238
133.022
124.514
112.069
92.312
118.427
112.747
137.597
136.171
130.836
115.478
92.743
92.975
130.867
89.717
122.532
121.897
130.802
115.901
112.112
139.908
106.492
96.477
118.984
96.768
123.715
127.716
113.953
102.131
110.815
121.693
129.683
119.394
135.993
91.700
131.323
136.400
104.898
135.277
132.023
104.544
122.866
112.093
129.155
94.511
90.895
108.976
136.998
140.662
105.135
141.122
130.443
97.119
107.762
106.364
94.082
106.126
97.787
135.717
127.090
117.067
134.330
119.563
102.730
103.393
101.069
135.934
111.053
119.288
111.951
99.998
101.800
127.973
96.016
98.905
118.743
139.887
124.887
125.370
122.608
121.280
137.629
96.606
139.163
135.775
115.132
125.551
96.580
121.846
117.859
98.960
135.880
102.709
103.794
132.853
106.160
96.501
95.191
136.563
108.743
95.645
122.105
123.609
108.059
135.140
117.704
126.344
123.229
120.051
101.620
139.539
95.743
126.644
94.727
116.307
121.820
123.884
108.341
114.144
127.853
138.659
141.152
118.558
116.231
108.384
106.673
129.324
110.402
120.072
106.923
132.643
116.062
118.338
98.645
111.225
115.246
95.299
101.022
