684.438
685.431
679.500
678.941
686.028
686.527
693.656
689.389
693.435
685.878
694.237
697.582
693.714
691.639
691.194
693.380
689.359
700.472
705.661
704.291
700.829
695.052
704.688
711.467
701.584
702.101
702.603
704.614
709.418
703.514
708.558
705.077
714.736
718.917
718.054
712.859
721.089
711.525
720.207
724.147
722.772
727.262
729.161
720.427
719.502
733.678
733.970
725.158
734.721
729.677
734.297
727.535
738.509
739.645
735.802
737.709
736.772
746.096
736.861
748.955
738.585
751.228
750.193
748.140
742.533
743.362
751.815
741.958
754.951
754.849
756.807
755.175
752.688
759.658
763.408
761.743
763.437
755.703
756.200
768.216
765.924
772.167
764.675
762.786
764.931
764.471
770.489
770.784
764.427
769.293
768.142
770.892
781.972
781.227
782.642
783.539
784.974
778.065
783.947
789.863
791.338
783.532
781.303
785.728
785.467
797.323
789.169
784.560
791.357
786.751
789.466
800.341
793.136
797.350
800.802
807.868
799.482
798.926
806.844
808.594
805.787
807.535
810.203
811.474
812.522
805.574
805.746
817.478
811.838
806.950
808.906
809.167
823.118
822.027
814.142
819.922
829.841
821.905
830.939
828.329
828.497
831.084
825.234
827.873
826.408
828.411
830.917
834.378
832.850
826.048
837.717
837.725
830.733
827.454
830.976
833.317
829.761
827.964
831.265
843.855
840.929
835.405
839.862
832.947
837.503
839.724
838.995
844.374
848.871
849.186
843.148
850.944
842.978
844.247
850.221
855.179
849.330
845.257
847.608
857.498
853.238
845.445
856.524
849.609
853.900
858.355
854.678
857.297
855.705
858.036
863.958
850.729
850.128
856.179
858.922
864.824
855.684
868.661
860.770
863.292
855.253
860.021
856.832
866.406
859.512
871.097
874.192
872.068
869.267
866.904
871.517
862.873
877.443
875.117
872.952
874.461
872.736
866.366
872.448
880.808
868.473
875.479
872.953
876.097
882.525
886.681
872.433
881.188
887.461
880.673
889.064
881.383
876.500
887.215
879.996
890.095
891.568
891.856
884.103
893.831
883.333
885.910
892.185
892.161
894.833
887.540
899.471
899.735
896.744
895.281
892.203
894.547
901.890
904.251
897.760
902.642
904.775
895.312
907.691
895.326
896.749
905.496
905.591
905.447
907.754
911.451
897.910
897.875
905.404
907.415
904.587
904.267
912.708
904.159
914.988
906.474
909.759
916.481
915.082
912.370
919.334
912.014
914.128
916.505
920.428
912.628
924.172
917.970
919.139
916.443
913.672
927.006
921.622
917.919
917.274
915.749
919.111
921.439
921.414
933.530
927.557
929.533
932.026
921.144
933.711
923.355
926.024
926.930
930.891
928.946
928.675
939.811
935.776
942.165
932.396
944.120
941.914
938.794
943.615
934.252
943.166
941.907
946.741
940.994
943.847
940.466
936.704
941.702
937.503
938.492
938.482
942.964
942.073
944.771
941.259
941.099
943.577
943.524
952.161
944.869
954.914
947.166
938.828
946.118
952.188
937.927
938.829
942.991
946.274
948.420
946.203
947.718
936.291
936.223
943.788
943.673
930.703
931.793
934.578
941.438
938.055
927.422
930.258
935.191
933.060
937.666
925.847
924.428
923.895
920.553
920.786
926.962
923.340
933.039
918.686
916.053
929.046
919.110
925.844
925.486
921.239
924.484
915.255
921.024
910.139
916.311
922.977
917.437
911.795
917.510
917.466
913.484
910.008
908.002
909.465
915.650
901.256
907.532
905.924
905.255
910.711
907.284
911.079
902.056
895.679
909.525
906.240
899.811
904.712
899.741
893.848
897.834
904.203
899.452
889.457
894.806
888.210
895.166
889.605
896.964
900.006
894.745
895.554
887.668
882.353
888.667
887.836
892.691
889.480
889.473
889.617
878.180
890.684
885.422
878.752
885.776
880.019
875.607
881.116
885.118
871.774
880.065
882.814
880.268
870.370
878.530
867.568
869.379
874.399
873.932
872.219
865.253
877.462
873.431
869.075
861.029
870.466
871.546
868.470
866.896
862.291
862.698
856.895
857.348
859.408
862.256
860.923
865.689
856.360
856.466
863.072
855.089
861.462
848.525
856.555
853.173
855.213
847.221
858.878
845.087
855.210
857.656
856.768
850.752
851.018
846.362
851.375
851.694
844.508
841.053
844.059
835.685
846.389
836.380
844.887
834.989
844.297
844.962
837.085
833.975
832.445
836.213
839.431
833.568
842.057
839.733
834.227
828.799
836.978
825.352
827.542
827.332
831.624
831.499
827.471
820.793
828.095
820.660
820.701
827.778
821.464
827.530
820.802
824.656
823.720
812.834
824.046
817.847
809.901
810.962
810.498
820.910
809.557
808.894
815.635
809.914
819.949
815.930
820.179
813.939
816.406
812.259
817.212
825.546
817.328
822.287
823.935
822.536
835.313
824.926
827.019
836.023
834.250
843.585
830.811
846.760
845.807
845.182
841.664
840.696
852.030
853.411
844.554
859.707
847.856
850.262
854.492
863.328
866.607
861.728
862.222
864.420
869.913
867.630
872.886
866.029
869.963
881.180
867.651
882.366
871.678
886.924
882.954
877.940
885.513
887.392
891.350
882.072
890.908
894.462
888.109
891.588
892.919
896.595
892.052
894.253
908.284
898.513
899.806
900.616
912.385
909.460
905.982
915.375
922.928
912.506
918.354
916.443
922.366
925.534
928.244
930.543
921.655
935.007
935.830
928.790
929.159
932.740
933.851
939.948
934.150
942.349
935.611
949.076
943.503
947.926
941.724
944.656
959.795
957.761
957.830
961.823
955.360
963.005
955.304
960.778
962.016
972.536
975.823
977.838
975.296
980.733
972.242
973.562
977.818
982.142
977.119
975.526
989.715
983.267
982.261
989.838
995.497
997.105
990.769
995.650
997.783
992.740
1006.763
998.581
995.936
996.512
999.167
1010.442
1005.042
1007.229
1005.398
1017.883
1015.329
1009.732
1019.789
1019.363
1025.996
1024.196
1031.330
1033.540
1033.407
1022.079
1024.312
1036.014
1036.687
1028.560
1034.620
1043.556
1039.223
1035.592
1048.952
1040.632
1046.937
1055.540
1046.912
1044.529
1049.103
1056.723
1048.476
1050.509
1053.574
1061.889
1065.044
1055.222
1070.955
1060.558
1062.492
1071.808
1075.753
1070.659
1074.522
1080.511
1072.770
1078.583
1086.808
1080.255
1080.902
1081.423
1091.348
1088.005
1095.572
1087.198
1095.311
1088.863
1097.663
1100.944
1102.186
1104.426
1097.696
1105.588
1104.263
1107.560
1102.785
1102.870
1116.627
1117.000
1114.772
1112.307
1122.904
1123.974
1118.566
1121.995
1126.475
1118.848
1112.557
1124.122
1114.000
1123.671
1115.028
1125.299
1121.816
1122.173
1119.610
1109.745
1119.176
1106.661
1114.398
1114.366
1112.569
1105.264
1116.076
1105.154
1108.728
1113.432
1114.136
1100.294
1104.112
1108.903
1110.265
1102.475
1100.029
1101.378
1098.944
1102.751
1095.113
1103.807
1098.618
1102.160
1104.541
1099.891
1099.752
1103.955
1096.189
1100.455
1095.120
1088.692
1099.451
1093.598
1091.694
1097.747
1095.030
1098.252
1098.576
1085.531
1082.649
1091.375
1084.994
1093.672
1085.013
1095.166
1080.558
1078.766
1084.708
1079.617
1086.858
1076.622
1089.459
1077.846
1084.311
1082.734
1078.319
1081.706
1072.754
1082.674
1084.778
1076.247
1078.995
1072.624
1073.823
1080.304
1072.747
1067.424
1066.677
1073.941
1071.319
1072.614
1078.339
1070.780
1063.116
1064.975
1065.479
1060.742
1066.401
1065.350
1059.608
1062.645
1068.955
1067.535
1062.107
1066.103
1059.546
1056.060
1058.752
1059.363
1066.797
1059.886
1067.301
1065.603
1056.645
1059.132
1056.395
1057.331
1057.903
1059.184
1050.306
1047.797
1058.760
1058.574
1053.080
1044.849
1044.897
1043.437
1057.300
1044.486
1049.521
1052.736
1045.128
1054.721
1045.367
1052.493
1044.331
1047.232
1050.109
1046.127
1044.431
1042.866
1036.924
1038.442
1038.680
1047.638
1042.679
1037.787
1041.618
1043.707
1044.763
1034.225
1041.869
1041.974
1031.548
1029.017
1025.856
1036.609
1035.015
1033.097
1027.916
1032.061
1028.486
1031.879
1034.821
1021.002
1023.453
1019.168
1031.710
1018.491
1024.058
1017.444
1023.731
1021.292
1018.963
1029.776
1023.979
1021.176
1023.763
1022.362
1018.912
1015.934
1017.437
1017.050
1015.121
1018.765
1009.756
1014.361
1013.626
1009.663
1007.399
1016.562
1013.079
1014.390
1016.951
1010.560
1010.448
1015.379
1013.067
1010.013
1012.765
1003.982
1010.499
997.794
1008.260
997.057
996.866
1006.459
1004.736
997.988
1001.667
996.829
991.469
997.514
988.359
999.130
986.435
996.317
983.414
991.285
987.753
986.205
988.273
978.082
976.708
986.093
975.911
985.320
986.266
971.155
975.098
975.347
970.486
971.362
966.039
966.748
974.592
974.729
963.211
960.985
968.675
971.780
963.085
963.259
960.864
956.787
966.904
956.202
961.579
954.981
954.648
952.177
946.575
944.422
949.554
952.587
953.581
939.181
950.201
952.377
948.787
945.948
936.764
947.956
941.512
936.962
936.778
942.804
937.976
939.818
930.540
930.906
923.948
923.145
924.635
930.516
919.056
919.544
930.625
918.162
913.380
922.458
918.316
915.093
908.498
915.980
915.016
909.586
915.809
904.858
903.445
903.079
905.625
902.523
912.295
896.398
899.712
899.195
906.497
897.302
904.985
902.990
896.930
901.945
888.421
893.965
884.882
889.743
896.116
882.426
887.644
880.987
879.466
891.165
884.499
874.175
876.159
881.875
880.279
876.729
879.416
873.686
875.950
879.698
872.983
873.641
872.078
874.210
869.808
859.857
862.472
862.708
856.374
868.886
864.145
866.694
857.436
863.946
860.259
849.112
849.707
851.014
843.633
845.010
853.995
851.820
845.615
853.108
839.986
847.383
840.931
845.001
838.405
833.099
837.642
831.714
838.546
831.783
835.184
830.070
824.353
837.388
824.138
825.989
818.692
827.828
820.540
825.357
821.905
826.372
822.098
810.736
818.974
808.798
808.773
811.655
808.179
808.343
803.268
809.073
815.812
799.940
799.579
807.684
798.700
804.383
805.371
804.104
793.038
799.794
789.557
802.440
788.389
797.778
786.825
786.856
797.798
793.879
782.991
794.915
792.396
788.696
780.524
783.610
785.741
784.296
777.749
771.102
771.726
781.394
768.732
775.374
773.621
766.222
763.380
765.130
760.066
753.843
757.354
747.396
755.010
749.460
739.782
740.908
738.525
738.058
738.711
732.034
738.487
733.861
722.257
723.998
715.839
724.005
720.410
721.285
712.921
719.142
705.988
713.535
698.487
709.944
706.461
697.955
690.385
693.139
698.541
694.773
692.000
678.007
685.253
674.985
678.762
683.434
681.072
676.584
662.813
663.148
661.606
667.587
659.642
652.823
654.032
649.699
652.888
652.379
648.166
640.104
649.955
643.061
643.946
631.088
633.229
635.543
622.965
627.011
627.475
618.757
615.802
612.274
615.026
616.858
618.354
605.699
607.561
601.907
602.891
609.822
594.575
600.194
597.526
590.334
589.364
586.809
584.439
578.783
577.341
586.685
580.493
571.812
580.780
578.812
562.829
560.503
566.287
555.395
561.486
554.275
563.575
556.551
544.875
553.409
549.608
552.311
548.740
535.840
533.635
535.580
533.322
530.069
524.125
527.656
523.867
530.817
522.705
513.437
516.806
521.187
508.849
512.832
500.683
509.595
501.410
505.657
505.388
491.016
497.282
496.492
482.700
482.101
486.453
483.601
487.059
485.691
481.003
477.969
470.208
476.289
467.229
465.985
458.605
459.959
454.700
462.104
454.608
448.974
447.907
454.178
450.254
444.958
442.017
431.725
443.182
428.420
435.295
434.393
424.351
426.290
431.745
423.753
423.849
410.468
410.432
406.451
402.887
403.761
404.027
403.389
398.169
398.777
393.854
400.763
398.350
386.060
391.693
382.892
380.440
383.075
385.332
382.450
373.739
375.564
373.217
363.700
360.901
361.719
361.575
353.018
352.230
354.466
348.432
349.329
342.585
344.535
344.814
335.837
347.686
339.128
333.772
333.627
332.838
330.601
333.809
329.226
325.221
330.395
326.288
331.886
329.807
323.643
314.828
326.249
314.228
313.611
318.577
308.224
317.360
315.948
309.018
309.830
303.269
298.588
305.227
305.411
298.448
307.246
295.842
297.570
295.626
288.736
288.389
297.081
286.814
290.166
287.929
285.879
288.895
293.288
285.361
279.496
279.879
277.346
279.049
280.974
276.317
267.515
276.196
265.337
274.545
274.115
271.601
270.066
264.347
256.653
260.632
254.865
263.251
253.450
250.822
251.168
250.080
251.732
258.721
244.785
246.938
244.056
241.159
239.240
242.880
249.834
245.349
242.837
242.918
237.517
240.346
240.370
240.314
235.827
235.442
236.387
227.758
229.759
220.042
221.396
223.766
218.857
224.989
216.826
215.259
216.253
211.759
219.989
219.320
208.025
211.556
210.784
212.272
207.218
207.217
207.905
202.215
204.255
198.397
200.270
194.454
192.097
201.064
189.797
192.017
185.654
191.011
189.966
180.283
185.435
177.853
189.653
178.884
174.029
182.088
183.632
174.796
174.941
176.660
165.748
163.165
171.737
167.047
171.251
157.764
157.361
155.814
162.162
165.879
152.156
160.973
155.550
161.838
148.886
146.165
146.995
154.653
154.148
152.835
147.865
149.784
141.022
142.299
133.008
141.052
129.634
130.505
141.075
136.327
126.025
127.145
134.235
125.654
121.634
130.147
126.706
120.366
115.101
126.616
121.399
116.294
124.107
113.984
109.874
106.478
110.129
109.162
104.138
107.740
103.910
97.808
98.368
96.555
93.635
106.969
104.521
92.580
96.422
92.732
85.625
91.137
83.069
96.456
93.431
85.587
87.963
80.367
85.757
86.877
71.722
85.490
77.382
82.145
177.815
180.594
187.800
185.115
185.164
209.923
232.081
214.521
202.014
180.115
206.807
190.839
222.070
160.971
172.726
232.290
218.171
224.885
154.220
215.153
206.831
189.465
159.196
179.098
217.914
165.698
221.773
207.073
177.549
207.342
178.591
174.392
176.182
198.831
157.574
214.762
163.580
169.363
179.393
184.556
212.659
164.426
185.536
210.808
232.759
160.919
174.644
161.530
233.601
228.685
192.169
153.934
162.187
182.773
211.324
161.764
186.590
170.713
184.095
163.664
180.141
187.730
177.723
178.217
210.444
165.480
161.419
152.520
196.979
192.638
167.392
157.670
203.811
174.840
221.795
181.335
198.479
207.156
192.815
162.165
204.482
224.145
209.235
192.280
177.885
181.760
181.309
198.307
211.704
214.561
230.378
176.982
193.760
200.612
219.570
181.623
205.813
179.350
233.138
233.302
93.344
90.975
95.568
125.650
98.366
110.429
88.088
99.137
100.633
123.431
107.879
87.293
107.835
109.330
86.313
127.894
95.552
115.799
84.593
118.337
108.500
124.032
110.391
109.243
123.419
122.818
124.832
101.264
89.434
94.306
108.313
112.703
102.324
119.889
119.866
101.314
91.150
116.249
122.875
100.498
84.368
98.099
86.445
95.464
115.599
100.817
124.698
122.533
119.017
108.433
120.311
100.608
127.214
87.646
113.968
99.741
114.363
123.576
87.147
93.937
88.450
128.096
109.693
104.062
126.896
87.809
86.384
111.585
103.335
109.749
126.338
127.494
86.535
110.253
92.288
95.081
94.210
118.153
89.281
85.952
104.601
126.589
85.444
104.570
95.853
91.543
90.556
129.383
105.797
123.059
111.791
106.536
127.677
99.689
102.642
107.346
112.788
116.655
94.306
92.705
85.742
86.433
126.666
119.468
121.872
93.265
104.957
121.536
115.867
99.807
126.626
89.009
121.921
110.419
97.966
108.061
106.025
102.214
96.269
107.149
129.225
114.017
92.569
84.732
111.485
86.131
91.197
107.621
98.731
89.212
102.089
115.570
101.531
102.329
94.408
98.710
115.415
124.820
89.095
96.066
121.606
95.122
123.269
113.875
111.526
111.496
127.693
86.482
85.776
100.901
115.427
115.126
129.254
97.679
93.530
126.077
119.414
129.385
97.662
111.909
101.995
120.274
99.844
122.718
86.989
118.722
115.179
84.546
101.920
87.488
109.510
116.321
102.746
106.290
111.753
94.882
90.447
99.182
124.337
87.172
117.367
124.352
121.140
87.452
94.272
100.892
102.381
91.365
107.804
99.703
108.409
103.317
123.225
114.541
107.133
85.892
106.649
83.852
95.538
102.231
92.294
117.901
124.777
114.468
118.198
107.091
90.093
127.072
102.610
129.634
107.823
116.265
115.092
92.978
103.445
94.338
98.324
108.448
115.716
120.974
118.545
123.335
88.042
128.127
86.321
95.500
88.649
97.054
128.974
123.930
92.740
86.665
126.109
92.727
102.641
102.914
105.581
113.506
91.198
94.074
124.440
127.927
94.324
91.553
88.520
96.862
111.350
96.907
103.789
102.299
104.861
88.229
99.126
96.328
97.026
109.594
89.280
124.965
128.068
91.902
123.209
121.177
91.213
99.008
120.201
128.327
124.823
122.155
126.343
90.460
120.463
127.126
123.772
105.273
114.393
102.627
88.935
97.594
94.054
112.126
93.911
91.109
129.060
88.913
93.939
123.498
115.070
129.818
100.858
128.538
122.419
128.844
84.638
117.384
120.457
125.829
111.053
128.029
101.397
96.460
112.799
91.075
105.734
125.352
106.198
89.344
90.580
116.793
124.765
95.687
89.519
88.612
101.131
106.022
108.127
120.232
92.739
123.901
113.984
99.788
124.390
124.232
91.261
120.152
87.908
100.452
90.965
124.360
110.397
83.918
90.918
104.496
107.317
117.507
93.202
125.460
88.624
129.627
90.807
103.518
105.686
105.172
95.134
108.213
111.025
100.579
102.510
111.320
120.824
106.874
119.792
128.735
117.835
126.423
86.002
126.011
127.763
119.817
90.472
116.831
95.375
129.158
103.782
