798.948
793.395
805.925
802.518
798.763
792.970
799.319
800.344
802.234
798.369
800.648
792.478
792.421
790.128
797.688
788.140
799.052
789.953
782.672
794.519
788.016
789.543
788.292
794.896
794.694
784.013
792.365
779.170
781.875
791.984
777.281
777.806
784.299
776.602
782.436
787.079
783.004
783.055
782.447
772.523
779.942
780.066
780.068
779.774
778.966
771.688
774.526
779.079
773.498
768.873
764.939
765.651
765.775
766.308
769.661
766.432
770.322
762.302
763.795
774.052
770.278
760.093
759.897
763.314
771.572
762.274
761.937
761.112
758.852
755.065
757.153
764.528
764.242
752.467
750.938
758.056
762.152
754.466
748.092
760.599
750.462
749.172
760.957
758.101
747.216
746.069
752.987
756.676
747.021
743.674
742.679
749.193
741.533
753.189
741.348
744.275
748.380
750.212
741.196
747.893
748.660
739.193
746.674
735.486
742.611
737.113
736.613
734.817
732.501
740.135
743.674
738.125
738.485
741.361
739.977
741.917
730.128
733.796
736.358
743.494
741.319
736.777
749.363
739.076
742.299
747.678
743.867
755.147
741.027
748.262
743.999
751.839
751.330
757.487
753.983
751.225
761.373
753.931
754.915
751.469
764.814
757.240
760.716
759.556
770.027
769.826
767.280
766.830
760.652
761.716
767.399
764.040
766.182
777.827
772.427
779.614
770.217
780.779
782.242
781.990
773.495
776.916
784.648
777.946
785.152
780.489
783.527
781.743
788.859
792.666
780.772
786.925
782.442
796.237
784.606
786.179
794.535
802.809
801.007
801.425
805.258
801.089
803.591
799.459
800.330
799.310
801.170
798.969
799.451
810.178
799.185
810.605
805.678
806.639
810.431
805.746
806.158
808.866
807.170
814.978
809.245
815.432
810.679
822.179
818.794
813.628
814.564
826.875
824.177
828.999
824.617
834.843
828.618
823.626
833.930
825.612
832.179
835.558
840.633
834.641
842.285
838.061
832.938
846.286
837.354
835.961
839.603
835.858
843.245
838.346
848.633
849.617
850.079
853.001
854.859
842.316
854.588
859.624
854.571
860.255
851.971
854.919
852.705
854.768
857.738
860.185
852.770
856.342
861.788
855.949
860.778
870.408
871.856
871.661
863.147
863.783
867.882
878.347
867.999
873.725
879.035
882.210
877.270
875.734
871.590
881.150
882.534
885.745
880.835
874.419
879.851
881.574
881.834
877.888
888.743
895.340
881.221
886.800
896.313
887.325
888.225
900.561
894.429
896.732
889.141
904.027
901.235
900.806
903.111
905.141
898.916
903.527
909.239
900.478
900.261
903.939
913.324
904.838
914.168
911.366
915.494
911.963
919.490
911.546
921.458
918.824
913.374
917.474
923.876
917.126
925.620
925.237
921.738
917.897
929.233
922.247
926.681
919.663
920.651
917.409
920.875
919.523
929.644
926.546
913.904
918.145
914.246
916.221
924.151
914.357
919.396
910.999
921.462
921.549
920.235
922.906
923.368
917.294
920.646
912.028
919.952
915.315
917.120
914.984
909.367
906.417
909.240
914.525
919.874
910.661
909.327
919.257
905.511
905.775
916.751
906.861
916.627
906.232
907.386
901.864
906.975
908.021
908.210
906.955
911.211
906.175
901.898
901.960
909.794
899.114
908.608
912.139
900.724
896.665
906.865
910.287
904.895
907.880
910.427
898.749
895.353
895.292
894.172
897.284
895.539
903.806
895.706
904.546
898.629
906.410
904.923
893.386
895.338
900.578
890.956
895.842
890.701
899.393
892.670
898.523
897.652
893.569
895.253
892.100
885.983
886.219
901.014
887.391
885.673
885.332
885.647
895.615
888.522
884.906
885.255
889.770
892.103
892.503
895.088
887.538
891.487
883.143
882.775
885.429
879.483
888.443
891.027
882.214
884.677
886.946
889.418
888.966
889.709
876.630
890.287
878.406
879.105
886.918
881.018
878.164
874.707
882.721
886.666
879.394
882.899
886.063
872.662
879.115
884.844
880.395
882.143
875.762
872.589
879.555
879.435
875.692
883.784
880.742
873.625
880.790
881.731
879.529
877.879
871.853
867.876
868.045
866.348
880.144
879.848
871.228
875.548
870.182
867.511
876.547
870.657
867.202
861.427
871.550
870.285
871.289
868.801
875.299
873.853
860.434
867.987
873.386
868.860
861.226
867.691
870.241
872.228
867.968
866.178
866.807
869.738
854.986
866.012
854.435
859.680
859.958
857.043
864.973
864.386
867.793
856.060
861.887
856.583
862.775
854.693
862.864
860.055
859.198
864.952
849.821
855.127
862.335
859.953
854.358
860.396
858.591
855.408
848.825
850.119
842.829
852.294
847.203
846.661
839.339
839.058
848.028
839.779
840.113
836.050
846.855
831.801
834.671
831.051
835.528
828.488
837.996
828.571
827.738
829.742
827.962
833.032
835.191
828.890
821.076
826.920
821.754
823.786
829.765
817.792
821.235
828.128
823.252
822.653
818.876
812.918
814.650
823.170
820.046
814.703
813.144
810.700
807.022
807.947
815.191
813.326
800.362
803.228
812.440
800.059
798.418
808.905
803.515
804.588
796.622
793.908
804.998
797.954
803.919
788.692
793.090
790.147
789.982
797.629
787.704
790.386
791.766
794.835
793.323
785.660
780.408
778.678
786.451
775.877
787.051
788.065
778.320
781.987
780.451
775.038
782.987
780.138
771.898
779.195
778.455
770.955
765.639
764.106
768.379
776.478
770.332
769.665
769.876
768.348
757.158
759.214
769.808
768.434
757.370
755.424
756.349
750.548
751.649
749.087
748.156
762.206
756.595
756.430
758.026
751.644
743.619
741.904
755.201
750.395
753.550
740.459
739.056
740.288
740.320
734.525
742.772
733.988
744.872
736.021
730.855
736.916
732.131
733.550
735.390
731.145
729.884
733.943
731.681
722.580
724.484
725.868
731.629
733.371
731.047
729.818
723.314
718.329
715.171
718.142
712.703
713.009
714.735
716.476
709.943
716.609
722.872
716.690
709.065
716.243
713.310
716.969
707.120
715.859
711.337
711.669
713.030
703.095
702.623
697.834
702.068
702.843
695.363
701.087
704.556
699.032
692.888
696.990
694.765
696.786
692.499
686.566
686.198
683.868
694.042
684.989
682.892
689.024
692.786
687.172
680.801
680.831
688.442
686.261
681.095
673.523
674.654
676.197
680.958
683.764
686.324
680.383
690.930
679.734
676.980
682.107
693.868
694.904
684.743
687.747
689.835
693.649
690.781
688.965
691.056
699.744
701.140
696.267
704.315
697.490
700.891
699.360
706.004
696.374
703.083
710.271
709.685
704.360
707.555
713.232
704.574
715.702
706.816
715.200
716.836
708.803
712.591
716.309
717.136
715.650
720.673
722.390
716.286
716.930
717.072
728.137
718.842
724.406
717.841
726.636
735.136
728.949
736.897
724.507
730.945
725.165
725.542
731.210
727.155
742.699
739.891
744.951
736.203
738.352
738.193
735.241
745.996
744.833
751.590
741.309
750.459
748.329
749.847
755.549
744.029
750.854
748.572
747.573
747.976
750.069
747.661
757.918
759.537
752.956
765.038
767.611
766.727
757.673
767.621
769.603
757.944
764.644
763.660
760.380
764.419
764.710
771.063
776.767
779.047
773.464
766.312
777.515
770.851
778.447
775.898
777.102
775.468
785.008
775.995
782.953
786.587
785.502
779.441
792.273
785.673
790.925
782.136
787.519
798.472
783.730
790.347
793.657
787.611
799.026
790.414
801.657
805.701
803.241
802.684
803.433
794.795
796.189
808.349
801.348
802.898
801.077
804.121
805.815
813.384
813.913
810.151
813.853
811.855
821.338
807.306
816.748
823.945
814.374
812.776
816.777
812.631
821.630
816.269
827.654
816.555
822.881
821.259
824.769
826.174
825.948
833.722
827.577
829.909
838.282
837.683
842.097
835.342
830.155
837.068
838.238
832.896
834.331
840.625
841.951
840.103
848.501
841.996
850.920
848.625
840.960
855.968
844.559
843.099
846.229
859.381
849.315
860.329
862.412
858.014
862.253
863.997
865.862
854.337
863.459
861.743
864.175
864.708
860.738
870.307
865.828
873.342
871.266
868.777
874.280
872.009
881.525
880.042
878.969
882.955
872.858
886.574
875.385
887.142
879.278
889.363
888.740
892.108
888.430
897.500
894.456
894.342
891.652
905.260
894.059
900.452
900.939
900.042
902.915
906.755
910.176
913.868
909.943
915.733
911.158
908.727
923.887
918.988
916.162
922.854
929.185
929.406
919.440
929.862
931.475
935.621
934.747
924.851
938.940
926.709
942.394
929.561
939.054
936.078
935.539
948.158
943.604
945.063
943.846
950.634
943.279
956.957
947.508
960.291
953.390
956.051
962.563
959.086
964.593
955.805
969.557
961.840
971.428
960.712
974.883
974.634
969.816
974.153
965.919
972.568
968.635
980.691
971.143
981.727
987.314
989.414
992.110
987.673
984.413
982.583
995.437
990.188
999.764
988.758
999.103
998.348
997.701
994.773
999.208
1009.931
1005.214
1007.036
1014.294
1010.237
1002.552
1005.791
1012.321
1018.535
1014.386
1012.581
1020.049
1021.407
1017.289
1019.648
1025.522
1023.762
1028.686
1024.809
1024.191
1028.969
1033.660
1024.543
1032.553
1036.318
1035.992
1033.116
1035.968
1044.057
1039.659
1035.914
1047.724
1039.389
1041.336
1047.811
1056.889
1058.564
1048.988
1056.124
1058.731
1054.194
1058.728
1066.431
1054.419
1065.543
1070.641
1066.726
1067.628
1070.178
1072.934
1068.952
1074.674
1080.252
1076.942
1070.727
1077.954
1071.767
1083.361
1076.438
1085.422
1084.467
1089.669
1094.390
1090.098
1087.448
1086.040
1086.557
1088.535
1090.396
1093.126
1099.450
1094.929
1103.333
1108.884
1104.921
1107.046
1100.385
1107.686
1104.139
1106.860
1116.217
1108.795
1114.731
1118.189
1118.330
1121.510
1112.499
1117.917
1122.335
1123.582
1119.953
1119.654
1131.724
1123.395
1133.088
1139.801
1128.590
1141.801
1133.271
1144.390
1132.365
1127.923
1138.866
1131.196
1128.647
1136.395
1131.547
1126.062
1133.522
1124.850
1125.420
1132.117
1120.388
1119.974
1124.313
1117.562
1122.594
1115.926
1113.733
1116.166
1110.753
1121.791
1113.256
1116.220
1109.779
1106.955
1103.546
1107.647
1105.708
1107.170
1109.165
1100.992
1103.113
1101.577
1097.815
1091.396
1100.964
1103.575
1100.822
1088.735
1094.912
1096.875
1095.295
1095.584
1092.911
1084.480
1084.737
1079.171
1081.249
1083.639
1082.169
1079.164
1077.054
1084.905
1084.785
1081.378
1068.391
1073.235
1072.942
1071.538
1079.557
1071.761
1061.823
1074.321
1064.645
1064.325
1058.313
1064.056
1067.791
1065.129
1059.667
1062.071
1060.866
1050.595
1060.529
1058.060
1051.072
1060.358
1058.293
1057.248
1043.663
1041.244
1055.685
1044.474
1051.028
1037.671
1037.982
1043.681
1042.960
1040.539
1036.523
1036.064
1035.705
1033.385
1033.844
1036.259
1039.504
1023.805
1032.394
1033.079
1033.684
1028.217
1022.249
1021.183
1020.292
1029.501
1023.160
1016.359
1014.178
1012.037
1011.978
1021.269
1023.049
1013.373
1012.687
1017.262
1017.750
1004.456
1001.073
1014.393
1005.879
1012.011
1002.548
998.528
1007.979
1002.060
1005.898
994.317
1005.368
989.981
999.633
1002.270
987.895
994.299
988.878
985.554
990.788
994.784
990.707
990.604
982.226
980.221
975.961
982.071
973.292
971.817
980.047
979.217
978.603
977.487
969.505
980.554
963.863
967.325
963.580
965.951
969.722
962.076
970.819
961.182
961.161
956.233
963.494
960.729
965.494
951.707
952.578
952.854
955.280
946.610
952.613
943.793
955.245
947.056
941.300
948.140
946.846
948.924
935.815
937.920
947.581
940.155
945.765
943.514
938.305
938.241
939.947
927.459
931.651
936.395
925.981
932.416
924.495
929.080
927.305
922.683
919.148
916.815
922.589
68.036
89.018
87.113
66.718
86.401
85.644
71.291
76.255
64.806
77.062
76.193
63.331
70.438
79.061
76.124
75.663
70.695
71.863
87.749
71.114
77.974
79.606
82.765
81.312
88.880
90.345
71.094
65.828
89.021
80.313
87.553
83.096
61.704
86.602
72.726
86.916
77.489
68.834
75.959
83.774
71.569
70.254
85.998
80.024
80.790
84.057
67.518
260.490
288.197
236.393
213.788
232.051
272.989
252.176
262.164
240.474
232.454
244.146
254.023
195.068
261.572
274.981
257.912
264.178
239.274
196.324
228.273
211.178
271.690
203.877
231.654
285.538
204.967
210.674
245.121
199.300
197.336
207.856
252.627
211.421
238.952
229.253
278.037
254.589
220.471
226.112
223.143
242.258
201.861
273.258
198.273
281.827
195.868
249.345
212.290
226.175
255.150
196.752
278.434
232.340
134.145
125.299
113.489
152.005
150.991
120.147
140.023
150.899
118.889
140.020
154.990
148.953
138.553
149.079
152.676
104.532
142.438
110.702
148.295
151.685
118.592
140.513
114.913
102.248
104.792
149.990
125.220
136.236
103.979
142.484
147.309
114.977
114.976
111.449
149.056
135.559
134.191
132.319
105.680
136.865
120.787
133.658
139.936
144.659
142.079
147.998
100.877
119.726
125.269
111.153
108.320
126.851
109.141
122.100
133.762
134.756
124.580
132.698
113.877
150.284
139.043
111.790
132.400
110.213
135.212
138.572
115.594
98.435
135.875
121.666
99.125
128.144
111.858
136.008
107.229
123.748
120.100
114.912
125.761
106.220
99.421
116.230
119.691
145.429
125.690
132.976
104.914
137.024
126.806
133.751
146.042
120.295
103.613
105.338
129.809
114.393
108.321
135.342
135.070
100.096
133.312
144.458
119.557
139.242
131.638
113.608
142.251
102.572
110.382
127.591
140.345
114.241
111.248
96.559
128.330
131.673
126.144
109.895
132.582
112.935
132.306
97.213
142.010
98.288
116.971
103.801
131.665
146.039
108.656
142.165
122.569
122.962
122.184
137.985
105.277
127.757
120.787
129.725
137.956
131.885
136.900
126.849
97.235
120.605
143.277
125.761
116.278
130.687
97.757
98.731
115.188
97.847
140.038
105.382
135.067
100.314
127.315
115.371
100.373
105.461
99.825
101.480
130.896
123.030
101.595
139.353
110.963
117.480
123.987
138.392
107.882
98.618
116.106
107.981
107.551
103.731
116.689
111.854
141.385
100.824
121.836
113.123
117.593
101.480
111.244
115.647
104.000
123.577
144.476
130.563
100.734
128.349
137.846
129.917
120.199
101.479
117.438
111.731
104.998
100.781
142.416
117.208
128.170
135.844
103.982
105.617
102.958
146.535
107.636
103.049
96.507
118.284
97.281
120.874
127.707
118.580
108.484
120.843
134.855
131.877
97.028
134.835
145.447
105.472
133.082
121.679
129.860
123.340
105.946
127.934
126.356
121.813
118.239
110.383
98.169
143.361
101.151
132.970
108.395
116.925
131.361
138.557
142.248
106.483
134.017
97.638
111.645
138.345
143.150
139.919
106.052
111.354
110.556
105.535
144.685
123.599
133.235
137.872
121.842
105.087
97.624
128.766
144.876
112.382
103.390
129.441
121.407
139.344
130.945
133.452
95.461
117.851
145.141
114.477
121.466
145.809
138.331
137.214
133.920
138.875
112.289
102.681
104.870
98.188
144.040
115.078
121.894
121.004
103.562
112.054
136.044
121.320
107.062
104.232
125.075
104.756
100.212
99.732
126.047
146.570
111.860
107.454
141.575
118.707
140.625
124.891
125.136
129.555
138.015
115.462
112.773
127.145
116.275
140.479
96.205
123.353
139.000
118.069
105.601
112.877
102.331
144.324
111.069
138.966
107.874
123.293
124.071
146.206
96.063
97.906
127.476
124.635
142.087
96.629
108.321
113.791
115.580
127.918
138.230
145.091
114.141
97.871
98.555
100.606
126.231
97.909
101.777
103.972
130.928
126.862
132.931
113.643
98.439
103.807
118.807
105.503
98.075
107.025
122.312
96.337
127.708
118.515
145.828
130.183
114.884
127.622
136.618
119.937
130.908
105.752
110.946
94.839
95.363
111.247
114.499
99.396
121.319
129.629
112.267
129.348
104.226
113.895
113.957
138.815
132.119
133.953
115.915
99.706
96.200
142.926
118.713
113.193
111.513
110.771
117.315
115.892
105.865
132.120
98.730
117.315
123.154
135.119
116.712
109.074
118.610
126.516
122.540
127.229
121.619
112.978
106.405
96.482
134.842
126.249
110.781
118.436
128.875
115.120
118.075
105.472
143.236
101.074
96.409
138.105
141.344
111.195
127.653
102.363
105.055
109.760
104.931
135.191
117.277
144.074
135.431
140.680
141.140
104.316
125.680
136.957
109.011
96.335
108.274
141.897
140.505
109.486
138.647
118.147
131.044
136.531
132.823
115.788
140.838
140.963
101.375
112.773
139.392
95.371
138.660
108.734
104.033
134.463
141.046
100.737
98.674
112.506
103.137
98.378
134.956
133.759
128.332
108.117
117.738
104.033
145.563
125.471
119.410
141.262
137.641
139.627
128.083
114.840
116.433
138.066
107.385
142.236
109.856
106.251
104.730
130.754
101.534
95.273
98.027
117.571
146.331
104.038
136.259
120.371
143.508
120.916
122.636
120.715
127.312
97.348
112.840
132.419
121.050
112.205
106.682
96.277
118.447
113.934
101.524
134.518
117.503
100.547
128.174
128.236
127.371
126.139
105.275
115.128
107.508
127.535
141.598
104.801
139.711
123.532
107.776
129.477
102.599
118.254
142.655
110.918
135.543
130.877
128.557
118.038
106.717
103.749
117.913
138.914
124.910
117.009
109.115
117.411
131.290
145.341
128.910
115.887
100.263
141.736
135.245
136.398
97.664
141.031
128.827
116.357
141.383
113.250
132.406
145.614
131.169
100.946
104.092
107.413
97.912
143.404
97.183
131.078
98.672
95.843
112.594
116.090
99.923
96.492
139.446
102.836
132.545
115.846
123.002
109.027
138.434
146.470
124.261
121.279
