853.645
858.885
854.658
855.391
863.498
862.985
856.844
865.320
864.954
859.435
861.090
862.862
864.961
862.158
864.258
869.542
867.705
855.797
864.972
868.409
864.075
872.047
864.873
860.491
859.409
864.600
871.514
865.492
863.382
862.428
870.167
871.999
863.604
873.405
870.881
872.173
877.492
874.118
879.265
875.159
873.996
877.846
870.475
870.733
878.552
879.614
877.866
880.150
870.631
870.416
878.535
885.170
878.476
870.018
870.974
884.684
883.823
871.415
879.089
877.451
878.215
880.179
868.108
869.797
869.197
874.484
877.436
872.559
879.577
868.414
872.459
873.885
874.290
875.785
880.422
874.585
866.218
870.627
874.409
870.654
865.857
876.875
873.731
867.370
866.885
866.412
866.015
867.464
875.373
868.078
865.650
874.781
874.908
865.366
864.085
874.633
869.496
875.049
875.744
869.927
871.226
868.609
867.364
876.003
870.398
871.839
869.458
871.116
868.639
874.335
871.309
865.069
874.386
870.501
861.239
871.075
863.920
867.891
862.297
872.296
864.810
864.690
861.717
867.724
867.090
864.916
859.487
868.667
863.218
868.737
872.172
872.284
864.281
857.693
857.045
861.429
864.930
865.370
861.336
871.716
858.052
855.724
858.666
863.032
865.570
855.269
857.928
866.234
857.248
869.496
858.904
855.082
855.537
858.773
864.289
856.339
867.182
853.555
863.010
858.523
853.805
855.912
852.746
858.649
856.834
854.934
852.814
859.163
863.245
857.607
855.033
862.775
861.780
863.679
857.096
865.259
856.410
863.008
855.792
859.562
853.970
864.503
857.112
857.354
858.016
849.297
863.680
860.827
852.874
848.334
858.314
859.389
848.551
851.501
853.184
853.153
858.584
852.346
856.252
852.963
860.990
851.864
859.432
861.916
851.208
850.999
852.249
857.594
852.097
860.786
850.130
858.647
858.460
845.050
849.702
853.038
853.628
858.037
851.549
852.782
850.991
853.677
843.316
855.732
854.759
848.191
845.222
845.338
843.067
847.042
841.894
850.610
847.624
849.323
846.816
842.691
853.072
845.142
843.106
844.290
840.420
854.071
855.038
852.598
855.481
848.106
852.546
852.231
842.490
841.347
841.976
846.375
853.500
842.204
849.686
843.995
839.993
838.424
842.878
836.629
847.022
841.427
843.891
849.220
843.385
834.456
847.723
846.202
849.026
843.889
841.038
843.429
834.795
837.074
841.586
844.743
845.916
840.869
832.364
832.959
833.088
830.635
841.843
844.133
842.333
833.259
833.719
839.438
831.457
839.449
827.565
837.016
829.116
840.804
827.541
836.675
829.080
840.649
832.240
829.055
827.857
836.523
839.338
830.207
832.388
836.205
830.184
822.396
823.123
823.974
835.793
834.502
825.557
834.329
829.349
829.730
825.068
828.367
831.159
823.131
826.715
819.524
829.740
817.473
827.741
819.036
825.407
831.239
826.510
825.331
828.423
828.482
823.346
822.484
824.576
824.968
825.247
827.659
816.417
827.894
819.246
821.006
821.107
817.497
814.488
823.917
817.579
816.666
810.435
817.131
817.781
810.109
823.509
809.966
810.669
823.357
811.219
814.061
812.360
815.433
816.182
821.692
812.855
814.283
819.458
816.121
817.464
820.010
805.590
805.969
809.904
816.735
814.916
811.657
807.653
817.930
807.614
811.376
813.608
815.372
809.101
803.319
808.453
815.617
800.076
804.244
804.574
799.200
801.557
806.540
797.937
808.739
804.353
809.642
801.848
810.305
797.804
801.567
808.810
809.349
802.167
810.438
802.075
795.705
798.351
802.343
809.066
800.551
807.595
795.843
807.262
800.695
799.361
794.297
803.918
805.167
795.308
790.387
800.784
802.937
800.010
798.016
790.627
797.989
793.628
788.711
802.745
789.731
794.322
798.024
800.966
786.048
789.666
793.284
799.571
790.032
795.969
784.328
784.840
797.049
797.804
793.275
794.385
790.478
797.054
790.463
795.264
789.646
787.697
794.857
795.837
792.138
790.858
787.290
780.275
778.568
778.449
783.248
775.909
775.357
776.314
785.549
782.070
780.007
771.531
781.995
771.388
782.704
772.046
768.222
770.452
774.232
778.432
775.904
778.084
762.721
771.845
768.569
773.228
768.792
768.918
764.556
759.119
771.036
764.359
765.203
760.613
764.629
759.852
761.557
764.709
764.167
756.857
762.105
752.278
751.378
756.273
756.462
759.335
752.479
742.536
754.356
742.106
750.965
747.917
739.233
752.294
744.291
738.032
742.240
739.931
734.717
748.183
748.328
741.745
746.588
745.803
745.359
742.935
739.793
736.411
736.267
739.480
738.698
729.743
730.075
725.562
737.557
730.121
729.285
723.671
729.434
719.128
732.514
717.745
731.789
724.411
715.343
723.974
713.374
714.473
716.856
717.887
716.814
724.953
719.067
712.247
718.346
708.768
711.118
717.725
718.519
709.618
712.162
707.570
710.403
703.360
702.377
713.252
712.937
712.329
696.914
706.617
698.575
706.324
705.115
701.413
706.006
690.743
701.641
701.914
692.977
690.691
692.081
697.729
691.031
687.738
698.257
684.232
690.491
687.994
681.781
680.930
694.354
687.681
683.435
680.882
677.564
687.460
679.884
680.654
687.754
681.783
685.927
683.714
677.646
677.514
669.083
676.738
674.136
673.867
676.380
673.478
675.643
673.586
667.998
675.919
669.691
660.834
661.590
662.153
664.629
672.751
662.929
663.095
657.943
655.427
664.814
660.082
664.200
657.801
664.693
658.414
652.514
650.694
654.991
654.868
652.237
659.576
645.906
647.018
651.369
645.591
647.522
645.548
649.237
639.973
651.541
643.771
642.006
650.896
643.088
638.909
646.354
644.071
634.308
639.211
639.009
632.812
629.029
628.631
640.884
638.857
641.216
639.207
628.499
629.974
637.141
637.814
641.082
637.571
636.637
632.892
635.253
634.276
631.070
638.675
629.974
635.669
627.671
637.939
627.285
634.227
632.772
632.113
628.932
628.295
631.581
633.395
628.214
639.594
634.153
629.787
629.549
628.039
628.601
630.563
624.395
638.647
629.074
624.847
630.172
639.775
632.420
635.534
633.651
637.504
633.174
631.289
628.372
637.927
633.546
632.719
627.610
630.327
625.305
637.499
631.562
634.012
630.871
628.131
633.219
636.457
634.678
636.314
635.789
622.056
631.332
634.204
635.852
632.053
634.973
630.490
628.626
625.140
626.553
636.296
630.503
629.382
623.468
620.772
636.069
622.641
631.214
627.398
623.085
634.505
626.327
625.595
620.457
628.395
628.239
624.718
631.788
631.308
629.678
628.708
619.496
633.733
625.924
626.997
632.942
623.142
626.179
629.844
619.932
633.941
631.219
633.320
623.326
622.879
631.137
628.550
626.541
624.348
624.978
620.860
625.527
621.372
620.582
622.433
620.781
631.893
616.917
624.295
621.149
618.269
619.096
616.712
618.139
628.720
622.580
621.067
622.373
617.111
618.951
619.977
626.192
628.459
628.581
619.215
624.497
617.718
624.359
625.108
630.229
623.593
624.023
615.781
627.548
628.231
616.351
628.188
629.678
628.509
618.997
620.374
617.676
618.406
613.664
616.290
626.008
625.491
616.764
623.572
613.022
620.628
624.589
617.834
615.966
614.151
616.984
620.445
612.819
624.751
626.234
616.331
618.032
624.097
621.870
617.035
613.612
623.942
622.281
625.521
619.418
621.431
616.614
613.716
616.197
613.515
615.486
620.256
621.461
615.750
612.430
625.892
616.274
617.546
618.737
621.541
618.698
621.492
617.655
623.765
619.736
631.852
631.657
634.830
630.590
633.841
629.978
627.757
627.983
636.951
631.333
639.865
636.705
639.832
641.839
645.958
645.179
647.100
651.949
650.291
645.789
655.488
646.484
657.627
658.597
658.025
653.877
657.620
653.343
668.509
655.952
664.169
671.336
666.870
672.105
667.045
663.539
669.769
674.107
681.488
668.160
680.808
684.050
671.384
674.970
683.356
685.780
687.673
686.608
683.906
691.270
682.889
695.585
698.540
688.109
690.717
700.159
700.923
691.142
708.067
700.260
710.766
708.065
707.130
701.845
708.345
715.474
709.650
712.085
707.206
713.665
719.039
710.414
711.109
717.775
728.258
716.899
722.736
730.874
719.129
728.978
733.493
722.621
726.358
725.788
732.996
729.238
735.327
734.654
736.366
746.164
745.098
740.626
749.316
745.871
740.104
746.713
753.043
753.628
746.398
757.011
758.516
748.910
764.450
758.126
763.913
755.949
764.013
768.996
773.391
768.267
775.244
766.651
772.387
765.686
781.199
772.106
771.985
770.592
772.701
782.066
776.805
782.738
783.095
783.867
792.416
791.552
790.373
794.851
797.550
787.876
798.385
797.551
794.230
790.869
801.031
795.126
803.113
796.823
803.018
813.282
806.053
816.835
812.578
812.849
808.001
811.347
812.055
814.958
810.357
811.909
820.415
815.492
816.434
830.491
827.500
834.364
827.143
831.634
835.680
824.695
828.219
827.385
840.011
830.838
835.274
835.733
837.233
849.812
846.075
839.948
841.700
847.236
847.091
848.850
852.038
860.547
859.585
849.780
856.154
853.578
861.165
854.342
866.301
869.130
859.383
858.837
863.865
876.996
874.757
872.508
870.853
878.299
874.655
879.469
876.057
72.540
81.200
62.896
59.080
62.340
60.087
78.956
73.428
77.001
77.189
65.841
64.390
70.957
54.218
78.912
59.442
70.965
57.500
58.952
73.481
53.235
79.251
58.623
74.776
70.494
55.406
54.084
71.734
81.172
68.550
73.499
64.206
68.959
59.834
55.035
55.130
68.639
75.002
63.076
78.299
69.644
73.627
75.199
70.011
68.782
55.775
64.618
73.199
188.110
184.599
200.475
259.969
182.736
262.652
187.696
214.576
201.461
230.747
188.429
260.453
255.822
198.077
229.032
196.098
190.205
185.247
248.966
172.699
206.405
190.618
206.753
207.231
226.590
259.172
170.743
254.202
215.001
232.945
243.195
231.701
188.504
260.978
209.475
260.924
205.067
243.789
260.722
202.828
214.279
257.655
189.685
215.260
240.293
235.770
197.196
236.151
234.219
252.682
246.085
223.940
119.032
123.464
117.349
136.962
103.651
130.168
131.134
98.704
129.475
120.256
97.878
119.839
141.355
134.574
111.276
141.098
137.928
134.941
98.776
139.114
103.111
116.469
144.711
144.191
127.658
121.654
112.632
120.275
133.404
138.532
106.722
100.165
98.125
126.211
138.039
96.700
97.941
108.844
129.749
95.789
102.941
141.921
100.352
108.701
108.608
110.884
116.069
141.130
126.610
146.325
103.850
113.277
129.629
133.052
112.290
98.739
105.986
146.490
112.188
132.319
139.786
108.680
144.303
101.968
134.428
103.519
133.066
101.959
126.505
145.055
110.850
114.841
142.371
105.703
104.778
130.100
139.053
101.646
113.910
107.223
120.256
143.615
95.710
99.893
118.370
95.943
110.993
140.355
121.725
134.807
113.596
132.285
98.185
129.788
114.749
114.495
133.988
123.469
97.276
121.788
98.814
145.037
114.136
96.810
140.196
112.520
133.809
126.752
136.794
110.529
126.835
107.847
143.284
109.933
140.874
95.782
130.672
126.653
143.983
123.437
132.992
131.076
130.493
118.390
120.548
101.474
146.147
106.188
131.483
106.267
115.776
117.916
98.873
138.717
118.993
120.779
106.613
126.956
140.414
131.784
108.289
146.085
107.450
125.916
140.514
119.223
136.969
117.083
112.114
132.938
109.217
130.553
131.587
122.835
113.786
116.716
111.329
101.450
126.158
116.411
109.101
97.634
133.102
127.116
120.980
113.078
126.950
119.575
111.657
106.061
136.828
143.334
116.937
127.361
138.225
118.744
139.910
130.420
128.862
117.490
147.188
105.267
120.159
127.228
112.758
102.161
108.855
125.323
134.549
138.399
133.518
108.960
139.672
99.100
100.680
114.963
129.131
143.155
107.947
102.512
132.656
98.028
144.829
115.380
149.208
110.503
105.501
139.492
112.031
141.856
114.229
135.944
120.016
125.515
131.195
145.576
108.635
121.504
116.301
108.586
136.915
107.329
116.766
119.234
109.313
145.715
108.086
149.428
141.563
108.748
125.762
142.370
136.353
149.576
127.267
113.295
150.298
145.966
123.891
127.156
147.913
144.659
121.205
107.300
149.112
140.152
105.887
139.462
135.157
110.932
116.386
144.147
132.632
116.720
105.625
135.412
123.036
115.087
131.214
101.025
131.791
131.373
121.411
120.995
127.483
146.898
145.184
121.247
120.117
111.438
105.001
149.554
117.667
106.152
119.899
103.440
129.269
132.264
105.157
119.841
128.062
122.058
143.777
101.576
137.675
119.669
151.758
137.606
113.629
114.606
127.511
135.073
108.910
116.432
151.624
138.979
132.157
130.738
115.377
102.974
122.319
131.874
141.645
131.601
120.690
135.998
136.826
127.381
115.437
107.563
112.451
111.842
135.394
104.949
138.026
116.900
150.695
106.128
132.002
152.489
135.760
130.851
137.079
139.089
140.554
123.806
134.445
101.282
122.135
115.081
129.968
120.575
109.994
132.872
115.983
117.520
112.935
126.938
141.155
138.868
126.947
148.665
150.120
141.943
108.779
102.311
138.388
150.308
114.255
128.515
125.708
130.202
126.397
138.271
149.596
115.892
151.216
145.382
123.141
140.105
118.859
124.077
128.703
114.304
147.439
102.366
117.441
124.050
123.709
148.777
103.220
106.559
131.299
131.419
115.957
121.440
102.855
143.728
129.888
143.327
112.991
123.760
122.522
117.496
137.647
132.484
124.351
148.997
101.243
144.041
146.416
104.226
134.011
139.312
107.061
111.163
149.224
117.015
116.247
100.529
130.054
107.183
134.891
120.913
141.989
127.536
134.733
133.424
101.297
119.504
119.070
119.551
142.516
110.161
106.054
148.461
133.883
123.899
114.880
145.753
103.039
132.099
120.309
140.318
117.116
120.810
139.517
110.773
120.482
114.616
104.526
118.039
106.750
131.328
128.184
116.704
139.618
141.929
96.902
109.799
124.986
110.457
128.389
127.464
103.358
136.429
105.586
118.987
98.977
129.327
105.738
123.493
131.957
141.350
114.899
146.483
96.546
124.294
101.144
116.858
133.294
147.315
108.895
145.705
136.021
143.459
98.881
120.801
144.653
96.881
114.572
135.445
96.458
139.484
117.029
140.080
137.865
137.487
108.682
119.701
97.592
135.687
113.091
120.800
146.795
136.814
142.859
108.041
110.342
141.101
99.423
98.706
143.983
140.524
120.038
117.857
135.688
127.705
145.819
121.105
124.628
115.577
144.295
119.426
123.766
127.285
105.905
104.248
123.403
134.471
119.539
129.426
101.440
146.143
120.625
102.840
114.321
101.271
107.688
99.492
145.667
143.713
135.273
112.731
134.216
140.279
96.621
145.178
129.607
137.636
143.950
126.232
132.984
121.221
139.976
107.110
112.014
111.641
126.537
107.537
134.655
112.533
100.029
134.621
108.327
129.671
103.229
135.231
143.948
104.776
115.775
131.733
113.600
146.084
136.745
105.199
96.503
138.305
99.346
126.898
144.390
122.609
109.086
142.219
136.850
142.086
139.857
120.651
107.431
95.594
120.894
131.716
137.900
106.948
123.934
142.388
133.219
129.534
105.968
120.447
129.893
129.893
131.900
135.492
145.912
97.171
105.998
107.551
129.939
130.775
104.156
99.783
100.724
109.027
115.119
96.188
97.738
97.418
101.249
108.129
113.011
99.500
102.203
97.202
102.105
146.688
133.423
106.262
115.683
144.039
114.691
101.336
95.633
135.852
100.745
141.445
100.691
99.005
113.130
107.816
115.042
130.319
126.290
135.973
133.079
143.121
105.118
131.486
120.472
116.004
105.657
105.674
113.749
110.743
131.375
110.859
118.818
94.943
99.994
136.419
113.796
136.785
103.086
114.231
123.269
115.019
117.482
129.146
95.776
114.263
133.117
110.867
107.466
100.350
99.854
141.577
122.309
136.581
117.973
121.243
99.145
134.837
112.525
118.301
96.869
103.017
104.409
126.758
101.438
96.491
134.837
98.899
105.664
119.724
144.606
111.199
145.259
108.268
137.770
146.660
120.654
123.668
104.252
98.163
110.581
118.573
131.670
130.212
127.743
107.401
102.033
129.674
106.403
126.258
118.356
131.708
108.824
117.105
120.457
141.618
128.633
135.506
136.150
101.696
114.854
113.704
138.034
109.370
118.916
127.953
146.425
95.488
130.246
111.063
113.829
136.395
124.047
98.787
131.292
131.089
136.910
137.386
97.077
123.097
109.404
122.682
121.579
124.315
144.793
129.877
136.614
117.853
103.810
96.292
101.687
109.161
113.108
104.660
97.962
116.903
144.200
129.809
121.861
142.968
132.205
141.206
94.906
104.199
104.610
116.379
139.831
97.121
129.581
140.224
140.275
119.612
116.924
102.194
102.752
114.916
125.237
96.705
123.406
120.548
114.971
137.008
132.677
117.769
105.589
123.872
119.596
107.263
145.554
112.424
135.071
96.968
118.002
107.133
103.676
109.843
117.708
121.343
98.173
110.861
114.313
122.507
98.848
111.474
104.376
107.319
99.081
113.770
105.023
114.964
146.276
113.510
107.584
95.096
138.517
104.252
132.933
146.668
131.054
110.610
110.099
110.288
98.060
136.393
109.014
117.663
111.259
140.429
125.067
122.930
103.371
126.161
110.882
116.987
102.632
95.307
97.006
102.335
132.687
106.411
140.645
143.393
132.291
124.514
113.950
110.963
116.245
135.385
135.823
145.913
103.768
104.884
96.820
132.210
145.718
134.543
124.494
117.040
105.458
139.628
99.041
118.331
133.337
105.558
141.342
