719.378
727.354
716.083
728.401
725.162
724.914
722.050
732.724
722.216
726.284
737.257
724.768
731.686
729.293
732.087
734.347
732.479
732.413
745.496
748.538
742.082
739.374
745.602
746.605
748.265
744.977
745.060
755.288
747.978
749.457
748.945
757.732
755.582
751.757
752.413
759.515
758.178
755.596
756.014
758.528
767.824
764.537
773.049
769.381
770.733
773.688
765.469
767.142
772.144
777.151
775.145
768.569
771.133
778.342
778.551
787.374
781.089
781.961
777.156
785.436
784.869
790.036
785.803
784.406
785.995
789.796
794.328
796.251
788.132
793.157
796.821
800.974
792.871
799.270
801.974
801.042
807.404
808.605
807.311
807.351
811.850
814.573
815.770
807.700
813.185
815.441
809.627
818.454
810.775
817.124
820.074
823.766
828.256
829.641
815.705
821.255
832.905
819.730
821.950
822.019
830.510
827.194
833.283
830.770
837.816
835.246
838.443
840.362
838.853
834.983
844.136
839.479
837.769
851.621
839.567
850.591
847.996
849.303
854.956
842.032
855.634
852.223
860.434
852.673
852.236
850.887
862.387
855.842
856.244
862.294
863.632
859.778
867.323
864.645
863.229
859.651
873.306
871.683
867.524
868.328
872.452
873.715
875.281
882.615
883.641
875.624
881.073
886.809
878.285
880.872
886.966
882.457
884.988
886.618
891.072
893.935
881.146
896.108
893.284
886.668
885.788
888.038
900.532
898.144
900.561
900.105
899.461
903.022
899.626
905.051
898.391
896.742
899.636
903.543
902.669
904.033
911.135
911.300
907.426
906.266
915.823
919.268
910.057
921.170
913.545
923.569
926.863
919.391
923.428
928.001
917.744
917.839
927.381
924.792
930.722
933.867
928.831
933.933
930.757
938.861
941.725
928.068
937.457
943.260
941.385
937.586
936.228
933.997
945.614
938.981
945.139
942.181
940.768
949.179
955.725
954.937
948.021
957.538
948.766
952.796
955.723
949.141
954.457
955.744
961.858
967.351
966.775
962.424
959.536
964.768
973.814
967.289
962.975
969.028
974.595
977.727
967.077
966.819
975.717
982.941
984.249
982.612
973.920
980.016
975.135
975.181
985.831
991.488
983.262
979.215
982.858
988.071
986.967
984.039
987.439
990.698
999.857
988.206
1000.369
994.664
1002.281
992.424
996.681
996.059
997.735
999.318
1006.528
1003.509
999.712
999.664
1000.030
1011.143
1006.829
1015.493
1004.853
1011.041
1017.039
1010.392
1019.259
1010.310
1014.714
1025.095
1022.608
1015.213
1027.231
1031.478
1025.060
1024.687
1030.002
1020.802
1031.674
1036.377
1028.571
1032.033
1030.999
1037.967
1035.735
1032.433
1043.323
1031.531
1043.347
1047.943
1039.087
1039.305
1036.311
1040.768
1038.420
1039.889
1047.482
1053.460
1044.641
1053.681
59.396
72.822
71.058
60.336
79.798
76.239
78.736
79.174
57.243
75.634
68.839
64.038
58.902
56.386
76.041
74.584
62.336
78.577
79.317
62.938
66.024
71.800
66.015
61.029
61.721
79.522
67.079
60.360
65.805
58.903
74.304
70.697
58.960
79.584
61.879
60.793
82.911
78.276
82.971
76.621
78.752
71.549
66.515
64.759
80.028
76.452
60.551
72.731
65.909
213.847
259.112
217.828
212.080
268.247
263.214
257.080
260.587
209.173
198.304
256.569
274.461
191.316
211.017
188.683
249.314
204.714
200.713
216.707
206.845
212.682
267.151
235.103
213.594
264.240
216.556
242.613
196.790
209.309
246.115
200.429
224.384
249.324
252.803
264.092
184.514
200.831
235.600
255.908
241.792
213.024
210.186
251.189
211.598
230.783
224.460
191.074
204.043
198.791
217.300
207.842
131.853
138.455
144.837
149.326
106.369
145.417
123.319
104.941
113.358
116.407
130.851
148.710
140.631
126.673
136.310
127.733
146.380
107.782
153.028
108.764
136.437
121.640
127.407
152.122
125.494
131.453
122.387
107.011
138.822
141.944
109.066
124.286
147.008
128.017
145.091
130.506
119.478
101.640
114.430
120.427
103.009
119.974
121.601
111.470
150.036
139.658
139.517
116.596
125.020
119.893
133.391
136.736
109.750
104.686
129.375
120.198
123.940
148.315
128.930
125.645
127.786
114.857
139.614
133.714
141.213
107.997
144.794
148.766
144.827
132.628
148.558
108.986
114.450
131.025
129.130
115.218
141.592
114.337
116.462
113.669
132.605
119.094
139.515
104.239
146.256
117.053
123.877
112.645
149.872
142.982
150.395
124.724
134.002
110.508
136.035
147.178
138.141
108.831
140.251
120.040
146.069
150.176
132.553
144.925
148.338
130.007
103.830
133.327
142.827
106.453
130.152
120.675
147.658
113.463
142.411
121.167
129.624
130.553
140.220
144.077
127.725
122.335
123.693
105.869
150.806
124.335
108.291
116.442
153.090
113.253
115.428
122.471
149.866
142.105
111.221
138.069
122.084
121.320
108.950
112.059
134.850
139.880
115.651
135.751
114.933
104.961
146.903
103.795
109.577
115.704
150.099
132.861
139.866
150.051
120.214
118.226
123.423
117.568
137.347
102.007
146.674
143.806
123.838
119.143
120.625
112.455
133.250
112.415
102.784
148.554
105.459
149.062
122.649
152.911
143.509
145.599
101.570
117.282
147.347
127.076
134.746
122.957
138.154
139.515
140.631
104.912
139.576
119.785
150.213
151.556
137.369
107.118
114.563
102.961
150.457
102.180
151.825
144.036
106.035
121.681
144.298
104.289
124.068
131.261
118.898
128.415
138.084
114.625
137.507
138.343
107.299
150.704
112.860
149.543
119.720
137.068
105.104
113.208
136.204
104.859
113.852
140.303
121.249
125.887
136.477
116.085
106.692
110.173
127.067
117.842
110.540
144.589
106.774
139.996
133.731
115.965
142.731
131.330
135.066
147.897
122.771
150.725
141.352
118.871
145.623
138.057
152.290
130.132
146.439
120.019
151.622
145.750
134.256
119.397
153.086
152.975
126.720
134.680
126.750
129.878
147.182
119.942
122.806
127.013
116.045
152.230
112.300
127.644
106.408
149.032
143.608
108.509
125.838
121.343
128.094
150.194
114.689
151.339
137.670
108.524
102.047
145.709
121.239
105.256
112.647
118.342
129.413
151.794
137.200
148.210
142.590
108.948
151.222
127.341
118.358
118.249
107.698
134.753
132.941
127.098
124.362
132.941
150.554
110.767
113.320
117.325
110.393
136.946
108.468
131.365
125.566
107.819
112.442
134.420
120.747
105.697
141.743
115.115
109.390
101.802
107.288
150.327
125.714
128.955
109.874
117.767
104.212
121.915
120.772
152.391
109.305
148.198
148.332
152.759
101.470
110.706
114.940
137.537
136.352
147.465
148.328
121.381
132.738
130.511
112.637
105.186
123.168
137.505
127.565
103.359
128.670
129.449
133.564
131.373
136.386
128.982
137.562
121.354
103.823
123.890
132.797
112.472
147.592
143.460
151.102
137.066
138.378
125.599
143.667
139.795
138.766
114.880
133.319
127.251
152.207
112.120
151.965
118.077
104.656
106.542
142.883
146.526
141.252
126.439
121.156
141.671
144.956
118.438
124.715
115.022
123.059
123.254
116.838
105.735
101.830
114.563
130.662
105.930
130.903
106.078
111.509
106.786
131.943
113.412
122.794
116.116
123.078
106.721
137.652
126.900
113.465
115.607
128.687
147.511
139.328
106.339
139.755
101.404
152.582
148.997
112.617
125.014
123.361
128.869
101.546
131.961
148.553
122.903
144.726
116.742
141.356
123.557
102.740
135.794
122.515
101.337
106.050
114.990
143.837
116.706
149.945
119.052
148.067
120.186
103.161
104.879
107.914
104.456
120.094
119.709
133.597
137.673
114.376
104.094
142.703
151.084
134.290
141.888
142.123
152.942
107.316
101.660
120.432
145.523
114.324
101.703
148.254
126.737
126.559
118.477
115.825
127.658
108.778
116.805
135.445
127.154
152.905
147.259
108.044
145.418
112.883
118.545
113.434
121.146
102.196
137.375
146.630
130.539
137.589
151.606
122.358
117.221
148.446
112.238
121.015
148.079
139.087
117.642
143.273
111.563
135.875
150.941
152.805
106.499
113.976
129.721
133.896
128.510
131.277
113.628
134.914
111.418
128.387
111.812
127.700
102.343
118.116
126.210
151.988
127.183
113.185
148.958
139.645
102.889
126.184
107.390
102.264
115.151
121.078
134.378
136.391
149.331
144.289
128.435
134.554
118.834
123.607
107.605
142.832
114.283
119.559
138.368
145.532
136.381
109.865
152.442
105.224
111.610
117.387
112.201
130.363
143.259
144.927
128.134
143.178
150.612
146.946
117.712
123.981
141.118
114.869
126.394
139.513
121.860
149.897
137.203
139.112
133.133
115.474
105.034
152.863
137.178
147.557
139.317
148.151
120.836
143.597
142.981
127.273
112.456
150.945
104.498
146.080
110.030
134.590
139.528
143.549
144.986
108.543
143.389
108.620
134.211
108.451
117.594
144.861
108.346
114.659
105.972
103.763
119.307
139.646
135.361
122.446
136.935
144.475
126.803
144.801
137.184
120.962
145.889
115.661
126.767
120.972
107.139
134.450
131.820
121.291
122.822
115.865
134.712
103.013
104.372
146.936
141.326
102.314
132.720
124.326
148.561
128.001
146.967
138.462
147.495
106.344
130.218
126.864
107.553
143.433
143.470
137.169
114.874
105.652
143.285
126.257
145.092
132.880
110.310
124.141
140.649
114.224
136.421
116.984
149.516
136.012
144.639
141.939
141.748
101.897
142.098
130.674
109.660
111.556
117.854
140.747
101.951
136.372
123.863
119.367
125.751
120.561
145.608
112.078
118.430
145.181
150.445
150.477
136.519
110.846
115.954
112.277
119.225
149.294
109.287
112.299
130.995
135.537
152.170
139.851
128.659
113.209
138.539
130.398
122.149
102.779
140.371
147.642
126.714
137.114
147.466
107.406
131.144
139.930
121.498
127.673
122.994
148.172
153.034
150.931
143.350
103.297
140.782
117.573
121.282
140.174
139.409
125.765
112.016
141.559
148.035
106.968
123.949
135.774
142.155
111.006
140.026
146.405
133.885
119.220
135.618
148.714
149.404
119.248
127.219
138.760
119.547
142.262
151.264
126.362
114.474
144.052
140.421
138.870
139.552
131.663
101.821
150.379
102.456
107.009
110.901
120.308
127.187
125.784
132.717
145.614
119.162
126.245
134.873
146.997
135.975
134.522
146.089
108.906
133.784
118.939
120.991
131.651
133.859
150.890
111.896
115.290
113.526
150.613
140.366
139.544
134.030
123.448
124.575
124.071
113.549
131.667
133.903
138.012
147.396
115.239
137.346
115.850
132.647
131.450
101.850
109.376
145.168
144.732
143.729
117.289
104.707
124.994
146.386
139.305
112.522
107.045
122.814
121.152
110.733
141.595
118.075
126.481
151.646
137.461
152.442
113.826
102.870
123.566
128.282
143.487
141.927
103.301
120.209
122.243
138.937
119.610
147.099
101.837
134.599
141.883
127.963
104.467
114.726
131.866
114.274
143.282
142.600
145.028
146.204
136.189
144.048
110.269
117.723
107.847
117.764
151.935
143.262
139.343
127.422
120.721
104.622
144.510
123.620
147.268
115.874
140.747
135.181
149.175
134.165
145.110
120.679
104.337
133.967
124.603
119.165
115.079
130.352
123.393
107.775
142.481
119.798
146.736
150.519
132.732
144.272
102.846
106.109
135.775
137.338
118.277
120.767
136.274
129.558
136.943
125.089
113.067
119.689
144.710
128.901
107.298
143.309
113.664
105.829
128.754
152.118
141.458
128.059
131.292
120.272
144.141
142.848
125.936
145.170
106.370
131.861
120.932
147.607
129.474
136.420
149.040
121.985
109.232
124.043
123.872
142.641
115.158
147.999
136.279
142.917
129.283
126.499
131.410
129.928
104.160
118.152
126.268
126.612
129.680
117.707
112.760
133.050
148.420
124.645
144.062
102.626
132.195
115.230
134.700
150.116
149.602
137.291
142.617
133.387
103.690
122.649
138.067
117.024
124.624
138.047
111.404
111.543
131.560
122.271
146.931
142.491
140.178
126.489
147.873
108.877
105.762
139.470
115.626
151.407
116.436
145.122
122.346
105.822
139.919
116.916
126.557
130.056
142.207
113.775
112.369
101.412
109.461
103.299
123.946
105.560
130.374
118.115
107.946
135.913
118.784
147.390
102.721
106.008
112.509
111.939
130.202
103.387
113.330
108.769
128.727
107.096
125.388
104.038
105.845
151.882
151.816
142.406
128.102
122.435
119.344
143.662
133.927
142.206
145.409
152.857
112.880
146.581
132.516
110.221
109.449
136.135
134.071
107.300
109.886
119.947
115.836
145.571
146.324
148.394
146.915
103.299
121.763
112.722
112.084
121.481
111.080
119.945
145.738
127.904
149.459
137.193
126.518
125.625
110.382
145.486
145.259
124.847
150.063
117.746
128.441
132.563
131.066
135.413
114.746
127.527
132.641
149.334
114.492
108.130
141.993
120.698
120.912
111.778
117.939
150.425
107.745
101.550
140.234
138.141
148.626
109.544
117.251
101.232
119.509
115.288
101.812
140.231
132.249
145.576
145.164
111.654
126.477
113.786
127.990
133.429
120.292
139.458
105.893
122.963
142.712
145.717
115.261
101.546
132.687
127.053
128.061
117.671
111.094
144.064
105.160
153.050
143.235
144.309
139.644
101.801
101.718
140.901
143.742
111.148
110.148
145.160
149.258
141.059
124.826
115.947
121.851
102.661
137.435
130.489
139.126
142.306
149.345
110.531
129.347
151.961
104.176
110.862
140.107
128.140
108.448
130.728
105.023
112.991
120.907
142.439
150.959
140.313
152.955
146.415
143.466
108.186
101.970
143.813
116.074
146.195
142.585
145.462
121.357
144.188
106.470
121.276
111.169
115.144
111.012
141.100
127.857
131.987
114.724
150.190
128.050
140.546
106.002
149.424
129.167
107.154
126.879
138.178
146.880
114.467
112.573
105.846
123.877
113.308
133.993
146.131
129.180
118.904
133.776
125.688
148.799
121.507
134.941
131.315
127.227
142.044
102.293
143.441
139.776
111.571
135.728
102.019
144.312
102.761
137.451
119.235
122.351
123.774
104.389
117.982
108.775
116.342
116.881
120.951
102.726
151.032
116.545
124.446
108.712
113.438
147.453
137.899
103.149
113.487
113.235
134.562
121.162
135.811
147.167
117.206
106.360
142.163
127.641
129.343
150.407
115.810
141.861
140.375
113.330
127.064
118.977
112.135
131.431
125.160
134.440
136.084
115.007
141.509
114.831
116.917
120.326
112.264
105.431
101.839
115.825
142.255
133.122
101.385
122.619
152.577
119.061
142.235
113.343
147.474
150.440
116.699
107.284
105.145
146.210
137.648
107.712
142.094
101.149
106.172
134.705
125.973
122.238
141.217
138.447
126.068
128.846
115.465
143.798
149.220
140.464
138.140
146.997
110.000
128.465
110.998
148.284
152.767
125.210
131.421
148.160
104.375
135.958
107.451
108.648
128.092
127.744
130.366
143.899
102.650
101.140
108.269
112.131
107.557
122.487
106.743
115.536
148.517
122.263
137.358
127.059
129.335
139.287
140.645
125.084
114.319
107.458
103.738
152.568
149.144
139.416
119.831
134.344
123.949
117.944
148.854
147.648
146.180
112.747
112.854
151.265
135.400
140.242
144.361
152.188
111.663
140.982
123.171
116.742
144.642
150.380
151.695
127.831
112.827
128.144
115.685
103.381
135.715
141.090
114.733
113.209
103.196
106.805
125.872
121.483
123.891
140.331
135.272
134.192
103.086
106.278
109.436
108.925
136.425
149.141
130.225
107.960
110.172
113.692
122.489
144.865
107.791
140.652
121.057
103.865
112.117
140.331
107.089
150.728
108.867
106.689
141.467
148.417
104.506
143.268
147.599
115.220
142.116
125.731
114.858
123.508
128.126
127.893
123.151
115.422
136.920
112.189
136.132
117.616
118.024
134.757
115.230
114.209
136.975
149.415
110.619
121.361
148.427
102.074
108.533
111.628
110.523
124.516
143.807
108.281
104.116
119.302
114.519
116.385
105.401
147.952
141.143
121.737
128.991
102.242
119.697
123.069
105.155
129.720
139.720
112.653
123.567
135.772
131.250
151.290
125.350
107.411
115.169
114.211
105.020
106.843
129.649
102.516
147.019
125.288
122.452
149.231
136.832
151.201
132.231
114.466
125.611
127.270
126.439
111.475
142.590
107.129
151.659
137.779
114.738
120.387
131.522
118.440
117.016
131.353
119.952
125.689
109.605
145.376
138.217
101.818
146.404
120.189
126.267
140.080
145.491
115.153
141.111
118.853
114.161
114.642
121.930
127.455
117.013
113.954
132.272
103.355
132.940
126.760
146.113
109.911
112.362
146.350
134.589
124.743
107.844
138.809
152.160
114.530
130.702
132.718
112.213
108.741
138.140
106.967
130.910
101.248
116.700
104.658
136.425
103.137
147.281
152.657
106.783
148.335
146.446
149.732
120.631
126.688
118.764
101.412
137.257
141.650
101.333
122.302
103.439
127.601
141.689
109.108
114.838
114.075
119.312
122.584
128.226
101.912
151.003
107.403
141.849
114.974
139.865
104.744
102.169
151.097
133.380
115.643
102.004
122.809
148.461
131.636
120.326
112.117
121.719
132.137
139.199
147.079
109.034
147.615
109.693
109.237
105.004
146.332
128.403
129.253
125.240
151.141
148.339
109.336
115.687
134.104
110.302
146.285
123.538
144.735
111.231
107.166
113.328
129.480
108.858
101.251
119.764
133.635
146.707
145.038
112.446
111.255
103.948
123.027
131.754
114.072
135.967
115.881
132.674
110.741
146.354
103.943
110.666
136.214
145.088
125.474
124.503
132.316
152.553
103.186
102.541
135.077
135.953
150.172
148.872
