1090.848
1102.767
1101.557
1094.985
1101.494
1099.343
1087.311
1085.744
1089.119
1095.474
1092.216
1085.990
1093.893
1097.083
1088.844
1092.856
1085.170
1092.631
1089.750
1081.721
1084.118
1092.707
1095.429
1092.249
1079.689
1081.701
1079.066
1087.795
1092.384
1081.100
1092.990
1090.279
1084.267
1081.076
1084.196
1089.060
1087.773
1080.029
1088.574
1079.578
1081.009
1076.960
1086.541
1076.965
1084.329
1081.508
1082.516
1083.504
1082.321
1085.667
1074.863
1077.333
1070.855
1072.042
1078.523
1077.789
1077.950
1072.316
1073.555
1077.110
1077.479
1077.395
1076.037
1069.851
1081.854
1069.171
1071.451
1063.812
1067.020
1063.194
1058.285
1068.094
1062.130
1052.635
1056.874
1045.108
1049.127
1048.289
1046.117
1051.403
1042.541
1033.137
1030.992
1035.106
1030.697
1029.751
1027.421
1020.066
1015.680
1020.179
1018.877
1012.486
1009.873
1009.357
1015.969
1004.168
1005.308
998.341
1000.453
992.502
1001.627
991.882
996.735
995.078
988.131
987.333
977.827
983.932
970.301
970.165
975.079
969.148
967.649
967.561
956.891
954.839
955.989
954.643
950.319
951.523
954.057
939.066
939.041
948.519
934.723
932.725
937.581
925.840
925.682
928.772
922.647
928.714
918.047
916.849
920.197
912.569
917.981
910.384
910.058
901.989
902.614
901.941
900.153
898.923
898.247
892.412
886.681
881.814
879.896
881.087
886.136
882.184
868.315
865.826
869.708
874.730
870.787
865.953
869.632
860.988
858.658
860.861
851.670
842.689
849.088
842.242
841.489
840.848
841.537
842.275
837.192
830.076
827.792
834.938
825.818
819.160
817.769
821.959
818.433
809.461
807.599
814.607
806.149
803.698
807.133
795.121
798.988
802.846
786.996
790.174
783.228
792.572
785.701
777.945
780.049
779.051
777.975
770.123
763.444
762.990
758.658
762.863
753.319
754.086
754.974
747.160
753.867
742.518
752.108
738.298
745.225
743.079
742.583
737.224
727.686
738.507
720.824
733.167
716.543
725.608
715.126
713.255
711.133
704.862
707.315
703.018
706.307
697.095
697.854
696.487
700.127
694.962
690.630
682.134
694.783
686.932
674.978
676.227
671.149
678.871
674.940
669.978
674.738
665.422
666.039
664.082
659.236
659.719
656.137
652.925
650.010
646.219
651.459
637.082
634.517
646.082
629.997
637.455
634.172
626.869
629.882
632.494
627.816
618.297
617.926
622.152
610.006
615.575
609.072
624.845
626.062
619.349
612.578
626.651
616.547
622.026
618.393
630.048
628.433
629.928
633.254
621.877
634.618
637.213
636.181
630.919
631.619
638.404
629.943
643.326
633.551
638.477
640.440
643.163
645.645
650.840
642.074
653.500
644.559
655.824
642.493
655.797
644.866
648.507
648.261
655.769
654.470
653.229
650.424
658.044
665.257
659.193
667.169
656.677
662.928
660.900
663.372
664.964
672.129
666.183
668.013
673.053
667.792
668.278
668.842
676.930
671.115
678.343
675.590
679.607
680.304
682.277
680.283
680.697
683.574
692.611
681.935
691.417
687.832
695.325
683.768
686.119
698.736
698.136
697.447
698.780
689.611
702.036
698.093
708.550
697.661
710.201
703.405
707.395
703.138
712.028
708.958
715.158
715.842
709.811
719.316
715.653
721.352
721.452
715.802
719.252
724.347
715.205
722.984
723.549
727.954
726.489
719.042
725.230
721.314
735.266
731.483
732.678
726.010
738.702
734.883
726.316
742.096
728.364
734.570
732.303
744.819
735.432
744.783
745.794
737.677
751.095
746.775
743.867
749.400
754.256
756.177
749.458
758.036
758.190
751.876
755.218
749.391
763.871
765.592
754.684
756.489
768.160
765.225
764.083
769.132
757.860
765.905
760.619
762.954
764.287
775.338
778.588
775.407
770.530
781.045
781.720
770.499
780.491
771.522
776.253
786.639
774.950
783.995
777.372
780.676
785.944
794.608
783.561
795.365
792.597
789.132
791.001
791.309
799.285
797.722
796.798
800.141
795.942
800.258
805.827
809.250
801.226
801.265
798.679
807.041
806.787
810.707
810.639
804.042
804.568
817.348
820.018
809.662
811.089
823.795
815.664
814.624
816.971
821.248
817.865
829.695
827.569
830.423
821.721
829.052
819.368
819.368
825.706
824.188
835.240
824.192
826.912
838.030
837.630
829.347
831.230
826.151
832.924
837.938
828.106
835.590
839.730
841.204
832.848
845.659
842.302
834.070
847.693
840.917
847.328
837.272
846.303
840.431
843.542
841.478
837.964
846.592
853.949
854.377
851.147
850.642
843.555
857.047
857.758
844.157
848.649
855.606
849.140
849.281
847.166
854.872
859.030
861.616
848.974
860.083
856.989
862.077
862.037
867.673
865.888
854.060
864.031
868.994
855.970
870.183
859.835
863.184
862.580
871.681
866.365
871.916
875.013
875.300
874.331
876.259
867.953
874.985
877.122
867.620
872.008
881.862
881.763
880.467
881.205
874.088
877.613
883.310
877.219
871.901
875.970
884.079
884.579
882.826
885.207
878.505
887.200
880.693
889.325
890.390
891.783
880.369
881.508
881.380
883.278
885.549
897.061
886.373
884.973
884.109
884.402
896.751
887.854
893.206
897.562
900.077
891.117
889.279
904.386
901.765
905.436
905.200
895.679
903.009
908.765
902.133
900.118
899.156
895.836
907.414
908.771
908.357
907.859
911.166
912.300
901.261
900.864
904.916
910.216
904.655
913.991
905.367
920.266
916.033
915.490
915.926
922.410
908.174
920.743
917.481
924.462
917.289
917.939
914.396
922.791
919.191
924.989
918.912
929.453
929.125
925.593
929.685
928.206
920.888
930.384
921.465
921.851
926.757
926.352
937.727
933.533
929.426
929.195
930.069
934.141
929.651
938.154
936.239
937.024
930.025
940.865
931.772
939.489
942.886
941.724
937.713
937.918
942.982
949.535
938.727
940.490
943.069
941.496
948.089
937.946
938.773
953.321
943.088
955.502
954.685
950.478
956.291
951.081
942.153
945.970
942.012
941.651
944.898
949.672
937.431
938.491
948.131
939.173
944.479
942.756
936.156
942.193
946.145
931.302
941.307
943.019
941.703
934.310
931.383
935.018
925.529
925.384
939.185
927.206
936.306
928.936
927.539
936.127
932.438
932.371
933.519
933.704
918.621
919.557
928.819
915.206
921.489
916.065
916.968
919.104
926.808
924.262
912.201
910.063
924.223
924.093
910.882
919.492
916.260
909.320
913.301
915.786
911.025
903.711
915.924
914.356
905.865
910.164
912.494
907.898
906.165
899.101
909.068
910.994
904.375
898.176
898.183
901.691
905.199
902.069
896.982
899.006
890.499
897.669
901.564
893.606
897.458
895.809
889.931
888.038
890.965
895.109
885.032
897.591
891.700
894.532
884.592
889.201
890.555
891.751
888.243
877.118
879.403
890.627
885.538
876.679
881.775
873.214
886.718
874.948
885.190
879.078
875.712
881.321
872.498
872.580
867.301
877.734
867.966
878.425
864.392
876.361
870.572
873.306
870.474
862.473
874.279
860.039
867.380
864.900
871.083
855.882
862.662
862.481
858.068
868.074
857.871
864.529
853.610
861.652
860.168
863.988
855.989
857.289
861.938
858.153
845.573
859.191
850.918
845.916
853.230
846.186
852.825
852.203
853.319
848.419
851.172
849.574
839.271
842.933
845.935
844.895
834.444
836.930
834.673
844.303
840.906
836.111
840.265
832.257
839.826
836.187
838.679
839.763
838.485
827.356
827.589
829.131
824.835
833.552
832.494
833.803
832.253
822.641
831.805
831.870
832.859
820.234
822.062
819.218
816.718
822.160
819.063
820.849
819.760
821.439
823.058
813.875
815.241
822.623
808.006
817.962
810.912
811.656
819.694
816.046
817.275
819.292
812.339
816.578
820.234
817.205
813.352
821.384
821.764
829.977
820.436
833.225
833.393
827.230
834.404
840.178
834.258
840.840
847.059
848.581
836.617
851.792
841.210
848.509
854.867
843.620
853.836
847.965
860.931
862.577
855.061
866.523
861.344
867.194
863.489
869.665
867.764
874.363
863.635
864.118
877.231
868.463
880.136
882.709
878.553
885.690
877.540
887.830
883.067
881.515
893.104
886.800
889.669
885.803
901.834
891.762
904.839
899.832
900.923
909.236
897.004
900.074
907.789
901.553
917.545
918.683
914.859
921.512
917.040
924.154
926.640
923.866
930.111
926.833
923.077
932.838
932.222
925.111
939.205
936.193
941.175
940.802
937.808
944.663
942.384
949.797
952.000
947.331
950.618
944.885
946.242
957.159
955.914
951.081
963.349
952.930
954.458
964.774
957.447
965.506
969.260
968.469
967.730
969.065
972.190
970.136
983.850
979.693
975.135
975.430
988.816
986.909
987.902
979.176
995.048
993.468
983.647
990.648
991.138
988.526
994.514
1002.610
998.078
1003.571
1007.180
1008.175
1006.519
1015.845
1006.399
1018.725
1013.010
1019.447
1020.669
1012.022
1022.581
1022.046
1018.983
1028.663
1026.715
1033.108
1036.304
1030.146
1027.290
1035.562
1029.280
1034.632
1033.407
1040.357
1039.946
1035.926
1038.206
1047.970
1039.673
1054.263
1051.738
1048.475
1046.929
1053.251
1048.946
1053.623
1065.679
1064.305
1068.657
1067.242
1072.004
1063.926
1066.641
1072.195
1078.803
1066.879
1081.681
1082.207
1085.043
1072.538
1088.512
1087.988
1081.928
1079.077
1095.440
1087.432
1092.317
1085.565
1101.725
1093.287
1092.404
1100.835
1103.130
1097.721
1101.835
1113.012
1109.636
1111.687
1112.774
1113.936
1107.235
1111.964
1122.940
1124.605
1112.270
1117.969
1119.922
1128.285
1121.560
1126.508
1126.884
1125.346
1118.823
1111.634
1110.219
1117.406
1120.774
1119.419
1122.851
1113.932
1117.573
1111.005
1109.443
1119.711
1114.252
1109.025
1110.538
1102.137
1114.486
1101.859
1104.089
1103.162
1100.061
1103.773
1106.054
1100.658
1106.939
1104.642
1104.498
1096.920
1096.576
1102.802
1108.593
1105.831
1096.471
1097.591
1104.144
1090.444
1099.144
1102.605
1093.019
1101.415
1097.398
1088.839
1095.085
1100.698
1090.092
1094.937
1087.730
1087.539
1095.731
1081.929
1096.713
1088.778
1085.042
1092.224
1080.513
1081.847
1080.800
1081.370
1080.979
1090.647
1076.214
1079.661
1075.582
1080.179
1080.581
1075.433
1081.484
1072.396
1079.408
1084.055
1081.146
1084.019
1069.478
1081.318
1075.679
1069.574
1067.663
1076.680
1066.367
1071.452
1065.573
1071.888
1067.619
1071.761
1067.551
1068.789
1067.503
1066.161
1072.008
1064.936
1068.052
1060.808
1060.727
1055.459
1064.260
1055.174
1066.659
1054.478
1062.170
1063.960
1062.890
1050.821
1056.482
1058.207
1063.437
1062.110
1052.428
1057.280
1055.175
1052.118
1056.262
1048.553
1049.202
1049.553
1052.330
1057.159
1056.583
1055.735
1047.811
1043.778
1041.998
1050.428
1045.009
1049.950
1039.901
1045.495
1045.399
1037.702
1048.604
1043.309
1047.265
1047.039
1038.277
1046.339
1041.806
1036.571
1039.807
1031.467
1030.968
1035.555
1029.268
1037.996
1026.001
1041.082
1040.097
1027.512
1027.673
1034.340
1030.423
1033.728
1023.429
1027.992
1026.169
1022.997
1018.880
1026.301
1032.328
1021.164
1029.712
1022.236
1021.812
1016.234
1020.064
1016.778
1019.635
1016.552
1013.621
1025.285
1021.818
1010.194
1017.932
1008.793
1011.912
1012.584
1012.513
1010.913
1012.839
1017.183
1020.065
1011.281
1008.293
1017.912
1009.210
1014.402
1006.707
1001.899
1006.479
1013.263
998.970
1007.668
1012.123
1011.797
1001.535
1007.618
1005.975
995.821
1002.539
995.067
1002.749
999.879
994.347
990.044
995.128
997.757
989.704
989.519
990.467
983.061
995.131
983.287
992.375
985.879
975.880
974.292
984.225
980.796
979.271
981.396
970.221
970.216
974.523
973.147
963.978
965.361
970.248
971.573
963.710
962.849
959.312
971.500
959.899
959.582
966.392
961.265
959.140
951.922
953.329
950.491
955.298
959.717
958.956
954.984
953.746
946.077
940.261
943.025
945.814
950.540
942.805
933.612
946.613
942.015
938.368
938.420
935.333
931.332
936.666
929.574
923.149
927.248
926.799
924.367
931.729
923.999
922.919
924.848
924.446
920.052
917.816
920.023
916.018
921.990
919.138
906.210
910.666
905.300
912.674
916.392
913.212
912.859
907.430
901.990
900.792
901.789
895.604
901.147
895.762
900.678
903.986
902.766
894.583
894.413
892.650
890.674
895.337
890.497
883.584
884.138
879.596
890.637
886.337
887.658
886.546
873.397
879.088
876.832
875.655
878.508
879.393
873.979
864.866
874.210
872.662
862.608
862.968
870.845
868.938
868.656
866.116
855.724
862.489
858.135
855.644
851.413
850.524
860.466
859.517
849.598
847.875
854.807
844.254
842.240
842.923
849.852
849.722
847.502
841.440
839.531
840.256
839.279
833.803
837.186
838.685
837.002
838.449
828.474
834.951
835.579
831.157
825.624
823.203
822.366
823.528
828.313
830.325
819.739
824.231
819.021
814.578
810.627
814.376
817.917
820.395
807.972
812.091
808.986
802.916
810.557
806.374
806.126
804.845
801.476
803.654
803.628
792.851
794.922
796.087
792.891
803.753
787.269
795.388
791.242
794.398
786.487
794.198
785.465
780.976
780.905
792.604
788.171
787.259
788.690
786.520
776.240
65.089
53.967
54.775
63.213
72.284
62.469
75.899
70.246
55.265
55.609
72.398
66.971
58.066
72.274
53.992
67.020
59.247
68.195
50.916
69.475
51.440
65.194
75.976
68.667
63.030
68.646
52.289
49.754
62.587
59.236
67.748
74.199
75.468
62.984
57.016
55.960
57.356
75.739
65.817
60.502
63.070
77.693
55.403
68.890
72.044
76.315
215.177
240.491
253.946
163.481
194.918
178.257
220.187
190.289
252.066
170.924
183.136
180.204
218.566
185.368
165.578
194.955
227.911
222.655
179.617
236.605
233.578
200.023
216.550
180.597
220.454
199.399
192.575
231.389
173.017
188.150
164.527
213.561
247.465
203.455
249.124
201.907
218.235
172.197
215.686
169.654
190.575
219.935
195.361
246.848
188.237
199.280
198.769
254.197
232.157
220.055
217.830
200.848
245.399
165.014
101.571
93.605
130.654
118.580
105.739
140.067
106.060
134.588
140.113
118.048
102.138
118.662
120.160
125.478
134.637
111.785
142.832
133.789
129.193
105.359
117.394
105.676
125.926
125.035
103.482
100.187
138.874
118.049
134.759
128.315
97.954
139.090
119.975
122.213
122.357
106.459
117.288
141.539
94.420
116.274
142.529
129.827
130.988
112.541
114.063
112.763
104.965
133.169
119.697
130.586
104.053
99.315
110.567
94.395
94.493
128.210
128.283
115.066
145.385
102.137
103.371
97.529
94.346
144.661
129.769
115.817
112.947
133.303
128.803
114.316
127.881
126.191
119.990
128.093
126.626
141.533
126.279
125.758
109.715
125.746
111.350
142.647
119.228
130.957
127.307
130.538
105.508
127.851
128.930
141.868
133.507
117.599
118.338
124.753
98.403
106.684
137.617
127.528
121.793
107.899
145.876
119.244
123.807
106.442
116.906
143.825
106.574
107.034
138.476
146.206
119.689
137.014
121.176
113.573
132.779
128.988
138.775
116.200
100.682
140.097
119.371
123.227
100.227
95.424
109.342
145.728
108.605
132.323
128.714
97.411
117.161
110.181
126.191
121.226
138.759
109.359
126.595
98.234
103.051
110.998
97.950
119.957
136.456
132.198
130.591
136.906
135.096
116.724
141.398
97.580
112.063
96.805
116.159
139.938
143.717
125.642
132.940
112.824
108.593
121.746
129.234
121.060
102.022
118.044
109.771
116.511
95.279
111.027
122.761
135.744
136.559
124.591
139.867
109.703
143.325
146.227
100.723
119.589
117.777
122.632
95.364
111.451
130.237
144.617
102.070
142.718
99.437
95.859
132.233
120.100
134.239
114.900
145.334
139.092
109.373
126.135
105.661
128.227
98.781
116.562
114.252
108.654
120.621
120.569
120.679
137.598
114.486
111.465
125.614
124.456
98.012
117.561
96.360
103.753
112.471
125.728
101.214
140.281
114.994
95.384
143.274
121.497
105.471
130.306
125.664
101.325
126.915
123.151
102.104
113.842
97.551
127.440
145.529
126.826
111.658
111.628
115.065
117.160
118.414
123.401
119.636
142.475
129.807
114.920
119.376
122.770
100.683
146.309
113.635
144.900
115.877
142.510
142.343
112.349
117.196
129.447
135.165
100.880
116.627
96.526
144.925
109.387
109.688
118.257
136.974
105.135
139.925
99.484
129.748
108.900
131.452
134.076
140.448
113.426
131.648
109.762
130.670
146.359
132.975
110.869
96.290
111.918
136.122
99.307
108.911
141.880
113.040
123.035
101.655
98.784
105.863
138.124
116.695
128.557
113.912
130.619
130.184
113.320
135.791
96.201
137.572
108.649
121.681
146.550
116.809
99.838
135.288
132.554
127.262
134.942
119.463
107.458
141.997
133.507
112.760
136.607
146.267
117.407
129.073
126.484
132.183
145.712
96.908
119.903
102.415
136.183
103.584
141.825
101.128
129.938
109.676
123.639
122.074
122.707
118.316
109.997
120.647
119.929
140.762
143.581
134.655
118.617
98.785
95.163
145.164
126.218
105.425
125.647
135.630
109.199
143.871
106.250
113.847
106.375
115.652
137.187
127.851
98.469
115.327
124.660
95.262
117.930
123.485
97.112
135.555
120.093
103.569
136.216
139.313
109.914
140.817
140.742
145.683
105.668
131.598
121.128
102.788
116.371
141.082
128.669
109.160
120.020
105.504
128.601
100.469
104.352
116.351
116.278
135.978
102.828
136.594
114.432
143.309
125.583
108.564
139.633
145.208
140.642
117.624
130.009
96.039
118.237
127.992
132.959
104.055
135.371
127.060
103.170
106.967
114.166
98.462
109.838
105.844
133.469
95.448
97.976
119.812
123.825
144.216
129.448
111.454
145.603
120.256
104.539
98.340
97.172
105.271
103.948
128.234
115.881
138.362
118.409
98.981
105.900
