503.735
489.884
505.083
496.530
498.645
503.914
493.504
503.982
498.364
506.677
512.139
509.614
509.626
513.072
501.964
500.096
501.145
512.627
507.481
520.529
520.893
514.944
511.464
523.606
517.213
533.567
528.602
528.934
540.335
538.565
542.637
534.051
548.233
542.631
553.605
551.860
545.084
558.055
555.437
554.899
566.651
558.177
570.928
570.324
575.197
568.760
566.935
574.119
580.760
583.035
579.363
593.274
580.769
583.481
598.558
588.975
596.741
598.476
599.235
609.333
602.657
613.328
604.045
613.454
609.260
620.840
618.781
630.117
622.589
631.806
632.416
637.228
639.287
640.908
631.581
647.657
637.655
639.950
641.992
646.302
644.180
661.864
649.461
656.007
665.453
659.695
670.608
669.174
674.132
674.008
676.199
678.870
684.838
688.832
676.996
691.869
684.789
686.618
689.000
690.631
698.217
695.723
706.234
712.310
707.690
714.406
707.396
709.164
716.441
723.317
726.064
720.765
726.228
735.032
732.337
728.989
735.511
743.234
738.339
743.710
748.692
740.541
741.341
747.513
753.951
750.868
758.881
763.133
761.223
758.439
761.424
775.699
778.240
775.237
781.181
773.171
772.531
777.579
790.420
781.697
783.760
792.521
799.114
789.717
796.183
794.285
797.850
803.878
811.432
811.056
805.098
813.777
820.568
825.959
818.915
824.912
824.780
825.873
830.228
832.652
834.919
840.120
838.238
848.270
848.187
853.145
855.744
846.491
850.743
850.766
858.830
858.582
869.148
864.843
869.980
872.238
864.375
866.030
876.338
870.660
888.616
886.372
891.159
895.462
887.669
890.914
897.672
902.270
891.534
897.288
902.989
900.623
903.219
917.810
911.553
914.882
910.539
915.408
928.228
916.380
934.307
935.905
931.946
937.998
937.501
942.640
933.801
949.779
938.909
949.672
947.724
955.238
961.985
954.560
959.396
954.254
959.495
961.586
960.696
970.197
970.425
955.799
961.537
963.764
960.033
952.480
952.245
948.421
952.628
950.754
953.708
943.569
950.492
939.863
943.480
948.203
939.854
944.534
933.440
932.927
937.627
938.653
938.375
923.516
935.350
924.236
923.422
926.370
927.510
917.683
917.771
922.378
911.330
910.812
916.666
915.419
914.005
908.296
906.334
902.820
900.312
900.362
901.491
897.230
893.723
899.967
891.618
891.653
897.302
892.450
898.367
882.768
884.264
879.349
884.591
887.006
876.297
874.432
876.181
880.969
872.838
868.985
867.127
877.574
869.013
874.778
864.120
860.018
873.040
867.519
860.326
862.544
852.377
855.321
849.234
860.182
859.972
844.961
855.844
851.687
848.600
840.831
841.516
848.374
843.866
846.737
836.092
833.213
829.082
839.869
831.756
837.180
834.118
832.782
830.324
828.019
826.510
825.877
826.278
826.623
814.636
810.452
817.330
819.452
804.714
814.268
811.135
806.697
803.221
797.431
803.906
796.012
799.944
794.298
796.165
791.260
796.403
798.960
791.575
784.934
780.978
789.839
790.845
780.874
789.810
788.824
777.278
784.512
780.249
777.406
771.154
767.142
777.421
772.757
771.612
772.602
758.243
762.975
759.388
757.908
759.034
750.918
751.212
750.939
759.224
755.572
758.491
744.746
745.532
745.604
750.906
738.227
739.914
738.188
731.269
734.979
728.622
727.152
732.059
739.558
731.772
735.706
719.904
721.443
719.317
720.843
713.568
719.741
723.187
710.197
722.214
718.989
705.085
706.792
714.134
703.085
701.982
711.816
701.772
704.746
705.873
700.015
700.972
692.885
692.081
689.157
694.604
688.782
693.653
680.627
680.022
690.853
687.017
675.579
686.550
677.489
684.782
671.392
681.207
677.930
675.321
669.171
671.858
682.769
687.123
687.290
676.778
675.896
684.931
691.297
678.956
680.410
684.489
682.682
688.915
685.896
695.835
696.716
697.006
684.679
693.310
695.050
697.862
690.969
693.762
695.509
700.702
703.315
703.525
696.526
708.172
700.378
704.047
695.041
697.620
699.047
709.613
705.479
713.334
710.423
705.877
704.734
710.896
704.215
713.006
709.172
718.604
719.954
712.854
708.491
709.918
709.592
725.293
727.039
719.535
719.832
725.376
721.519
718.699
722.356
726.266
723.882
721.154
722.766
734.012
722.097
724.945
732.578
727.609
724.105
736.596
729.902
726.972
737.156
729.228
742.095
733.456
731.888
742.971
746.029
740.654
745.038
742.297
737.165
751.317
740.601
746.591
745.246
742.106
745.277
752.115
748.880
758.296
755.516
753.740
752.813
758.229
758.407
748.726
753.916
755.560
755.650
759.782
755.493
763.446
760.161
761.447
763.492
761.844
771.365
770.427
769.369
772.812
761.912
775.742
765.113
764.545
769.600
768.502
773.382
765.746
769.667
768.475
781.738
771.008
773.921
774.065
782.833
772.778
775.315
777.962
789.259
781.689
779.730
792.599
784.502
779.236
788.470
795.716
786.618
791.776
788.370
783.801
798.778
788.754
796.787
792.949
789.408
797.237
793.496
801.962
803.159
801.990
806.418
803.513
794.407
796.601
810.392
811.560
799.465
810.434
813.835
810.186
811.619
801.645
802.158
805.111
805.912
819.084
809.115
809.573
822.222
810.613
811.589
822.177
812.180
819.874
817.923
825.117
820.569
815.054
824.537
816.178
822.432
824.883
820.740
832.945
832.336
835.263
830.619
829.488
832.695
828.485
836.073
831.198
840.672
841.534
835.610
844.150
841.846
829.833
838.052
834.611
839.805
842.604
842.547
833.371
839.241
835.826
839.438
842.149
844.999
849.840
849.028
849.220
848.661
845.455
845.162
850.747
844.979
841.424
839.423
839.334
845.993
855.813
844.280
843.367
857.137
845.022
850.997
847.647
857.939
848.827
852.586
851.966
853.931
852.691
854.212
861.482
858.219
850.390
859.176
861.793
861.473
854.402
860.766
864.797
851.660
853.562
852.057
860.216
862.862
859.638
863.811
856.550
867.303
866.224
856.294
865.322
864.520
857.347
859.480
872.104
863.166
860.123
872.495
873.184
859.425
870.615
860.827
869.890
862.658
864.733
875.474
875.498
876.365
864.301
868.331
869.247
874.328
868.364
872.596
878.393
867.308
880.948
881.174
866.980
875.205
872.051
868.373
877.153
879.237
874.501
874.916
881.765
871.274
874.416
879.840
886.572
872.947
883.628
883.843
885.133
883.277
884.564
879.472
889.449
879.607
886.059
886.617
877.068
887.045
892.165
880.503
884.217
883.500
892.152
887.212
894.143
885.004
882.990
890.041
894.260
895.451
887.535
888.098
884.501
890.105
896.762
886.549
895.986
893.577
901.764
897.812
901.573
889.281
896.027
898.062
892.684
890.776
902.030
896.197
900.232
893.836
899.626
893.899
901.315
897.051
906.365
899.305
900.391
900.091
903.963
908.018
911.208
900.529
902.339
906.279
903.165
909.690
907.052
908.753
910.656
910.063
908.789
904.762
913.565
906.232
902.669
905.584
909.528
910.023
915.864
905.467
918.552
904.980
912.475
912.271
909.415
915.245
920.563
907.726
916.785
914.691
910.611
923.749
913.001
916.818
918.818
917.112
921.124
919.747
913.855
921.205
917.452
928.224
922.765
921.435
918.030
930.606
930.458
922.239
928.904
929.748
924.927
927.964
933.158
933.854
937.295
935.832
931.561
933.100
936.971
940.162
929.217
935.280
942.712
935.683
934.274
940.833
932.479
939.049
940.334
945.090
933.286
933.866
941.290
940.933
949.278
950.166
938.905
950.066
950.559
953.506
944.144
949.920
954.663
947.253
950.874
948.702
945.534
959.323
957.643
959.636
960.011
952.141
962.414
964.294
955.471
951.395
964.924
959.077
961.211
968.470
967.544
963.340
966.653
963.908
963.915
965.558
974.209
966.249
964.577
966.693
965.572
971.202
972.529
977.429
977.286
966.781
978.930
966.180
979.632
972.340
979.607
984.585
971.324
980.309
986.756
986.332
977.819
975.836
977.789
981.827
975.776
976.391
986.302
982.159
987.788
981.483
988.885
995.160
992.852
982.770
993.549
988.196
991.487
993.910
999.923
989.276
996.009
989.675
988.330
993.913
1002.342
996.485
1001.679
1002.352
1001.740
997.818
1001.250
1004.845
1004.981
1000.468
1002.133
1008.674
1011.883
1007.231
1006.163
1015.750
1000.779
1003.311
1014.977
1010.109
1014.386
1005.626
1015.515
1006.036
1018.692
1014.320
1010.587
1012.784
1009.422
1017.996
1026.227
1013.483
1024.219
1025.321
1027.406
1024.696
1022.787
1021.930
1027.654
1017.237
1023.794
1023.288
1030.483
1027.649
1027.413
1034.580
1032.335
1036.174
1029.244
1028.794
1030.610
1033.358
1037.473
1030.846
1030.145
1030.607
1035.868
1038.303
1032.347
1037.258
1042.832
1034.480
1044.270
1038.471
1039.573
1045.940
1048.697
1049.432
1048.761
1040.115
1049.737
1039.647
1041.242
1045.350
1053.944
1046.446
1057.765
1052.895
1047.290
1046.385
1060.550
1049.356
1061.835
1062.759
1054.625
1060.485
1062.790
1054.354
1063.797
1060.669
1062.452
1067.353
1061.721
1058.640
1066.776
1055.472
1059.627
1063.249
1054.544
1060.098
1046.555
1053.292
1058.078
1053.190
1044.987
1039.682
1041.376
1038.762
1044.973
1046.047
1037.826
1031.113
1035.394
1030.603
1035.222
1024.676
1032.573
1035.407
1032.382
1020.989
1020.783
1018.487
1025.895
1023.527
1023.565
1016.548
1016.028
1009.781
1006.505
1011.830
1007.025
1005.553
1011.417
1009.516
1008.391
1006.019
993.073
998.390
997.794
993.826
986.445
987.592
993.560
982.369
985.425
981.488
979.775
984.713
974.357
975.198
980.147
979.136
980.231
968.647
974.086
963.880
966.641
975.845
960.341
967.036
966.017
962.565
960.094
964.899
951.180
962.758
960.761
949.338
948.841
954.748
953.679
955.302
945.999
938.793
943.247
936.738
946.304
936.024
938.223
939.458
937.792
928.188
929.815
934.798
933.264
925.414
928.417
926.742
927.799
927.130
914.874
915.800
917.670
918.209
916.801
905.352
903.243
916.102
902.758
901.595
910.377
896.892
902.946
897.275
893.519
901.589
888.682
894.550
894.249
889.515
892.569
891.854
890.217
887.401
883.864
883.351
883.841
880.716
883.282
874.604
881.827
866.749
867.537
872.817
860.211
860.738
869.914
868.108
864.258
855.218
854.781
854.080
848.878
857.242
856.712
850.368
853.796
842.388
842.482
844.972
841.794
848.658
845.758
836.156
833.915
828.496
826.974
828.424
828.003
823.324
823.034
831.971
831.148
828.632
815.105
819.605
815.800
818.860
809.845
822.530
815.754
806.882
817.067
812.476
803.011
803.732
797.460
803.115
796.358
804.535
800.690
803.010
787.693
787.971
798.977
789.903
792.900
794.031
794.209
782.552
783.722
784.664
785.202
781.967
780.547
768.395
774.947
767.935
775.463
770.226
764.519
762.983
766.507
758.822
755.747
764.894
768.827
758.921
762.945
755.844
762.468
762.923
753.091
754.969
762.303
762.233
754.525
757.967
747.514
755.798
756.482
748.269
757.005
744.326
741.043
742.626
741.061
752.013
752.906
740.206
745.254
735.837
737.552
741.132
740.640
741.892
738.884
735.708
746.230
731.112
738.392
741.793
738.073
738.594
731.152
735.862
740.135
739.018
737.009
728.449
725.472
728.969
723.045
732.106
729.839
734.421
730.943
718.920
731.586
721.127
729.981
725.354
726.805
723.194
716.800
715.136
719.007
725.280
710.677
713.471
716.545
711.411
713.418
718.940
721.674
717.349
714.275
712.571
718.979
705.325
713.003
715.383
701.776
712.697
713.419
709.697
709.858
706.554
710.109
699.598
707.577
705.927
708.398
701.427
693.051
700.119
696.739
704.874
693.426
698.097
695.713
699.117
689.669
695.212
688.667
690.862
686.867
689.497
684.590
690.270
688.359
690.200
692.815
691.327
684.631
690.641
686.398
689.702
689.008
675.182
684.190
680.322
678.990
677.795
685.476
673.703
672.641
679.431
669.676
683.291
670.860
672.454
679.379
671.972
664.721
676.617
665.070
676.948
670.964
663.290
668.303
669.926
665.901
660.204
665.292
662.509
671.880
667.714
659.479
663.621
653.742
663.353
661.153
661.990
660.197
657.527
663.471
661.106
648.271
649.226
646.218
651.254
646.082
644.808
644.410
645.563
646.602
649.975
653.127
654.334
641.645
641.880
651.078
640.005
647.821
647.156
649.249
647.503
646.526
646.348
640.010
641.890
633.893
631.476
642.438
634.222
635.938
627.673
639.692
637.969
631.356
637.724
639.668
630.641
636.894
623.796
623.436
627.938
635.493
634.380
630.732
620.809
628.910
620.690
615.865
630.281
621.844
623.900
626.613
624.005
623.838
638.975
624.582
639.275
641.447
629.349
638.884
635.347
635.916
642.512
638.473
649.785
637.644
637.103
653.279
640.387
642.562
653.841
657.150
646.127
658.655
659.470
649.577
654.109
657.480
655.480
656.894
652.904
666.987
656.932
663.727
671.417
671.704
664.476
661.559
670.377
669.048
674.996
679.479
674.112
669.326
675.767
682.551
674.976
676.255
686.841
680.131
679.276
684.162
683.831
682.537
692.310
687.170
688.805
688.501
692.618
690.133
687.147
693.999
700.618
701.183
695.185
703.041
696.783
695.612
703.997
705.034
699.507
707.667
698.346
708.508
708.414
704.190
715.333
708.622
717.030
715.353
718.515
714.926
715.259
715.632
725.608
714.379
718.413
725.956
715.626
730.566
726.464
719.913
724.929
730.883
730.519
738.615
726.644
736.046
734.960
733.528
738.412
735.247
733.077
739.990
736.958
737.465
737.653
743.243
742.262
746.180
742.725
743.973
751.707
752.194
756.744
745.346
760.532
755.437
751.953
762.650
754.710
752.463
764.193
759.473
763.759
766.694
761.820
772.301
774.802
765.412
772.322
773.191
769.845
765.990
769.756
777.019
782.673
777.896
775.816
779.916
784.203
779.801
780.429
780.125
783.448
791.675
792.048
789.259
789.869
793.357
797.380
795.622
798.528
788.910
789.751
804.276
791.098
800.290
806.343
793.647
802.974
810.591
798.813
812.102
814.113
809.407
808.242
805.947
804.244
813.286
817.893
814.906
822.184
815.337
817.625
814.231
823.481
816.766
814.686
827.494
828.407
829.859
826.935
831.062
830.074
836.718
823.508
825.508
836.357
839.190
835.926
843.060
837.761
836.755
835.461
842.784
842.098
849.804
846.699
844.857
845.178
847.673
853.552
852.385
855.282
853.528
857.317
848.580
846.724
850.876
857.950
857.526
857.994
861.393
863.042
859.366
863.555
859.834
862.034
860.687
871.040
870.634
868.346
870.926
863.191
870.376
874.111
868.210
870.393
877.654
869.872
880.541
878.653
878.832
889.289
887.387
882.336
882.060
885.102
893.950
883.806
883.275
897.081
888.412
884.555
885.569
892.906
899.741
897.914
903.536
897.388
894.244
897.420
908.536
895.956
908.765
910.865
902.234
900.818
911.154
902.219
915.024
903.966
906.965
914.004
907.882
909.209
909.009
922.675
923.746
911.825
918.126
921.227
919.838
923.918
928.827
925.509
931.551
931.567
921.411
924.448
937.171
932.809
928.501
940.578
939.170
942.866
930.821
944.515
934.570
937.536
947.602
949.240
948.635
939.830
938.992
949.509
941.738
947.270
945.613
957.095
950.110
945.077
950.011
961.021
958.711
964.110
950.511
958.487
960.476
965.085
959.893
966.888
961.713
957.734
966.782
972.598
964.847
962.969
970.655
970.497
979.729
966.361
978.477
972.917
978.961
975.885
979.850
976.075
975.981
976.000
977.574
985.804
987.414
986.473
987.200
995.930
985.224
997.032
997.522
988.924
990.740
990.195
997.948
997.978
995.443
1006.453
999.621
997.430
1007.156
999.329
1001.774
1005.673
1009.182
1009.731
1008.638
1005.919
1006.250
1013.918
1007.859
1008.746
1018.323
1008.577
1013.822
1018.900
1013.197
1027.216
1015.429
1028.473
1030.008
1022.162
1026.857
1018.315
1026.660
1034.544
1030.855
1033.154
1024.409
1027.892
1036.662
1034.343
1035.524
1042.721
1032.101
1030.773
1037.662
1038.252
1048.960
1048.907
1044.744
1038.447
1047.891
1050.644
1044.224
1055.098
1052.812
1052.967
79.987
73.189
65.500
84.822
70.903
80.268
59.491
67.482
78.568
78.281
71.952
82.479
75.061
69.517
84.656
61.125
77.884
67.546
65.082
59.563
71.097
75.410
67.934
67.974
87.052
84.012
80.290
61.196
84.726
83.731
76.252
68.026
71.057
66.892
59.042
69.292
83.095
76.373
81.845
81.936
62.092
74.560
73.749
69.122
83.929
59.083
74.208
78.903
272.617
254.255
237.354
229.166
240.500
215.311
205.665
254.125
273.399
279.974
219.800
273.869
258.284
209.102
210.442
218.627
258.489
271.506
265.199
237.847
186.529
233.614
215.817
197.462
260.136
278.076
226.265
273.109
248.111
222.421
262.689
220.494
244.718
195.891
186.314
198.965
192.893
197.773
231.777
238.355
224.290
184.033
223.861
268.755
208.491
206.518
237.891
269.310
216.576
213.289
243.883
271.261
101.238
131.575
126.369
106.969
120.862
133.390
144.742
116.104
100.594
129.387
104.565
137.963
102.141
124.679
117.181
119.235
107.857
108.178
106.037
121.712
150.893
129.271
147.023
101.295
116.760
108.459
147.453
111.166
140.941
128.483
100.950
134.845
117.662
136.089
107.947
129.988
104.212
129.344
134.032
118.342
100.879
149.278
144.817
121.576
106.021
108.993
110.204
136.865
114.364
135.582
139.683
115.182
136.974
115.877
145.746
146.445
104.455
115.342
126.936
118.637
144.883
115.614
115.445
133.143
128.221
97.728
142.949
116.148
147.552
113.912
101.957
98.692
125.751
137.082
132.092
145.406
96.621
147.976
138.992
115.610
102.141
99.841
