650.239
660.781
657.586
658.423
668.622
665.713
674.508
670.899
678.184
683.908
672.547
681.878
678.225
679.613
689.141
691.613
696.797
696.685
704.150
702.247
698.146
702.896
712.359
712.747
713.171
718.596
721.436
723.745
728.838
715.942
721.174
721.105
733.274
736.114
727.848
741.368
734.526
748.048
749.611
751.960
751.730
750.989
753.558
763.100
751.649
755.570
770.849
763.130
761.506
770.593
765.658
779.714
780.261
778.664
781.128
790.161
787.931
783.244
788.487
793.197
791.687
791.313
798.529
798.653
806.366
814.620
805.330
817.140
814.273
815.149
827.084
826.187
831.663
834.372
825.903
835.983
830.180
834.975
838.328
833.658
845.201
853.158
852.394
856.668
858.047
849.393
855.063
854.780
867.211
857.510
862.272
862.249
870.222
870.038
878.876
883.797
884.318
884.602
891.346
886.765
893.828
893.554
895.919
891.233
903.049
901.635
902.776
912.032
908.591
909.355
909.176
914.381
922.325
924.732
921.882
917.488
927.906
930.147
926.536
942.035
935.889
943.165
935.512
945.535
953.854
950.697
945.805
947.196
960.337
952.150
956.977
962.080
965.969
972.383
962.445
967.401
968.077
980.428
983.203
976.157
978.222
980.737
988.067
995.635
997.399
1002.009
1004.405
995.426
1002.728
1005.038
1000.533
1008.133
1009.396
1012.676
1008.048
1015.229
1021.664
1023.773
1033.309
1020.631
1027.469
1027.930
1039.270
1041.634
1045.335
1046.092
1038.484
1049.772
1050.653
1057.273
1060.755
1053.956
1062.534
1057.968
1061.840
1061.721
1071.751
1066.364
1076.088
1067.174
1071.755
1080.355
1082.485
1083.220
1089.913
1085.420
1083.673
1098.651
1088.562
1102.686
1095.984
1095.407
1111.525
1104.816
1107.548
1107.245
1115.473
1117.897
1118.003
1121.252
1118.108
1124.707
1133.770
1134.889
1134.425
1131.141
1144.350
1145.975
1141.253
1144.353
1132.390
1132.557
1145.382
1138.883
1132.543
1130.381
1141.126
1132.665
1142.010
1133.965
1139.149
1129.962
1142.504
1141.205
1132.958
1131.652
1127.105
1140.119
1140.514
1131.080
1138.620
1125.938
1127.359
1137.186
1138.298
1124.477
1128.912
1135.500
1130.212
1135.749
1129.203
1136.428
1126.906
1126.200
1124.872
1130.383
1127.868
1129.734
1120.969
1128.070
1117.685
1125.748
1127.380
1122.596
1125.203
1122.478
1117.427
1126.436
1116.236
1123.065
1121.574
1117.709
1118.894
1118.526
1114.329
1120.937
1114.306
1124.082
1114.190
1123.078
1126.332
1117.583
1120.065
1116.180
1121.174
1114.015
1122.689
1119.028
1109.353
1114.875
1111.195
1115.753
1109.772
1113.594
1118.150
1107.602
1109.787
1115.035
1120.859
1120.177
1119.547
1112.552
1105.212
1111.389
1117.692
1111.136
1115.504
1110.737
1101.597
1115.944
1113.674
1110.603
1112.858
1112.692
1101.934
1110.877
1099.896
1109.449
1109.901
1109.921
1105.650
1103.662
1097.524
1103.246
1108.997
1109.906
1103.177
1096.941
1102.595
1104.048
1102.419
1099.987
1100.510
1104.880
1101.053
1094.977
1102.316
1096.041
1096.741
1103.421
1105.738
1103.696
1092.590
1096.519
1100.035
1105.166
1098.259
1095.367
1096.212
1090.735
1101.940
1090.575
1093.823
1092.957
1090.541
1099.744
1091.742
1094.531
1092.016
1087.600
1097.051
1086.284
1086.415
1088.921
1086.312
1083.735
1087.136
1083.635
1082.210
1090.113
1089.493
1095.735
1082.087
1081.948
1084.466
1082.805
1090.824
1091.245
1082.186
1092.744
1093.410
1081.951
1083.206
1084.042
1090.698
1090.488
1085.635
1085.531
1089.510
1076.855
1087.374
1078.354
1082.967
1084.291
1074.690
1073.971
1077.998
1072.977
1074.309
1079.041
1086.048
1081.312
1075.408
1080.944
1083.686
1076.040
1080.930
1081.911
1069.518
1076.906
1070.951
1073.572
1080.024
1081.646
1073.318
1079.246
1074.083
1069.180
1073.131
1074.147
1068.532
1063.076
1056.214
1062.248
1061.898
1054.492
1046.144
1045.054
1042.850
1039.551
1046.823
1034.031
1038.273
1040.400
1031.567
1029.088
1029.978
1027.024
1028.965
1019.179
1018.985
1020.865
1016.495
1020.550
1013.514
1002.606
1007.786
997.649
1003.726
992.989
991.835
993.068
986.809
994.833
983.196
981.065
981.739
984.539
981.768
973.552
976.175
978.324
974.881
967.400
961.298
970.987
963.721
963.885
958.634
953.872
955.772
955.379
949.246
947.777
935.143
939.507
942.753
938.853
934.783
934.891
930.112
934.010
931.398
922.425
926.923
915.025
911.041
920.448
914.096
908.751
898.948
903.375
906.244
905.546
892.768
889.220
890.477
882.267
895.178
888.183
878.987
879.649
883.161
878.704
876.895
875.727
876.672
870.666
862.185
865.402
858.447
851.042
861.443
855.502
842.703
843.422
844.209
849.179
835.315
838.319
835.063
842.200
827.044
836.004
820.956
822.206
829.763
818.413
816.190
814.572
819.732
817.041
811.438
810.374
799.526
802.096
798.304
789.920
790.452
797.177
796.172
787.237
787.060
788.904
780.910
779.863
769.792
772.791
773.012
774.986
760.157
762.595
766.582
765.231
755.655
762.407
747.931
755.912
745.360
753.754
743.631
748.882
747.804
735.464
737.648
738.413
731.463
725.861
723.577
731.269
722.331
717.051
717.610
715.256
717.068
713.135
710.006
703.824
710.803
707.394
705.440
697.728
701.363
684.065
683.717
688.580
683.664
678.412
675.220
671.494
679.995
677.839
673.635
675.800
663.258
664.058
666.272
664.143
659.198
658.332
656.065
652.643
649.912
651.038
637.939
646.431
632.184
634.118
640.361
628.414
630.323
633.351
618.588
624.607
615.791
613.098
621.191
621.461
620.565
610.651
609.552
612.648
611.340
627.533
618.474
624.151
616.772
616.876
630.583
629.368
625.288
626.211
624.362
625.800
629.246
633.687
640.007
630.450
627.865
642.537
645.452
640.270
646.995
639.818
646.974
643.200
649.108
639.401
649.620
652.619
648.514
654.265
652.264
644.962
647.374
660.326
658.847
650.094
653.413
662.044
659.700
657.066
661.984
667.848
664.924
663.152
668.588
659.027
673.894
664.601
668.723
672.550
666.903
666.858
676.338
680.311
672.323
669.823
674.670
680.577
675.520
684.524
678.980
681.159
684.954
688.071
683.889
680.676
688.934
694.281
698.036
699.059
699.395
686.558
699.038
695.782
700.378
701.073
701.134
696.399
701.172
696.550
708.654
697.061
700.586
710.728
707.299
704.019
701.541
717.338
715.347
712.665
712.894
719.268
722.340
713.970
723.290
724.183
711.634
718.413
719.830
715.054
722.148
724.798
718.036
727.680
725.065
731.957
735.287
729.117
725.150
726.387
737.270
742.295
730.802
744.700
742.461
734.636
741.615
738.246
747.101
745.534
746.396
739.024
740.714
755.723
747.049
753.063
746.780
750.222
754.223
756.212
753.471
755.722
757.764
760.684
766.464
763.013
759.136
755.836
755.619
772.125
762.385
760.906
769.786
765.786
764.778
763.448
767.641
773.458
780.447
773.992
780.778
784.344
770.740
773.433
781.291
776.063
778.223
785.937
776.604
791.571
780.813
788.142
787.332
793.980
787.900
787.938
793.245
788.329
800.582
801.125
792.363
798.924
794.754
807.683
805.408
799.067
807.114
805.253
803.900
811.688
812.308
805.389
811.444
811.808
818.031
810.616
813.841
818.397
815.593
823.665
818.543
824.526
826.637
814.882
829.746
818.985
831.057
822.127
821.569
818.665
829.518
820.133
833.766
828.867
827.373
827.949
837.987
832.065
828.833
827.882
840.572
828.148
841.067
837.634
838.607
841.378
834.957
838.616
833.834
840.602
836.146
840.298
836.209
837.622
838.580
848.647
849.415
841.331
845.411
843.089
846.032
842.305
853.124
846.194
852.403
848.792
845.856
845.040
844.399
846.649
850.684
856.784
848.307
860.795
853.501
859.162
852.655
848.155
863.057
858.221
859.552
851.268
851.763
855.559
863.051
867.656
864.974
865.250
860.249
857.648
863.486
871.773
860.224
873.597
870.072
863.842
871.916
863.376
875.616
874.896
868.963
870.358
866.885
872.797
880.335
877.192
879.463
877.196
871.628
872.831
880.292
876.204
876.437
882.823
884.859
876.180
881.966
877.153
874.231
889.158
888.382
889.172
888.604
885.659
887.302
883.683
879.865
882.623
894.142
891.341
889.289
897.209
884.563
895.159
896.543
896.165
886.685
896.678
900.143
889.509
893.584
896.680
898.827
892.793
906.602
897.876
900.680
894.697
895.644
900.535
902.829
902.702
897.333
906.465
905.555
900.917
908.204
906.698
904.221
902.700
909.429
913.704
915.748
908.846
914.402
913.673
919.373
915.086
908.519
917.765
911.757
915.848
909.473
920.775
925.701
923.751
920.376
920.279
914.919
917.590
918.376
930.119
923.369
922.219
927.367
917.275
930.421
919.866
925.652
932.572
920.718
920.651
926.859
922.409
930.305
930.543
935.706
935.557
932.222
926.153
940.926
934.300
929.158
943.642
935.818
935.449
933.771
943.315
947.175
943.509
935.177
948.646
946.101
938.108
937.328
941.687
940.640
947.400
942.382
941.643
950.550
941.383
943.615
950.270
953.325
954.440
946.171
948.482
942.200
946.465
952.837
947.089
945.561
942.684
936.356
937.665
950.454
936.451
940.710
933.418
939.673
940.806
934.582
930.591
940.831
942.447
934.065
939.536
939.780
936.933
940.008
936.332
930.432
924.943
922.359
933.462
925.690
935.724
931.652
921.043
927.291
927.465
920.005
929.638
929.814
924.062
916.386
914.211
927.451
915.978
919.372
923.351
922.528
921.072
913.521
916.285
911.115
916.315
915.711
912.304
909.430
908.587
916.006
908.210
916.817
905.105
900.750
901.806
911.346
908.898
902.953
896.488
911.506
898.363
903.837
898.821
907.682
893.511
904.918
898.185
902.619
899.099
897.169
898.596
896.724
890.192
898.018
900.491
899.314
887.374
886.058
896.564
883.001
886.636
888.781
893.129
892.509
886.891
884.305
879.017
884.687
881.650
884.454
878.288
887.114
880.535
879.554
885.453
874.974
878.652
877.418
878.157
871.394
874.046
873.098
876.274
878.519
864.748
879.071
869.695
866.867
876.637
868.303
868.027
865.340
864.032
860.360
858.632
867.527
870.171
865.288
868.321
867.284
867.035
863.414
867.143
859.341
858.543
865.315
861.469
848.622
851.773
856.951
859.085
850.482
858.759
854.025
843.730
849.743
842.949
854.732
843.166
850.560
841.026
848.225
853.294
850.803
841.333
845.413
837.534
846.349
845.090
839.139
838.936
836.248
838.253
830.986
836.519
831.610
840.887
830.624
830.250
838.594
841.175
835.881
834.014
824.064
829.598
835.639
830.737
831.465
834.299
823.530
825.965
825.596
827.588
825.164
822.973
818.460
829.684
817.134
816.789
816.687
822.080
818.821
820.170
820.289
810.354
813.435
815.831
819.836
810.000
813.002
816.858
805.891
818.801
813.145
816.213
812.075
815.180
813.769
823.740
816.496
830.110
830.246
833.998
829.425
830.331
834.823
827.655
835.689
831.814
830.115
835.846
840.670
846.696
850.828
844.023
854.019
840.931
844.222
844.488
848.849
854.030
860.149
858.186
855.902
862.225
864.268
862.847
863.387
860.162
874.320
874.414
872.000
872.455
875.763
871.204
871.238
885.720
876.395
879.941
890.423
878.067
884.912
886.146
889.749
897.513
889.526
901.737
901.268
900.942
905.987
903.136
901.321
899.661
906.285
913.295
914.466
910.567
919.656
908.407
914.858
918.952
911.954
923.720
922.743
916.318
918.473
926.596
931.235
937.278
924.235
931.769
933.164
928.846
938.895
935.281
942.274
944.412
949.178
949.176
941.672
955.806
956.747
944.174
951.174
952.479
951.368
956.629
953.977
954.349
964.457
967.629
959.461
961.551
960.454
968.853
974.046
976.469
971.529
976.209
981.929
973.681
980.778
975.259
978.432
980.702
989.684
981.137
989.037
986.869
1000.202
993.450
1003.727
998.493
993.970
1007.615
1004.305
1008.718
1007.881
1006.158
1001.322
1014.362
1009.072
1012.452
1010.887
1021.249
1026.004
1020.947
1022.841
1018.419
1029.899
1021.285
1019.863
1024.152
1035.858
1031.294
1039.812
1037.929
1039.677
1042.544
1033.926
1042.676
1042.652
1043.789
1046.176
1043.558
1042.990
1057.361
1051.786
1048.411
1055.043
1051.720
1056.018
1053.691
1053.812
1066.879
1071.922
1071.808
1061.614
1062.511
1073.246
1079.035
1076.549
1067.759
1082.636
1078.267
1085.928
1078.284
1089.032
1087.389
1094.291
1081.746
1093.701
1085.667
1099.244
1098.563
1097.143
1092.964
1095.948
1093.434
1100.451
1101.214
1104.371
1108.152
1104.880
1113.398
1105.266
1120.128
1114.239
1117.351
1116.689
1122.925
1112.656
1114.637
1113.616
1116.620
1120.999
1125.510
1113.744
1117.663
1123.090
1121.365
1108.852
1110.055
1108.149
1107.709
1119.493
1106.588
1110.104
1105.192
1119.290
1119.303
1111.347
1115.965
1102.378
1103.711
1107.512
1100.668
1114.070
1109.556
1106.371
1110.114
1097.452
1100.852
1098.346
1108.092
1100.172
1104.765
1108.972
1094.433
1107.088
1101.411
1104.720
1092.604
1094.521
1096.467
1098.398
1094.594
1094.373
1098.349
1091.864
1086.855
1091.071
1090.317
1089.703
1083.796
1095.574
1096.966
1082.055
1091.790
1093.574
1095.157
1087.229
1091.255
1078.012
1092.808
1089.053
1091.535
1086.396
1086.447
1089.419
1077.618
1074.915
1086.676
1080.621
1083.703
1072.175
1075.614
1083.597
1078.854
1073.841
1078.115
1072.805
1080.783
1074.651
1066.481
1075.837
1078.450
1072.322
1072.177
1076.995
1069.316
1073.310
1070.237
1060.695
1068.951
1065.140
1069.998
1058.354
1068.059
1066.516
1065.328
1062.388
1068.727
1061.907
1056.384
1064.294
1065.895
1060.313
1062.030
1066.189
1062.337
1056.579
1057.896
1050.445
1052.380
1054.120
1052.306
1053.744
1056.770
1060.416
1046.003
1059.189
1052.869
1055.280
1043.925
1056.256
1040.877
1053.122
1046.420
1044.088
1050.207
1052.901
1052.261
1039.853
1039.593
1043.007
1049.593
1036.290
1035.005
1035.128
1047.315
1043.913
1038.248
1043.852
1038.870
1043.933
1029.066
1042.850
1029.591
1040.453
1027.011
1031.368
1039.087
1026.895
1028.250
1024.316
1023.195
1027.628
1022.875
1031.005
1032.208
1030.742
1031.746
1023.767
1024.302
1022.916
1027.348
1030.657
1020.164
1029.867
1020.708
1026.978
1013.684
1020.591
1017.057
1021.002
1020.604
1024.681
1022.506
1015.113
1015.348
1014.775
1012.458
1014.166
1017.905
1016.313
1008.468
1006.496
1008.955
1013.892
1008.885
1010.424
1016.312
1003.432
1009.332
1001.348
1005.129
1007.812
1007.664
1008.620
998.802
1008.868
995.906
1008.991
1007.827
991.722
1005.074
997.625
990.339
999.290
1000.191
990.133
984.428
997.770
990.230
989.069
993.858
979.085
983.756
986.672
976.243
985.286
984.840
976.674
973.036
977.785
981.442
971.368
972.882
977.421
963.459
966.288
966.331
971.491
958.988
958.789
958.201
964.680
962.461
956.481
952.856
964.070
958.900
952.897
960.528
954.964
956.194
956.022
952.986
952.944
946.570
947.778
949.671
948.296
945.174
944.302
942.047
939.030
947.341
936.369
936.960
940.471
938.876
933.623
925.698
925.375
928.616
926.515
927.079
929.893
922.025
920.314
926.160
916.782
928.613
919.346
915.664
911.232
924.044
910.334
909.462
917.981
906.338
914.758
907.523
914.277
907.857
914.056
904.858
900.989
899.869
897.020
908.376
906.348
899.784
896.272
899.610
899.414
897.820
890.291
890.335
894.939
896.663
894.292
893.841
889.324
884.304
890.135
880.129
882.709
889.064
875.516
878.370
871.374
880.514
876.159
882.340
877.617
868.995
878.779
878.026
872.716
863.823
873.456
863.721
865.350
870.753
856.272
869.024
854.438
854.739
864.835
849.282
860.197
858.648
853.645
859.144
853.615
854.342
848.103
854.987
853.089
849.288
840.660
836.554
846.711
833.426
837.707
837.681
832.671
840.032
834.517
840.954
829.764
834.918
835.427
825.115
829.697
832.519
833.828
819.556
820.689
823.222
823.041
817.244
817.240
822.982
819.134
813.177
814.787
808.879
811.256
810.964
817.658
806.213
801.930
802.160
803.410
812.107
802.011
801.866
795.461
800.934
798.951
806.136
804.276
802.247
792.278
796.460
798.183
790.481
796.007
790.745
794.916
784.357
791.207
778.700
785.041
783.222
782.474
777.569
771.941
196.442
168.816
165.876
208.764
155.998
199.012
215.339
206.042
228.512
185.956
213.347
218.868
208.342
179.966
170.452
180.256
218.239
216.330
185.492
215.068
192.075
203.315
208.821
189.271
186.918
187.442
227.721
193.066
200.367
159.859
174.893
184.894
228.167
183.207
184.766
174.565
195.472
172.324
213.206
201.953
207.551
193.873
220.342
158.351
199.601
205.508
172.423
155.426
208.846
174.522
159.151
171.860
177.870
187.643
206.759
204.567
193.877
227.352
172.375
211.968
225.328
169.828
190.088
199.624
224.086
179.540
194.512
165.723
176.326
229.201
192.030
227.041
164.507
158.979
154.971
219.818
158.129
165.707
182.929
212.128
216.228
159.811
158.891
173.423
215.022
226.435
214.755
231.909
231.451
181.776
178.759
219.727
202.033
166.010
167.007
173.032
187.551
232.480
176.196
206.218
126.758
86.376
93.525
123.646
105.475
96.668
94.544
111.243
95.789
121.236
107.916
113.878
104.428
86.317
84.486
115.459
103.742
90.544
84.558
118.799
93.978
105.585
91.388
103.063
117.677
117.551
121.396
129.344
129.559
125.128
91.325
92.341
114.353
93.885
115.358
96.744
122.948
117.976
99.493
97.240
104.877
106.583
88.674
128.301
98.567
101.761
108.517
128.239
101.334
116.445
108.373
94.826
108.272
107.532
105.037
123.858
90.505
103.158
107.632
109.924
127.876
118.649
111.779
123.184
114.249
113.602
117.569
103.460
120.233
119.761
101.513
113.936
127.128
84.082
101.953
94.239
84.475
98.843
98.057
109.714
114.459
98.851
97.058
106.002
104.165
109.020
95.912
90.934
122.813
98.341
127.667
101.965
128.836
