860.839
865.316
858.199
855.580
856.756
858.225
866.908
864.453
860.858
872.044
868.536
871.255
874.343
864.779
868.341
867.077
881.028
874.758
878.166
884.380
884.424
878.675
879.226
881.039
879.670
888.948
895.274
896.305
884.248
885.943
891.024
894.952
892.022
894.705
904.282
906.986
903.624
906.907
908.427
904.496
907.395
907.463
905.490
918.391
910.274
909.727
917.524
916.471
917.331
916.593
915.298
923.756
930.123
919.158
931.515
920.648
923.437
924.463
936.985
930.665
940.881
931.290
936.203
943.472
945.404
939.964
938.451
952.525
939.815
940.995
954.338
952.282
952.442
945.399
947.711
959.675
958.378
957.682
960.837
955.831
958.613
956.252
970.913
969.260
973.125
964.218
964.382
965.760
975.786
975.866
976.873
975.851
973.226
972.698
988.290
979.018
979.193
986.300
984.110
984.114
994.301
984.983
995.567
986.479
988.978
999.241
1003.743
1002.354
997.482
995.970
1005.224
1007.384
1006.260
1011.986
1014.914
1009.289
1006.313
1015.111
1008.011
1021.578
1012.131
1013.052
1022.582
1029.328
1019.608
1018.200
1021.982
1024.223
1036.069
1025.930
1035.081
1033.503
1028.127
1032.679
1032.388
1037.133
1045.752
1048.092
1037.328
1048.274
1043.842
1043.243
1048.013
1054.683
1054.867
1047.941
1060.151
1061.490
1057.169
1063.164
1063.337
1052.324
1059.130
1062.298
1066.990
1064.026
1065.036
1063.371
1063.504
1069.301
1078.133
1071.875
1078.693
1079.727
1080.267
1086.057
1083.099
1081.381
1077.061
1089.344
1082.943
1084.349
1081.347
1095.099
1086.606
1088.656
1090.168
1095.553
1100.301
1092.946
1096.270
1092.973
1107.289
1100.756
1105.829
1100.602
1113.010
1108.050
1110.422
1107.960
1118.260
1112.695
1112.184
1114.447
1120.188
1120.536
1124.077
1124.612
1127.694
1117.901
1134.109
1130.899
1136.718
1135.483
1126.205
1126.456
1141.523
1129.751
61.914
85.142
81.044
87.600
87.291
86.012
71.823
85.306
80.131
59.672
68.653
66.006
82.658
60.993
80.662
73.717
77.738
79.022
80.012
79.760
69.827
85.479
62.865
79.892
69.987
69.237
80.426
68.535
73.370
74.479
61.616
60.829
80.761
60.853
80.567
75.757
67.231
68.833
79.561
72.373
70.706
81.508
63.281
69.878
80.524
59.805
60.468
84.820
79.133
257.276
191.303
220.238
254.755
211.506
236.252
195.556
234.048
266.747
191.361
217.360
221.708
188.652
239.873
195.653
203.802
277.569
213.752
276.893
248.082
203.595
257.544
273.616
198.270
211.374
230.684
193.753
247.820
230.583
246.008
255.803
240.289
232.207
187.101
202.060
186.900
213.198
222.548
262.325
258.992
208.046
257.770
261.763
254.737
244.589
199.413
274.858
204.648
196.433
234.871
242.295
117.215
111.732
134.842
123.311
136.301
124.297
144.724
132.615
139.375
120.956
125.873
111.388
100.966
131.138
137.436
151.530
106.428
128.433
129.875
104.208
130.008
99.898
110.223
113.285
136.378
123.975
103.802
127.716
118.145
128.600
143.864
111.850
123.682
140.534
109.023
118.002
132.270
137.286
139.664
129.323
146.984
132.793
120.083
122.182
146.375
132.645
104.482
120.449
114.430
98.686
140.881
106.017
138.695
141.786
121.864
147.457
137.491
146.394
98.085
102.119
114.578
108.738
104.136
122.867
130.721
122.067
110.363
125.043
132.309
143.551
146.747
118.938
104.693
135.160
132.110
124.947
114.076
106.704
104.339
142.137
127.088
118.343
146.652
104.388
144.651
98.234
123.738
118.172
135.623
130.439
127.562
96.044
110.360
142.179
137.699
98.660
116.431
100.507
105.896
98.743
134.691
104.444
96.198
128.773
123.465
119.562
133.433
110.077
98.354
119.757
110.690
135.424
102.368
121.878
116.038
106.473
118.715
143.862
121.106
122.631
101.906
101.304
119.588
97.457
115.289
140.168
98.425
114.736
137.433
121.602
115.464
99.936
103.358
120.902
145.485
123.150
114.358
106.347
106.133
100.657
108.970
145.680
142.586
138.814
138.942
106.038
120.041
106.599
123.957
130.890
108.998
106.585
146.187
140.198
133.308
140.459
120.885
136.667
97.036
133.199
107.889
102.720
129.032
138.162
119.264
125.520
105.096
140.926
96.516
137.971
118.082
131.220
144.422
97.747
133.823
118.487
125.820
110.804
138.371
136.197
140.409
146.317
142.567
95.490
122.648
145.211
102.676
137.938
99.668
111.312
143.739
133.319
107.785
141.090
99.834
130.825
141.649
119.874
123.306
105.418
110.463
118.365
133.546
100.713
109.601
105.699
97.015
126.487
140.750
96.753
109.627
120.054
117.049
143.578
124.170
129.684
101.859
121.306
99.498
97.974
127.323
122.929
105.473
98.869
104.284
138.543
128.902
131.509
124.010
122.403
116.203
109.413
143.768
107.976
124.971
107.983
114.277
102.928
133.857
137.101
107.026
112.189
110.452
130.578
144.096
110.251
95.372
140.523
111.182
106.824
141.638
107.214
137.276
127.219
94.882
127.905
99.949
132.685
144.179
111.269
118.016
143.209
134.148
138.196
132.796
119.793
118.713
138.387
129.278
142.959
101.596
143.339
117.734
122.139
133.574
115.569
104.798
134.367
130.942
98.906
135.139
127.357
140.767
129.621
114.418
101.435
112.353
102.885
111.627
128.229
112.455
95.666
118.035
127.927
111.656
124.228
97.212
111.842
101.544
129.202
124.229
138.242
144.420
126.667
144.370
121.792
110.635
132.285
129.742
117.592
143.054
103.984
128.290
98.633
105.777
131.115
107.899
108.490
127.248
122.430
108.554
137.763
135.128
126.559
133.445
142.854
115.817
109.246
142.522
130.741
97.457
140.146
105.606
139.985
115.117
135.049
112.599
131.890
113.692
128.402
93.615
121.037
130.654
108.987
113.481
114.037
128.992
109.751
121.220
97.521
95.511
132.139
105.403
140.610
108.883
112.921
99.775
108.097
104.395
116.929
143.518
102.150
113.301
107.358
94.580
94.862
96.790
98.087
97.531
115.203
143.371
133.361
109.359
95.741
113.662
103.880
110.626
114.217
122.261
126.196
95.742
109.200
127.685
141.203
114.058
124.319
129.423
114.627
133.522
107.457
99.347
106.477
113.755
143.464
114.035
96.697
104.893
114.998
128.695
137.130
126.388
97.917
127.087
113.889
131.765
140.941
108.597
92.706
105.844
126.407
133.687
126.054
95.043
115.302
133.866
122.329
111.042
132.377
103.185
112.817
106.495
92.721
115.206
96.511
90.821
117.689
104.798
127.933
135.422
111.556
116.267
112.701
130.693
101.243
120.461
138.167
127.113
116.296
98.090
141.532
127.409
92.043
114.861
109.620
140.629
136.478
126.753
135.992
135.340
108.192
92.136
99.836
121.481
118.906
102.337
91.426
123.925
114.257
93.602
97.545
133.650
137.714
93.412
125.619
101.829
106.590
100.462
95.958
98.488
89.919
130.845
137.304
138.949
115.645
134.112
97.175
120.854
112.798
132.271
139.110
122.878
113.763
124.334
90.741
99.591
102.400
132.257
126.526
95.169
139.080
94.077
102.381
93.050
116.651
102.789
129.077
105.849
95.872
120.069
111.214
101.640
98.118
135.797
110.373
135.662
109.924
130.306
126.409
108.520
118.359
115.380
119.847
98.627
109.945
106.663
95.993
108.563
113.386
126.856
107.277
115.179
99.644
91.841
132.650
111.417
140.968
99.971
106.599
138.289
120.647
92.443
105.344
124.131
113.568
108.468
112.816
106.165
94.453
91.011
140.273
123.130
133.956
100.443
101.088
104.974
134.538
108.115
108.151
100.383
98.224
105.838
108.499
105.283
141.501
98.345
115.431
112.185
114.862
139.041
130.803
113.554
115.302
110.820
140.958
103.918
96.554
124.475
133.083
126.686
102.873
103.701
136.795
127.955
134.328
137.091
106.693
141.683
122.100
111.784
104.265
113.102
138.909
120.640
104.677
132.902
121.208
132.126
137.005
138.554
124.030
117.829
140.756
125.960
96.117
117.900
100.439
123.307
96.338
107.873
126.921
121.958
97.235
112.797
103.633
95.721
106.005
99.329
116.872
138.964
97.143
113.026
106.404
108.843
137.288
131.324
98.664
144.058
99.261
119.322
100.462
125.801
128.565
94.977
131.059
142.622
128.356
139.093
107.740
105.568
103.580
97.386
125.107
139.246
107.143
122.311
129.082
144.215
130.177
121.105
124.738
127.644
132.617
121.226
134.848
130.066
100.260
96.903
100.354
111.055
98.148
118.355
120.103
124.461
99.291
125.056
98.679
118.006
121.335
99.727
98.402
127.643
124.997
105.460
137.981
130.633
138.113
109.189
126.802
121.579
143.744
112.337
128.168
124.857
130.620
133.664
134.783
123.244
122.159
138.416
138.928
144.119
138.888
97.346
137.747
141.186
113.133
136.880
124.772
115.884
107.491
141.952
105.728
108.595
134.913
128.440
133.723
127.915
107.592
125.187
140.036
100.952
105.398
128.382
140.127
115.844
114.316
110.654
146.694
136.010
143.805
100.742
126.618
107.616
121.704
144.601
110.911
145.200
123.822
106.125
126.030
109.444
134.529
101.895
115.796
122.640
115.062
105.353
115.069
130.929
103.959
143.237
99.409
121.493
96.750
133.755
131.400
141.456
117.323
107.395
140.932
131.514
121.506
124.353
139.716
132.280
133.528
97.094
120.690
97.187
144.284
104.878
112.801
124.494
96.508
129.560
139.755
113.327
108.318
139.462
116.365
113.267
95.911
146.249
108.614
137.767
135.014
141.055
106.011
109.236
138.046
133.960
141.366
128.891
128.940
101.152
115.769
113.925
99.199
139.184
131.699
143.181
136.220
145.504
122.096
123.013
135.173
118.236
102.982
105.354
124.094
137.370
128.782
98.961
123.246
135.873
108.870
144.627
101.392
112.164
117.944
130.673
121.850
125.239
127.272
112.435
133.548
135.367
95.204
98.877
134.669
144.374
126.895
121.842
98.109
103.009
118.878
140.354
107.302
108.848
142.002
142.076
128.224
144.804
145.659
101.112
116.643
125.143
136.533
107.536
112.090
95.388
114.728
145.939
118.385
110.558
125.192
102.951
119.532
119.004
135.370
142.377
125.643
143.360
141.487
140.097
104.361
146.224
130.899
137.124
109.089
142.995
100.721
137.902
133.339
102.001
123.834
119.873
95.601
95.645
113.605
124.934
141.497
101.664
102.005
117.709
104.186
124.390
104.405
97.676
120.796
137.445
146.211
107.245
103.045
134.527
135.434
126.037
125.796
130.917
115.424
140.383
94.879
102.815
143.934
123.232
123.075
106.327
98.571
122.768
145.704
114.699
99.791
139.867
111.923
122.167
117.591
100.059
109.405
94.922
138.115
108.785
136.035
97.085
128.474
136.416
115.325
101.018
129.853
144.979
121.749
114.549
99.376
137.760
141.876
135.394
109.032
96.892
99.091
99.703
120.862
103.592
109.969
96.338
124.382
117.281
98.449
124.796
96.442
136.013
123.772
126.959
113.629
103.754
126.647
144.484
137.992
131.542
112.290
112.347
118.089
113.790
121.645
119.417
118.328
116.284
124.253
123.588
132.978
127.933
106.979
130.679
122.082
137.848
124.748
117.320
122.186
136.191
131.332
138.102
135.740
102.325
136.837
125.113
120.578
112.515
116.975
114.278
145.740
131.206
122.838
138.184
133.468
120.296
138.191
129.208
112.861
144.075
128.574
132.694
95.643
98.696
128.776
118.092
113.764
95.838
98.458
116.595
96.689
119.792
142.537
97.730
106.020
111.559
102.197
112.729
97.792
145.296
133.865
123.187
143.151
121.751
98.212
128.129
133.163
125.813
130.261
116.048
105.559
105.563
132.801
122.359
126.824
118.267
100.135
113.211
133.950
145.491
135.968
122.682
114.432
118.528
143.170
116.609
126.040
123.768
117.401
120.632
141.088
137.985
102.742
141.114
95.172
141.800
99.336
107.501
99.854
144.785
104.227
108.070
126.052
111.274
136.536
118.151
105.207
138.429
125.385
113.714
102.654
146.503
112.751
132.185
140.296
132.022
102.149
141.207
125.295
118.127
110.197
104.588
139.730
130.397
126.567
128.581
135.197
108.018
95.879
139.471
127.771
135.689
96.332
140.081
132.988
135.167
127.325
118.619
129.242
135.365
100.274
119.861
128.778
145.977
122.288
115.559
105.090
137.154
140.278
107.373
106.166
105.644
104.733
115.421
100.775
115.424
141.455
145.671
110.760
98.608
132.555
128.132
130.218
108.012
107.197
142.611
97.299
141.793
124.759
108.540
123.804
128.567
106.812
103.184
111.385
105.198
124.728
109.397
101.425
107.427
101.949
106.048
114.046
145.801
140.188
127.296
137.773
141.108
97.658
107.499
124.438
112.661
130.669
123.643
108.180
126.410
97.949
112.141
101.752
143.552
126.426
142.561
99.565
106.152
110.527
123.211
101.429
128.224
133.476
101.773
110.910
106.323
98.636
112.912
100.062
131.528
125.360
104.160
118.206
115.467
108.740
104.868
120.684
125.657
113.977
107.569
143.396
96.225
135.140
121.452
137.926
134.240
103.190
106.462
130.578
111.623
110.200
127.034
129.043
128.861
108.601
123.831
98.258
116.401
120.666
120.270
106.292
129.900
98.868
118.967
116.684
142.139
131.219
137.292
126.401
96.423
105.946
127.457
146.088
121.193
130.433
146.453
117.678
122.440
117.232
136.458
131.493
114.248
142.571
136.933
143.166
138.997
137.322
102.519
99.264
135.530
144.394
125.406
115.466
134.072
119.520
109.366
105.513
113.024
131.301
128.110
107.379
109.608
109.322
123.182
136.819
145.933
124.715
96.667
98.219
142.123
112.247
96.342
98.738
104.211
121.806
122.270
125.262
144.080
108.225
140.344
126.369
143.394
136.008
113.592
106.518
136.707
118.771
104.391
114.596
123.406
121.897
137.928
115.529
113.057
113.700
109.719
108.963
113.067
131.022
129.029
124.134
142.989
103.457
113.340
144.125
142.486
130.966
105.914
116.703
105.048
113.094
131.857
142.484
115.082
108.871
110.400
131.295
133.496
116.354
116.807
126.954
103.522
114.378
99.896
111.014
114.902
101.251
139.033
110.340
134.487
108.079
143.628
127.942
103.624
104.703
118.072
124.427
137.455
135.615
144.698
107.049
116.682
107.146
126.604
115.223
112.226
96.233
127.403
126.712
137.707
94.849
109.035
123.460
102.093
122.317
127.875
121.277
124.885
119.074
134.711
136.937
122.371
109.319
145.033
103.471
126.649
126.514
134.579
111.805
107.343
131.843
117.747
103.712
113.241
132.522
129.088
134.845
132.283
122.354
145.336
98.553
132.729
132.386
141.238
121.364
129.108
143.228
116.624
126.440
127.463
120.327
125.530
103.657
105.529
138.665
120.702
134.837
133.537
111.517
98.307
97.698
111.152
98.725
110.366
127.778
127.676
145.383
121.853
102.689
138.037
121.714
142.548
94.891
125.221
113.638
134.296
114.849
115.502
110.128
116.513
99.012
112.188
120.928
137.890
124.522
119.990
97.017
119.723
102.490
145.383
102.615
110.503
134.345
100.823
131.531
114.538
118.678
131.721
128.144
112.029
118.766
95.122
96.862
116.038
99.039
101.682
112.272
103.073
139.796
143.777
127.003
102.144
124.210
143.042
119.657
117.436
137.284
96.583
122.994
107.488
128.238
140.831
139.089
102.383
116.392
118.602
132.820
110.322
112.210
130.546
103.893
144.637
139.275
146.625
132.832
100.650
103.605
102.528
100.439
105.960
109.713
145.376
135.043
131.429
136.051
104.110
128.195
119.851
128.643
119.421
132.904
104.085
95.746
121.650
140.815
108.727
103.208
138.680
144.723
129.472
133.296
133.219
144.145
121.638
136.579
114.455
131.794
113.751
118.552
96.498
113.471
124.429
122.596
108.980
137.399
123.092
129.030
142.728
117.247
105.168
101.698
111.033
136.649
139.632
125.279
111.250
132.968
145.756
127.070
145.933
146.223
133.135
106.540
105.287
137.290
141.625
142.156
124.077
96.694
104.952
135.999
132.981
102.925
134.155
146.722
141.355
121.317
127.810
135.222
134.934
106.704
129.858
103.085
102.406
99.565
112.736
134.689
111.515
134.791
118.436
94.925
143.388
117.226
129.533
114.485
101.002
110.581
137.145
112.003
138.134
100.027
117.968
140.822
100.452
97.830
144.403
112.942
106.492
96.359
118.537
120.867
136.906
105.733
128.099
117.194
134.644
134.060
143.627
124.127
133.505
121.474
111.760
99.932
144.606
115.592
111.883
119.373
128.677
99.907
103.198
103.208
144.131
116.785
126.667
136.917
111.892
123.631
120.583
122.920
109.998
108.577
128.675
101.722
114.002
140.543
141.158
99.155
108.372
137.350
132.160
112.343
139.986
98.568
118.103
142.369
105.335
103.769
141.243
114.222
104.114
138.263
140.337
94.983
98.775
101.207
127.724
141.615
111.493
143.324
139.895
97.886
96.824
99.972
123.999
96.606
94.877
119.848
105.192
120.518
125.535
142.596
123.101
99.541
106.817
117.208
142.570
136.784
117.815
109.951
128.240
103.744
134.578
109.520
97.859
137.056
116.658
114.856
104.193
134.330
99.241
125.811
140.884
111.520
99.837
121.246
123.848
143.641
138.028
140.992
125.462
122.049
95.202
122.053
96.619
113.266
120.602
98.066
114.285
134.489
127.728
112.921
105.977
109.672
99.296
130.402
108.171
131.175
136.908
132.248
146.580
112.651
146.147
127.417
112.850
115.229
130.198
127.715
98.062
95.695
113.685
115.498
145.757
145.841
146.673
124.626
95.712
123.466
134.110
123.241
125.148
103.982
101.731
96.485
99.488
129.460
126.045
103.196
103.978
97.970
