901.232
909.277
905.415
904.508
912.120
912.792
904.809
912.612
900.963
900.861
913.555
901.658
912.513
914.057
917.795
908.537
917.765
913.718
918.991
919.616
911.494
920.558
919.893
909.813
917.942
914.638
921.786
914.935
922.745
910.460
913.274
917.892
916.135
912.579
912.375
921.974
915.939
914.073
928.277
921.617
916.514
925.353
928.737
926.292
919.843
929.973
921.198
928.926
932.928
932.464
933.117
928.228
934.125
930.874
923.532
937.622
931.533
937.362
931.668
937.076
942.513
936.239
936.189
934.887
938.465
933.711
943.314
938.502
946.601
945.050
934.451
945.986
940.799
949.631
948.906
938.225
940.325
940.519
950.192
950.779
950.234
948.850
945.030
949.219
957.742
950.031
958.806
950.940
948.003
951.867
959.803
956.931
951.291
957.242
965.765
963.335
952.257
966.017
967.246
969.525
958.281
969.480
965.916
972.243
959.986
962.849
966.867
961.846
965.307
975.910
976.895
964.870
970.056
974.914
965.633
978.378
967.572
972.648
972.742
972.525
970.894
972.731
983.125
985.015
979.693
986.569
973.233
979.486
978.233
979.859
979.218
983.027
990.011
991.278
990.836
989.388
980.584
990.436
996.693
982.797
983.664
987.384
988.556
999.658
988.966
1001.722
991.703
991.238
996.610
999.818
993.632
992.104
994.615
997.611
1005.209
1005.389
1008.569
1010.705
999.692
1012.182
1003.703
1000.215
1001.238
1009.986
1002.929
1012.848
1010.021
1011.860
1013.879
1015.837
1009.590
1005.604
1007.980
1008.377
1013.601
1013.123
1009.283
1023.748
1014.402
1021.092
1014.844
1019.643
1014.500
1016.976
1026.903
1014.700
1020.657
1025.037
1032.055
1024.594
1028.727
1029.114
1032.462
1033.108
1025.007
1026.476
1031.499
1034.213
1034.209
1030.630
1035.147
1037.748
1035.316
1033.265
1035.844
1035.391
1033.108
1041.875
1046.001
1044.649
1038.772
1036.393
1042.108
1041.801
1036.694
1045.511
1041.097
1049.344
1038.098
1041.672
1049.167
1047.433
1048.764
1045.666
1056.143
1043.987
1059.383
1057.146
1059.729
1056.980
1051.104
1055.856
1061.891
1058.919
1057.222
1054.884
1062.381
1051.812
1057.217
1056.382
1062.292
1066.671
1067.932
1061.588
1067.956
1055.614
1063.142
1063.805
1060.576
1050.022
1046.748
1051.224
1056.872
1050.744
1043.182
1048.203
1036.235
1040.003
1034.712
1038.944
1039.292
1042.258
1032.216
1039.827
1029.344
1026.481
1030.977
1022.776
1028.924
1025.295
1027.558
1026.619
1025.481
1015.058
1012.796
1019.915
1013.382
1008.085
1008.620
1011.572
1012.884
1013.382
1004.799
995.944
1009.418
1007.800
1004.236
992.093
998.694
994.158
989.446
997.146
992.168
990.525
982.654
982.810
989.904
979.934
974.108
982.139
983.263
970.610
977.915
971.327
974.594
968.682
973.344
962.037
963.267
968.709
968.907
965.384
956.445
958.203
948.772
949.856
946.646
948.339
955.903
956.435
952.133
953.413
947.405
945.048
946.932
936.432
943.180
939.230
940.892
940.761
940.213
928.937
928.816
920.323
925.466
927.041
924.853
924.431
923.934
921.597
921.182
917.717
917.146
907.190
906.943
906.724
915.813
906.010
899.192
901.586
900.622
893.407
893.755
896.051
895.744
887.359
888.828
897.762
896.617
885.246
879.966
883.437
887.247
890.768
887.616
886.276
885.895
881.295
880.521
872.995
875.724
863.666
867.520
860.099
871.312
865.756
859.992
857.172
860.298
852.010
858.075
863.741
847.033
847.536
844.223
856.134
846.964
843.271
843.156
840.936
847.294
837.443
840.600
840.817
840.425
834.960
829.481
830.711
833.141
831.999
833.434
818.403
823.344
826.119
824.548
825.971
822.795
813.930
813.060
812.363
817.904
810.626
817.086
807.365
806.469
803.223
803.812
797.897
807.984
791.833
789.523
795.661
795.719
796.576
783.180
795.354
793.618
792.995
790.783
789.687
783.036
787.066
781.316
772.351
775.854
769.814
775.629
767.393
763.108
761.047
771.599
762.377
767.835
755.930
763.789
765.590
758.274
763.493
755.639
763.117
765.094
749.460
755.878
755.743
751.244
755.262
747.322
751.673
756.661
745.479
754.193
749.926
742.766
752.341
745.841
750.525
745.085
748.561
743.128
738.803
743.172
741.538
740.791
737.935
746.568
747.407
736.889
741.901
739.928
732.313
736.448
738.987
733.576
731.943
739.083
740.766
730.404
726.793
726.272
730.895
722.387
727.039
723.034
721.408
730.293
719.413
720.958
724.426
719.720
717.013
727.230
728.370
723.612
725.560
714.972
726.914
714.944
713.455
713.645
716.595
718.795
714.091
712.261
716.923
710.004
710.597
709.749
708.859
716.723
704.043
709.979
705.952
703.926
711.333
704.976
707.406
708.257
706.891
697.474
696.951
704.127
705.901
706.015
700.612
704.308
700.138
696.131
693.232
700.572
692.797
692.456
701.539
697.945
690.163
687.966
683.714
689.359
682.351
691.284
690.021
693.812
687.889
686.736
682.547
691.595
691.091
688.006
689.778
685.923
684.155
678.146
679.029
687.649
672.630
674.168
684.708
678.962
669.245
678.909
669.782
677.449
668.266
679.245
669.627
664.324
671.389
662.852
663.186
672.899
675.589
662.165
672.150
659.023
661.831
667.891
667.402
666.738
655.142
662.883
656.566
661.535
659.369
654.440
658.231
662.251
655.324
655.833
654.981
656.116
646.986
645.991
658.167
652.036
645.856
657.707
646.134
651.492
652.851
642.177
644.740
641.168
651.396
652.214
637.459
644.614
637.617
648.029
643.050
641.715
644.753
644.969
643.173
634.084
629.614
640.783
636.137
628.264
630.544
632.092
638.913
631.396
627.746
627.659
627.097
623.751
625.613
633.678
634.043
631.157
633.112
619.855
620.960
627.263
630.707
618.262
628.565
628.864
624.133
621.303
629.315
626.378
639.255
633.367
630.944
638.400
630.175
644.949
644.171
644.493
639.357
641.729
646.067
640.561
646.607
654.501
653.383
652.296
653.862
656.933
650.742
650.024
651.984
657.786
659.505
660.226
658.041
654.328
656.567
669.536
663.527
671.157
666.916
670.655
671.492
675.352
664.087
674.915
671.227
671.584
679.482
676.970
671.685
682.939
676.359
672.965
688.024
684.329
676.788
682.830
677.736
681.990
694.449
684.558
686.731
686.058
692.407
694.722
695.460
688.498
688.284
699.027
695.968
697.965
703.954
708.133
706.351
703.022
701.566
704.233
701.260
714.199
707.835
715.708
704.688
716.307
719.811
707.275
718.762
709.752
719.318
721.553
725.624
717.111
729.683
729.643
728.046
724.732
721.905
730.922
724.502
737.144
737.989
736.515
729.068
734.866
731.910
734.161
730.117
731.114
746.872
744.093
741.164
741.934
748.321
747.246
750.209
746.133
742.521
744.380
744.348
748.665
745.383
760.223
759.842
762.395
752.668
756.735
766.401
762.523
764.370
768.865
771.047
757.651
772.254
760.881
771.835
773.290
765.112
768.612
768.491
774.424
777.999
770.316
769.847
775.140
784.240
775.487
785.359
787.274
781.307
791.550
786.173
783.694
792.155
793.006
785.126
788.588
787.492
787.280
790.810
791.974
792.526
795.839
801.141
793.886
808.483
797.161
797.798
811.348
811.034
805.942
812.410
810.085
803.471
808.071
815.999
818.158
810.785
807.662
814.297
813.115
818.036
818.850
816.116
819.310
819.719
831.130
823.888
826.038
824.149
822.609
823.723
825.442
834.443
835.801
830.857
841.637
828.461
833.072
833.304
832.525
837.916
845.957
849.704
846.739
848.397
850.206
851.817
853.279
851.409
849.643
856.036
852.364
845.814
855.578
856.330
863.069
863.750
859.367
857.529
866.036
856.730
858.159
870.489
870.556
868.751
861.691
860.241
872.584
874.794
869.135
872.608
872.015
876.833
878.420
870.987
875.595
872.210
879.773
884.735
876.836
881.301
880.403
876.689
885.266
880.643
883.234
890.720
883.959
896.153
884.366
885.361
888.915
894.117
898.902
893.971
901.072
891.697
892.937
896.366
899.806
897.536
910.335
905.101
903.558
899.685
909.966
911.853
917.685
915.449
910.672
914.162
912.954
910.754
911.865
914.122
911.094
920.057
919.610
927.614
915.515
929.127
918.569
931.015
934.221
926.792
934.488
934.544
931.769
938.151
939.334
934.998
936.736
943.330
931.862
934.749
935.403
934.041
938.854
942.706
946.616
947.244
951.136
953.388
945.756
950.227
947.418
955.990
945.921
946.825
947.304
954.371
952.906
954.801
959.965
953.671
952.896
956.196
969.988
958.542
958.446
968.134
965.376
975.603
974.448
966.280
975.532
970.863
967.819
971.255
976.913
975.379
976.430
974.363
987.102
974.339
989.600
976.257
981.617
983.119
987.169
985.804
985.995
997.037
983.291
984.347
997.769
990.485
992.513
993.708
1000.817
993.709
1001.361
991.674
994.778
1005.081
1010.371
1001.072
1007.263
998.638
1007.079
1009.986
1004.161
1016.957
1017.521
1004.232
1008.958
1022.126
1012.074
1021.589
1010.084
1013.086
1014.425
1020.277
1018.525
1022.801
1017.301
1022.281
1026.937
1024.390
1023.829
1034.559
1034.943
1024.878
1037.419
1040.098
1026.146
1035.315
1032.711
1042.138
1035.094
1036.871
1042.776
1047.618
1042.527
1051.209
1039.525
1043.001
1046.303
1047.519
1049.129
1051.012
1046.388
222.572
186.932
224.795
243.113
169.873
217.020
197.759
213.305
228.147
197.784
171.781
218.046
180.328
228.528
160.909
242.772
236.725
186.599
237.695
172.283
192.795
206.865
224.230
188.951
203.216
195.945
161.707
219.014
241.471
211.290
220.514
214.737
212.774
179.000
164.062
173.308
210.377
204.444
211.123
169.254
184.689
215.504
187.910
222.885
237.334
228.357
196.507
226.072
239.036
229.339
206.982
218.507
223.638
229.958
230.460
210.700
160.832
216.624
232.788
202.188
221.588
235.491
172.685
168.691
160.592
164.366
199.843
185.111
178.178
207.749
214.365
218.400
201.239
196.613
157.459
194.685
207.353
164.020
161.603
188.443
173.985
172.119
220.856
223.377
185.869
188.097
166.069
185.318
227.522
224.781
182.176
179.330
191.373
156.828
200.417
185.943
198.351
172.114
159.757
169.115
92.391
106.666
96.151
121.942
87.196
102.348
105.255
90.985
104.661
116.124
118.114
102.692
103.136
124.757
114.061
114.106
88.144
121.392
91.479
123.099
111.391
91.069
104.088
130.595
90.722
103.491
108.161
101.396
121.279
95.767
109.393
92.504
129.642
125.082
117.663
124.512
127.826
95.582
114.320
95.024
115.370
88.749
114.647
110.344
97.425
95.618
102.692
98.904
112.050
113.838
123.215
118.287
130.649
118.289
124.503
86.019
119.966
101.496
100.666
99.905
105.757
116.103
107.690
121.294
108.607
103.824
96.531
120.900
129.995
89.656
85.984
92.111
111.232
126.872
105.782
114.933
116.022
89.948
85.667
89.259
125.961
95.447
113.278
123.064
103.551
122.330
114.930
112.389
101.999
109.273
111.646
122.634
129.535
123.423
122.647
93.362
117.828
91.893
88.946
122.763
91.232
118.562
128.994
106.743
125.230
123.791
115.381
121.433
94.305
94.976
120.994
123.350
116.027
103.032
118.052
124.791
101.749
107.892
86.119
112.426
101.106
87.357
120.857
96.182
105.692
116.610
96.762
107.225
113.608
100.353
128.056
105.553
103.445
88.980
115.239
114.450
99.568
128.732
91.115
89.978
101.441
88.600
92.494
113.687
105.668
113.816
99.006
91.167
92.014
118.668
112.919
115.532
107.009
125.942
105.336
114.110
127.975
99.468
96.386
92.375
106.513
100.997
91.389
104.273
102.051
94.035
127.011
117.648
84.937
112.867
106.958
99.637
92.320
96.931
107.673
121.243
105.299
122.544
122.004
86.158
87.871
105.105
96.041
91.538
104.363
123.451
113.076
122.355
125.657
88.568
126.740
101.255
103.186
115.943
94.447
104.459
115.444
116.751
101.376
128.079
118.862
86.554
96.949
84.918
106.528
109.978
112.046
126.019
85.235
106.248
101.068
116.797
127.312
113.853
109.737
96.160
114.303
125.069
83.917
127.467
105.401
122.150
127.746
94.510
111.432
124.330
121.687
126.749
90.050
86.843
86.527
87.418
117.231
104.190
126.947
92.186
87.967
110.158
113.070
92.894
121.880
125.120
97.125
111.652
128.877
93.632
123.784
129.086
94.236
94.539
106.206
94.833
105.711
123.587
101.545
91.738
116.001
124.734
88.452
87.980
105.194
87.314
105.025
89.913
113.812
110.377
88.411
111.144
121.244
129.289
99.807
104.025
111.167
97.836
106.456
89.681
96.575
116.630
115.312
119.313
119.622
86.046
121.709
121.166
99.144
96.348
97.249
107.155
98.053
111.898
85.310
126.227
103.628
101.174
127.235
94.321
104.970
112.557
111.073
84.678
126.060
91.860
104.239
106.797
122.762
116.650
96.374
101.459
95.110
119.267
92.566
102.547
103.269
109.518
93.871
127.498
123.418
113.218
128.878
96.777
100.109
91.417
89.985
117.435
117.235
103.239
103.906
124.259
85.608
127.312
91.138
99.151
105.725
118.840
98.590
88.709
112.783
103.056
106.348
90.947
84.534
103.591
127.027
95.611
108.577
122.238
88.445
112.711
119.374
85.463
114.440
121.541
117.127
100.741
128.584
95.547
87.099
87.186
120.709
119.848
118.538
97.805
107.440
102.255
113.832
122.451
102.418
100.628
121.183
87.018
116.788
90.947
85.144
119.588
124.649
99.236
116.337
123.435
98.215
100.947
112.730
128.808
96.268
107.454
102.616
85.531
127.787
94.330
112.153
107.879
121.427
98.225
111.767
109.491
125.741
127.532
84.777
108.608
90.016
121.483
129.464
121.690
99.559
98.246
109.992
117.551
120.771
106.033
98.945
110.142
102.172
94.688
104.276
85.783
128.177
122.416
92.726
99.670
112.097
115.656
118.855
102.589
118.040
105.439
105.220
118.915
90.588
108.805
99.599
105.978
110.120
122.546
123.215
109.083
128.716
95.267
125.874
88.128
114.328
84.038
84.496
104.403
96.106
106.565
85.000
96.138
119.365
111.563
122.274
114.604
119.344
89.430
110.861
121.767
127.921
122.789
99.775
85.054
84.733
101.638
97.957
121.218
85.483
97.017
129.213
96.138
123.382
114.014
85.437
90.682
101.636
103.538
112.048
99.565
125.522
98.956
102.688
113.202
84.351
124.427
109.366
86.910
122.646
123.308
110.452
123.698
109.655
125.744
101.487
122.335
97.671
115.625
86.917
92.771
100.014
122.838
106.583
126.874
88.352
91.645
119.430
126.309
122.403
98.178
97.893
90.171
121.122
108.916
102.756
129.674
125.682
103.720
94.574
87.318
100.024
100.715
84.138
116.047
87.574
98.111
101.215
95.650
110.780
87.094
119.015
117.260
99.914
124.229
88.250
102.064
83.973
117.829
119.619
89.525
116.651
125.933
87.362
90.302
118.629
107.444
103.198
84.693
120.598
108.190
106.399
104.430
111.535
86.281
94.910
96.390
87.308
128.084
111.045
105.252
107.449
92.262
114.492
127.290
129.311
105.771
104.501
105.340
93.261
84.013
96.089
99.351
124.731
104.312
117.364
114.423
96.965
86.564
98.359
100.908
86.720
84.961
126.085
124.805
92.512
120.160
109.397
124.036
125.926
125.478
113.931
126.158
122.268
129.696
112.395
103.607
85.445
112.561
88.662
96.743
110.082
106.804
123.379
96.671
123.160
84.537
123.166
86.984
109.682
93.576
97.930
85.580
92.846
117.067
84.225
117.803
100.706
123.279
104.831
110.714
103.341
124.571
84.339
106.619
114.166
94.526
114.807
93.678
98.747
103.091
84.119
118.647
100.535
110.490
87.233
96.207
88.218
129.201
97.983
85.756
124.346
95.278
109.320
120.819
87.518
96.170
101.243
122.872
85.860
128.422
113.271
110.593
125.165
84.676
100.444
100.234
127.188
114.643
104.958
104.648
102.712
121.781
110.341
111.383
103.775
84.828
94.903
121.547
97.944
118.233
111.204
127.578
98.306
93.652
108.014
128.789
87.349
87.935
108.730
116.779
129.705
92.308
122.216
110.311
97.007
92.892
101.099
112.602
99.373
104.044
115.946
122.827
92.991
126.890
128.962
96.471
97.417
123.139
110.945
122.292
95.404
107.147
114.806
111.431
96.212
85.331
114.262
107.524
106.451
115.006
109.047
106.135
113.939
105.763
86.221
126.301
92.657
95.491
114.439
103.210
119.647
119.920
97.422
113.144
90.143
102.107
104.796
85.220
103.158
112.831
93.505
114.154
114.701
94.142
84.618
127.086
125.278
106.253
103.112
126.788
86.981
115.875
118.669
124.837
121.020
116.368
128.479
89.553
105.227
114.229
91.217
95.539
84.600
120.305
121.103
110.110
84.897
97.120
99.303
108.755
118.579
110.224
84.768
113.183
84.249
123.543
89.354
111.628
92.512
108.503
119.112
97.496
126.673
101.760
110.607
118.968
90.325
98.857
84.705
98.185
93.779
126.024
110.047
98.840
97.115
104.341
99.572
106.361
97.031
107.880
120.830
89.988
111.309
112.101
105.963
106.045
94.430
85.455
117.405
118.556
113.790
92.261
120.804
93.855
118.643
119.013
106.081
100.678
128.792
114.166
127.200
113.597
110.436
109.613
124.698
103.736
94.632
112.679
129.210
84.229
119.066
108.240
104.347
93.400
109.150
100.753
101.721
110.393
129.728
121.136
88.167
91.913
113.382
121.368
94.675
129.292
119.829
107.443
96.847
124.678
93.924
99.235
110.368
102.272
98.099
115.368
107.065
85.228
86.527
112.030
105.167
128.251
96.871
107.047
86.108
104.339
114.853
109.684
118.111
128.357
120.183
88.332
85.605
