837.057
836.926
850.506
844.414
841.090
838.576
844.989
850.523
851.897
843.500
846.275
853.553
848.317
857.876
861.659
854.919
854.807
855.595
862.931
854.119
861.754
860.835
857.068
860.378
861.617
859.450
860.051
870.114
871.138
868.520
871.797
876.051
870.770
873.581
870.225
875.484
882.211
880.693
875.217
884.907
874.506
887.318
879.093
883.335
890.676
894.697
886.533
884.664
892.908
884.685
888.517
896.094
890.794
891.998
897.755
893.408
898.930
901.061
904.921
908.185
903.444
906.076
904.114
910.013
911.828
911.889
916.954
911.439
910.104
914.393
915.369
914.426
913.952
910.928
925.512
915.382
927.880
914.403
916.377
920.478
924.315
924.318
927.881
932.991
931.468
927.086
927.774
936.216
936.239
938.224
942.539
937.252
943.623
944.316
941.413
937.956
942.335
945.097
948.575
948.810
940.651
944.787
954.632
952.566
946.771
944.242
949.584
949.715
958.680
953.856
961.831
960.274
957.834
964.531
952.107
964.048
954.675
970.214
958.534
964.921
970.210
962.503
967.864
966.796
970.306
969.824
971.163
969.336
980.418
968.106
974.311
982.360
984.006
973.674
974.313
975.530
978.454
991.007
979.863
978.548
982.963
987.560
996.665
993.724
989.982
990.082
995.294
1001.584
1000.804
996.504
1001.928
992.661
1003.518
993.334
997.793
1005.019
1001.883
1002.280
1006.333
1014.669
1012.573
1011.285
1013.365
1005.073
1007.217
1016.433
1019.707
1019.932
1013.325
1014.839
1011.796
1020.584
1022.665
1029.288
1020.055
1028.721
1030.614
1025.906
1021.136
1033.620
1032.218
1031.484
1035.815
1028.586
1033.503
1026.159
1042.872
1029.153
1030.206
1036.522
1043.489
1044.318
1047.875
1048.663
1038.092
1048.034
1048.239
1050.419
1040.518
1043.722
1046.013
1047.390
62.177
49.889
55.507
67.770
67.545
56.310
49.695
72.517
66.862
77.807
67.573
52.700
72.107
62.007
71.750
56.491
61.043
70.954
63.405
62.785
67.152
67.920
52.906
54.740
65.530
59.954
67.168
74.135
59.273
72.396
53.694
58.405
53.140
66.935
63.270
66.097
75.308
62.674
55.586
52.776
68.502
52.125
55.075
70.348
49.997
77.857
65.315
68.643
71.805
181.492
228.060
247.875
176.589
254.285
233.351
224.714
228.348
216.352
174.184
190.507
202.001
236.712
239.459
167.011
217.137
214.770
227.146
212.240
228.769
216.368
188.358
243.229
219.273
173.000
215.181
187.681
228.061
174.730
191.430
240.169
225.783
225.129
181.284
190.904
233.557
184.194
208.759
204.282
226.880
226.189
217.596
229.046
169.481
255.410
176.842
168.195
219.351
202.454
245.195
246.548
97.730
143.369
91.921
140.359
92.100
99.185
100.310
140.515
141.312
135.175
111.202
103.600
137.147
116.144
129.677
107.638
100.276
98.646
98.657
141.551
121.400
92.703
136.571
115.703
103.886
118.517
117.151
101.159
138.069
110.471
136.213
139.981
106.367
122.335
139.931
98.280
117.538
126.566
115.238
104.923
113.444
115.726
107.888
97.234
110.892
131.599
122.074
142.069
109.559
116.423
114.063
103.436
123.488
122.854
98.881
116.116
101.381
134.282
122.312
116.911
131.774
141.681
97.057
115.844
114.413
137.631
105.095
145.544
114.634
123.650
133.051
99.469
107.098
141.450
120.201
142.015
145.475
125.939
116.780
142.481
98.115
143.720
113.695
137.543
128.854
125.642
133.187
126.809
119.646
106.616
125.228
116.375
116.139
146.120
117.850
132.195
121.077
115.625
117.960
120.853
133.850
137.126
110.996
141.912
141.637
142.504
142.932
102.427
120.381
143.232
129.869
106.871
128.801
97.070
107.372
111.178
125.719
125.004
100.020
145.931
97.822
100.791
118.960
96.648
110.969
132.673
135.970
97.651
133.750
112.087
106.938
135.654
127.603
115.358
120.282
109.855
137.580
101.543
110.455
130.356
134.442
99.726
125.314
144.521
136.963
141.172
118.726
116.181
125.781
110.406
96.950
131.613
99.357
98.820
116.731
106.042
99.174
143.078
103.277
132.939
128.844
145.802
103.848
130.922
114.052
139.251
128.032
100.990
107.191
125.164
105.655
100.016
108.281
141.184
95.165
131.147
140.895
139.993
137.467
141.579
103.651
97.478
109.895
109.458
107.865
107.522
121.069
114.312
109.108
99.268
141.533
107.179
98.525
101.264
146.060
116.977
115.425
145.193
134.974
104.465
114.306
97.283
113.396
114.123
125.479
96.053
118.731
129.345
95.150
136.443
107.660
99.339
125.848
105.965
130.124
106.167
128.644
129.528
141.524
98.237
119.314
124.974
102.085
141.820
125.693
121.123
142.862
130.006
100.347
133.683
108.412
131.200
123.375
124.123
109.967
121.842
129.447
117.320
106.041
132.908
95.661
113.079
106.148
128.406
133.759
102.079
127.171
116.271
126.317
107.898
145.813
102.670
137.436
118.178
124.088
115.032
117.426
140.617
134.316
100.799
145.634
124.424
116.117
116.589
137.301
104.898
129.298
130.524
98.703
110.842
120.627
127.956
138.569
140.838
119.116
135.247
138.579
113.650
102.899
97.197
98.595
133.091
99.868
122.509
97.923
130.939
127.681
119.742
119.010
120.249
112.909
137.759
108.651
137.779
97.554
100.519
135.482
96.002
118.623
115.656
107.577
112.666
125.272
139.551
99.804
144.004
142.871
128.793
122.722
127.867
140.378
103.691
136.987
105.358
111.742
114.711
98.991
139.155
146.295
103.134
146.042
106.792
144.496
110.947
127.981
118.935
126.134
115.818
103.639
101.961
146.512
145.003
102.535
134.799
97.452
144.704
144.604
125.651
106.646
134.606
122.470
133.092
143.328
114.136
144.997
107.744
131.492
105.051
118.625
140.486
144.240
127.490
128.001
120.432
137.236
126.801
95.172
127.824
101.598
118.149
96.799
127.297
143.390
132.986
137.087
100.119
145.630
111.768
127.814
142.553
133.336
111.349
119.828
138.983
98.907
125.262
121.251
111.668
116.848
121.996
140.970
121.822
107.397
102.351
140.751
134.346
145.905
133.771
127.830
135.179
108.323
124.086
144.500
124.673
95.299
105.800
112.666
96.281
118.872
95.903
121.125
118.906
135.540
95.021
122.809
129.148
106.681
137.487
135.435
114.591
123.698
119.876
104.896
99.867
106.717
133.985
123.314
97.643
101.648
95.906
117.727
135.255
123.753
133.055
121.513
114.813
102.696
95.318
101.710
125.468
102.237
127.105
128.854
122.660
95.766
98.094
98.383
101.534
114.861
102.735
129.390
98.167
127.413
108.727
121.491
102.830
119.499
113.342
125.499
132.058
113.961
132.641
118.120
121.421
143.997
118.362
107.777
146.444
127.209
142.429
135.151
114.686
131.325
139.390
104.313
101.376
123.063
134.547
130.128
128.507
138.027
133.488
101.007
103.564
139.375
122.555
144.914
129.138
122.766
113.655
126.326
103.962
95.399
137.106
100.605
131.897
121.590
128.251
98.372
105.410
128.222
97.354
115.893
118.250
104.670
96.680
127.558
98.615
104.932
135.564
104.779
127.004
143.134
107.236
122.919
120.502
114.307
136.301
104.765
105.291
101.239
139.083
137.391
124.951
96.473
138.943
103.624
106.337
133.726
134.171
115.391
130.078
116.963
107.846
104.022
132.431
139.245
140.732
124.741
143.413
118.742
130.916
112.010
126.527
131.490
140.085
118.014
109.194
137.727
106.384
94.971
112.984
124.832
134.490
136.807
135.385
121.924
103.150
140.230
106.952
95.043
125.550
127.776
119.576
141.057
97.298
134.237
105.351
132.266
145.498
112.530
129.639
124.798
124.713
100.642
99.307
109.356
113.101
141.446
128.333
109.880
101.115
137.141
99.236
119.997
146.582
95.866
95.083
95.008
104.606
139.859
135.078
100.954
134.230
98.400
99.682
121.170
102.191
101.208
132.890
139.281
113.851
95.539
120.548
117.524
138.545
110.936
127.264
129.053
131.248
132.011
96.602
135.185
136.282
115.697
145.031
105.214
117.526
126.920
119.971
103.697
108.697
103.061
96.521
128.906
123.233
98.895
124.560
145.635
141.810
103.037
108.928
117.520
99.268
146.241
95.994
135.923
96.308
98.122
95.372
129.980
108.609
120.904
127.850
135.984
141.213
113.000
107.256
99.530
123.431
102.457
124.356
128.948
129.667
123.777
111.515
111.529
108.579
138.018
115.264
108.707
127.341
104.805
104.408
104.623
136.881
96.356
136.210
110.639
142.770
128.576
97.573
117.417
128.641
103.946
111.538
134.343
145.269
104.467
112.643
109.274
101.456
106.784
133.866
99.796
136.172
107.116
110.023
104.894
102.542
132.940
134.168
113.130
108.625
119.072
99.663
143.131
103.819
97.761
106.645
139.249
143.372
94.954
99.557
112.484
122.521
143.530
117.398
138.178
117.444
96.476
141.539
137.633
129.791
103.947
131.546
136.476
138.902
128.231
110.806
113.471
136.574
134.322
138.015
115.449
112.545
101.513
145.217
118.712
135.483
132.366
112.576
126.011
117.523
142.242
135.843
94.968
145.147
129.461
138.657
110.621
125.456
102.135
113.033
112.180
112.376
99.820
102.154
101.256
140.996
120.085
129.615
141.178
101.182
118.341
112.964
120.500
137.434
135.585
103.710
137.302
130.552
138.390
145.139
105.135
132.537
131.476
95.582
136.520
96.232
104.588
121.437
127.077
138.142
104.962
99.187
100.403
99.809
127.013
126.856
107.191
118.517
124.871
104.285
100.197
120.291
138.148
102.345
133.169
136.751
118.782
126.880
110.490
139.688
121.138
137.928
113.976
136.148
104.689
119.390
128.578
134.538
119.327
104.924
120.083
110.866
122.789
142.429
122.758
108.126
134.247
122.621
95.268
116.230
105.820
114.182
106.622
107.506
100.222
117.809
142.584
120.578
95.963
133.580
145.153
101.809
108.038
95.618
135.423
127.740
111.378
129.046
116.786
130.243
115.398
130.476
104.998
117.748
106.655
123.659
131.865
108.363
141.707
102.023
134.915
95.935
107.092
140.443
132.306
108.983
125.647
129.723
107.872
140.251
133.591
115.963
105.790
118.361
135.368
131.275
131.936
140.169
99.467
112.392
105.258
108.306
95.529
120.827
134.085
122.554
138.764
121.813
124.497
125.468
130.628
145.114
113.689
127.278
119.476
112.568
131.995
110.598
113.469
139.816
136.964
116.524
130.641
97.219
144.435
126.773
128.763
109.280
140.184
115.100
135.649
106.235
138.570
143.411
116.065
113.924
126.573
99.541
136.684
100.852
108.216
115.551
142.447
126.182
139.118
98.006
146.449
107.863
96.649
109.781
141.690
123.394
113.761
112.410
97.914
127.550
115.236
145.780
134.572
115.065
120.348
119.159
109.168
94.827
114.417
126.148
146.466
123.486
95.302
145.785
103.487
131.805
111.575
131.862
120.482
134.550
126.000
138.757
121.849
105.653
103.343
99.611
127.001
128.543
96.611
115.893
144.996
128.957
116.937
129.116
111.828
146.411
116.131
109.284
145.133
123.473
144.018
106.208
125.387
117.624
118.343
103.704
133.862
136.544
108.391
112.533
101.488
112.695
125.861
120.958
121.356
126.298
116.202
125.449
133.831
132.977
120.700
97.467
123.107
137.511
128.306
105.257
124.966
128.444
96.225
96.283
116.244
113.291
119.726
122.839
142.017
111.860
111.767
136.342
142.116
95.290
113.556
138.953
128.065
127.067
119.656
126.772
133.615
121.704
106.673
132.202
128.040
116.593
136.160
133.391
131.185
98.154
99.424
118.726
97.553
101.455
127.567
95.700
115.231
116.379
139.531
110.100
133.280
131.993
142.864
140.024
146.275
135.362
145.999
98.282
101.407
142.792
112.621
110.795
127.049
111.966
141.003
127.006
121.550
127.321
122.705
95.725
99.552
135.467
102.816
105.128
121.507
107.631
127.761
96.420
113.939
98.924
109.671
134.337
117.448
120.409
120.917
121.499
118.530
137.024
111.320
101.376
120.329
119.963
128.294
95.392
117.391
103.586
137.885
102.645
124.543
97.093
118.121
101.852
121.172
100.596
114.766
96.591
129.481
126.508
145.384
121.488
128.813
125.623
102.945
114.749
107.493
101.382
100.190
118.273
134.659
103.486
131.626
121.049
145.142
131.603
125.694
125.488
99.714
95.935
131.042
103.204
119.184
115.825
118.307
126.727
117.128
145.073
123.659
134.833
125.369
112.597
136.243
129.765
111.897
109.047
131.663
136.769
117.174
102.029
114.678
142.559
122.045
145.501
115.788
117.064
116.980
137.658
129.450
127.316
106.307
112.331
104.852
136.091
115.797
112.902
141.302
118.598
139.143
120.796
119.764
106.341
103.393
106.972
122.981
98.462
145.454
135.640
145.539
144.729
95.627
139.831
131.897
121.559
109.363
110.214
138.190
99.730
110.018
129.263
118.521
99.898
108.700
98.901
125.027
100.474
124.185
144.190
134.974
138.003
111.462
108.874
121.806
103.472
131.068
129.362
116.152
110.390
105.024
134.729
101.414
135.594
111.911
118.184
138.462
110.875
131.635
123.183
116.514
123.442
117.289
118.239
98.646
137.705
99.606
144.109
112.376
106.300
108.322
104.246
120.978
137.942
98.183
142.111
130.086
124.882
136.608
142.129
136.005
143.211
105.413
101.608
102.899
131.919
145.090
124.259
122.774
135.352
127.180
125.687
99.594
98.464
131.508
133.944
116.135
105.263
100.867
117.729
103.420
146.551
116.480
113.299
140.020
101.104
127.350
102.652
100.326
133.585
129.005
113.899
143.708
144.529
146.682
97.939
140.894
126.264
105.096
126.923
112.187
110.852
143.525
117.004
95.397
110.278
104.999
143.980
123.583
107.767
117.794
129.996
98.238
97.854
107.697
134.862
125.286
132.586
101.537
118.028
119.765
98.299
130.413
134.436
98.909
98.387
117.102
115.473
109.691
132.368
100.557
102.567
132.119
95.612
122.508
114.561
109.929
99.808
122.993
95.652
119.664
121.730
98.730
137.521
109.510
142.228
135.450
135.594
124.166
100.428
115.748
128.792
144.693
108.813
137.518
107.619
124.184
128.798
106.847
123.610
145.553
135.571
96.794
98.407
116.328
95.763
138.062
95.231
120.101
134.582
111.175
120.992
135.376
133.753
122.293
113.830
105.552
108.170
102.476
114.854
102.573
115.108
102.254
111.116
132.283
121.494
95.522
115.875
134.524
111.491
100.573
138.227
123.499
145.482
104.003
144.631
137.419
132.132
109.095
138.309
111.676
126.845
139.314
141.305
116.246
98.578
124.688
126.074
130.959
137.249
136.821
133.561
129.737
108.954
123.164
99.954
97.664
117.009
127.776
127.589
146.396
143.869
107.819
132.345
133.973
98.867
138.403
126.460
114.537
109.113
129.076
113.477
135.936
116.683
130.488
96.807
141.216
143.246
115.338
131.797
125.494
121.584
108.120
114.725
118.241
131.747
138.992
141.315
105.559
102.033
120.535
96.469
133.495
99.782
140.275
99.644
144.791
114.417
129.443
139.394
114.274
110.464
130.837
137.216
138.810
101.715
128.883
118.684
107.045
100.740
138.360
131.999
141.554
103.919
104.694
136.626
123.344
143.966
97.760
107.905
134.685
126.043
110.020
99.789
137.688
145.887
134.523
127.329
122.085
143.028
144.787
105.345
125.613
143.296
112.356
96.732
136.340
142.745
106.543
108.276
141.714
99.029
101.558
102.803
130.995
129.424
142.936
105.989
113.830
143.059
102.467
113.711
104.065
102.974
102.283
119.053
119.695
101.555
104.911
129.439
112.208
99.975
98.696
124.218
129.033
146.332
132.441
146.127
133.364
98.154
107.990
104.988
124.032
108.698
135.949
141.588
109.016
99.010
105.834
138.331
131.728
120.996
96.367
127.568
142.788
139.047
138.604
116.963
98.785
97.622
125.342
116.178
134.613
112.317
131.672
127.712
111.290
144.118
107.382
134.871
112.897
127.984
104.255
139.791
119.678
135.846
96.894
109.083
100.149
144.816
141.690
118.495
105.408
125.508
103.979
97.970
101.023
132.765
128.057
122.995
120.227
126.169
109.652
120.858
119.131
109.109
145.209
108.252
99.524
131.485
120.016
109.118
98.797
124.462
117.449
120.014
97.351
117.650
98.720
138.410
114.979
107.179
133.438
119.664
124.049
106.409
97.992
127.627
137.727
123.119
101.666
99.985
131.887
102.234
134.983
104.703
129.609
105.750
99.120
146.166
134.742
130.841
123.380
94.948
134.375
129.874
114.355
124.561
134.095
106.514
126.897
108.831
133.307
134.355
108.168
104.596
122.059
125.650
115.365
124.881
115.512
123.629
144.654
97.374
118.471
115.151
116.386
111.503
119.350
101.646
132.248
120.730
129.728
123.762
131.481
110.535
124.131
107.860
125.882
142.513
114.364
111.979
111.901
123.466
115.204
111.502
94.877
97.840
103.369
127.966
116.657
132.024
128.870
137.134
115.413
126.630
146.327
134.174
131.946
143.936
108.086
114.098
95.103
116.242
119.004
141.562
137.204
137.614
97.528
141.141
124.199
133.489
108.629
144.545
138.838
142.153
118.408
140.449
140.205
145.899
120.299
98.311
98.344
105.873
112.588
120.195
101.367
114.400
95.939
130.283
98.073
113.157
98.877
137.877
145.380
99.336
127.303
123.233
133.799
146.353
96.902
102.095
126.098
105.416
130.976
116.882
146.390
137.215
128.894
131.226
132.381
139.135
114.267
102.777
138.926
119.615
122.315
133.191
107.973
110.125
100.381
106.497
144.557
101.688
133.197
132.497
142.208
100.626
140.255
128.252
117.814
106.412
124.711
128.435
125.401
105.228
