825.361
828.724
817.199
816.220
812.043
814.237
815.404
825.609
819.779
824.501
819.020
810.168
810.193
809.317
815.416
818.476
807.994
817.491
811.167
816.511
807.324
814.529
807.669
814.957
815.412
801.346
801.281
801.041
798.318
798.305
797.664
811.665
802.847
802.255
800.269
803.219
797.343
797.203
803.613
804.162
798.876
797.368
800.105
797.618
801.275
793.994
792.950
794.220
786.827
795.213
789.131
795.802
795.895
793.683
798.009
783.258
790.074
784.669
790.297
782.391
789.246
779.676
783.369
792.699
778.890
778.643
783.709
779.025
784.427
779.576
775.247
783.098
780.865
776.429
776.453
773.314
771.267
774.012
779.123
772.516
775.214
782.669
779.527
776.868
780.806
771.636
769.184
772.931
774.371
768.775
770.181
763.673
776.140
771.952
763.561
766.493
759.113
770.586
766.373
765.742
758.155
766.184
757.517
764.889
755.294
764.202
767.093
760.437
759.885
755.504
757.146
759.110
761.368
753.799
762.789
755.227
757.473
747.542
760.332
754.714
751.753
757.100
750.041
756.210
753.563
749.914
752.735
753.261
751.523
749.317
739.856
751.077
743.117
751.253
743.128
744.248
736.974
735.332
743.400
746.269
737.757
736.391
739.470
736.533
744.103
740.796
743.906
743.535
743.715
741.646
737.167
740.176
740.113
735.073
743.622
744.871
733.102
748.065
745.577
740.972
743.342
749.741
744.136
753.779
744.788
756.232
756.086
751.159
749.463
749.747
751.666
747.588
748.141
754.331
756.826
757.205
761.064
752.423
764.093
754.471
762.039
756.324
759.142
765.431
767.813
759.464
764.394
762.028
776.212
768.784
766.735
777.968
769.507
777.813
771.570
771.504
770.342
775.688
780.006
775.129
774.070
783.423
776.782
783.435
785.452
782.497
780.600
780.491
790.856
795.086
792.435
796.921
792.762
795.311
791.735
791.690
801.117
799.316
804.652
799.467
794.709
807.754
805.831
800.591
810.165
801.418
803.340
808.602
802.848
807.193
802.902
811.567
817.794
808.059
814.466
810.724
819.240
819.306
816.589
821.955
813.436
826.425
817.197
816.406
825.291
818.017
820.885
819.194
819.887
833.895
825.349
832.077
833.036
831.953
829.648
834.863
837.341
840.074
831.186
837.339
838.391
842.623
840.073
846.182
846.544
842.783
844.504
843.791
850.687
850.462
840.131
852.528
855.689
855.995
856.919
856.719
853.525
848.417
854.861
861.374
854.539
858.282
854.899
858.715
867.985
858.574
866.429
870.556
866.642
858.080
859.627
861.357
863.799
872.119
874.054
870.335
872.960
874.969
866.648
879.991
879.555
879.440
879.016
883.938
882.648
883.267
874.114
887.112
877.294
889.455
887.490
885.045
890.875
896.561
892.854
893.240
891.344
890.823
885.624
893.884
899.724
891.811
889.680
895.343
893.621
892.200
901.060
908.185
905.738
900.731
912.298
903.638
913.033
908.708
902.593
904.586
911.234
914.043
914.658
920.887
918.166
909.404
918.078
915.092
925.384
921.245
917.098
918.028
922.478
916.348
931.515
923.210
924.518
917.737
928.960
927.029
921.483
915.794
918.432
928.377
919.461
924.447
916.981
916.771
921.771
915.040
926.279
914.379
925.578
921.748
915.205
917.870
911.145
913.752
917.538
924.230
911.517
911.590
921.656
922.090
913.127
913.952
920.561
921.617
915.792
905.291
918.036
904.839
916.770
913.413
906.728
917.242
908.263
904.411
911.867
909.187
902.907
903.349
901.429
913.497
900.526
905.183
900.170
909.598
907.605
910.451
906.974
910.250
904.784
904.803
910.781
908.835
905.139
905.144
902.361
903.855
895.723
905.334
899.462
900.230
898.192
906.524
900.188
906.969
904.044
905.183
900.619
895.143
897.924
890.851
904.035
897.984
895.586
894.400
890.479
891.835
903.393
899.008
889.141
902.436
898.101
891.411
895.273
886.627
896.873
897.286
899.937
889.754
893.361
890.059
886.742
891.024
887.891
895.170
891.594
894.675
891.081
883.528
885.421
883.205
883.221
883.279
887.585
883.716
882.917
886.454
878.806
884.682
886.492
884.178
890.349
876.193
888.504
875.631
882.249
878.950
877.902
889.459
876.981
877.333
880.474
873.030
874.801
882.134
879.316
878.293
876.167
885.166
878.413
871.966
875.948
879.130
883.083
875.010
882.698
878.495
874.862
870.504
881.344
877.897
877.424
873.582
865.855
870.017
868.648
878.017
878.694
874.045
864.064
873.429
866.361
875.247
871.531
862.707
876.924
861.331
874.738
861.119
862.450
869.098
874.102
865.285
863.396
862.904
871.769
867.961
870.404
869.529
872.069
856.928
857.198
864.956
856.383
857.303
869.659
855.725
862.964
862.960
857.596
852.872
863.272
853.831
859.491
860.970
859.903
853.878
860.356
856.976
861.220
864.572
863.298
850.973
860.183
846.823
852.818
852.772
848.112
846.265
854.189
848.000
855.469
853.684
838.580
847.594
850.857
839.197
847.745
838.148
846.714
841.600
845.793
840.410
843.292
844.646
836.424
835.069
835.400
837.554
829.812
839.171
828.640
831.575
824.234
831.761
821.421
827.155
817.563
817.132
815.771
825.038
814.805
816.833
815.541
825.802
825.415
809.462
820.885
808.130
809.326
818.278
814.265
811.551
812.475
812.762
812.834
806.972
803.869
812.616
802.571
808.707
802.337
809.274
807.490
803.325
803.527
792.508
793.119
800.773
803.892
796.646
795.308
786.389
799.372
791.968
790.417
797.589
792.658
794.192
786.869
792.283
784.746
780.684
783.060
791.056
787.067
777.783
776.779
771.869
784.127
775.863
775.403
769.090
781.546
772.402
768.849
769.096
764.774
774.333
777.098
770.341
773.019
765.394
769.453
767.046
759.758
760.467
765.382
759.069
755.266
760.236
763.280
762.039
763.391
761.037
752.936
759.674
755.237
758.061
755.293
750.005
754.170
743.348
745.693
750.978
742.480
746.607
743.421
737.517
740.142
738.969
739.891
733.937
736.424
746.854
739.747
741.984
740.451
739.005
737.632
733.551
728.642
724.385
735.914
729.602
727.408
735.740
722.190
727.849
724.113
731.089
728.948
725.803
724.844
726.092
719.036
712.164
725.739
714.939
717.096
710.863
719.783
713.628
717.441
718.805
718.526
714.689
701.569
704.167
702.563
710.908
710.399
708.196
708.254
702.985
703.400
701.623
703.111
694.815
700.486
699.256
696.442
690.199
692.642
690.207
696.760
691.754
695.597
698.686
687.129
687.309
682.706
688.552
680.274
689.905
688.717
688.141
686.793
682.618
684.753
680.089
678.846
685.833
678.301
680.685
683.319
676.574
677.811
687.877
681.084
687.743
689.877
686.236
689.139
692.204
689.015
686.326
699.101
697.148
701.731
697.447
688.630
702.431
695.310
704.723
694.664
698.792
697.296
700.673
708.873
698.617
701.917
699.726
708.560
706.857
702.822
704.570
707.528
711.479
708.625
717.149
710.938
717.500
716.661
722.498
717.657
717.189
717.548
722.199
724.755
730.181
728.905
727.107
722.660
732.570
734.496
727.285
724.397
734.808
729.287
726.342
730.303
737.173
742.046
736.893
740.921
739.294
734.698
736.148
746.204
746.797
741.278
746.443
739.136
744.823
748.945
746.819
748.171
754.703
755.279
745.987
745.916
756.917
754.710
752.371
758.446
750.147
764.809
762.444
757.624
757.491
763.727
756.811
768.432
758.150
769.729
769.286
773.705
767.262
761.924
774.214
764.964
776.698
766.735
772.804
768.030
768.769
780.634
781.196
777.112
780.263
774.706
788.391
778.613
785.264
785.520
786.386
789.555
783.424
788.904
792.328
781.506
783.599
797.671
793.799
792.833
785.875
790.675
801.372
801.174
798.414
793.816
793.168
796.527
795.999
800.604
806.955
810.304
802.430
810.810
803.506
807.886
813.993
813.341
808.359
807.296
806.394
819.115
815.350
819.736
823.401
816.818
811.351
813.880
816.281
813.510
818.243
829.254
828.232
828.415
826.891
833.159
826.651
823.138
832.450
828.082
837.378
836.746
834.452
832.204
839.886
837.820
841.991
841.734
839.961
835.267
844.318
847.164
843.142
847.644
837.696
837.995
840.493
847.341
852.332
850.350
848.799
847.473
858.347
848.252
848.085
859.784
855.181
854.038
860.724
850.890
863.393
856.675
858.093
868.330
869.468
863.942
860.002
869.806
859.851
861.778
864.794
876.074
870.837
870.497
867.956
869.592
884.131
878.139
877.692
886.986
891.036
890.763
889.225
893.521
884.374
889.293
891.121
898.591
901.215
896.967
900.598
896.289
906.114
898.350
896.618
900.002
912.397
907.774
906.318
909.296
908.134
913.774
905.853
918.512
908.542
914.459
924.174
914.953
916.027
926.310
916.582
923.940
933.550
929.060
932.775
938.039
930.622
929.748
937.734
936.599
943.762
945.202
936.322
945.509
946.998
945.701
946.201
944.820
953.681
949.998
947.161
945.368
951.682
953.280
963.939
965.584
957.673
957.192
968.701
966.426
962.824
968.844
962.449
973.492
967.987
967.169
980.839
979.412
981.280
981.268
985.468
979.919
981.916
985.998
982.666
989.739
985.248
980.706
987.754
999.049
999.232
991.874
996.801
998.512
992.546
995.543
998.513
1000.121
996.917
1003.202
1004.553
1000.802
1006.116
1017.203
1007.499
1007.411
1020.753
1008.609
1009.731
1020.864
1021.955
1022.152
1020.081
1032.179
1031.150
1026.641
1025.977
1027.081
1035.980
1039.913
1028.919
1038.843
1041.044
1043.239
1033.668
1036.114
1040.893
1047.474
1048.163
1045.021
1041.772
1045.472
1057.738
1058.623
1051.086
1061.922
1060.915
1055.225
1056.192
1054.772
1053.598
1060.239
1058.900
1061.227
1063.260
1070.242
1070.816
1070.463
1076.477
1066.912
1073.854
1080.491
1074.374
1073.465
1083.965
1078.430
1081.153
1084.662
1083.605
1089.806
1083.027
1091.463
1086.878
1099.196
1088.450
1102.543
1089.793
1102.211
1101.707
1100.828
1101.712
1110.908
1099.617
1107.914
1106.473
1109.704
1113.884
1113.430
1109.615
1108.909
1120.523
1123.099
1119.541
1125.295
1127.661
1115.093
1118.443
1118.504
1131.022
1129.445
1123.241
1126.464
1130.314
1138.970
1141.750
1131.437
65.281
61.990
65.723
83.570
72.404
59.775
67.204
77.278
69.918
62.370
63.213
59.693
62.253
77.378
67.256
67.488
77.225
56.648
58.710
81.253
80.704
73.535
59.698
84.030
63.047
61.356
64.536
79.157
81.021
66.901
57.543
81.659
72.534
84.428
84.183
72.512
83.428
61.330
56.915
70.021
64.236
71.872
57.373
65.686
60.612
61.910
69.829
73.698
61.281
263.921
249.164
212.162
256.854
255.646
198.269
182.150
205.358
185.244
212.822
211.709
244.856
182.985
248.255
239.588
236.575
269.086
215.413
192.579
198.421
251.830
248.382
205.871
247.297
198.949
241.558
228.061
215.465
271.950
260.649
257.431
236.732
183.107
270.806
233.396
241.680
245.193
242.137
255.105
223.829
255.503
219.925
271.536
268.172
216.491
253.882
195.713
231.325
251.595
209.680
192.059
128.646
115.684
130.941
108.730
112.513
140.628
103.319
152.720
145.684
120.307
105.671
114.657
150.351
119.852
149.793
130.330
150.148
148.259
106.910
139.703
121.479
150.120
130.411
117.311
131.114
124.092
113.015
133.968
117.683
103.021
126.036
127.704
144.000
147.046
137.947
113.242
127.922
144.306
149.733
126.484
121.995
137.352
111.474
110.753
148.703
144.134
145.141
119.677
118.956
141.800
129.546
116.178
147.266
111.354
128.692
106.739
152.457
118.877
140.386
109.039
111.917
106.432
121.795
139.215
136.314
102.958
102.481
150.296
110.407
103.374
123.467
109.132
111.151
106.788
101.912
116.031
118.265
103.210
150.038
121.159
132.177
140.423
120.146
142.297
103.992
115.379
108.035
112.935
139.728
127.117
108.794
111.788
118.776
108.592
110.925
122.074
136.691
113.530
109.595
135.110
140.814
102.671
125.226
112.083
132.827
144.795
135.922
147.647
138.179
135.237
119.429
138.759
125.513
142.890
115.534
135.538
152.782
121.043
107.315
116.228
150.510
104.706
129.036
113.319
118.398
145.294
114.742
102.341
133.767
114.485
141.079
123.253
111.294
146.055
148.636
152.080
103.630
108.148
144.049
102.694
121.667
145.009
145.151
148.958
143.239
131.370
137.205
139.919
133.392
128.937
127.358
151.014
123.483
124.782
129.541
139.044
117.498
117.537
128.445
129.856
151.426
114.924
107.455
105.817
126.423
124.723
107.984
121.287
120.512
129.264
130.187
149.087
129.063
137.435
145.763
128.303
133.564
134.875
121.128
127.756
115.504
103.412
132.384
126.305
116.531
126.429
118.401
121.577
111.624
134.238
139.066
116.355
149.068
118.201
152.620
142.754
107.664
109.209
113.701
135.208
126.248
126.382
131.348
107.442
106.808
122.006
133.050
124.662
103.482
148.210
120.124
130.037
145.708
133.457
136.581
119.913
149.257
121.437
123.924
134.459
111.297
143.665
113.070
131.255
125.352
139.463
112.845
141.168
113.968
103.476
127.884
113.836
116.528
125.950
113.585
129.440
147.198
111.289
102.915
144.515
142.875
115.504
119.918
113.097
101.267
142.569
143.079
148.390
115.089
141.627
144.334
147.066
110.196
136.844
147.070
132.565
126.960
131.005
130.164
108.862
132.547
119.073
133.699
118.073
129.854
116.459
140.840
125.857
129.029
112.910
108.962
123.176
127.141
148.915
118.772
130.267
102.954
132.792
128.613
134.954
146.875
129.271
151.350
108.327
127.371
111.909
145.527
128.049
128.426
143.716
145.457
146.790
122.104
125.973
147.447
128.309
124.298
151.057
121.770
129.060
121.672
127.800
130.438
143.659
113.174
135.627
116.784
114.523
128.411
137.766
109.641
125.422
133.060
123.332
101.183
146.154
112.300
123.533
113.860
106.933
147.258
142.461
129.395
129.159
150.987
134.972
132.858
126.772
141.599
120.378
136.487
122.814
109.695
144.448
126.272
104.565
147.270
111.047
128.408
140.500
130.673
128.385
125.896
118.142
139.534
119.387
134.325
139.921
113.595
127.124
121.381
152.047
132.165
109.641
141.463
137.546
101.866
107.698
129.546
139.179
102.792
103.267
138.568
144.023
136.145
106.562
124.314
123.900
126.860
125.842
141.194
115.064
132.766
135.652
104.227
136.196
145.535
135.951
123.837
122.876
115.582
114.040
108.666
144.219
146.656
137.449
152.536
124.041
133.263
116.090
129.372
117.709
128.512
129.559
117.964
126.635
152.238
123.661
112.237
114.206
105.427
103.437
103.975
121.415
134.427
152.776
146.136
144.052
128.109
137.334
116.472
107.279
113.994
117.267
131.862
140.825
106.335
117.343
145.320
128.814
108.345
118.049
152.638
132.960
116.459
114.577
126.091
135.346
143.409
138.695
131.665
105.585
138.045
152.415
126.623
120.369
133.044
144.666
123.866
115.524
149.846
138.588
133.326
135.204
139.727
117.699
123.613
135.988
124.765
137.223
108.282
125.910
102.588
122.004
149.247
137.248
145.798
149.240
134.293
106.091
134.000
122.717
139.152
151.832
127.927
106.561
106.524
103.672
123.163
128.507
109.086
144.137
116.232
145.573
129.691
145.948
108.653
130.089
140.288
127.837
147.377
131.920
139.724
115.431
146.669
128.849
138.977
125.336
121.801
127.262
129.064
108.068
124.508
124.059
129.812
118.865
152.179
125.410
141.869
102.331
135.693
115.848
120.857
107.201
117.675
110.121
125.020
131.031
150.734
111.239
141.542
149.545
105.943
127.525
132.018
132.047
105.977
123.387
116.068
138.331
117.716
147.253
120.594
123.675
124.916
147.232
112.202
123.738
107.131
106.441
117.420
121.626
123.853
151.613
106.397
126.202
141.668
139.659
126.818
116.754
106.761
146.573
136.006
118.830
115.938
144.495
138.833
110.929
106.510
127.056
140.078
116.570
128.254
125.542
141.146
143.750
153.095
125.713
129.115
112.574
137.558
132.573
153.031
107.471
142.601
152.684
103.033
139.899
103.638
127.058
147.883
103.573
125.243
150.937
121.090
139.098
135.292
105.550
112.059
140.238
107.274
125.190
108.671
114.685
135.839
112.504
139.362
131.961
143.714
141.612
101.838
150.284
115.657
151.910
148.167
112.326
149.494
101.837
143.633
103.545
108.106
136.103
110.321
123.059
119.738
135.418
137.665
126.429
116.188
119.840
146.441
129.933
153.138
110.327
120.852
142.367
113.197
147.125
108.437
126.395
141.363
123.462
117.314
150.360
138.161
112.709
150.606
140.276
150.538
104.954
138.469
101.205
135.337
139.404
114.626
134.958
131.868
113.078
151.665
147.250
115.722
115.504
139.143
103.816
129.975
131.318
139.448
115.484
151.859
106.673
128.158
108.289
109.588
106.480
142.740
132.249
136.015
105.653
119.300
110.761
126.455
147.421
150.425
110.940
118.223
111.507
146.406
150.004
108.741
108.329
118.583
146.751
147.054
117.637
145.098
147.775
122.476
127.199
144.081
101.310
120.706
148.487
114.948
117.691
143.912
144.133
139.261
139.693
113.091
123.155
101.939
103.759
132.774
107.279
106.862
148.814
144.954
104.717
118.010
134.832
106.943
141.699
113.712
143.037
141.928
116.767
108.336
102.932
125.738
121.346
118.774
116.706
142.898
148.743
117.472
119.171
128.492
136.109
139.657
132.097
115.697
135.594
101.211
146.858
135.345
108.536
115.136
143.827
113.659
126.783
110.090
137.675
118.095
132.721
142.158
108.801
102.026
150.045
117.209
110.623
122.033
121.602
101.995
114.601
106.118
141.518
114.531
108.046
108.790
