927.979
938.038
942.987
939.252
930.204
939.809
936.959
942.400
945.901
940.931
948.069
941.279
947.682
945.342
942.907
940.914
944.243
948.578
944.024
941.755
940.746
948.872
948.620
941.197
942.029
955.872
949.198
944.077
943.372
949.641
940.407
948.435
938.048
937.269
936.932
938.369
945.622
942.316
940.467
942.335
940.408
936.159
937.559
942.049
933.531
933.410
928.996
939.581
929.187
936.511
931.624
934.135
933.353
936.072
927.152
921.404
925.265
922.545
925.050
932.077
933.401
926.516
925.332
923.084
917.598
919.268
924.467
927.189
919.507
915.664
921.415
919.572
923.431
911.074
919.540
917.713
911.845
916.223
906.081
914.476
919.341
904.535
914.884
905.069
901.769
902.563
908.814
901.929
902.757
912.076
907.203
899.428
901.000
897.297
898.210
901.520
906.882
902.106
894.497
896.428
893.113
902.763
892.334
894.437
889.048
899.702
887.606
889.539
899.898
896.314
894.688
891.793
890.268
893.050
890.541
894.920
879.129
887.113
886.427
885.703
884.615
880.849
884.088
879.090
881.548
873.820
875.435
876.659
879.963
875.013
873.053
875.594
872.715
879.345
873.757
875.744
866.217
878.880
876.755
877.108
866.303
869.027
874.508
874.301
862.299
860.654
861.632
868.307
865.405
857.038
870.723
863.513
863.687
865.350
861.932
858.167
856.029
852.950
854.651
851.864
853.128
855.514
858.646
859.126
859.812
857.127
849.216
851.044
844.440
857.638
850.298
845.125
842.260
849.157
842.725
846.968
844.957
849.073
841.024
837.925
839.327
835.706
841.039
838.961
838.461
835.141
846.347
841.240
833.037
839.198
840.408
830.634
840.109
833.035
834.378
833.293
823.990
828.602
837.323
824.888
822.961
825.644
825.947
828.628
830.610
819.174
830.028
817.020
829.596
827.801
824.078
817.409
818.054
818.674
823.692
811.289
821.719
823.926
822.205
811.471
815.917
816.609
810.517
805.149
814.068
818.842
806.541
816.746
808.478
816.684
823.467
820.589
814.807
819.519
822.857
821.704
832.972
824.313
837.431
829.323
830.033
832.959
831.941
837.072
833.892
846.334
848.743
849.609
848.089
842.011
853.446
849.838
860.337
854.025
859.382
865.673
862.819
855.032
864.694
857.452
862.524
868.569
862.437
878.217
869.579
877.113
875.868
877.606
874.373
876.135
885.589
884.031
887.948
888.251
891.783
888.590
886.474
889.311
898.060
890.510
895.257
900.017
907.771
901.136
909.316
899.682
901.821
902.334
911.079
914.767
918.131
918.344
921.645
913.426
910.807
915.616
923.692
929.808
925.938
921.798
925.017
928.829
925.704
927.995
940.182
943.572
932.467
937.603
935.471
947.940
940.620
938.617
953.339
949.168
956.268
949.978
957.452
948.543
955.976
953.970
956.300
965.096
963.200
961.664
967.623
963.420
960.316
973.055
973.245
965.002
968.903
979.040
972.806
979.268
985.104
983.299
979.859
989.029
989.952
985.945
987.511
992.191
1000.466
1001.001
990.466
999.184
1002.083
996.230
999.607
1005.722
1013.225
1002.031
1009.890
1013.614
1008.557
1020.417
1008.859
1011.267
1020.965
1020.139
1014.291
1026.293
1026.238
1019.690
1027.859
1021.359
1029.076
1034.720
1027.920
1036.426
1041.542
1039.535
1042.837
1048.864
1042.251
1051.679
1040.785
1051.391
1042.859
1048.172
1058.614
1048.108
1054.617
1057.117
1057.717
1054.842
1059.726
1070.361
1067.327
1061.904
1065.252
1069.922
1067.189
1079.543
1075.643
1079.878
1081.176
1085.289
1080.875
1074.531
1081.271
1090.481
1087.347
1090.964
1088.267
1083.713
1088.213
1100.356
1093.903
1091.497
1094.241
1099.182
1102.621
1104.564
1103.180
1101.959
1107.422
1114.139
1111.470
1107.573
1116.293
1122.626
1120.721
1113.314
1125.007
1128.775
1118.353
1121.284
1119.152
1117.059
1120.294
1121.797
1124.597
1116.531
1123.223
1113.585
1112.837
1118.818
1118.923
1118.345
1115.117
1107.769
1109.898
1115.170
1107.424
1110.803
1109.091
1115.967
1113.495
1112.259
1114.059
1100.213
1107.930
1098.677
1112.888
1098.931
1101.229
1108.319
1110.383
1099.189
1106.410
1096.498
1095.838
1104.902
1091.845
1104.933
1099.773
1098.541
1094.934
1090.931
1101.567
1087.766
1098.432
1090.060
1094.955
1099.645
1096.410
1098.272
1084.637
1090.316
1085.302
1084.775
1093.566
1082.536
1092.625
1086.802
1085.101
1092.209
1083.284
1077.983
1083.397
1086.915
1088.885
1074.003
1081.757
1075.158
1085.583
1076.507
1078.343
1073.276
1081.515
1078.860
1075.608
1068.614
1071.674
1072.286
1074.110
1074.496
1071.686
1067.224
1064.500
1065.101
1074.631
1065.742
1065.418
1070.419
1074.788
1066.541
1063.714
1061.613
1068.973
1064.873
1069.797
1059.568
1063.186
1069.483
1065.184
1066.237
1059.639
1061.478
1065.239
1052.481
1051.966
1056.923
1058.676
1055.234
1062.975
1049.578
1061.954
1061.387
1056.958
1046.623
1046.202
1051.429
1046.172
1044.113
1051.297
1041.643
1049.846
1056.020
1053.833
1045.026
1050.690
1048.897
1043.029
1040.628
1051.857
1044.504
1047.833
1036.049
1034.088
1042.584
1039.495
1043.631
1038.055
1032.020
1033.774
1036.957
1031.910
1041.600
1031.831
1032.549
1036.679
1026.995
1036.691
1031.741
1036.691
1032.833
1034.023
1036.721
1036.038
1031.097
1025.639
1026.674
1022.838
1020.562
1027.494
1028.820
1029.400
1020.450
1025.174
1020.736
1020.459
1029.204
1024.566
1015.532
1021.693
1019.639
1011.533
1020.262
1013.326
1015.322
1010.628
1015.140
1023.437
1009.640
1008.616
1013.193
1009.548
1019.842
1013.935
1008.048
1018.127
1016.418
1005.841
1014.237
1002.489
1004.802
999.099
1001.812
999.060
1000.838
1008.382
1009.507
1003.871
1006.873
1007.276
1003.660
1004.034
996.881
1005.250
996.875
996.290
1000.431
994.747
993.569
991.759
981.551
987.054
989.536
993.056
988.469
985.064
984.304
983.822
981.701
978.813
980.257
973.709
978.064
967.119
968.433
973.703
974.489
965.153
962.853
961.108
967.876
970.865
959.751
963.933
962.163
964.798
962.900
953.396
962.543
949.018
948.479
950.871
959.425
959.184
945.775
955.962
947.991
944.856
953.263
939.136
946.140
941.256
949.249
943.842
937.637
935.941
936.863
930.556
941.472
939.061
937.791
934.946
938.920
934.901
924.015
934.814
921.657
921.130
927.442
930.100
919.481
916.497
915.982
913.317
913.533
911.960
911.050
908.248
907.187
916.604
910.989
915.433
907.881
905.352
913.970
904.168
906.967
906.903
908.838
902.796
906.059
904.686
895.718
900.869
896.513
895.809
894.616
895.086
883.539
888.608
893.086
886.168
891.630
880.463
883.448
876.831
883.288
879.194
876.063
877.166
883.502
873.531
870.252
874.754
878.534
863.825
872.684
866.341
871.028
859.134
866.376
864.708
858.573
859.174
866.740
865.514
862.310
865.883
862.308
852.404
857.493
853.072
847.236
847.295
849.220
856.407
854.823
852.382
850.532
851.579
851.267
834.856
842.716
842.371
833.479
832.414
844.180
840.688
835.225
834.939
828.623
835.580
836.467
833.094
821.874
822.382
820.043
826.683
816.224
829.528
819.237
820.394
818.712
815.315
811.254
818.502
820.321
805.789
811.745
803.252
813.502
809.081
808.741
803.705
802.976
796.882
806.008
795.073
795.447
804.254
802.721
795.604
795.368
795.216
792.079
787.235
795.932
784.253
793.513
781.247
793.507
787.656
781.587
780.479
785.602
774.117
783.175
782.811
776.606
772.690
773.413
777.371
766.698
763.496
758.028
754.800
760.516
751.333
756.591
754.352
753.345
743.494
748.580
744.499
738.656
732.807
738.526
729.106
730.427
733.108
729.518
728.078
723.171
728.710
721.196
717.150
718.050
715.676
711.900
716.586
706.565
711.941
706.695
695.637
694.605
689.993
701.772
699.675
683.925
689.094
684.387
684.962
688.151
686.850
683.825
669.707
665.027
664.095
662.982
668.041
666.142
665.067
658.046
663.226
649.307
652.496
652.565
648.333
641.489
649.855
648.465
645.331
641.112
634.690
631.427
623.151
626.115
619.277
616.952
618.837
625.532
613.442
607.948
615.468
604.567
616.404
603.377
608.902
595.473
596.753
596.598
588.882
600.871
590.914
593.448
582.842
576.791
578.666
582.560
573.366
579.577
571.417
576.007
574.979
571.697
558.257
561.514
567.715
555.755
560.476
548.230
548.795
549.319
545.595
549.347
540.304
544.242
546.377
530.889
535.734
535.851
522.612
523.473
530.825
526.916
524.525
515.218
511.928
514.255
511.005
510.145
502.772
499.123
500.768
495.095
493.756
503.122
489.541
487.418
493.557
488.394
490.792
490.475
486.824
483.059
484.278
471.461
468.153
472.435
462.972
458.306
469.447
465.038
464.246
458.397
460.613
446.201
447.852
441.739
447.363
439.406
434.964
433.196
436.342
432.114
435.859
433.326
431.990
432.588
424.595
416.877
415.826
416.003
422.563
413.777
414.241
401.479
407.772
411.409
396.561
392.507
400.794
391.528
385.943
387.138
388.779
382.083
390.681
383.877
374.943
372.907
374.948
377.775
376.037
361.296
370.778
368.219
360.508
365.818
352.392
351.201
353.692
345.579
355.364
346.670
352.342
347.923
343.255
62.238
73.506
78.648
64.619
58.970
74.600
76.538
53.775
68.923
71.003
77.361
65.956
72.192
65.289
69.981
58.824
79.820
53.639
52.618
65.966
60.272
55.925
63.218
55.633
73.536
72.845
67.407
60.044
74.620
63.648
57.004
235.829
250.510
184.665
256.192
236.535
255.941
214.601
185.079
204.073
216.416
209.682
184.177
190.280
206.257
199.190
207.920
227.866
262.463
212.855
217.451
201.608
251.209
188.302
243.114
242.590
186.363
261.623
190.708
215.672
237.972
232.172
245.578
212.357
241.360
251.103
251.709
218.200
255.418
205.596
251.291
236.821
243.751
185.298
172.664
192.624
243.921
174.456
205.347
230.743
223.711
251.436
254.636
238.846
241.319
182.697
245.353
249.458
245.847
258.099
258.023
246.858
214.428
253.126
211.515
238.359
232.598
179.753
188.743
257.296
129.859
105.825
129.460
109.083
97.458
134.060
105.105
144.423
143.474
129.215
128.026
140.752
100.238
142.524
134.487
144.211
131.490
103.685
108.760
137.695
141.296
103.815
138.014
99.402
103.970
144.192
108.197
122.469
122.994
126.064
132.622
107.885
119.352
133.478
110.239
144.462
99.311
111.976
95.037
98.128
115.654
114.803
115.089
95.944
98.169
101.516
117.903
101.741
110.578
107.657
112.885
127.655
123.720
116.038
109.258
134.446
134.187
125.721
137.487
145.712
102.498
136.054
113.537
138.845
117.264
140.693
115.020
114.646
112.607
130.042
115.075
96.020
118.295
140.348
136.974
112.273
119.626
132.200
94.886
117.864
95.058
109.468
117.378
110.107
137.907
143.306
101.450
138.583
137.775
143.495
138.568
139.231
102.310
138.509
125.177
117.282
107.470
118.961
107.654
116.067
133.111
142.686
146.196
144.053
135.704
121.396
133.568
101.350
100.783
125.647
131.649
101.368
118.151
126.030
104.910
133.646
102.156
131.077
139.340
114.358
95.859
119.500
103.418
144.298
141.015
108.938
128.895
136.340
116.590
122.265
123.176
137.770
110.130
113.143
131.592
97.697
139.603
121.751
123.730
146.151
125.913
128.288
136.192
109.236
105.426
118.094
121.867
135.923
124.117
115.132
144.104
126.926
146.634
122.056
127.065
135.661
121.272
126.632
97.771
120.542
110.110
144.167
130.508
118.283
143.396
115.342
106.747
124.560
130.855
125.009
109.385
99.557
112.422
114.476
145.205
130.560
118.498
103.897
143.154
142.559
100.799
107.007
117.526
124.295
108.873
116.298
117.548
134.742
131.895
123.041
96.593
106.956
99.410
107.608
104.410
125.516
104.682
143.660
129.105
98.816
125.404
136.749
115.675
135.079
110.559
120.951
134.358
119.281
103.388
107.272
137.389
118.564
132.483
138.759
118.770
114.411
123.651
125.669
112.512
132.440
114.632
102.939
97.751
141.772
128.223
103.547
123.071
113.500
98.627
107.329
130.624
141.170
115.328
134.998
116.749
96.496
134.564
95.008
111.296
95.833
141.195
126.056
143.489
135.421
143.225
102.157
105.966
97.496
131.128
120.229
108.027
113.880
119.934
104.376
115.598
104.470
145.225
121.494
100.596
134.796
137.867
141.166
133.156
127.564
129.446
138.745
102.417
129.194
113.131
116.150
109.397
141.446
146.595
97.106
115.786
115.917
116.727
106.398
126.192
105.924
117.538
130.107
132.650
143.464
130.401
112.651
144.174
114.783
135.561
99.974
96.079
121.070
139.054
122.018
101.848
129.210
135.786
143.447
110.559
110.041
121.481
137.884
139.349
133.893
141.079
117.773
136.738
143.585
117.287
135.323
98.358
110.367
106.489
129.757
143.151
144.243
127.827
138.827
125.568
96.417
121.957
122.272
104.640
108.764
106.629
130.008
126.424
106.882
123.748
109.782
131.530
98.783
143.503
142.109
133.583
98.482
121.225
107.312
138.527
141.115
105.077
106.862
128.359
125.035
128.862
143.577
135.586
120.995
143.036
115.043
97.553
135.050
117.274
145.081
103.220
141.717
140.840
104.099
141.964
141.816
141.626
97.062
96.826
111.302
108.729
123.973
112.018
110.927
146.452
94.824
140.784
134.859
99.907
95.962
106.479
136.300
103.603
106.787
110.156
107.944
96.648
117.304
128.213
112.575
135.092
128.013
105.941
125.914
108.322
109.938
114.727
95.672
109.844
127.935
128.419
125.572
108.769
142.250
121.081
105.080
116.842
104.398
94.893
134.886
107.116
118.332
102.309
103.350
124.874
106.131
97.829
127.433
116.246
102.557
99.184
144.600
132.836
141.193
144.920
122.216
109.375
126.256
127.655
137.132
112.897
104.155
136.154
136.704
96.124
118.638
125.779
127.436
107.623
107.527
143.345
103.618
135.679
134.122
126.090
103.400
99.375
126.229
123.816
99.228
116.285
103.536
129.354
120.386
131.543
116.065
137.927
142.932
111.324
143.990
141.380
129.465
139.987
126.466
110.486
120.525
131.811
115.600
118.457
102.533
133.973
119.016
119.586
102.816
141.807
117.876
144.477
134.367
124.446
140.468
125.032
111.183
134.340
144.288
139.870
138.111
131.898
105.905
139.581
119.023
120.063
145.422
126.578
144.178
100.288
127.581
116.299
95.741
129.224
141.276
125.050
117.470
127.787
115.075
110.223
136.397
131.098
144.442
135.242
136.402
113.998
103.025
114.926
107.043
144.037
129.249
137.417
120.769
144.695
143.848
100.567
115.077
142.706
130.011
112.604
119.952
127.094
99.103
142.630
146.111
97.663
117.697
129.142
126.394
119.049
98.126
134.773
97.617
102.882
108.462
124.758
127.317
138.135
117.341
140.503
105.734
135.196
101.150
98.195
126.868
106.227
100.216
98.453
111.274
105.961
122.909
141.780
139.418
96.778
119.116
114.455
139.138
126.573
110.100
95.038
113.706
116.961
109.659
102.237
97.655
111.517
114.875
102.406
111.383
109.650
135.869
133.518
116.341
146.397
119.718
97.312
146.760
140.493
109.926
141.846
135.740
143.689
144.685
113.870
105.984
104.735
144.242
122.325
115.169
100.411
128.963
108.919
133.827
133.399
143.704
109.567
106.093
117.585
106.193
115.367
133.919
104.539
104.140
143.643
136.602
110.210
140.825
119.471
104.466
106.946
105.769
109.839
111.864
138.585
141.618
120.285
128.701
96.870
134.474
130.440
118.176
132.621
145.581
120.947
102.761
139.021
140.202
104.441
111.857
104.665
134.278
126.652
145.745
118.637
116.478
113.438
134.094
96.159
132.326
112.584
100.720
128.878
120.300
102.178
138.891
131.529
131.596
141.949
104.891
108.238
115.515
101.662
145.023
113.498
119.481
124.538
140.418
123.751
99.957
115.294
110.339
130.789
136.673
141.204
108.940
127.804
107.553
132.573
111.943
134.066
104.748
100.174
116.154
125.814
122.208
117.976
124.311
143.126
110.802
107.458
122.393
134.927
121.149
95.355
95.879
140.647
113.321
101.094
107.511
127.798
134.286
133.479
120.492
100.328
146.123
111.516
97.804
111.450
116.481
139.029
143.629
145.266
133.426
112.931
121.587
130.330
113.354
101.320
125.743
96.725
122.308
97.634
106.937
101.797
111.236
111.472
134.409
122.952
126.705
121.851
137.345
129.114
102.620
134.329
103.009
126.599
114.776
122.493
122.680
124.560
106.213
122.606
138.781
120.320
112.602
118.516
143.638
139.681
96.305
104.198
144.377
145.829
107.599
126.482
115.009
141.951
108.374
127.343
103.504
95.044
133.015
141.054
111.519
110.338
99.042
127.952
97.230
130.758
107.665
106.429
117.106
140.457
133.125
142.800
107.835
140.295
111.407
118.935
115.437
145.900
99.950
135.604
102.946
95.900
114.359
134.585
96.566
145.328
128.798
145.884
97.345
135.472
131.623
98.350
106.076
104.271
109.202
118.676
100.947
106.925
129.333
140.080
126.297
141.156
144.252
124.276
132.222
110.592
105.613
141.767
104.524
140.284
102.573
138.051
115.784
127.549
107.670
123.276
140.335
98.812
145.678
132.529
124.744
121.416
113.652
133.597
144.324
103.254
145.885
134.790
105.313
146.020
102.661
139.592
117.394
124.512
139.917
117.094
128.514
146.595
144.121
96.813
144.363
132.315
142.041
114.667
114.722
145.750
120.838
114.078
103.227
116.873
145.417
103.659
126.445
146.464
104.469
146.486
102.706
114.007
125.442
97.875
116.852
120.507
110.905
113.278
135.994
104.623
112.058
109.253
124.630
115.573
144.865
134.601
113.039
107.188
119.098
128.818
131.508
127.781
119.127
114.940
144.877
105.479
133.842
114.569
