505.347
503.251
506.277
508.304
506.544
508.096
510.898
504.543
512.068
515.180
518.813
507.003
507.055
518.710
514.421
518.415
518.172
511.934
518.614
517.478
519.562
529.713
522.130
519.676
525.635
522.983
533.025
529.784
533.206
525.764
535.164
538.220
533.051
536.794
535.837
539.662
539.821
544.888
532.256
533.835
537.937
540.209
541.689
551.412
551.077
546.912
544.145
540.166
548.170
547.541
549.827
545.358
544.344
550.989
549.935
554.464
564.152
551.976
565.735
551.575
559.694
565.068
559.038
560.803
566.874
572.881
564.473
563.419
570.991
572.113
564.537
567.696
571.575
574.240
576.740
580.575
578.240
575.713
578.902
584.909
579.191
579.275
577.427
589.922
583.193
583.510
581.459
589.525
584.243
583.718
595.659
588.061
591.003
585.728
596.588
591.202
599.218
599.518
595.886
590.340
600.756
594.210
604.421
598.112
599.696
597.187
609.314
613.940
601.856
604.708
604.528
611.743
611.255
608.970
616.666
617.308
614.179
621.362
613.838
614.412
622.316
619.150
622.023
628.837
627.034
621.719
620.701
626.297
630.768
631.635
628.640
625.018
638.474
626.445
638.633
630.572
628.127
631.926
636.144
633.785
645.139
644.694
635.568
635.350
634.643
635.184
645.474
638.668
646.361
641.812
650.158
643.927
640.838
649.538
645.885
656.754
649.359
652.094
651.759
646.751
655.610
659.183
664.383
664.415
660.845
663.937
662.979
665.394
669.689
665.805
657.009
665.516
672.120
663.205
675.250
660.429
670.300
664.084
676.154
669.440
667.353
677.732
681.085
672.956
681.855
679.999
678.721
685.730
673.286
686.653
681.678
681.627
678.727
678.928
680.441
692.804
687.048
692.877
685.028
693.105
685.350
696.094
686.213
687.173
692.543
688.993
691.834
689.823
699.446
704.673
694.876
703.672
700.417
693.360
702.289
703.111
700.503
702.119
698.076
703.635
712.621
709.024
711.847
715.877
708.431
708.614
716.188
705.553
707.159
716.706
713.420
707.579
708.991
717.179
710.442
716.657
726.675
722.276
716.365
716.746
722.947
722.249
723.571
733.115
720.807
722.544
731.644
729.887
732.920
730.428
733.850
734.145
740.449
726.525
740.048
740.268
735.189
743.794
740.510
742.864
737.335
733.552
745.659
742.156
741.046
740.730
749.525
747.532
739.231
750.484
754.044
742.448
743.801
754.574
758.270
749.927
752.775
753.757
749.318
759.059
757.823
761.638
765.484
759.515
759.844
753.561
754.436
755.908
764.712
766.677
771.054
762.186
760.283
764.713
760.262
776.022
770.759
777.372
765.856
779.196
778.179
771.564
779.777
769.610
780.446
773.623
785.688
785.967
774.127
787.489
789.630
782.163
791.011
780.774
778.164
792.450
788.406
779.651
795.905
783.215
794.416
789.894
799.052
796.421
791.468
801.620
794.214
793.608
790.810
790.686
801.388
792.650
803.156
801.878
802.833
805.654
802.760
802.868
798.596
809.865
799.694
807.887
809.218
814.971
810.136
803.190
816.425
806.366
805.065
818.075
805.893
803.194
816.019
809.164
813.768
810.187
814.734
816.479
804.884
808.649
811.164
811.345
818.272
811.117
808.017
821.139
815.064
809.859
812.176
812.818
813.217
809.690
817.928
819.559
817.826
809.680
819.969
819.670
808.710
815.126
822.645
820.714
823.578
811.421
819.931
820.905
812.519
819.817
816.092
813.636
826.536
826.788
823.230
821.601
816.869
820.637
819.672
820.145
828.136
828.096
814.738
822.857
824.225
816.903
816.285
822.451
827.589
823.709
814.803
825.335
826.523
817.049
824.763
822.582
821.139
820.164
826.388
827.389
829.119
824.115
823.967
831.316
828.330
819.632
826.106
825.945
823.187
827.832
833.009
827.200
833.048
832.922
822.083
822.604
832.404
822.332
833.078
831.575
830.039
834.702
837.237
832.346
832.849
823.602
835.351
834.873
822.825
826.994
823.079
829.312
833.645
835.963
833.682
833.096
827.391
837.023
826.840
836.784
825.501
840.665
827.784
832.522
838.823
839.762
840.060
841.936
840.308
838.829
832.500
828.066
832.138
828.449
833.479
833.434
837.900
840.078
842.201
832.273
842.086
832.926
835.745
835.511
835.951
833.005
841.089
841.552
843.817
841.028
837.858
831.461
839.919
833.541
844.201
836.763
846.623
842.632
835.075
844.004
841.849
843.726
843.042
844.047
834.416
847.679
845.791
846.289
841.354
850.157
847.968
842.890
843.279
850.881
840.718
839.337
838.255
849.554
839.777
848.875
852.867
843.819
845.826
851.856
841.860
847.697
842.023
843.650
844.710
843.852
849.597
843.123
848.174
845.528
840.332
853.933
845.199
841.201
854.808
845.054
850.708
854.618
854.712
849.668
857.075
854.061
850.818
852.738
843.420
855.522
847.283
853.337
848.266
846.285
840.080
841.380
849.608
842.878
848.998
843.880
849.447
837.602
839.662
841.919
846.117
831.165
835.563
832.020
843.464
828.650
829.009
837.256
841.817
830.962
829.764
830.832
831.396
828.413
826.641
823.412
824.787
830.238
833.461
831.704
827.190
828.628
820.236
821.270
821.483
822.502
817.768
820.129
827.557
822.693
827.553
816.129
817.112
812.887
827.170
812.479
821.556
812.557
813.339
821.860
819.700
819.510
814.122
807.029
816.590
807.806
808.968
811.177
818.148
808.088
806.413
814.046
808.210
811.629
809.477
807.453
807.670
810.409
806.525
805.134
797.726
800.726
806.590
798.001
800.551
803.347
807.040
796.438
799.496
797.653
802.674
804.590
793.189
792.006
796.506
798.178
796.465
787.807
799.899
797.889
787.179
800.448
792.267
792.587
792.518
783.810
788.347
787.708
794.800
791.007
781.251
789.057
783.591
778.773
787.512
788.621
776.362
786.358
789.953
783.970
774.882
773.385
787.519
772.982
783.987
779.972
772.721
771.912
773.472
783.460
769.130
778.291
769.404
770.572
774.091
771.258
766.426
779.712
767.466
764.121
774.385
762.052
764.344
770.301
771.823
767.816
768.710
758.371
762.665
772.240
759.889
762.577
764.637
760.726
759.302
754.890
762.984
757.047
765.551
758.539
765.443
761.256
762.675
761.707
758.975
750.617
758.671
760.423
758.126
756.459
753.834
759.529
746.285
743.412
750.716
749.056
749.278
741.986
749.393
746.629
752.939
749.756
749.847
751.668
745.755
741.853
751.570
742.159
735.053
742.389
739.874
743.442
748.075
743.752
746.349
731.257
743.107
739.091
739.326
741.872
730.425
736.356
739.441
731.334
737.090
744.451
737.846
744.624
736.734
735.198
742.757
750.074
746.672
745.446
752.138
747.632
754.813
746.486
752.745
749.387
746.344
750.808
749.340
758.201
762.986
764.200
763.766
752.775
763.693
761.474
761.816
767.029
757.781
768.669
765.606
771.823
772.957
769.426
776.775
779.049
775.029
774.989
780.889
769.906
782.843
772.069
779.764
784.793
782.319
774.517
782.564
780.835
781.236
790.015
779.377
791.631
790.078
790.630
793.664
782.726
790.293
796.159
793.376
796.820
800.942
791.216
804.350
794.789
800.121
800.112
806.047
799.993
808.807
804.340
801.839
806.014
807.261
806.497
807.560
809.756
809.626
817.466
817.587
811.514
808.586
811.139
816.966
808.743
824.026
817.265
827.178
819.967
814.285
827.927
818.974
831.386
819.429
827.748
829.696
827.689
832.443
826.023
824.440
838.990
830.879
840.054
835.313
829.483
836.255
845.482
841.736
836.744
847.270
844.372
846.058
850.620
844.563
842.980
838.738
848.727
844.792
851.195
845.321
849.586
847.462
845.100
847.339
858.701
849.695
863.617
861.678
856.085
864.360
862.946
859.309
859.550
862.523
856.637
872.209
864.638
861.862
863.198
861.649
872.577
866.593
868.496
868.937
880.281
876.576
873.030
878.648
877.346
872.260
877.839
884.763
874.859
885.350
890.946
883.878
886.885
890.539
886.583
890.715
885.522
883.731
897.868
888.302
887.402
899.050
894.476
894.052
889.775
895.360
902.493
898.935
896.795
898.475
901.909
897.800
896.188
908.126
898.914
913.131
904.056
904.244
916.834
905.799
911.793
905.161
908.485
916.411
910.225
917.201
911.573
919.994
923.756
917.337
919.928
924.792
918.389
929.797
926.178
918.386
921.889
928.628
918.783
924.214
925.972
926.705
914.441
924.353
920.150
917.495
919.573
913.653
920.116
915.371
912.858
923.614
923.598
923.771
924.972
918.380
915.835
910.458
917.009
914.572
922.489
920.381
909.977
907.651
906.678
911.147
912.764
907.114
907.978
910.893
908.727
915.054
914.477
913.115
911.272
903.264
910.785
909.708
913.045
906.815
905.118
911.698
903.822
905.783
914.084
912.556
910.884
911.406
913.805
898.522
904.554
897.732
897.530
908.707
897.563
909.642
899.759
907.217
909.927
903.894
894.700
898.254
896.373
908.935
897.200
899.911
895.349
905.156
897.149
905.737
904.533
904.447
901.822
896.116
902.257
898.779
901.181
891.361
891.280
888.998
889.993
899.052
889.963
889.863
897.350
886.862
892.394
885.604
892.843
893.494
893.201
888.837
893.815
889.133
891.742
896.545
881.936
897.124
895.880
884.373
881.492
886.197
884.048
884.736
882.650
889.385
879.366
883.654
888.074
884.784
886.882
887.666
885.895
889.073
890.106
877.854
882.012
877.133
874.366
877.169
880.869
875.361
888.654
878.258
888.145
882.177
881.801
885.382
877.391
884.847
874.420
881.261
875.167
880.598
881.328
879.320
880.605
876.226
872.367
867.556
881.609
874.899
871.840
880.077
877.506
875.340
877.218
868.860
873.693
870.376
873.810
868.080
864.961
869.909
869.831
872.456
874.906
873.842
862.170
868.118
875.090
863.996
862.897
864.211
868.352
865.882
863.527
867.666
864.404
864.329
869.433
865.358
863.244
857.096
863.499
868.561
857.372
856.783
869.539
866.830
865.764
859.575
866.407
857.407
857.587
857.545
861.683
858.295
864.906
855.287
865.486
857.953
862.002
855.548
862.565
862.158
853.462
850.484
851.583
844.162
849.896
850.549
845.464
846.195
854.822
843.025
845.025
839.708
838.601
836.049
838.855
848.369
839.479
842.127
844.098
843.645
842.667
828.169
840.716
830.658
834.197
826.823
831.047
834.411
837.277
832.840
820.784
832.527
827.598
826.464
822.353
826.052
827.160
827.289
818.405
812.576
821.219
821.159
822.715
816.081
810.053
817.585
811.971
811.673
817.141
806.797
808.119
805.612
815.545
811.920
802.349
798.947
801.700
804.040
804.859
801.117
805.144
802.270
807.276
806.227
790.924
789.846
800.404
797.667
788.322
791.046
796.046
793.818
791.014
785.060
781.104
781.141
785.923
778.097
791.100
786.236
788.759
779.846
774.015
782.003
786.194
775.608
785.469
780.246
769.719
776.548
775.579
766.238
776.173
778.044
778.670
773.028
765.976
771.034
762.792
768.194
764.123
757.871
760.118
755.919
757.616
766.022
756.236
760.161
760.914
763.273
756.246
749.857
761.866
754.847
750.803
757.705
758.069
751.154
750.893
742.395
754.298
752.660
738.237
742.581
737.740
751.152
745.006
749.341
735.748
736.615
740.025
737.234
741.522
736.102
732.262
731.411
739.364
738.596
733.533
724.189
735.407
724.052
729.077
731.950
727.531
722.639
724.098
730.491
724.418
722.235
718.667
727.652
713.620
710.879
713.135
720.999
713.645
710.096
711.948
712.783
704.418
704.149
710.895
707.839
706.965
704.637
703.666
707.727
711.596
706.019
705.360
709.429
703.737
704.990
696.600
698.840
705.747
702.999
693.471
697.399
688.703
694.051
687.251
693.500
684.825
696.791
691.422
680.555
692.521
686.491
686.360
688.371
676.430
686.907
687.223
687.031
683.666
671.713
682.283
682.873
683.452
674.884
685.159
678.447
681.754
686.414
678.098
683.178
689.640
683.833
686.511
683.107
692.749
698.180
689.030
698.246
698.505
699.672
691.753
691.970
697.041
698.062
705.131
704.974
698.049
701.560
700.141
711.833
705.610
701.086
714.061
701.206
716.982
714.850
712.452
712.646
714.871
717.523
709.372
721.556
717.273
724.517
719.129
725.708
721.759
729.238
730.765
727.058
730.175
729.475
725.101
721.592
733.615
725.498
737.714
728.443
736.787
732.088
734.313
730.046
736.971
742.638
732.242
741.522
733.804
744.289
734.199
739.268
750.856
743.389
746.359
747.705
753.559
752.477
741.025
746.920
744.975
748.037
748.728
760.612
750.455
752.359
760.469
758.988
759.592
757.231
759.699
762.113
766.641
769.009
769.834
768.816
772.081
774.102
773.887
773.592
768.916
771.378
765.735
768.579
770.982
766.170
767.422
777.019
783.364
777.303
777.127
772.954
786.502
783.773
783.423
779.443
779.352
791.609
785.055
792.357
791.363
787.334
795.682
789.353
796.022
789.117
793.612
797.036
798.393
802.628
804.731
791.949
805.329
797.042
800.470
795.007
807.500
805.703
799.747
800.667
810.880
807.915
806.014
812.972
815.921
819.146
817.316
818.464
807.116
816.318
813.730
811.023
809.902
823.166
812.220
816.024
824.821
819.874
820.643
824.265
821.288
820.367
824.213
822.311
820.967
830.676
836.792
832.163
830.358
832.964
837.880
831.824
842.542
840.585
845.392
834.589
842.991
839.183
844.239
845.564
849.254
841.488
850.833
849.870
855.295
845.900
854.991
847.318
849.423
847.585
857.256
860.380
856.370
860.217
858.858
854.970
863.144
863.237
863.660
865.363
867.433
867.302
862.670
871.450
865.922
867.375
873.641
874.791
878.515
881.447
872.497
881.114
870.806
886.960
881.926
882.923
876.819
879.580
889.694
892.486
888.436
884.497
884.940
890.490
890.992
891.728
893.622
894.982
904.035
902.778
898.723
911.441
901.991
911.047
914.158
915.148
904.627
906.221
913.290
910.322
910.816
914.064
920.205
927.947
921.042
920.809
921.468
918.859
919.504
934.814
935.931
931.446
929.403
937.360
940.093
943.657
945.432
941.517
948.515
947.018
945.813
937.400
946.355
954.737
943.967
945.571
959.554
950.691
957.729
953.685
956.246
961.223
955.803
953.662
955.879
961.317
972.464
961.204
967.229
975.213
970.240
976.443
975.483
975.865
973.180
978.768
984.327
986.779
982.864
978.167
980.581
993.798
992.596
989.589
997.636
997.184
989.327
994.656
991.354
1004.756
999.622
999.213
1007.798
1005.090
1008.753
1011.544
1008.941
1014.074
1004.437
1015.287
1015.437
1009.264
1018.843
1012.621
1012.025
1015.229
1024.392
1013.979
1022.662
1027.116
1021.407
1028.070
1024.865
1029.425
1025.871
1035.342
1034.744
1029.093
1036.879
1035.052
1046.127
1042.575
1046.126
1042.989
1052.386
1039.495
1053.190
1049.833
1053.651
1053.138
1057.936
1053.115
1062.011
1061.334
1050.946
1062.936
1056.157
1064.168
1067.386
1057.469
1063.206
1065.678
1066.652
1064.600
1070.547
1070.748
1076.662
1082.400
1079.580
1081.344
1077.596
1087.173
1083.171
1090.844
1082.026
1091.981
1094.685
1090.528
1090.906
1092.049
1094.295
1098.657
1090.416
1091.742
1096.426
1108.126
1110.167
1110.884
1109.564
1103.370
1108.644
1105.436
1107.144
1118.440
1114.078
1115.998
1119.902
1116.682
1115.091
1118.594
1114.000
1121.747
1117.291
1121.430
1126.384
1128.141
1136.168
1123.567
1131.982
1137.829
1135.385
1135.524
53.858
75.015
64.320
62.018
63.231
67.482
55.397
66.987
74.777
59.491
75.142
71.372
79.484
69.845
61.511
60.532
63.712
58.520
78.114
68.496
78.429
73.245
77.763
75.578
67.623
55.494
79.812
68.064
66.880
74.994
72.668
53.931
74.520
78.887
54.895
57.588
71.298
63.808
73.857
65.383
59.172
59.633
65.390
74.054
65.147
65.622
80.332
57.887
66.835
176.623
208.222
242.651
239.195
216.161
183.690
257.239
191.412
252.076
207.692
175.402
262.696
189.295
174.657
260.237
241.965
233.329
202.917
225.684
220.937
191.809
223.284
182.845
225.017
234.358
215.208
207.323
235.711
228.902
211.873
229.376
172.473
196.691
239.649
171.902
225.504
201.741
209.669
253.166
227.929
174.113
177.647
197.677
202.842
229.991
205.154
204.571
208.502
220.946
249.224
171.923
116.851
100.933
128.500
122.516
100.389
116.366
140.212
137.971
122.618
146.193
132.894
99.853
135.163
110.802
137.240
146.764
132.902
129.747
143.717
118.878
117.731
122.562
97.150
103.535
120.376
143.507
136.090
113.430
100.220
134.611
132.535
140.493
143.486
97.595
104.588
113.554
95.095
124.891
144.642
113.146
134.392
136.947
111.655
130.049
139.055
126.478
116.906
103.624
134.047
114.292
107.981
144.487
101.314
134.042
114.384
109.719
115.688
121.688
122.990
137.857
138.549
124.513
129.909
114.430
134.363
103.865
126.937
107.020
113.513
109.319
137.439
142.791
126.843
143.453
122.919
124.365
146.267
144.990
146.272
135.216
117.697
130.702
133.283
134.457
105.941
109.178
134.386
135.557
139.046
124.738
104.082
122.391
115.889
104.171
113.516
106.636
143.947
123.654
139.170
107.670
131.228
141.200
127.797
143.923
122.599
112.974
96.752
104.612
128.179
136.696
112.842
133.049
97.981
125.073
103.607
124.491
129.729
108.861
127.706
104.761
100.945
133.459
128.682
102.902
120.049
129.737
130.375
126.322
109.573
118.528
127.507
128.083
129.967
122.434
103.967
124.439
107.847
111.964
110.619
137.591
136.520
96.152
127.943
122.500
127.293
96.930
123.017
122.226
119.651
116.232
133.438
122.027
122.664
107.217
140.827
107.775
142.669
