1112.295
1110.791
1114.960
1115.330
1110.265
1106.949
1116.426
1113.299
1110.568
1112.366
1100.930
1107.274
1104.263
1104.460
1110.957
1105.469
1110.208
1101.526
1103.435
1101.647
1100.939
1094.984
1105.564
1104.420
1095.266
1098.458
1101.686
1103.227
1098.717
1094.518
1088.632
1101.543
1098.852
1087.042
1087.420
1086.268
1096.092
1091.647
1094.490
1083.828
1085.831
1090.543
1081.919
1082.129
1087.062
1089.957
1078.724
1080.549
1078.039
1088.083
1083.174
1077.300
1085.623
1088.403
1078.514
1074.673
1084.109
1074.381
1078.492
1072.753
1072.658
1068.298
1069.960
1080.072
1065.919
1072.145
1080.091
1077.212
1069.113
1073.976
1067.423
1072.150
1070.107
1061.510
1070.248
1061.520
1061.906
1058.885
1062.019
1062.116
1060.117
1057.428
1062.964
1067.597
1069.580
1062.591
1060.138
1059.338
1066.307
1059.119
1064.629
1063.601
1061.156
1063.888
1050.639
1049.640
1057.413
1047.552
1057.256
1049.733
1045.741
1058.095
1048.697
1054.720
1046.324
1049.019
1040.869
1051.166
1054.589
1054.992
1052.800
1039.560
1052.552
1043.038
1038.656
1050.347
1036.782
1041.537
1041.630
1038.925
1033.599
1047.771
1033.513
1038.648
1039.981
1040.504
1029.404
1042.644
1035.984
1029.203
1028.966
1026.660
1027.781
1037.920
1040.013
1025.162
1027.642
1030.310
1024.476
1035.450
1033.173
1024.650
1030.546
1028.876
1021.502
1024.324
1017.794
1018.164
1030.470
1017.386
1022.570
1020.102
1020.156
1024.729
1018.970
1016.554
1013.863
1020.092
1019.780
1015.654
1011.769
1016.297
1021.363
1016.915
1011.628
1019.383
1019.782
1004.971
1007.211
1005.914
1018.215
1012.145
1015.580
1011.005
1010.392
1002.757
1008.762
1007.272
1011.530
1012.046
1007.018
1011.435
1005.946
999.591
1000.449
993.079
1002.380
995.481
1004.930
1000.876
994.204
986.686
999.336
993.591
990.069
995.139
986.515
992.497
990.351
990.973
983.181
983.021
975.537
978.469
981.967
970.942
984.305
977.431
978.895
967.425
979.637
968.574
975.667
969.583
967.959
969.238
959.566
963.306
960.977
956.865
955.851
957.870
959.294
961.141
962.046
954.709
957.441
947.061
950.274
944.658
951.911
944.783
955.624
953.822
941.750
952.327
951.114
934.480
945.741
942.836
940.669
943.774
937.006
931.705
935.577
932.084
926.731
938.894
924.408
924.319
928.663
919.539
930.745
921.026
916.705
921.793
922.850
914.841
924.418
922.200
921.714
922.083
917.829
919.797
905.115
915.346
909.704
910.213
899.698
910.206
898.574
903.780
899.750
901.119
898.563
895.530
903.618
903.298
889.060
888.803
894.981
897.265
885.498
892.890
892.183
886.864
883.498
883.139
891.365
889.617
881.451
879.055
873.823
874.355
880.698
878.560
868.617
872.956
867.722
867.510
869.513
864.403
865.358
870.917
867.340
869.081
868.848
860.025
860.031
868.795
865.776
865.734
858.191
864.463
857.155
851.917
853.368
848.359
856.262
847.437
846.299
842.057
844.500
842.703
850.859
843.038
836.597
838.270
835.592
839.907
834.743
837.392
827.821
842.267
834.571
833.504
833.205
836.573
821.767
821.119
818.758
821.381
832.147
825.755
818.733
816.879
823.385
813.968
816.077
811.409
809.954
809.818
810.702
804.855
818.586
803.346
816.221
809.060
812.431
810.442
810.231
803.425
800.397
808.225
793.044
805.010
789.382
794.676
798.531
786.410
799.057
790.133
789.123
785.158
785.297
791.179
782.132
777.711
779.328
776.394
786.375
781.382
773.824
784.512
772.154
781.283
770.690
767.356
764.044
767.850
765.611
765.681
759.816
748.381
748.450
747.335
751.204
755.154
749.439
741.469
739.583
743.617
735.184
741.776
730.187
727.251
722.597
726.701
721.204
716.224
718.147
708.741
722.230
706.864
712.061
703.873
702.059
700.501
701.712
694.110
704.119
700.908
687.222
691.930
694.840
690.468
680.290
685.929
682.282
670.399
668.788
674.932
673.866
662.481
661.669
667.380
655.047
654.480
664.139
655.340
652.578
654.290
640.922
643.653
637.583
639.440
643.241
634.276
640.966
627.290
636.974
635.912
623.825
616.517
615.080
616.544
622.444
614.459
620.868
609.573
607.565
611.107
597.338
605.251
606.720
590.804
595.163
592.317
598.806
586.194
583.747
578.006
588.085
584.538
572.508
576.020
580.774
575.677
562.506
561.162
567.167
560.978
554.461
564.887
555.102
558.372
549.249
549.648
540.307
550.874
547.269
540.256
546.177
535.581
536.387
536.155
528.001
521.095
522.933
518.551
527.992
518.984
513.155
512.410
505.722
502.165
507.636
511.599
510.642
499.095
492.871
497.671
499.406
486.217
491.146
493.907
487.240
479.998
475.231
471.218
476.055
478.873
468.563
462.260
469.060
458.798
459.528
454.592
458.258
457.374
452.924
454.222
446.939
443.166
443.445
436.594
439.436
447.131
431.800
437.897
427.486
431.950
431.112
426.248
418.846
422.620
423.025
418.929
416.649
420.397
403.794
407.077
413.771
397.580
403.523
402.256
401.480
394.043
400.829
391.637
389.279
393.098
388.317
374.414
387.605
377.635
375.363
380.067
377.065
366.715
369.493
357.883
360.621
353.293
361.398
353.927
357.589
357.875
350.199
343.490
338.677
339.919
334.196
54.772
64.981
73.904
55.285
62.569
53.225
77.108
61.439
75.933
68.873
66.213
78.843
56.241
69.194
76.709
55.370
79.064
61.397
54.163
74.487
67.195
64.152
68.079
76.792
56.613
74.645
60.440
78.722
73.558
69.588
52.830
217.835
182.318
179.502
246.359
234.032
250.003
253.237
203.888
259.712
199.623
185.193
220.308
174.224
201.972
227.540
179.577
204.407
178.408
239.431
201.558
178.753
259.345
215.152
176.415
241.094
262.657
197.918
216.511
232.184
188.106
212.452
247.244
172.104
191.370
191.207
174.658
261.260
192.267
207.915
256.270
223.864
261.043
174.605
184.931
201.195
215.528
208.164
199.472
193.757
260.486
173.272
199.559
194.566
227.324
207.914
191.904
215.484
205.745
189.781
242.148
172.285
251.725
245.311
217.344
228.553
251.139
249.599
253.324
250.315
145.641
102.568
144.468
136.476
134.545
104.960
144.084
108.418
96.207
96.065
131.418
104.286
130.323
108.462
115.897
143.588
140.892
140.227
104.611
103.580
107.964
97.028
144.017
124.464
104.485
110.506
104.073
95.904
144.639
132.100
107.228
143.998
103.705
99.120
139.773
95.346
123.384
129.708
129.607
95.060
116.639
143.553
128.736
104.181
108.042
138.636
130.885
112.943
95.331
115.086
101.650
127.684
105.636
122.048
133.254
109.242
98.283
143.368
112.771
131.051
127.172
107.689
127.991
114.556
130.362
140.263
97.835
100.230
140.356
122.049
117.674
119.731
106.974
102.378
112.996
97.127
109.927
112.221
106.050
124.337
119.553
141.398
140.330
141.623
134.980
140.458
114.104
136.655
99.117
119.733
139.974
142.904
130.191
122.888
119.763
102.880
102.874
116.229
106.608
129.566
104.940
127.894
95.218
119.824
96.811
99.291
130.218
104.424
116.661
128.542
114.948
145.123
132.508
125.374
124.469
133.734
140.980
129.388
117.938
104.749
143.130
145.761
115.935
104.372
105.409
107.011
131.252
108.538
137.859
111.385
125.609
119.793
123.921
142.060
117.187
134.591
101.566
138.613
105.885
140.301
105.040
98.479
129.907
123.751
140.070
121.752
141.792
99.313
120.933
129.751
127.406
131.802
125.482
120.583
114.042
143.659
125.608
95.496
145.325
115.468
97.938
137.536
120.523
111.168
112.475
119.200
121.271
130.794
95.140
122.311
134.264
132.243
101.586
127.515
104.671
107.543
95.367
108.246
124.703
128.309
140.447
144.169
137.620
98.027
116.568
145.431
131.404
129.264
146.520
144.118
138.047
123.226
129.556
133.573
141.684
141.499
116.124
102.054
116.766
134.163
106.467
106.214
144.800
111.765
103.959
124.780
124.538
103.293
136.440
137.694
130.221
96.867
104.612
146.225
95.887
124.960
105.907
120.560
122.790
131.480
122.624
134.753
106.114
124.217
95.930
117.348
113.036
119.053
125.339
136.932
111.723
119.910
121.643
123.649
102.016
117.024
128.612
139.215
129.106
125.498
122.932
104.389
112.617
103.130
108.707
134.409
136.915
138.404
126.071
137.057
104.900
106.178
140.859
106.260
118.043
98.715
101.546
133.693
113.998
141.989
96.346
121.820
113.641
107.414
112.172
123.552
138.961
117.873
126.343
113.111
144.142
117.241
105.955
146.245
129.931
99.573
118.781
98.284
127.356
117.672
120.326
125.378
134.441
114.946
110.497
107.554
119.167
145.951
118.321
134.063
101.592
111.421
111.994
124.968
120.954
127.266
104.394
124.605
131.546
103.044
112.797
139.503
110.335
124.420
101.300
131.348
117.709
109.515
118.454
139.574
107.720
100.835
141.106
128.140
146.541
121.766
128.129
103.592
135.479
96.802
95.778
137.196
107.096
131.608
113.182
126.481
117.582
109.669
121.958
124.509
113.264
115.306
101.535
122.257
134.210
121.719
103.856
117.578
142.549
121.976
134.447
133.215
113.518
123.917
130.578
114.322
135.080
100.421
96.926
101.901
129.799
96.346
108.634
142.909
144.043
136.918
142.344
136.036
139.221
141.144
136.365
138.278
126.538
144.300
125.171
142.455
133.410
117.622
109.082
97.993
127.064
141.744
139.350
109.128
95.363
135.682
123.307
120.893
113.187
103.440
114.020
121.990
95.940
104.507
112.783
109.991
99.752
144.588
121.468
102.044
131.698
95.705
125.733
144.329
100.230
111.881
128.609
105.481
125.773
126.442
134.768
115.121
131.677
116.997
137.435
119.379
114.274
104.012
144.671
139.178
119.497
143.223
126.793
137.317
114.975
113.063
132.195
121.744
113.633
141.443
109.271
97.129
115.951
142.397
139.352
146.264
139.860
99.474
137.100
104.356
132.446
139.360
108.692
133.523
145.532
117.951
129.527
96.885
122.095
95.610
114.122
123.722
122.152
101.167
115.916
111.866
102.554
133.004
145.898
95.112
103.681
102.895
110.439
113.304
108.406
111.885
95.633
97.446
121.660
105.192
133.363
97.687
113.286
138.009
129.865
102.486
143.451
142.311
146.594
124.823
145.438
94.936
124.734
135.652
112.208
139.321
132.540
126.801
94.775
138.981
123.641
139.140
120.240
134.732
124.678
113.586
111.186
115.161
138.601
125.744
131.717
137.875
111.415
112.849
140.448
126.202
119.671
137.744
121.282
138.650
96.702
107.894
146.569
116.238
101.825
124.491
108.819
122.341
135.101
98.744
105.412
124.164
95.299
98.179
103.256
142.829
130.053
106.544
116.304
108.309
117.332
105.570
143.825
100.433
115.172
126.443
142.173
108.917
113.604
112.810
146.751
141.110
99.804
114.127
99.874
106.778
107.775
141.156
113.319
104.434
118.089
109.663
113.963
97.009
132.514
125.226
100.586
123.222
129.784
138.055
126.657
134.795
145.126
127.988
128.993
122.020
142.139
143.693
139.019
103.066
130.783
127.357
139.870
136.046
115.127
99.291
121.077
122.265
95.497
138.109
103.804
106.799
108.091
126.002
129.499
115.810
144.142
143.382
125.549
117.639
121.355
124.513
130.114
123.132
125.548
117.204
120.125
99.293
114.483
108.350
116.650
121.142
143.215
121.861
129.495
128.442
99.762
136.261
121.999
105.122
121.249
135.739
138.090
144.172
108.905
104.768
138.857
95.370
116.257
96.584
97.739
108.315
137.553
128.736
101.907
104.828
134.185
99.557
122.788
140.291
96.453
95.684
96.709
119.270
119.694
121.921
146.193
116.631
127.033
134.636
144.127
117.853
125.055
125.673
134.064
131.174
96.243
98.829
100.655
128.490
132.434
127.636
144.769
100.583
101.282
96.830
105.848
102.840
124.106
135.916
125.553
96.189
105.641
110.220
129.131
136.642
123.812
102.910
97.064
108.205
142.475
96.302
126.054
126.670
118.260
116.106
134.854
114.390
137.596
140.919
127.909
125.274
134.143
97.129
101.156
94.793
114.030
100.285
128.565
117.919
116.792
129.117
130.220
143.262
142.017
95.146
105.104
108.063
139.303
106.117
111.136
140.107
126.289
142.651
134.685
128.703
142.982
128.142
131.610
135.127
113.716
132.801
133.054
144.983
113.063
137.248
98.409
94.842
118.361
128.229
127.228
127.700
131.971
123.925
123.488
95.929
127.830
113.764
98.717
99.036
111.633
110.962
120.669
128.706
125.886
145.260
124.151
120.163
109.402
99.710
145.295
133.927
112.814
123.366
133.981
142.083
131.293
101.966
108.814
106.649
124.679
144.872
101.366
109.208
142.263
128.595
107.967
136.894
99.364
128.947
134.046
144.078
135.655
128.821
145.433
107.952
146.617
145.367
108.490
136.881
145.488
140.106
128.254
96.963
138.363
138.206
123.048
137.818
105.969
135.681
141.686
119.847
106.926
104.255
132.033
120.598
141.189
118.569
135.686
115.619
119.670
97.083
134.659
96.272
130.173
140.824
117.929
106.056
112.362
125.730
138.857
140.776
137.158
130.629
118.232
129.809
122.143
102.659
135.862
97.037
115.528
122.619
108.595
130.923
112.252
145.120
117.925
124.876
122.979
134.842
135.561
131.095
114.618
114.660
116.043
96.911
106.996
104.165
130.877
137.161
109.547
118.832
116.213
144.786
105.105
142.051
126.463
121.617
109.692
111.457
137.430
121.171
99.514
134.413
98.162
134.963
107.307
109.797
121.057
119.810
107.656
133.584
109.986
104.854
102.488
95.214
144.028
101.200
107.451
118.071
124.802
125.220
96.102
104.278
139.662
101.633
105.849
118.031
132.530
129.678
101.417
121.228
103.564
99.831
104.006
132.902
95.829
131.399
102.935
118.260
119.499
122.974
145.202
134.748
138.468
99.900
122.482
95.252
143.073
127.146
141.872
94.815
112.041
118.845
133.176
98.544
136.017
119.570
118.942
138.180
99.551
131.693
119.587
134.412
99.500
130.259
141.646
131.930
106.904
143.679
130.288
121.950
97.104
130.075
120.193
106.512
139.483
127.646
136.871
144.466
107.168
107.673
139.546
128.397
130.065
137.784
131.175
123.116
141.438
144.894
102.967
128.484
124.414
143.659
98.175
127.571
139.504
107.125
138.304
109.113
119.327
96.640
113.566
101.647
105.956
97.233
141.774
126.043
131.601
112.879
98.535
98.626
115.978
115.341
123.397
108.269
105.345
145.196
116.146
124.009
100.035
111.076
96.128
112.372
109.637
127.804
110.220
145.445
119.526
144.452
118.188
126.208
129.968
102.856
133.752
142.620
105.802
145.292
111.400
116.461
100.775
120.938
111.950
111.710
136.778
104.636
143.877
118.572
128.662
141.289
137.588
141.153
109.505
125.040
123.170
134.999
138.152
128.578
120.085
134.941
107.711
125.083
101.720
125.721
110.690
110.807
113.179
128.502
101.213
127.764
142.649
119.736
132.976
119.195
109.192
141.275
105.125
141.440
123.437
112.311
136.829
139.389
97.425
124.624
144.419
123.717
115.848
104.596
132.206
142.230
104.221
111.075
100.016
126.452
138.602
130.002
96.792
140.051
143.220
129.838
143.530
98.934
126.352
146.488
122.872
142.736
104.532
117.719
109.318
136.077
128.196
118.315
96.666
122.469
104.140
104.123
143.879
146.125
145.818
128.363
116.840
121.659
126.676
106.701
142.015
118.490
107.012
99.725
141.392
103.349
135.370
122.599
114.455
108.457
98.437
143.355
119.150
125.410
117.601
126.226
128.808
122.243
145.752
132.071
138.013
99.132
118.227
97.345
131.394
110.961
109.432
131.155
111.192
135.908
140.966
121.856
104.830
117.677
124.669
130.934
98.336
115.198
144.162
140.631
105.506
116.370
136.503
95.996
119.196
99.141
138.358
101.754
114.625
144.171
123.492
143.757
127.120
114.627
136.372
104.010
100.592
131.765
140.053
100.505
110.891
95.385
106.812
102.233
136.105
121.766
109.850
134.946
113.453
107.003
134.046
96.456
100.470
112.568
97.629
125.473
124.169
135.890
116.710
133.971
137.190
133.965
121.339
103.601
134.314
105.234
135.685
115.464
120.004
125.071
118.943
115.757
143.000
128.922
134.546
95.310
117.736
135.561
102.767
130.746
145.966
130.636
125.384
129.842
106.018
117.889
139.575
141.132
144.726
123.107
146.286
111.727
105.982
122.711
103.999
125.003
139.479
105.266
141.615
134.448
102.292
103.837
135.359
128.750
118.460
109.289
95.195
143.514
115.534
98.339
100.643
132.160
145.808
107.268
138.002
144.328
123.400
142.942
137.300
121.571
129.896
134.447
100.362
142.547
113.759
121.252
117.175
138.406
109.326
118.922
140.605
114.629
139.040
129.248
116.730
137.512
140.783
113.308
128.267
134.790
126.392
142.603
112.118
119.580
103.550
113.746
100.729
127.228
117.662
101.151
109.113
105.115
134.551
110.399
139.246
137.074
95.919
101.221
125.465
137.649
135.303
96.988
107.209
116.670
132.822
107.758
141.683
140.736
101.636
107.179
108.850
113.362
134.587
146.379
118.769
97.569
112.756
135.944
122.353
113.128
103.910
117.970
116.665
146.032
120.265
126.634
108.764
96.597
115.991
97.956
136.859
104.026
132.746
130.024
105.008
117.717
103.149
142.842
95.428
125.973
143.036
133.322
120.022
110.478
145.423
112.350
104.868
138.195
125.973
134.288
120.843
98.662
95.004
112.565
135.873
139.836
107.161
107.684
128.837
119.361
126.925
100.927
100.556
133.646
127.986
94.853
115.940
98.270
131.114
132.079
129.095
102.172
101.052
114.480
110.565
100.303
131.627
146.128
111.230
104.929
98.153
134.038
105.048
