1066.638
1060.086
1071.326
1077.311
1071.809
1071.211
1071.329
1073.576
1086.984
1089.480
1079.266
1085.761
1083.502
1090.385
1091.409
1085.437
1087.592
1101.669
1092.482
1100.798
1106.458
1108.481
1107.277
1112.829
1107.077
1102.900
1120.084
1114.324
1114.143
1108.400
1106.838
1102.405
1099.973
1106.922
1095.525
1103.162
1098.867
1089.653
1084.524
1089.066
1092.193
1085.162
1085.126
1086.482
1081.699
1069.993
1079.973
1077.571
1076.876
1073.095
1067.553
1071.574
1056.758
1069.959
1052.412
1065.943
1052.130
1060.191
1054.784
1047.459
1056.344
1050.031
1050.516
1036.984
1046.190
1047.848
1031.747
1033.812
1037.850
1038.040
1032.263
1031.128
1032.419
1023.913
1022.664
1017.838
1025.799
1015.062
1021.779
1017.105
1015.436
1007.845
1005.978
1005.171
1007.136
998.243
1003.077
1003.670
997.276
990.030
997.088
984.138
993.772
980.971
980.870
978.592
983.470
986.878
983.113
969.223
975.070
973.964
968.383
961.595
975.338
973.621
968.947
957.250
963.446
959.656
953.796
953.450
958.706
944.730
945.389
951.893
938.876
940.690
933.605
937.569
941.467
934.508
938.371
927.660
933.620
935.301
927.897
921.041
924.402
917.052
915.501
919.006
911.946
918.785
907.133
911.298
904.571
910.478
900.438
906.286
903.020
900.237
894.306
897.371
893.588
889.969
897.339
891.315
880.440
884.199
885.439
885.132
873.770
872.952
870.724
872.854
871.293
877.054
864.121
868.477
860.975
859.379
859.301
864.308
860.149
859.162
852.223
850.376
844.458
842.910
847.764
837.503
847.400
841.103
835.791
838.648
836.700
831.808
832.481
825.567
826.560
821.464
824.906
820.610
819.214
819.925
818.046
807.558
815.186
813.956
807.619
801.358
805.505
800.207
796.033
797.028
792.698
787.828
790.576
786.706
794.969
779.538
778.732
781.058
777.918
778.940
784.721
771.166
769.464
768.882
775.542
775.662
760.347
758.148
766.195
767.486
752.475
756.235
762.386
746.650
758.073
755.157
748.594
744.236
750.410
742.610
738.786
737.154
746.300
746.683
750.576
744.737
750.237
746.610
745.599
747.923
757.246
750.347
749.984
755.552
754.210
746.911
759.700
762.159
762.111
752.402
758.390
762.789
763.212
758.236
762.147
765.614
758.579
759.368
764.296
764.827
766.531
770.199
766.686
765.051
768.179
776.343
779.638
771.656
781.694
782.808
777.754
781.759
779.447
773.266
778.698
777.225
777.201
776.650
778.326
791.005
785.841
786.576
789.901
784.102
784.640
799.091
800.924
794.409
790.639
787.970
795.080
803.089
797.559
800.098
792.520
803.013
799.451
807.922
804.643
800.836
810.383
809.302
799.892
800.801
804.275
812.848
812.419
805.737
817.222
815.146
807.488
823.007
817.888
818.714
814.197
823.143
820.806
829.208
817.552
830.961
825.240
828.800
832.445
829.212
829.491
825.470
833.801
828.422
830.222
834.329
829.539
833.621
841.898
841.434
835.483
846.155
832.788
832.645
846.791
836.157
844.997
846.354
848.548
846.078
851.277
847.926
849.202
857.295
842.720
857.699
848.696
857.991
856.730
853.570
855.090
851.083
859.479
851.504
864.766
857.432
855.539
866.546
866.273
867.838
858.953
866.148
868.208
863.329
866.750
877.279
876.307
876.467
879.757
876.063
879.008
882.561
874.154
874.121
879.609
872.497
879.159
884.327
877.611
881.098
884.438
889.694
885.480
890.915
889.993
887.952
896.686
888.917
895.713
890.439
898.829
896.878
895.717
895.698
894.594
896.415
900.002
903.102
894.736
894.348
899.716
904.812
898.289
912.856
911.539
906.381
902.444
908.742
911.177
905.516
917.717
906.472
914.586
918.499
916.095
908.694
911.542
910.738
924.226
923.169
921.529
915.598
922.528
920.962
927.941
918.568
919.814
933.178
928.609
927.902
929.081
932.264
926.625
920.950
929.442
927.748
920.626
921.263
924.018
930.303
931.995
928.806
933.826
930.075
925.910
931.275
928.276
931.185
927.226
926.302
932.557
923.587
930.979
932.162
932.364
933.028
927.051
932.367
930.967
920.211
927.366
923.278
925.717
920.850
929.422
919.374
921.029
925.030
919.192
927.620
929.722
922.717
920.332
916.848
932.737
930.370
918.072
926.236
928.255
931.918
916.674
918.320
923.212
921.171
921.747
928.932
918.387
925.422
923.188
923.479
921.146
921.690
932.024
926.800
920.700
925.198
918.563
930.240
926.366
919.122
929.744
923.757
918.625
924.678
927.706
921.177
926.559
922.966
923.060
926.316
929.860
922.501
920.917
927.078
920.942
929.096
923.517
916.413
915.975
919.660
917.615
926.138
921.178
925.080
917.639
922.430
924.737
930.302
928.634
922.109
928.987
916.736
928.260
926.690
926.394
924.639
920.574
917.269
927.433
921.906
916.643
916.303
914.897
917.659
921.533
929.559
925.410
924.950
921.178
917.393
915.520
929.564
917.617
916.623
927.028
919.797
914.935
927.338
917.190
917.363
926.977
917.412
919.835
917.045
918.561
928.983
920.346
925.446
914.337
921.824
921.504
920.702
913.010
927.268
926.356
925.396
928.830
926.491
923.509
914.686
925.691
914.824
919.589
927.059
923.238
919.595
917.652
922.194
925.962
920.973
915.036
927.301
921.816
919.571
914.295
927.029
921.921
921.228
921.888
914.467
922.110
914.854
915.631
913.207
912.196
920.926
913.514
918.469
916.549
914.029
913.292
916.500
921.172
924.103
912.042
923.215
920.205
919.160
920.063
922.376
915.729
924.695
919.093
916.714
921.678
911.888
913.810
914.048
910.997
915.614
905.376
906.419
906.154
911.909
908.323
909.703
911.445
907.235
898.961
907.960
895.716
903.717
890.770
887.596
900.085
895.903
892.652
893.972
881.796
879.475
883.690
883.507
885.527
881.893
884.482
871.364
872.134
875.700
876.215
873.488
875.700
867.652
866.457
867.486
861.656
869.956
854.719
865.736
859.258
850.938
858.588
859.122
860.075
853.754
843.443
854.368
845.551
847.701
838.079
847.203
847.710
847.517
840.219
833.396
834.052
830.597
825.840
829.935
826.503
822.375
832.631
824.828
825.695
825.027
824.471
825.868
811.346
813.204
814.198
813.895
815.686
813.971
809.057
803.435
808.008
810.729
803.106
809.672
806.454
795.409
802.366
792.799
788.089
794.275
788.668
789.761
788.396
783.380
784.669
788.420
788.798
779.564
787.514
786.174
774.355
775.886
778.457
766.843
769.500
766.962
766.470
763.609
759.826
765.970
764.918
756.062
759.544
760.533
759.698
749.970
759.476
752.129
756.316
745.227
742.223
751.128
745.655
744.803
741.060
747.661
745.008
747.081
742.242
738.602
742.014
730.306
729.824
728.777
734.936
722.581
722.225
727.556
727.576
719.394
724.392
722.586
720.789
714.524
722.061
716.064
707.582
706.095
714.944
706.278
698.950
698.476
710.206
694.626
705.326
693.192
694.877
691.213
697.362
685.590
699.122
695.269
688.895
690.467
690.656
680.657
689.027
687.111
680.048
686.458
683.856
671.037
675.584
668.377
668.375
665.753
676.299
661.908
672.240
668.412
659.084
664.927
665.282
652.122
660.383
650.997
656.582
656.124
646.809
658.157
655.594
654.351
642.307
647.759
645.287
637.859
647.185
638.925
643.828
630.962
631.100
638.331
632.099
629.148
628.740
635.759
633.276
641.901
636.109
643.466
637.571
643.997
639.054
638.445
639.384
641.784
633.549
637.347
647.426
636.192
646.408
648.849
651.387
643.952
651.752
652.641
644.620
654.171
647.652
645.549
643.235
651.721
646.481
646.904
655.902
649.333
654.959
651.084
662.341
663.355
659.308
656.823
660.652
653.754
667.043
664.433
663.170
658.373
663.183
658.785
657.837
673.422
669.727
669.909
662.888
663.025
669.156
671.158
671.554
668.722
679.624
674.199
679.677
675.524
669.480
674.994
683.784
675.225
682.956
672.331
678.493
676.302
676.540
688.750
688.426
676.089
691.514
690.491
685.109
685.942
693.242
681.567
693.861
690.593
689.539
692.149
685.904
696.530
684.835
700.055
690.812
699.207
700.679
699.303
701.865
692.911
694.888
699.359
701.042
697.160
694.933
695.863
702.657
697.247
704.645
706.731
700.042
697.718
712.511
705.635
704.722
712.209
707.467
707.524
715.081
709.116
708.975
717.859
706.005
721.578
708.852
709.926
710.366
713.294
718.112
721.260
711.286
717.634
716.168
724.089
715.230
717.060
727.448
717.248
731.044
720.991
722.299
719.854
735.042
731.340
729.142
724.166
723.788
723.562
735.808
739.889
738.354
741.170
735.754
736.035
729.304
734.465
744.730
738.210
731.889
742.165
735.323
732.678
741.359
737.898
734.844
744.946
751.230
737.320
743.030
747.551
748.486
753.964
755.045
753.315
748.625
744.463
757.327
748.523
758.318
758.022
754.787
759.398
762.883
749.277
750.077
760.729
752.180
757.383
764.666
761.792
756.695
757.128
758.838
757.451
768.129
762.198
765.898
768.855
770.129
774.652
765.689
770.104
774.275
765.454
770.343
765.760
768.130
763.995
775.436
764.166
772.888
767.452
769.139
761.068
758.090
766.330
760.202
756.962
750.042
748.069
752.481
750.010
749.179
748.434
741.327
738.057
751.994
739.631
740.824
736.768
746.096
736.892
731.837
738.060
725.941
733.662
733.629
722.370
729.126
720.068
728.021
725.442
718.770
716.513
715.973
724.594
720.524
722.229
720.928
706.836
710.793
710.018
700.892
698.498
701.494
699.708
695.880
707.776
696.663
698.391
698.992
686.925
693.691
688.539
685.750
690.533
693.223
687.795
683.362
685.884
687.494
685.825
682.286
679.303
679.181
679.657
665.884
679.417
673.663
670.924
670.073
667.249
665.805
666.839
659.336
658.769
657.633
655.639
650.188
660.949
661.146
654.432
656.648
644.507
642.899
650.837
643.640
639.835
649.797
635.273
646.242
631.811
639.722
635.670
634.579
638.535
625.304
631.009
621.704
625.046
622.201
627.037
615.227
617.122
614.250
625.627
617.646
623.364
613.840
606.013
610.813
613.520
615.312
615.084
601.380
602.539
597.636
601.445
607.528
591.389
598.690
597.102
592.622
599.176
587.597
594.383
587.136
581.349
581.322
591.390
578.847
581.407
583.927
582.803
571.277
570.714
574.538
581.277
567.172
572.655
569.490
568.323
568.829
562.792
562.856
570.350
561.231
563.347
554.405
563.728
549.870
550.411
552.709
554.642
544.376
541.053
550.499
538.539
548.820
541.548
538.323
533.277
540.776
529.294
532.226
528.855
525.550
532.688
529.306
533.717
528.640
529.709
529.965
520.358
524.107
518.683
513.685
519.835
515.465
518.095
518.005
513.670
515.056
508.455
509.223
504.058
511.006
503.505
495.962
501.535
506.441
494.177
490.410
499.895
494.466
489.176
483.556
496.387
479.911
484.296
483.976
479.067
480.935
473.077
473.431
477.636
473.359
468.429
465.170
459.069
461.119
459.288
458.447
455.729
460.719
457.232
450.624
454.630
440.739
452.424
448.755
436.341
443.516
444.884
434.774
432.779
436.039
430.617
424.307
425.777
428.825
421.496
418.174
425.310
417.603
419.456
419.391
413.248
406.479
401.914
405.863
397.380
401.657
402.705
394.243
390.427
386.332
398.621
393.898
382.235
381.590
379.994
376.649
372.622
377.159
381.217
382.004
364.845
376.281
363.386
370.131
367.199
364.362
357.140
359.257
353.834
362.829
348.862
346.333
350.535
343.742
344.227
348.292
335.852
346.293
341.039
327.975
336.051
326.017
323.853
334.821
323.942
322.935
324.940
324.810
314.632
309.614
321.662
317.397
308.280
306.752
308.805
308.628
299.001
300.149
303.188
298.222
289.040
301.063
290.079
290.099
288.728
290.405
277.179
277.068
281.616
277.083
272.757
279.790
279.733
271.212
270.109
264.594
256.573
265.408
255.583
256.887
261.928
258.857
257.318
243.452
243.015
240.969
248.657
242.787
236.073
235.011
240.691
234.555
228.149
228.703
224.134
232.891
229.127
221.381
226.752
216.129
209.802
215.753
210.217
213.348
215.194
203.026
201.594
206.698
207.526
207.753
198.483
204.404
200.832
185.399
191.819
191.101
193.367
177.491
179.821
181.889
178.034
184.157
170.947
172.880
175.921
171.780
159.495
173.273
160.832
156.815
152.551
164.744
161.578
150.351
158.019
151.373
148.822
147.432
144.897
464.048
458.061
472.533
461.753
429.323
437.717
414.873
435.514
409.815
429.902
403.306
370.764
395.594
362.283
354.002
356.800
357.790
340.268
334.611
356.116
350.430
348.869
357.095
329.459
316.101
325.543
344.359
323.076
308.303
312.335
316.115
336.277
312.854
321.581
335.811
335.441
327.864
311.638
310.660
313.639
348.718
351.291
336.590
337.959
299.909
337.025
323.864
301.834
327.582
343.089
340.010
326.172
311.222
338.496
321.759
340.784
329.264
327.783
334.573
317.701
299.535
296.083
329.206
308.300
316.873
317.658
311.600
337.336
291.281
334.889
289.357
310.536
304.489
285.795
327.404
335.343
284.051
300.108
292.923
325.745
328.417
281.988
328.324
292.972
327.949
303.044
298.467
285.941
292.283
304.114
317.657
306.419
301.068
305.361
291.096
312.237
308.552
283.915
284.359
295.882
281.631
308.556
283.053
298.078
319.208
270.384
284.626
315.134
280.197
275.214
308.273
292.888
281.820
292.455
275.118
276.917
273.638
273.788
274.590
272.844
299.556
298.997
281.926
285.946
262.136
306.274
287.009
287.856
295.802
286.618
277.614
300.683
274.791
303.338
306.771
267.454
293.955
276.974
299.767
269.551
302.955
267.628
260.315
288.360
295.366
255.157
264.412
274.446
271.840
293.942
252.153
260.077
261.850
272.469
276.314
253.905
253.583
296.595
268.922
251.696
256.328
277.159
277.841
287.198
250.581
260.477
269.448
257.906
265.105
280.368
267.324
268.596
277.421
284.349
288.723
287.975
244.821
244.068
236.434
235.693
277.975
252.981
255.020
273.097
235.327
275.216
274.439
260.070
261.744
241.457
270.747
264.535
271.274
273.944
239.123
253.312
276.007
248.886
257.884
235.058
233.754
233.075
226.208
260.305
230.473
242.578
228.078
244.612
258.495
221.808
264.128
263.129
238.092
237.209
260.543
246.725
219.081
229.343
233.807
236.157
123.649
137.698
138.003
148.213
124.507
111.385
150.504
120.218
110.814
134.696
144.897
142.044
126.623
116.525
148.621
114.149
130.406
141.435
104.210
151.573
137.961
133.093
113.485
138.623
115.428
133.040
108.652
135.333
126.481
125.779
149.692
146.155
113.922
151.512
126.573
115.706
108.471
149.759
110.296
121.304
118.798
100.414
151.766
102.436
141.931
151.599
115.834
113.987
116.689
102.656
124.045
99.681
111.810
107.484
102.986
112.980
147.589
122.245
144.750
101.548
125.482
99.695
125.497
122.248
129.955
141.909
122.241
146.621
139.027
147.000
145.395
110.814
102.497
144.578
120.225
138.708
145.897
136.273
128.715
147.880
147.770
139.176
111.035
99.499
112.687
143.480
117.898
146.060
124.583
119.644
117.005
112.040
126.621
108.777
142.843
114.401
99.031
113.188
143.224
104.105
138.755
123.971
144.680
106.335
147.561
140.454
147.524
116.823
104.930
115.560
105.478
105.613
138.588
97.939
100.982
130.277
98.132
143.056
144.839
111.711
101.814
127.035
108.472
142.443
114.246
112.295
104.545
110.193
144.707
144.437
101.500
124.443
135.703
143.915
122.794
132.489
104.198
141.605
113.673
97.651
117.642
102.505
109.487
127.790
109.609
117.261
116.237
120.679
108.301
120.973
147.294
120.229
116.274
107.013
114.617
125.920
136.669
122.580
123.252
119.484
133.145
97.492
97.692
130.511
125.964
98.106
106.062
141.274
111.945
101.179
142.299
122.591
107.009
118.717
95.691
127.922
107.971
112.677
132.777
107.811
114.662
144.869
134.372
122.780
112.481
99.966
142.579
132.176
101.372
120.141
139.246
103.480
97.816
145.232
131.932
133.342
139.320
111.571
120.949
96.812
142.329
114.622
135.318
114.171
139.893
124.895
119.066
107.593
130.789
134.566
115.082
119.627
111.620
116.773
123.303
106.249
105.304
121.466
140.255
128.912
100.184
135.755
135.379
138.923
108.438
107.590
128.436
101.783
102.584
98.205
126.292
99.620
98.797
107.021
109.842
133.767
134.646
107.762
121.432
142.208
116.816
139.628
97.795
145.191
113.769
115.809
116.951
136.743
113.045
121.867
125.553
101.999
139.862
102.218
137.141
134.450
102.664
101.681
143.358
112.903
125.319
130.055
106.412
136.007
106.126
98.276
101.536
96.276
139.622
108.247
135.989
104.189
125.780
141.784
131.818
120.236
134.076
100.942
103.584
140.057
100.650
105.248
132.269
123.184
98.620
104.748
108.178
126.776
98.198
143.358
113.574
144.514
98.204
140.406
143.411
144.551
143.877
114.850
117.759
110.132
128.176
125.544
118.472
100.231
96.692
123.686
137.171
102.702
141.858
133.503
134.986
144.193
136.542
121.435
110.073
140.903
103.486
120.403
114.065
102.536
135.466
110.104
117.512
111.509
121.404
106.027
145.986
113.985
110.973
110.465
144.115
99.847
114.813
136.781
114.782
118.121
100.800
122.605
107.357
96.277
146.267
106.668
105.294
121.194
131.736
111.423
101.489
104.418
125.276
120.763
130.481
125.921
142.190
145.764
111.944
121.899
139.989
128.298
111.747
96.995
129.429
138.020
120.798
114.333
100.227
122.269
119.640
95.961
104.162
123.159
130.848
141.024
128.023
134.891
