895.378
894.127
890.450
890.981
885.693
892.236
881.776
878.015
883.238
889.181
885.444
886.989
880.250
874.901
869.673
879.185
880.024
870.793
876.029
874.951
862.774
867.458
859.985
867.499
862.240
868.571
859.168
861.830
866.550
855.966
852.116
849.223
859.461
854.357
844.901
857.015
841.783
848.615
851.597
850.849
841.050
835.849
838.080
832.336
833.433
830.330
841.229
839.215
833.305
831.323
834.065
828.919
823.052
827.205
830.382
825.810
816.754
824.711
823.699
819.847
817.814
820.388
812.395
811.925
808.195
805.496
817.706
811.995
810.486
804.572
798.493
802.753
803.652
807.243
795.358
799.271
799.720
804.010
799.530
793.197
790.436
795.973
789.425
791.852
783.678
784.532
787.899
792.138
783.929
785.061
773.835
775.791
780.444
783.941
768.835
774.610
767.519
772.618
772.103
771.507
772.634
759.886
770.538
766.527
756.685
764.134
765.031
757.635
762.204
759.516
757.744
753.053
757.243
757.277
758.054
743.500
751.242
749.089
742.345
744.283
744.335
738.327
742.922
732.187
744.907
740.629
738.175
741.024
727.318
735.700
733.358
734.753
732.095
723.014
721.325
728.744
723.725
728.737
719.664
721.460
725.299
719.833
714.776
714.224
719.382
708.802
707.925
714.985
705.964
708.840
703.907
699.786
706.843
696.558
699.124
706.322
696.370
692.756
687.973
688.556
697.732
687.465
686.143
693.924
687.858
693.630
692.838
690.131
684.656
685.654
685.438
675.017
670.950
670.011
672.099
675.160
670.709
672.456
667.602
673.455
667.597
668.461
661.776
659.776
656.409
664.502
666.005
655.652
662.303
663.839
662.074
649.575
650.795
657.177
649.882
648.322
655.709
643.937
646.503
643.992
653.993
650.169
651.101
661.063
662.669
652.698
669.210
664.787
669.439
659.398
673.862
675.732
667.295
665.067
669.071
676.954
682.886
671.917
675.809
681.133
686.987
679.334
685.198
690.926
695.905
694.727
701.333
701.781
703.933
702.159
703.045
699.765
708.367
698.645
709.274
702.771
703.922
713.294
706.642
706.636
723.909
718.259
719.158
718.347
720.037
722.376
719.501
725.488
735.961
733.033
726.181
734.876
736.417
743.996
741.254
736.848
735.093
741.191
745.038
753.544
746.888
752.908
745.193
756.221
758.092
750.222
751.161
755.553
758.600
770.206
761.435
762.062
768.313
773.440
765.229
774.530
781.373
776.653
775.853
771.883
779.742
776.199
781.957
789.398
785.782
782.796
791.194
793.145
787.090
796.011
801.783
793.331
796.976
794.484
808.122
809.734
806.129
813.144
814.562
807.022
811.624
820.562
820.021
817.250
819.901
820.340
818.596
826.379
828.355
833.882
832.539
822.120
830.585
836.859
829.409
828.636
830.461
842.573
834.546
840.672
836.682
840.796
848.159
845.402
857.991
856.240
856.625
852.564
854.403
861.051
867.289
854.872
867.881
858.447
874.025
870.539
863.317
873.175
878.949
881.785
876.464
877.575
882.297
887.521
890.511
884.786
881.097
890.834
891.664
883.518
888.304
893.372
903.123
890.007
906.686
895.845
899.649
899.881
899.814
912.119
903.713
912.314
910.991
916.814
916.393
922.068
920.257
912.509
918.172
923.287
924.013
921.059
926.388
932.481
934.396
939.563
936.495
940.978
934.324
937.894
938.178
934.639
951.052
949.851
951.592
940.960
954.891
950.341
945.929
948.365
954.870
954.774
966.844
959.675
961.353
967.981
973.448
971.958
969.946
967.356
962.119
959.053
970.011
967.685
964.252
953.939
955.751
964.154
961.986
954.168
957.413
958.341
954.736
951.571
943.076
946.611
953.209
952.171
939.717
942.620
950.985
941.571
939.778
947.336
946.573
946.055
937.298
941.663
932.306
943.462
936.441
938.375
932.308
938.449
927.688
926.965
933.753
926.515
921.158
928.056
919.638
917.470
923.120
928.715
928.191
921.333
923.527
919.558
921.236
909.707
911.815
909.800
918.925
911.619
912.830
904.425
903.180
914.248
914.049
900.379
901.852
908.559
906.681
901.685
900.982
897.577
893.397
897.297
897.242
900.067
892.146
897.351
887.401
892.014
890.873
887.932
882.872
883.613
881.376
879.373
886.866
885.095
891.072
876.861
878.641
888.429
885.377
871.565
870.645
869.742
875.722
875.280
880.897
871.744
864.686
865.614
868.168
871.772
873.315
861.882
871.578
865.701
869.319
869.738
864.410
859.606
856.438
857.318
859.208
860.215
857.580
862.430
858.097
845.387
851.184
856.477
848.044
850.522
854.438
839.644
841.218
847.289
847.226
851.227
840.080
846.526
832.795
837.292
834.463
843.283
842.228
842.124
835.812
839.429
828.093
838.779
835.888
832.234
824.798
833.208
819.852
833.441
821.708
820.754
814.815
827.630
824.589
812.508
821.740
819.028
811.754
809.661
808.213
815.682
811.320
817.674
815.746
814.429
810.907
810.588
813.331
805.080
798.170
798.955
806.010
800.798
798.737
799.684
791.630
803.410
803.084
793.402
791.079
786.702
798.124
791.025
795.992
795.783
788.142
787.450
794.427
779.977
782.078
788.279
788.995
780.206
780.415
782.423
775.529
782.153
776.561
774.565
770.660
769.782
765.937
767.060
766.509
770.774
774.807
767.841
767.500
776.313
770.201
769.785
771.732
770.060
765.388
760.019
772.702
759.509
763.063
755.752
766.178
756.717
758.421
762.735
759.682
758.989
767.345
754.981
754.395
756.957
759.531
753.401
760.580
754.416
763.701
763.465
762.428
758.074
748.590
761.377
759.020
754.203
758.461
757.514
758.043
744.257
753.088
754.085
752.149
755.737
753.268
750.927
750.099
748.957
754.703
745.462
739.643
752.941
742.316
750.203
751.134
741.256
744.686
740.577
739.721
743.471
748.949
739.800
733.910
740.789
744.458
744.490
746.607
742.177
731.585
744.145
731.221
739.182
740.635
730.542
730.485
729.979
728.153
741.535
732.665
724.759
729.777
736.508
731.543
725.853
728.672
724.105
732.872
729.941
725.501
723.254
728.388
733.875
734.301
728.150
719.178
729.422
718.312
723.198
716.477
729.384
726.907
716.629
724.284
723.352
714.578
722.995
716.932
724.378
718.884
714.370
715.017
720.883
720.145
712.985
720.783
713.665
717.495
718.047
716.619
708.931
711.742
705.079
715.917
708.581
719.202
706.362
713.917
703.521
713.496
701.791
702.137
706.069
710.712
702.899
700.185
698.940
708.781
708.770
710.137
702.876
698.287
710.119
701.893
698.827
700.355
697.450
700.019
706.243
698.173
692.663
694.981
702.808
691.344
693.705
691.924
695.326
700.652
700.391
700.881
697.901
699.475
701.691
698.207
699.604
690.825
691.494
686.598
688.222
694.640
697.933
696.082
688.440
695.757
692.012
687.334
687.669
690.000
683.446
688.681
686.288
678.075
689.498
678.520
684.132
687.977
682.594
684.252
677.114
688.711
677.973
682.640
677.527
679.976
681.007
679.318
670.426
679.194
673.057
670.535
673.080
677.065
674.825
680.281
667.214
672.017
674.229
661.869
674.632
664.990
670.805
661.929
659.452
657.839
652.217
665.759
657.656
652.318
657.039
646.730
648.561
652.117
647.672
642.420
644.609
649.780
652.552
651.121
644.143
640.845
633.134
631.682
641.962
628.403
626.912
630.243
635.942
627.814
631.878
623.438
628.714
618.428
622.127
617.618
627.947
623.331
622.396
623.720
613.950
621.842
622.905
618.810
607.699
605.752
616.595
605.299
604.626
613.852
609.773
609.439
605.924
598.427
607.570
606.192
602.801
591.630
590.768
594.054
591.137
584.903
596.412
584.972
582.857
582.135
586.535
584.874
587.889
583.096
581.903
580.649
571.951
576.930
569.257
573.399
575.849
579.263
574.375
566.719
573.895
574.840
562.837
566.699
556.250
565.799
555.662
552.405
557.031
558.689
555.185
554.441
548.878
550.279
550.730
548.015
546.669
542.826
549.253
550.238
543.841
539.725
545.437
542.282
547.158
530.810
529.995
528.113
531.786
538.072
524.717
528.783
532.382
521.421
527.236
526.377
527.370
529.838
524.479
525.921
525.049
516.311
517.254
512.556
507.253
506.855
511.431
505.430
517.512
512.667
505.040
500.946
513.026
505.313
509.177
504.190
506.240
504.837
493.115
496.832
489.075
486.557
496.611
491.270
491.907
494.970
493.296
489.986
486.353
488.704
478.216
485.915
481.135
483.189
483.284
482.942
478.261
476.394
478.122
464.918
466.177
465.954
475.935
463.167
461.274
458.124
467.162
468.166
462.520
465.305
458.671
460.303
456.256
458.200
456.814
452.145
459.384
454.329
446.590
443.910
449.078
438.103
436.943
447.442
439.131
444.794
432.722
438.067
435.780
428.854
430.663
426.066
424.850
440.571
436.131
442.278
433.351
438.426
441.906
440.475
441.769
443.626
449.801
451.793
453.008
449.798
444.916
459.816
453.034
454.385
451.387
460.311
463.073
459.324
455.843
462.422
468.883
473.235
473.588
462.416
470.053
468.641
479.779
477.434
469.362
479.335
485.949
476.790
478.093
482.663
480.641
486.991
486.913
482.728
482.533
490.606
487.874
487.313
499.062
501.589
498.133
502.291
504.716
498.213
496.743
503.318
508.406
511.877
511.088
506.877
516.808
506.899
522.187
508.825
511.437
517.152
520.996
526.576
523.660
519.449
531.285
523.433
523.574
526.958
530.276
539.641
540.858
532.238
534.901
534.776
539.428
533.960
543.832
544.197
551.009
548.266
547.216
543.500
555.364
554.072
557.459
563.295
552.014
557.681
552.445
564.601
561.828
568.440
560.836
564.763
574.343
561.968
575.350
577.989
569.394
579.262
569.517
576.738
587.130
582.984
588.140
582.383
586.237
585.599
594.812
590.120
589.309
595.660
589.058
594.660
598.187
602.379
591.188
607.000
596.383
602.450
609.475
608.359
614.787
610.935
610.899
613.055
610.425
618.300
614.655
608.766
610.528
619.265
620.766
621.479
620.415
631.869
631.328
628.007
630.777
623.536
629.758
631.667
632.687
643.931
644.115
643.424
637.293
634.660
649.350
644.986
652.397
653.821
655.003
647.655
643.980
649.856
654.344
648.516
653.972
663.423
655.561
653.992
662.189
656.241
665.692
674.097
675.650
663.030
667.774
667.658
675.948
674.164
678.206
685.348
676.784
675.485
683.581
685.635
683.140
686.627
685.769
685.699
686.859
685.153
692.909
694.270
694.577
690.537
699.647
701.525
705.024
695.357
702.756
700.591
705.697
706.427
716.616
709.730
705.693
698.438
704.923
699.861
700.827
697.807
680.147
679.944
686.121
686.514
673.509
672.199
675.306
670.839
666.078
655.470
664.927
662.112
659.835
651.138
645.247
646.099
645.949
635.937
640.738
638.050
639.084
627.567
632.700
622.200
613.492
618.297
617.994
613.300
606.056
602.024
598.237
597.185
603.050
591.441
589.559
597.939
590.600
581.715
575.017
583.343
582.980
577.540
574.539
570.116
560.672
559.305
558.446
557.640
552.627
546.695
556.610
550.639
536.291
547.360
535.844
534.441
540.717
533.607
521.389
528.621
517.044
524.055
524.071
510.203
508.878
508.587
506.654
502.787
503.057
504.246
486.962
490.401
483.749
479.768
475.795
474.847
480.173
474.584
472.253
462.336
468.185
470.104
454.263
459.820
453.184
450.924
457.790
444.955
450.730
449.354
439.302
443.940
438.479
428.962
423.670
432.369
424.632
415.749
417.640
408.567
410.126
405.530
406.850
406.770
401.269
391.715
400.979
395.413
387.880
394.632
391.217
379.251
379.034
382.303
374.260
363.705
366.553
361.994
357.254
366.153
358.408
348.282
351.885
341.436
345.747
338.181
337.566
345.046
330.248
328.371
335.840
334.041
325.902
320.419
314.040
313.298
308.800
315.660
302.107
300.010
307.861
296.085
300.803
289.460
292.840
285.007
287.040
275.411
282.956
280.260
277.528
276.723
260.945
265.975
259.314
263.377
264.065
257.666
253.269
245.666
238.937
243.651
243.201
242.133
231.724
238.854
235.431
227.861
229.129
221.369
211.733
213.635
210.843
204.426
213.106
210.559
196.815
205.472
193.271
193.534
197.053
188.353
191.351
185.041
181.170
174.525
180.889
171.695
172.297
170.648
169.905
164.691
158.845
152.463
157.756
202.758
176.129
227.053
220.758
208.371
216.448
168.914
215.979
225.095
183.858
175.573
191.295
164.370
182.853
184.167
168.286
175.236
189.127
222.688
210.723
193.621
172.523
179.878
205.103
167.030
151.263
223.501
170.161
181.874
158.192
200.517
201.611
160.873
172.591
154.919
229.945
166.814
159.872
190.968
212.286
203.413
212.618
223.620
165.856
176.800
151.248
172.041
170.861
208.053
169.267
154.987
166.628
196.113
158.872
173.072
226.654
220.559
176.650
220.757
216.105
172.911
220.364
212.786
200.392
218.971
162.536
192.771
181.136
192.769
177.099
169.569
212.523
214.413
223.491
213.094
209.160
197.826
169.552
154.727
177.454
212.422
201.390
216.905
211.395
217.050
230.347
163.434
165.941
228.720
153.283
201.526
166.379
152.300
164.112
227.014
223.827
203.501
98.448
122.904
127.576
128.728
129.217
121.607
84.127
115.183
106.760
121.648
127.580
128.043
129.455
94.810
125.080
124.042
88.818
125.620
109.097
128.552
124.669
118.869
96.740
116.810
113.240
91.667
109.883
122.167
128.546
113.982
92.128
102.200
110.473
108.373
123.186
121.126
113.901
86.316
84.017
118.585
126.952
113.126
117.847
99.237
98.609
109.894
97.166
107.376
124.364
117.019
128.665
111.566
124.009
94.956
93.538
107.570
88.363
121.555
125.045
98.000
98.620
110.898
108.818
87.251
127.344
124.589
91.145
84.322
126.154
103.969
108.430
122.184
120.151
113.292
107.068
116.115
92.371
91.321
103.694
122.210
105.531
107.205
112.654
100.791
121.662
121.960
94.268
108.244
100.938
114.452
85.635
125.604
89.621
104.416
104.761
89.588
129.635
98.972
97.740
102.250
105.069
108.386
87.131
92.597
105.280
127.927
89.227
112.334
89.704
98.353
114.990
94.358
96.856
127.960
94.342
98.728
103.353
113.378
88.961
114.565
125.623
88.060
109.212
104.194
92.216
110.259
89.888
128.251
96.379
126.246
124.407
103.401
117.534
118.521
113.781
95.918
100.055
117.785
102.066
120.762
127.308
122.958
85.951
121.338
126.144
86.673
89.776
102.474
99.816
95.308
110.492
109.164
100.154
97.895
100.136
109.474
97.343
108.036
100.526
114.673
102.212
107.179
126.622
95.417
90.187
97.437
83.950
86.474
123.565
96.238
114.482
105.598
102.309
91.615
84.019
93.904
127.334
124.859
100.827
90.365
116.839
93.263
104.111
116.584
95.476
105.612
85.591
123.609
93.715
114.588
127.856
119.507
84.522
86.521
118.357
92.295
124.155
112.388
96.407
87.917
102.292
85.874
104.743
127.007
97.247
112.124
114.027
118.495
102.169
107.897
118.926
99.896
122.851
118.190
101.763
121.036
92.575
123.462
105.465
123.294
105.708
126.719
90.098
87.753
92.708
120.379
97.788
98.658
86.411
101.388
108.266
103.412
88.345
105.013
118.777
92.355
91.829
120.998
104.265
106.315
89.333
113.685
103.018
93.957
120.418
104.308
116.016
94.246
118.943
106.887
114.547
119.485
126.038
108.295
115.110
97.229
91.380
102.270
125.487
121.622
90.404
107.204
90.849
85.226
109.843
87.164
117.997
112.180
120.453
89.231
107.137
103.842
94.499
101.448
117.569
116.371
95.919
128.122
109.267
127.923
125.067
94.031
118.414
116.096
99.199
97.838
89.193
116.376
113.050
97.486
87.476
89.065
103.628
95.241
96.605
108.885
87.779
114.959
96.869
94.112
125.490
125.879
97.431
107.475
108.651
96.593
102.773
128.466
124.086
90.215
102.211
108.679
121.227
85.519
109.816
110.943
112.846
119.994
126.620
102.076
102.645
107.309
85.589
114.753
116.763
109.650
124.168
120.634
105.023
109.656
121.919
87.673
112.032
101.936
97.902
118.018
123.145
89.711
129.755
103.016
102.493
91.643
120.798
93.769
92.193
116.190
107.204
97.958
88.899
99.946
98.359
99.519
119.121
109.505
93.586
96.817
89.305
97.247
96.071
127.844
108.200
115.803
86.139
97.177
113.483
112.471
118.638
112.957
113.782
96.782
89.655
114.356
119.535
128.459
93.920
85.206
94.485
84.142
94.873
100.855
94.333
85.727
122.517
99.785
116.959
90.990
103.649
86.754
123.772
97.324
122.976
96.173
115.627
85.934
120.090
126.433
94.613
87.040
121.300
129.680
97.710
119.152
107.085
94.232
114.826
96.757
91.293
108.242
122.318
113.848
97.975
93.212
96.032
103.242
116.070
111.942
123.481
101.270
98.464
93.514
116.908
88.062
84.212
85.946
99.031
119.217
94.972
90.024
109.308
91.565
103.846
127.434
85.276
123.755
111.918
119.646
125.461
114.265
84.064
91.459
115.771
112.806
122.725
101.987
112.992
98.121
106.845
107.124
127.739
124.091
122.174
114.865
118.002
105.013
87.652
121.971
87.636
123.218
118.114
104.160
89.798
103.061
123.764
86.857
92.060
112.679
99.200
125.606
129.262
111.455
128.830
90.864
109.536
91.994
99.635
109.798
93.454
97.808
93.634
87.263
106.951
93.160
118.483
116.234
84.350
99.042
105.038
122.061
126.377
127.709
113.294
116.329
87.830
113.517
89.783
122.641
114.151
91.442
100.739
94.946
116.129
94.344
113.751
