728.263
731.852
735.600
741.017
731.561
742.721
738.693
736.651
735.257
740.483
732.270
738.054
735.080
748.486
736.128
747.398
748.011
741.168
742.922
754.316
745.544
746.629
757.466
752.555
749.548
746.276
746.436
758.207
747.070
759.543
758.442
762.415
757.378
766.187
751.609
767.625
765.626
763.640
756.270
760.493
763.270
770.759
764.903
774.527
768.591
770.963
761.712
764.428
765.825
769.842
760.688
775.370
764.573
761.736
768.904
763.799
763.516
761.115
771.620
772.844
763.422
768.043
762.046
761.249
769.819
764.652
762.972
761.067
773.245
764.516
768.616
770.908
768.184
764.082
767.437
763.404
774.098
769.415
765.993
768.711
765.707
772.064
767.052
761.019
762.701
766.694
761.211
773.865
775.525
764.192
770.393
767.208
775.043
766.979
770.482
760.829
770.806
769.746
774.680
769.692
770.235
773.028
767.730
772.673
763.327
768.223
762.828
768.251
775.403
774.724
772.775
771.897
774.892
767.523
773.996
775.732
773.840
768.736
771.057
771.274
764.769
763.241
769.980
763.798
774.256
765.251
765.110
767.111
764.438
773.157
766.091
766.352
773.921
765.535
762.212
769.512
764.386
764.744
777.117
772.438
766.507
765.458
774.611
761.855
776.211
773.850
768.231
767.546
776.674
776.971
765.829
774.880
762.266
766.088
777.030
770.828
763.663
770.993
776.030
761.532
767.574
771.219
761.900
770.942
774.257
764.589
774.645
764.422
769.927
771.413
769.969
772.401
767.844
776.625
764.787
774.681
765.225
773.431
764.945
765.970
771.399
761.809
767.319
774.421
774.095
769.119
767.156
770.560
765.080
775.205
766.086
776.298
771.433
763.164
770.114
767.475
769.003
775.166
766.370
773.840
767.329
767.318
771.013
774.103
773.958
763.633
775.562
767.401
764.476
772.701
763.352
771.797
773.017
777.774
774.242
775.727
764.811
762.312
774.824
768.178
766.791
773.788
775.858
772.070
767.771
771.269
763.466
772.162
764.385
765.094
770.348
770.797
765.151
773.082
775.379
776.703
778.031
768.656
770.809
773.573
775.310
769.671
763.160
773.614
762.659
764.650
766.210
776.729
778.719
767.711
777.686
772.253
779.701
774.632
768.884
776.722
771.823
783.754
772.408
776.997
777.762
780.073
787.996
772.910
784.285
775.480
775.679
785.256
788.178
779.326
780.573
793.150
785.363
779.836
788.659
794.353
789.531
787.721
784.424
787.254
793.530
792.063
790.507
791.023
795.838
794.066
790.003
787.736
789.137
795.458
803.437
804.389
795.213
802.789
795.725
791.615
796.356
804.254
808.502
798.683
798.092
795.889
805.101
805.382
809.215
801.664
799.657
812.228
810.082
812.205
801.530
810.146
815.050
807.708
812.874
811.354
810.690
807.441
816.207
813.400
812.961
817.570
811.424
814.110
810.131
815.421
810.682
812.994
826.820
821.829
817.754
819.924
827.018
815.601
820.763
827.328
823.982
832.203
828.232
817.818
832.247
833.029
826.529
835.709
829.240
827.175
827.961
831.880
832.372
837.504
837.049
834.333
830.899
839.045
841.108
839.268
838.159
833.899
840.679
833.986
836.272
833.517
835.581
845.177
845.275
848.602
836.314
845.600
838.013
843.781
837.631
837.909
840.380
851.918
853.829
839.807
845.600
843.017
841.657
841.061
847.208
848.410
846.317
856.779
849.579
845.741
854.397
857.870
861.361
850.151
851.870
859.104
864.209
863.307
859.447
851.584
852.124
866.099
865.164
856.443
868.270
860.520
861.620
868.862
856.092
865.005
859.635
873.134
870.913
871.988
871.026
865.314
869.478
871.785
865.646
876.800
866.989
865.442
879.367
869.613
880.627
866.229
879.147
882.018
880.742
882.434
873.337
876.395
873.986
876.576
876.615
876.097
886.324
884.811
873.381
885.101
878.693
889.250
890.829
881.340
879.070
885.456
892.259
884.932
890.676
894.396
887.864
887.737
894.902
887.251
887.454
893.805
888.627
887.440
894.097
890.710
886.015
887.410
885.410
888.487
881.960
895.675
882.656
889.315
880.853
881.963
892.350
888.468
887.481
890.663
891.312
892.065
881.243
891.826
881.375
887.544
895.146
882.998
884.106
895.818
895.661
881.817
889.623
887.455
892.948
891.176
883.298
886.201
895.531
889.669
894.577
881.731
895.558
884.492
883.229
887.190
882.698
886.941
884.662
891.907
883.174
895.564
896.069
880.737
886.298
883.099
881.166
895.639
895.704
895.131
890.710
885.360
884.977
889.126
888.400
892.567
890.304
886.898
896.636
895.218
896.169
887.977
881.850
895.249
891.285
889.006
888.212
892.967
894.682
895.224
889.371
891.596
885.884
882.334
883.617
882.993
894.095
889.918
881.411
884.101
895.368
891.999
882.437
890.612
881.644
885.926
883.117
895.093
895.370
891.316
883.886
897.237
897.213
892.724
886.744
892.043
890.733
883.341
884.743
891.597
894.809
883.802
889.263
893.835
886.892
896.793
896.097
890.887
894.696
892.661
888.979
884.855
884.906
895.576
882.229
883.330
888.456
897.867
886.867
892.760
884.792
895.081
889.134
892.636
892.219
887.260
884.223
883.545
897.859
894.622
885.209
887.556
883.110
895.387
895.571
891.575
887.500
883.836
896.420
884.892
885.201
897.472
893.704
893.002
884.168
884.291
896.656
891.806
894.151
898.599
894.967
894.379
891.081
883.954
893.189
894.420
893.108
889.029
896.155
894.500
894.146
887.972
887.490
887.576
885.832
883.999
892.350
885.662
891.561
895.907
896.355
896.767
895.777
893.710
898.503
892.420
898.375
885.881
886.117
885.875
884.727
892.792
899.341
894.749
894.101
897.238
885.574
894.166
891.574
894.381
889.157
885.685
890.738
889.195
896.979
885.401
889.616
897.943
893.022
884.042
885.636
884.584
886.785
895.575
888.205
883.414
891.659
887.665
890.234
899.159
883.809
895.598
887.743
885.171
883.455
887.555
883.617
891.205
890.310
892.684
891.745
883.264
895.930
883.971
895.141
895.296
894.165
898.024
892.391
883.432
898.219
896.821
888.779
896.158
891.510
886.276
891.458
885.819
896.375
886.260
898.184
898.241
891.951
889.950
896.723
896.586
889.904
891.495
892.328
887.451
893.013
886.683
887.794
893.459
895.916
897.523
893.399
898.379
895.028
896.884
894.509
884.893
895.713
898.320
898.035
890.597
895.896
884.665
891.820
898.140
888.839
892.345
892.388
889.539
884.250
897.269
885.895
898.288
897.765
884.005
889.178
897.977
886.842
887.971
889.364
894.437
893.640
887.849
883.309
887.405
886.621
894.872
896.987
885.184
889.885
895.248
882.749
884.417
896.643
887.581
889.072
893.284
897.394
887.775
892.827
890.371
888.980
896.081
887.350
895.187
885.109
887.529
884.936
888.451
896.062
886.658
888.804
882.472
889.918
897.134
882.503
893.166
892.391
884.795
882.350
897.079
886.852
884.828
887.906
891.161
885.903
891.061
893.416
896.792
888.934
894.941
895.379
891.334
884.961
890.454
897.201
897.107
883.762
890.562
886.435
886.778
886.187
884.314
894.541
882.067
897.579
890.319
890.956
889.262
883.650
894.336
883.571
885.004
881.862
890.755
884.740
883.861
885.426
893.657
897.063
885.083
893.075
896.896
891.223
892.648
889.839
884.070
891.518
896.828
888.406
890.992
885.691
886.991
894.976
889.179
883.598
895.941
887.285
895.626
888.984
890.150
884.716
885.747
884.261
884.396
885.362
891.665
884.044
889.091
885.402
890.130
893.611
890.191
885.235
897.675
892.975
893.965
901.878
897.040
895.988
893.984
888.431
902.683
890.774
888.546
902.799
889.818
896.395
901.063
894.864
893.761
902.710
902.334
897.017
890.933
891.436
903.951
900.576
898.451
896.331
907.180
904.645
908.371
905.806
903.838
906.530
899.899
905.825
908.071
907.605
907.675
905.095
897.938
904.971
898.260
908.730
908.332
898.834
903.090
904.712
904.281
909.103
903.537
909.362
908.061
904.565
911.641
907.528
908.351
902.178
914.630
904.271
917.080
905.874
909.187
915.602
915.631
903.134
917.168
914.541
913.364
908.216
907.591
906.434
919.252
909.602
905.432
908.169
915.740
907.336
917.951
909.812
916.335
920.370
917.796
921.011
918.517
920.499
918.708
915.081
911.730
916.354
921.711
923.084
915.954
910.375
918.654
923.614
921.917
927.106
914.428
916.711
918.127
923.904
913.781
924.541
919.544
917.561
917.119
918.139
925.998
918.577
921.960
919.404
924.187
919.021
919.750
919.149
931.396
921.776
927.522
922.317
918.560
924.594
922.087
922.400
922.160
921.855
930.290
935.485
922.568
932.033
921.029
936.653
928.837
925.208
923.098
928.720
924.380
929.627
924.329
937.601
926.398
933.518
932.208
928.994
930.454
928.915
928.618
936.147
940.152
934.926
938.402
928.652
936.949
931.064
931.024
937.663
936.582
933.524
929.130
933.138
929.712
939.044
943.837
942.137
945.654
934.516
945.244
934.643
946.042
940.811
941.807
942.033
944.287
934.480
933.366
935.802
941.969
942.731
944.263
938.653
944.702
946.876
946.111
944.624
941.298
950.068
944.105
947.492
938.866
939.909
935.421
946.384
937.132
943.893
945.061
935.367
935.194
940.828
943.178
936.466
940.017
930.930
936.889
929.307
935.216
928.541
930.835
935.654
932.475
937.182
927.221
934.268
935.603
929.705
932.460
921.438
926.169
932.008
935.295
927.736
921.520
932.328
927.825
929.178
925.260
922.158
925.566
927.007
926.082
922.927
917.041
928.164
915.717
916.067
919.565
917.017
913.428
911.419
921.898
917.391
919.472
921.038
921.129
913.362
915.472
905.047
911.635
916.075
916.788
910.886
908.851
904.450
914.312
905.591
901.771
905.404
907.535
898.404
907.940
903.567
910.553
903.377
902.158
907.002
894.981
901.930
904.731
892.267
904.295
903.485
893.320
899.913
892.874
891.803
893.859
890.383
894.070
900.983
893.396
896.046
894.109
886.083
895.745
890.037
884.108
894.826
887.077
885.726
894.893
889.354
884.954
892.941
883.822
880.635
890.812
889.499
891.252
888.410
876.086
888.784
888.807
888.045
876.053
885.612
879.102
883.821
885.790
882.991
870.882
869.216
872.907
882.073
875.266
871.762
875.322
874.516
878.010
865.448
866.459
877.726
873.882
868.175
868.967
873.517
861.531
872.040
867.761
862.807
864.461
869.541
869.792
861.257
858.726
859.612
864.789
854.883
857.580
853.918
863.516
857.782
854.799
857.989
854.842
858.695
864.912
852.038
852.268
849.747
847.748
854.069
859.518
860.479
855.529
849.799
846.484
852.391
844.880
851.772
843.722
850.707
849.567
850.964
843.939
843.366
846.132
844.263
848.698
848.929
837.596
835.658
849.949
847.417
841.401
833.998
839.017
839.022
835.522
842.490
835.052
833.164
841.823
830.479
835.468
829.774
831.337
836.039
829.980
834.848
828.352
837.085
833.440
836.051
834.583
839.029
830.817
824.757
827.701
838.382
837.514
828.994
827.970
831.399
825.101
838.852
836.899
836.920
833.556
837.885
831.495
833.895
836.648
831.223
832.817
833.438
830.613
829.510
831.325
824.615
828.607
832.813
833.443
831.328
835.532
836.160
824.087
821.888
834.247
831.916
822.569
831.610
829.751
833.885
832.368
827.686
833.137
819.991
821.054
822.054
827.280
823.252
829.218
833.727
823.839
822.379
831.978
831.333
827.362
821.785
830.474
821.272
825.794
819.488
821.688
830.238
832.494
831.981
826.914
830.173
828.478
822.776
829.542
832.219
819.832
821.214
816.817
825.218
827.002
820.552
824.702
819.777
820.801
821.014
827.951
815.684
829.880
820.480
828.109
827.230
827.511
820.153
814.899
814.253
816.073
814.247
823.325
829.397
814.920
822.515
820.103
823.422
828.759
821.374
817.858
813.573
814.657
826.695
818.562
816.748
824.990
824.306
812.861
824.432
819.063
817.785
824.226
823.066
817.233
826.399
822.177
826.351
818.971
817.414
811.923
817.629
815.827
823.031
819.768
814.457
817.447
819.552
811.970
816.392
815.618
817.187
814.243
822.865
819.720
819.739
811.241
812.681
812.787
812.233
817.597
812.925
822.191
821.277
811.330
814.803
821.522
807.377
820.186
821.729
815.814
815.844
818.622
814.113
809.566
812.106
810.126
809.283
820.378
814.199
815.228
809.520
820.209
813.990
819.816
817.037
813.676
815.557
818.837
808.595
817.279
809.160
816.596
815.241
810.430
818.061
809.335
813.481
807.319
803.657
810.029
808.948
814.011
810.714
811.254
802.958
817.892
812.175
817.591
802.461
812.034
809.952
804.193
812.104
815.993
806.744
802.307
806.482
804.979
804.418
799.270
795.697
784.563
786.356
792.619
783.526
777.211
768.343
768.975
765.065
771.529
757.538
760.636
760.603
750.998
746.418
747.793
742.423
745.883
739.300
743.514
725.651
725.151
734.510
729.957
721.346
710.202
709.374
706.499
711.445
707.053
698.738
704.521
692.198
698.766
683.627
690.088
687.460
677.809
684.641
669.380
671.999
666.483
668.203
659.856
655.692
649.360
650.593
650.198
644.576
647.030
633.375
633.685
640.775
634.992
629.752
631.629
629.469
615.632
616.272
616.213
617.204
614.433
608.644
592.696
596.076
602.166
599.329
580.700
589.977
587.629
572.642
568.170
576.121
564.826
559.353
562.758
564.004
554.100
547.588
549.608
544.214
550.154
535.366
533.589
528.607
538.870
527.585
524.632
521.737
514.431
515.734
519.668
511.403
511.973
504.927
503.459
503.231
494.182
490.748
482.445
492.547
482.149
483.569
479.776
470.398
469.563
473.025
470.292
468.387
458.027
462.267
447.409
454.725
441.522
448.515
446.003
432.459
427.207
428.881
422.410
430.603
418.848
413.195
413.975
407.258
412.967
405.776
407.896
400.374
403.915
402.193
395.891
385.307
383.484
386.827
386.143
380.320
368.331
376.554
367.453
372.240
354.404
358.157
351.478
351.664
342.686
352.966
348.250
344.804
329.142
334.081
322.779
322.239
325.015
314.373
311.928
321.519
317.361
314.216
312.031
299.934
300.491
299.358
287.449
287.965
292.469
288.407
283.434
272.148
275.617
277.040
275.745
262.576
260.908
262.609
259.580
255.712
246.006
242.669
246.848
233.866
245.728
234.398
231.397
227.167
232.534
216.049
213.691
209.466
220.963
214.649
200.397
197.964
204.700
197.809
196.637
188.785
196.476
190.260
198.993
189.088
194.211
195.849
186.291
197.156
196.927
190.540
193.661
195.209
195.584
186.260
189.875
192.801
181.828
185.337
183.934
193.288
193.372
182.832
188.563
184.969
190.699
183.978
178.263
182.341
174.850
185.546
173.587
181.026
179.992
181.655
176.726
171.667
174.035
185.088
169.535
180.884
175.317
173.712
169.994
169.911
170.814
175.937
175.562
174.580
177.170
164.222
179.258
178.170
178.503
175.796
177.598
169.371
171.681
164.558
166.102
166.900
161.421
162.632
163.541
168.945
166.126
157.795
171.299
164.911
166.223
164.710
164.232
165.631
160.125
153.177
162.201
160.691
162.171
156.112
156.432
152.090
160.342
151.590
151.297
149.955
156.484
160.448
162.904
156.935
149.208
145.859
145.324
156.159
155.050
150.428
148.818
147.845
158.041
153.706
151.988
145.429
155.868
154.539
148.913
153.188
144.261
148.642
146.867
147.559
144.619
145.447
137.093
145.286
145.519
149.262
143.426
143.806
136.633
146.622
135.097
132.005
464.383
445.580
434.780
425.952
433.615
427.543
424.766
439.301
450.402
443.374
436.864
432.204
447.616
423.537
438.609
442.307
444.230
453.480
411.903
442.387
414.232
415.169
402.959
410.291
394.770
426.672
439.074
400.368
419.003
394.490
409.718
423.357
429.422
398.132
413.391
425.930
386.211
372.521
383.662
369.959
390.781
401.888
368.326
392.538
364.631
388.175
391.349
359.230
363.638
383.511
366.569
385.775
398.567
391.391
377.250
346.395
394.399
373.077
359.181
374.102
365.619
351.072
386.187
383.662
378.392
349.970
363.790
367.451
369.935
361.772
337.384
322.351
343.141
362.293
348.996
362.012
340.350
354.533
146.568
138.824
113.492
95.613
127.979
130.854
97.509
105.240
134.330
114.570
144.620
106.493
101.772
138.596
123.547
114.927
118.631
109.946
113.289
103.492
108.826
97.224
116.895
118.194
126.293
115.287
103.687
128.110
131.426
110.779
104.853
126.655
107.415
146.255
106.926
100.220
100.125
120.799
108.380
114.494
140.371
128.413
114.816
127.373
138.484
106.105
116.154
105.913
111.555
122.636
123.870
119.446
121.463
118.223
107.645
137.775
111.313
125.414
111.728
116.121
106.119
119.615
102.685
132.095
97.260
121.377
136.119
145.778
113.435
97.538
123.143
105.405
119.788
105.883
98.307
127.692
104.307
130.389
134.041
138.072
95.794
126.575
137.754
101.202
103.105
127.066
111.559
120.022
142.221
118.744
100.700
134.916
133.007
144.513
135.916
127.939
120.291
145.782
112.610
100.529
94.855
112.951
96.295
96.658
128.521
107.542
123.873
138.136
126.312
128.643
121.926
106.822
114.386
146.622
109.075
101.740
134.861
113.151
99.637
114.189
96.666
102.942
105.275
119.075
121.641
135.318
99.095
142.227
102.697
119.505
137.106
134.545
118.310
136.565
126.573
124.759
109.510
137.720
136.055
120.358
137.871
121.453
105.816
125.462
97.764
115.518
128.300
99.201
136.389
108.686
146.329
130.849
102.154
113.874
123.014
