734.386
742.224
728.138
728.941
739.415
729.450
735.198
730.708
732.843
731.057
737.341
734.110
723.980
733.892
736.390
735.473
726.939
729.011
727.265
729.153
726.916
729.448
726.506
731.300
719.391
721.373
717.298
726.239
718.533
721.925
728.213
717.574
721.970
720.916
721.470
721.081
712.720
718.289
715.879
723.769
713.814
719.691
711.704
712.721
721.501
719.333
721.377
721.609
709.532
712.536
713.681
712.962
708.235
712.223
710.531
714.846
714.146
706.613
713.512
714.914
700.915
708.015
714.189
710.306
709.845
711.676
699.927
704.430
706.742
705.643
697.992
701.261
703.681
701.478
697.105
700.023
702.298
707.214
697.776
697.600
692.788
691.484
704.736
694.521
699.362
691.898
699.226
688.918
696.214
694.122
700.854
694.643
688.698
695.349
689.468
690.969
694.115
697.905
694.114
684.226
693.128
696.143
684.274
695.354
688.993
686.757
684.091
682.958
683.715
681.936
690.020
682.583
677.929
687.820
687.112
689.420
676.553
679.567
674.854
675.175
678.252
672.297
672.406
680.279
681.177
677.756
679.075
677.030
684.342
680.738
672.870
677.340
664.830
666.915
667.343
661.359
670.028
663.984
658.648
665.396
664.316
661.447
652.585
656.431
660.734
662.384
648.204
649.531
658.157
655.860
645.191
642.232
649.054
639.388
640.454
647.382
642.285
640.735
646.975
640.691
634.750
631.960
636.952
627.190
634.355
637.587
631.496
622.394
628.905
630.471
630.970
621.270
624.822
618.849
612.962
617.734
610.982
612.691
612.181
609.561
605.168
612.986
611.939
605.628
602.666
604.144
607.433
608.483
601.642
599.010
595.682
604.176
595.196
595.541
600.284
593.244
596.508
591.651
587.798
582.639
590.119
586.607
583.682
580.004
585.960
575.316
575.578
580.571
575.761
580.828
568.962
575.287
575.173
569.197
570.658
578.136
563.252
570.697
569.149
568.330
559.587
556.017
562.739
555.348
554.486
550.982
551.056
563.130
548.223
559.267
548.916
558.431
554.589
549.876
548.573
545.423
540.471
535.457
539.814
535.566
532.217
542.382
529.249
540.566
536.629
528.542
525.393
535.102
530.433
526.793
528.593
526.466
523.238
519.489
529.711
528.262
521.428
519.337
511.820
519.867
509.094
507.340
514.016
513.598
502.697
516.064
509.709
507.706
500.453
511.984
508.690
504.636
500.007
496.869
500.964
499.231
499.541
490.548
496.701
495.672
493.418
483.056
483.124
494.860
488.710
491.996
480.961
482.776
480.613
479.496
480.210
479.521
482.237
476.782
465.707
478.896
469.821
467.051
469.485
461.276
465.378
461.376
465.388
468.337
455.154
457.024
462.601
461.396
462.138
454.769
458.674
455.777
457.651
450.770
455.371
450.110
445.640
444.138
446.135
440.127
443.371
441.125
445.032
435.313
431.025
435.825
430.217
440.290
438.976
428.017
433.990
429.787
433.132
440.774
447.988
439.110
440.130
441.958
444.808
449.924
450.082
456.689
457.644
454.865
449.603
458.297
455.635
452.762
464.336
460.914
464.774
456.495
458.629
468.286
474.794
466.603
469.134
471.775
480.446
478.797
483.080
479.747
482.444
477.918
486.648
480.164
487.556
491.035
490.187
489.557
482.723
493.520
500.606
490.312
488.766
499.831
494.341
504.415
497.082
495.531
497.713
504.801
514.685
510.865
504.929
506.502
514.426
515.336
507.544
515.149
515.798
519.531
522.051
517.934
529.025
522.843
519.618
526.136
532.942
538.437
532.250
539.518
542.026
535.601
541.809
542.713
546.216
543.999
539.240
545.336
539.767
550.880
544.814
548.483
558.346
550.023
549.228
555.776
552.273
563.343
564.855
560.165
568.349
562.972
570.294
567.635
575.968
573.642
571.475
574.219
569.495
567.520
575.500
584.103
579.241
578.494
579.122
582.564
591.033
580.385
590.399
585.522
589.311
584.560
600.716
595.288
603.564
596.896
601.266
593.003
603.003
608.586
597.452
602.181
603.529
608.353
602.980
605.822
616.956
612.354
616.819
611.673
614.278
620.477
614.396
624.149
629.083
619.525
625.284
623.000
633.306
633.364
627.386
633.363
638.275
632.796
642.470
636.626
642.448
633.751
639.803
640.994
642.732
645.573
643.536
645.384
650.441
657.613
659.293
656.576
652.021
654.038
664.560
659.647
663.342
665.024
666.906
671.647
674.054
675.577
677.544
666.836
672.845
682.059
674.190
675.233
679.370
685.995
684.342
677.930
678.658
690.909
690.720
684.588
693.826
696.336
694.353
695.391
693.160
703.681
705.632
707.352
701.544
694.904
710.056
702.711
707.231
712.675
712.284
700.116
710.956
706.801
691.816
700.247
700.570
696.025
683.360
677.137
684.656
682.117
676.434
675.275
668.725
662.869
669.761
666.171
657.281
651.511
658.455
646.479
642.593
641.373
642.849
636.882
635.436
630.850
638.708
636.348
630.791
628.016
622.904
623.797
618.817
612.060
610.233
613.266
607.806
596.469
606.281
592.658
595.207
598.797
581.933
586.554
576.962
586.447
581.276
571.370
578.225
568.026
566.841
570.525
565.433
562.534
559.750
559.096
546.745
545.847
538.959
535.057
540.225
542.965
539.464
530.057
531.379
517.302
524.966
522.736
509.604
507.448
510.119
513.657
506.541
500.032
506.967
493.756
501.239
489.730
496.709
493.923
479.213
481.068
485.979
472.324
470.668
465.395
472.023
461.714
457.040
456.487
458.740
457.235
451.595
445.816
446.899
436.274
444.228
438.434
436.193
429.188
421.305
418.527
428.823
420.622
413.674
410.990
416.725
412.370
405.226
401.640
400.837
398.509
392.653
391.873
383.568
391.343
388.836
382.719
379.235
377.590
377.290
371.710
372.008
365.304
360.674
367.186
356.698
346.187
347.539
342.704
346.886
348.675
335.569
339.724
328.397
329.474
327.443
321.525
317.786
315.280
316.203
308.760
317.743
314.195
312.180
307.259
303.450
301.950
290.516
291.217
296.418
294.565
285.350
289.942
273.077
277.593
280.874
274.983
275.939
258.627
269.172
264.646
253.084
251.387
244.354
243.583
244.811
241.657
233.735
238.441
230.459
225.069
223.646
222.943
223.584
217.509
221.191
209.842
216.847
218.142
209.736
207.239
206.347
200.942
192.283
194.103
192.233
191.054
191.389
189.804
187.192
171.207
181.728
170.923
171.057
171.432
158.491
161.382
74.883
76.583
56.510
80.603
63.730
54.507
58.920
65.276
60.214
76.210
74.913
65.341
53.996
67.906
69.518
78.314
78.502
62.564
61.288
63.249
63.827
60.885
80.273
76.208
191.985
208.521
213.898
210.091
255.548
233.548
256.268
180.260
222.950
177.670
260.718
234.072
222.630
197.704
202.358
244.780
240.332
193.203
204.887
173.055
237.041
246.093
176.113
195.304
220.690
195.684
196.085
177.843
236.249
191.871
251.630
184.077
258.337
190.738
182.917
210.718
189.613
255.933
209.491
242.226
261.810
228.366
185.817
236.847
228.383
225.004
254.100
171.199
172.748
258.690
258.934
196.564
216.334
221.031
229.628
205.957
178.453
254.712
206.410
251.400
234.896
214.807
175.859
207.969
178.765
212.518
253.990
202.562
174.740
229.988
200.350
216.706
189.668
260.569
222.328
218.689
125.514
96.734
131.898
112.624
116.143
110.953
129.871
121.833
137.910
137.320
124.255
120.803
118.669
113.519
103.914
142.453
100.415
134.358
119.242
143.518
105.976
107.630
112.293
108.222
118.911
145.848
125.948
96.251
97.064
139.696
135.321
140.906
105.596
142.840
126.183
97.893
122.178
131.877
120.640
139.801
123.690
141.682
122.760
110.206
132.779
136.060
115.299
104.795
145.669
127.786
146.331
108.627
143.878
119.701
139.962
95.062
112.543
119.033
116.446
111.654
143.327
100.199
106.783
122.838
122.342
106.030
107.661
130.364
97.826
107.595
145.966
118.825
131.262
130.902
128.778
131.890
124.633
124.844
110.508
97.132
111.799
144.117
133.982
105.894
127.672
95.474
106.954
112.056
131.147
98.627
112.911
109.940
142.297
117.323
125.802
129.066
104.487
122.740
144.347
144.334
114.978
105.151
119.425
114.007
136.111
133.221
125.167
139.892
111.433
126.360
145.637
97.538
109.330
107.047
101.664
145.389
102.563
128.094
99.608
99.806
113.039
107.650
126.688
139.636
116.713
97.248
139.718
101.739
134.567
131.933
141.277
114.162
98.675
134.280
127.077
103.732
126.219
130.204
116.578
130.508
128.266
109.719
127.109
114.593
101.289
130.402
106.791
121.287
125.405
138.991
132.065
106.421
132.403
95.458
101.358
111.206
133.237
115.177
115.184
96.199
146.738
145.201
131.103
134.526
146.318
114.269
105.407
103.441
130.475
111.459
138.703
119.152
107.725
103.361
113.719
131.072
114.180
126.781
123.000
137.890
101.725
128.737
108.106
112.686
143.785
106.040
145.589
130.080
113.633
97.391
99.564
95.811
108.212
113.987
124.383
134.132
124.098
99.731
121.777
113.325
128.392
109.739
116.160
99.494
135.280
109.785
139.937
122.468
125.164
138.275
133.786
133.906
131.800
129.142
114.149
139.282
97.260
106.385
102.943
141.647
134.118
115.758
110.396
117.202
144.864
131.259
141.493
144.084
134.944
96.944
132.796
126.928
104.434
105.928
120.610
133.647
110.715
104.914
120.277
144.980
118.523
124.355
103.559
146.129
99.989
132.463
120.983
105.872
140.772
101.834
104.289
107.470
101.955
95.079
132.227
130.501
122.794
141.188
125.250
131.828
100.508
116.286
143.310
108.196
98.750
129.678
130.169
102.736
146.296
101.529
140.065
95.772
142.480
104.255
121.049
98.537
135.229
104.855
111.013
129.285
96.778
138.237
117.971
138.935
104.743
111.854
117.104
103.793
119.148
121.531
138.910
138.211
122.949
117.298
131.528
103.377
100.298
95.685
104.644
146.183
145.490
141.390
137.774
115.285
99.616
119.568
138.752
128.243
96.699
125.850
137.259
124.703
124.288
103.879
129.551
118.486
124.019
112.054
139.567
130.700
127.288
103.059
125.594
113.765
102.939
98.889
145.343
99.683
138.927
117.782
118.336
114.380
95.345
104.040
127.398
115.175
97.081
136.473
137.587
137.285
119.092
123.392
96.838
96.172
118.174
119.182
124.258
108.092
126.514
124.314
134.433
115.870
129.969
135.690
107.115
143.985
138.337
131.566
115.739
114.242
114.840
136.963
126.211
126.971
107.222
131.010
111.391
140.482
105.691
143.841
136.003
124.181
104.618
125.889
120.298
143.067
133.444
143.423
134.436
126.289
102.886
128.339
128.080
97.344
124.146
104.204
124.218
112.202
114.406
133.901
99.933
133.280
120.502
121.825
119.565
117.460
105.057
112.336
105.483
132.877
97.817
105.536
96.703
96.542
96.458
119.764
126.221
140.987
116.946
143.172
101.293
104.608
94.891
113.525
134.132
109.555
95.534
106.151
106.981
115.421
115.647
125.269
98.402
119.706
142.060
135.290
115.796
124.080
109.377
128.835
127.790
100.629
119.877
111.006
135.972
121.622
143.778
123.362
129.233
103.804
133.881
103.963
137.473
127.442
107.652
125.280
108.797
140.979
97.442
102.543
117.259
101.525
127.328
115.748
126.238
146.609
109.068
136.904
114.793
104.406
103.477
113.181
110.503
141.520
99.528
111.944
141.257
136.524
99.898
105.880
95.294
121.813
112.803
108.497
139.122
128.927
124.449
100.039
128.010
133.396
104.887
125.116
97.383
123.768
143.026
139.283
130.979
112.323
96.480
105.081
96.852
132.443
128.134
119.058
104.220
95.669
97.629
109.924
130.045
122.538
112.708
134.463
116.647
112.306
119.780
106.980
98.350
133.027
146.568
137.031
128.847
123.371
103.244
142.248
135.789
108.464
120.655
99.996
95.670
139.761
96.313
112.194
125.711
109.024
103.645
144.691
125.182
120.246
113.812
105.111
134.533
132.275
130.956
138.648
98.574
113.779
143.715
102.498
103.044
117.186
121.483
136.611
145.321
146.348
144.787
118.512
130.886
96.901
119.644
104.044
125.946
102.513
117.998
130.423
134.216
112.679
116.670
110.646
128.436
142.719
141.687
141.059
108.125
115.623
106.920
142.808
121.507
138.427
145.451
96.210
140.611
139.873
110.412
134.822
135.522
127.938
131.746
100.931
123.395
140.910
104.014
106.490
96.729
115.616
106.608
96.591
119.346
96.879
121.666
145.266
143.289
136.487
114.940
124.793
141.363
114.917
107.023
125.874
140.296
140.092
98.355
97.258
109.662
104.641
135.023
129.815
133.644
132.980
96.056
124.502
105.968
108.024
105.382
129.372
108.680
130.730
120.222
112.582
142.390
100.856
146.732
131.817
94.848
145.976
113.190
107.481
123.611
124.867
101.737
104.804
118.471
124.470
136.005
132.019
130.582
145.315
116.311
142.981
125.780
126.336
125.404
127.440
115.521
120.238
130.136
141.801
97.528
94.967
144.280
146.281
113.596
101.981
107.889
121.136
143.276
108.624
109.597
101.373
107.508
115.721
115.544
127.802
125.359
101.296
127.962
123.315
134.262
107.784
141.785
101.004
137.633
130.434
107.607
134.784
103.835
114.282
122.187
126.504
144.342
124.154
140.774
99.791
108.282
142.334
121.272
143.010
141.919
107.980
141.222
121.503
132.350
141.800
131.702
139.728
144.364
103.920
123.257
138.271
128.226
136.771
118.024
144.090
138.336
98.622
107.866
131.722
111.304
108.326
99.065
116.047
141.607
133.344
131.473
110.104
130.282
116.478
103.282
132.648
129.618
120.271
111.318
136.332
120.068
119.917
105.245
145.292
144.415
114.016
118.480
130.963
122.508
114.364
129.317
104.561
132.078
105.016
145.607
146.677
136.180
145.812
145.018
139.294
134.893
145.041
141.931
100.400
104.957
95.969
123.686
137.609
105.600
130.387
141.834
132.297
142.023
113.674
119.050
99.573
122.927
144.439
106.846
141.449
144.532
116.528
107.875
130.415
104.537
140.290
111.371
113.184
97.520
103.187
100.701
138.905
111.953
126.281
115.354
113.765
133.451
115.088
123.432
125.765
134.884
135.806
128.034
139.750
97.564
111.587
95.361
113.346
100.517
115.172
145.193
106.574
99.183
111.508
102.033
108.994
116.572
100.636
135.172
112.884
129.225
141.765
108.574
95.070
109.042
126.681
109.656
131.312
98.443
100.616
118.542
122.117
104.150
116.626
144.870
109.470
110.339
96.296
134.258
114.484
117.257
132.273
108.631
122.060
136.230
96.493
118.592
133.430
143.396
112.476
111.575
102.905
115.115
131.183
129.294
98.285
143.762
94.784
103.458
125.169
139.333
102.641
128.968
130.151
108.881
126.265
137.142
111.824
126.080
117.969
123.810
114.365
131.798
111.414
138.438
106.510
143.774
142.435
133.694
99.587
133.298
122.218
125.045
103.398
97.942
139.276
143.655
130.411
133.310
123.624
99.313
137.923
135.821
136.965
118.569
116.860
111.300
138.487
95.528
145.255
136.376
138.664
113.087
103.202
140.359
98.532
99.219
122.724
96.232
142.003
119.413
136.026
117.175
106.397
127.389
112.913
112.920
127.140
144.897
94.987
103.236
103.897
113.192
136.945
119.000
123.941
133.439
106.730
138.417
139.374
114.702
109.666
114.609
134.893
145.753
117.601
144.476
118.865
140.806
115.835
142.646
103.486
104.099
110.060
142.747
145.197
133.795
114.385
104.306
95.454
139.628
120.801
112.075
111.357
146.106
146.288
136.553
107.963
136.258
137.147
123.287
116.984
126.292
140.825
95.246
144.105
100.677
119.676
120.729
102.785
104.588
139.850
132.930
142.356
101.171
108.263
131.875
100.600
129.357
98.229
138.588
110.203
138.674
114.554
116.538
116.238
128.429
127.281
109.233
132.040
96.740
133.906
129.744
130.376
109.952
134.823
111.952
121.372
118.277
113.153
107.098
135.955
115.992
106.495
98.021
127.312
128.740
123.136
113.362
122.396
119.894
141.460
137.544
95.871
126.943
109.748
119.932
143.242
115.395
137.825
108.039
100.430
117.289
103.851
144.243
107.098
118.510
111.425
95.699
137.194
117.933
130.698
112.408
142.794
114.080
125.720
109.488
145.331
138.240
121.664
133.835
105.139
102.812
96.719
134.606
145.471
108.084
130.153
129.903
108.030
119.616
111.314
105.447
144.169
95.230
142.966
135.106
134.659
122.884
105.359
132.781
128.978
102.672
104.406
97.340
145.141
101.482
99.207
131.988
135.906
131.083
139.465
139.252
126.384
130.493
136.956
99.894
125.498
122.626
132.654
119.374
137.916
140.952
127.316
119.124
110.805
126.804
141.532
131.871
98.031
139.354
136.789
140.810
104.681
128.112
110.695
134.697
140.605
124.599
145.968
143.032
103.630
116.637
117.800
96.637
145.833
129.865
138.046
104.357
144.338
133.168
112.066
146.033
132.694
111.258
135.168
128.413
142.429
130.099
126.511
113.161
104.914
125.741
128.062
120.092
134.056
124.085
144.779
109.871
115.896
121.000
112.970
128.605
119.148
136.160
140.210
112.934
95.609
103.777
134.689
125.966
97.721
146.149
125.803
118.841
132.889
121.104
96.929
96.511
134.451
104.560
133.092
124.888
142.839
126.660
95.005
124.506
101.597
115.064
130.214
125.092
101.709
95.127
102.972
109.368
140.791
96.793
105.669
103.035
108.420
102.937
133.693
134.261
107.934
107.018
104.826
126.916
122.913
133.186
115.365
134.524
98.555
135.414
106.085
108.456
108.451
103.558
119.103
131.622
109.773
