771.508
760.399
768.435
769.947
765.640
766.419
764.943
767.706
766.715
779.313
769.042
782.033
772.030
780.894
783.540
783.727
781.645
783.856
781.389
787.777
786.961
790.545
788.340
781.378
795.122
785.399
796.961
782.988
785.218
784.628
786.933
796.732
787.631
790.738
795.154
804.226
794.478
794.516
805.152
797.535
800.897
810.658
802.553
802.020
803.427
807.855
809.261
810.367
813.577
811.052
804.001
812.545
818.084
809.995
818.531
819.967
815.214
824.198
821.629
817.313
819.726
824.178
824.634
826.645
823.753
817.633
824.610
830.285
835.558
825.679
831.361
832.733
834.602
831.111
833.532
840.764
830.955
841.116
831.414
845.970
831.600
834.341
837.448
836.571
849.134
840.532
849.078
849.929
848.250
844.832
844.272
842.203
844.291
850.385
856.115
856.774
855.780
857.475
858.323
849.340
864.628
854.972
864.937
859.435
868.537
856.004
866.101
858.791
859.177
861.100
870.925
871.739
874.196
876.326
865.265
868.557
878.890
871.838
867.652
880.299
884.289
870.427
879.928
875.484
876.730
886.995
879.867
884.899
889.106
883.579
886.518
879.597
882.481
895.820
882.889
884.389
899.163
900.125
896.133
890.298
891.678
896.393
901.435
895.474
894.495
895.135
895.652
896.177
908.786
895.720
905.832
902.396
901.458
912.173
901.770
914.628
909.254
918.558
910.786
905.263
907.164
913.678
919.775
920.124
919.288
921.104
911.882
914.056
923.306
928.711
926.353
916.778
932.266
926.854
931.857
926.978
926.380
918.824
923.221
926.795
927.685
921.950
923.831
931.476
931.819
932.893
925.668
928.016
921.014
932.362
922.195
925.263
919.222
926.583
926.098
924.672
927.705
923.344
931.184
926.941
930.759
933.155
925.324
918.564
920.708
917.638
922.447
923.537
930.115
922.974
932.411
927.172
928.239
922.075
921.104
926.698
927.528
918.156
923.387
930.466
924.095
930.095
918.982
920.553
930.270
929.901
921.669
932.009
920.727
920.747
928.190
925.178
929.773
919.644
925.734
918.459
925.645
930.489
930.091
931.986
920.615
917.331
925.465
930.285
923.607
918.779
920.963
928.522
923.882
928.276
921.451
930.193
924.667
926.019
916.488
922.174
920.058
922.074
930.147
929.240
928.767
921.238
930.169
929.947
918.667
917.894
924.510
915.705
915.093
927.201
922.327
927.881
920.953
924.716
918.160
919.133
930.312
920.948
929.979
919.651
925.340
923.669
930.407
917.256
917.170
914.790
918.635
924.632
919.206
926.899
926.852
921.638
919.190
914.523
915.389
920.472
926.160
920.193
920.862
916.772
917.189
914.085
923.601
923.226
915.570
919.973
928.196
924.294
923.203
920.263
924.388
927.506
916.726
919.821
923.464
914.225
927.746
918.798
916.889
917.932
921.385
920.132
919.906
926.329
923.405
925.600
915.418
920.334
914.898
918.942
916.309
922.722
927.703
918.562
927.329
924.447
913.532
921.860
918.039
912.528
916.977
915.650
913.416
913.563
912.511
921.801
913.969
912.531
922.456
913.725
924.136
912.273
926.397
913.481
911.791
923.481
926.553
918.333
915.369
913.209
914.197
920.847
925.729
913.806
922.818
925.440
922.576
920.076
923.780
918.315
922.749
911.828
914.700
923.573
920.587
916.053
913.229
916.991
911.909
913.286
905.362
906.286
910.677
911.004
897.544
907.242
906.292
901.186
906.670
899.375
898.432
899.028
900.648
883.644
894.144
891.388
880.887
885.774
886.456
880.800
876.018
879.275
883.956
873.292
875.598
878.127
879.485
864.691
873.937
872.241
868.585
858.671
858.724
856.860
858.477
856.465
851.504
853.953
847.671
861.381
852.053
843.747
854.774
851.777
846.209
843.098
843.058
848.046
835.576
833.867
846.246
840.509
828.245
840.280
833.021
837.542
829.106
822.286
828.415
826.951
820.764
814.796
823.796
823.793
815.242
816.986
819.197
812.593
817.133
807.590
810.298
802.154
812.457
809.531
796.655
797.007
804.128
796.049
804.804
794.642
797.072
787.740
786.518
798.560
794.022
789.444
778.750
781.068
790.697
788.665
778.422
772.950
779.229
782.419
770.500
765.761
775.640
773.762
774.319
764.059
762.760
760.132
764.825
769.498
755.198
752.544
759.223
752.283
751.358
753.909
747.801
757.696
746.069
742.795
744.902
745.450
751.402
747.924
734.042
744.147
738.504
732.006
730.221
735.025
724.824
734.099
722.956
726.459
723.577
721.573
721.842
725.900
721.083
721.885
718.051
718.865
717.556
714.532
718.203
704.194
705.217
705.754
706.675
712.661
709.243
698.193
701.783
700.415
690.251
699.475
688.238
693.625
695.294
693.394
690.166
684.794
685.548
690.868
689.164
686.608
682.273
685.843
673.781
682.604
670.973
669.757
677.341
676.677
675.616
659.677
672.599
671.970
658.064
654.475
666.930
655.263
654.829
653.620
654.051
647.589
651.367
651.151
656.384
646.843
652.749
647.960
638.254
647.769
642.255
645.947
643.441
637.330
629.446
631.643
637.110
626.994
628.172
633.730
635.794
631.428
639.635
639.184
643.724
635.947
643.870
645.849
647.018
645.167
647.328
639.894
644.659
647.569
643.412
640.859
648.794
646.039
643.546
643.584
655.861
655.825
643.440
655.843
649.398
658.295
650.825
652.973
647.936
650.978
662.250
655.336
654.495
659.503
663.033
661.128
662.419
652.873
665.134
656.242
670.073
666.064
659.022
661.807
664.027
666.841
662.904
671.295
660.755
672.981
667.246
674.566
676.450
676.109
669.112
675.178
675.395
681.415
674.997
681.983
669.457
680.048
679.624
685.368
678.066
687.633
682.787
688.006
678.779
681.871
681.740
678.898
692.729
685.097
680.164
694.067
683.524
696.301
687.537
694.186
685.195
683.706
684.953
689.830
696.238
697.931
692.072
701.802
690.619
698.572
695.627
700.373
698.939
699.175
693.175
695.275
696.812
696.154
695.475
699.282
710.162
702.349
703.022
698.946
715.421
712.709
706.822
702.397
714.669
703.539
706.116
709.396
710.985
709.578
708.930
713.319
718.997
722.997
720.206
710.806
719.833
720.585
721.953
720.971
715.056
724.283
727.723
722.049
727.125
732.417
725.598
724.154
723.954
721.353
735.735
728.953
732.608
729.296
728.698
738.886
730.400
726.704
738.161
739.312
736.949
733.184
741.294
732.693
738.874
739.978
741.655
742.486
748.611
746.853
749.235
739.967
743.865
743.963
745.258
749.558
740.439
752.712
752.583
744.295
755.889
744.126
748.646
757.121
747.492
757.794
753.781
750.811
757.312
752.142
755.432
753.096
751.034
756.020
758.174
756.651
758.658
768.077
768.587
757.182
769.514
763.417
761.461
766.995
766.489
764.157
771.732
763.289
771.534
777.060
771.902
774.018
769.303
766.478
765.807
766.120
758.853
765.547
761.096
756.373
761.533
764.198
755.601
758.712
757.646
747.582
749.372
745.136
751.524
751.925
749.638
744.189
736.938
740.979
735.565
746.134
738.916
739.467
740.831
734.028
734.838
737.490
736.015
727.102
731.997
722.949
725.706
715.944
722.613
719.112
717.815
709.662
711.577
721.453
712.591
716.964
717.114
705.395
708.367
705.137
712.276
696.302
702.244
707.540
692.457
698.056
701.034
690.423
689.425
691.035
683.840
694.913
688.140
692.474
684.924
686.574
688.752
686.749
682.167
680.399
679.933
681.897
668.916
676.475
671.143
662.933
670.366
665.176
663.721
662.841
667.489
655.305
665.770
661.774
655.120
657.224
656.311
654.484
654.104
644.347
655.085
643.413
652.346
640.738
643.514
634.181
635.546
644.984
633.681
638.946
640.900
632.819
635.127
634.516
624.766
632.164
621.525
628.646
629.381
626.109
613.490
624.822
613.091
611.543
621.250
610.087
605.809
606.072
606.590
613.153
608.758
607.491
610.867
602.162
594.247
602.461
596.796
590.236
589.447
586.909
591.562
583.187
597.248
591.334
593.697
588.220
580.821
580.509
575.898
579.113
577.132
569.510
567.532
568.018
574.679
575.088
566.017
574.112
562.845
559.600
556.267
558.604
563.248
562.764
559.273
551.600
556.000
560.872
549.655
550.530
549.212
555.040
545.736
550.958
551.967
545.831
533.487
547.626
545.653
534.675
535.067
539.526
528.495
537.405
532.253
529.965
533.572
532.561
518.345
518.042
525.111
514.188
518.085
517.723
520.921
510.991
520.411
503.999
506.189
507.362
511.121
499.944
502.770
505.927
497.320
499.567
505.187
500.556
501.840
497.741
487.801
484.332
181.557
209.152
251.307
233.414
193.577
244.162
242.845
237.375
211.893
204.627
209.220
225.488
180.688
232.478
187.499
182.299
179.808
216.065
243.475
217.372
197.385
231.151
209.561
213.028
194.777
170.534
196.359
200.736
190.733
184.007
201.254
190.219
174.853
225.757
233.191
215.554
246.804
224.482
207.186
211.776
228.233
171.310
173.241
225.189
183.981
213.600
238.495
206.208
225.834
169.310
214.753
207.608
188.931
176.860
173.460
240.335
179.460
178.612
219.521
224.152
232.393
242.560
231.704
220.458
176.955
186.900
200.853
205.011
197.715
219.137
217.336
164.708
183.518
234.711
220.906
237.823
245.733
232.735
237.363
169.730
172.838
212.197
164.274
235.681
224.990
211.495
215.017
210.072
218.952
168.620
175.019
202.416
209.421
200.045
230.385
177.079
172.423
203.878
237.664
166.983
123.860
98.536
100.481
104.986
118.417
117.282
130.653
97.436
119.587
95.486
93.624
123.230
111.824
127.684
102.279
110.772
118.158
116.808
116.693
128.966
122.620
118.153
100.089
95.924
97.473
117.175
92.261
106.351
133.134
125.207
97.244
105.667
121.054
133.358
131.241
96.443
125.693
93.127
88.147
129.114
130.392
123.072
100.536
112.081
99.332
104.930
114.512
117.448
110.468
95.074
89.328
115.836
110.515
127.663
98.158
131.016
124.738
105.012
117.227
117.875
124.630
129.811
122.647
104.753
114.593
112.639
89.306
129.934
103.376
123.198
127.521
116.605
108.087
105.046
88.363
111.467
122.734
91.246
86.424
120.108
85.896
110.255
107.481
85.910
117.078
108.130
121.818
97.589
116.343
118.410
94.209
118.528
98.758
122.060
87.158
102.281
84.063
119.612
129.404
85.734
110.236
103.902
122.980
89.030
128.005
111.922
86.877
84.572
88.290
93.715
123.981
107.225
111.247
85.648
94.949
116.300
114.187
85.405
90.403
94.839
97.982
126.229
107.392
110.495
91.330
87.472
127.993
111.787
127.514
116.487
109.879
105.263
112.641
100.292
108.440
94.531
97.313
124.515
110.782
113.492
84.639
112.986
96.913
123.431
109.141
123.711
88.035
110.650
84.425
105.461
116.306
96.574
101.933
110.311
117.652
123.683
108.680
111.980
97.949
95.002
121.707
95.107
104.783
119.888
85.539
89.879
126.151
87.198
106.675
83.800
125.542
84.743
102.125
118.194
117.703
81.726
98.431
127.609
112.548
104.661
93.096
90.733
120.072
83.511
90.503
126.437
105.887
91.127
99.782
94.507
93.364
87.521
100.000
122.101
84.315
89.130
105.506
114.281
108.268
122.051
115.757
108.803
124.385
104.015
100.869
88.053
123.851
108.359
123.646
113.150
125.630
85.675
93.474
119.628
105.590
101.624
116.534
99.522
116.389
117.945
95.709
87.619
105.371
89.980
86.338
113.841
96.940
82.971
81.615
86.410
87.974
114.176
104.832
122.436
85.113
85.265
105.327
87.056
89.009
124.425
106.741
124.369
102.829
85.694
122.303
113.321
115.946
94.201
110.355
93.593
83.087
84.311
99.824
94.173
112.632
96.421
124.316
79.922
86.543
116.380
102.409
90.677
83.415
105.555
111.189
114.953
118.975
124.884
80.703
106.525
81.162
97.094
108.721
90.279
84.929
97.758
119.269
123.795
112.186
109.472
118.754
83.430
102.808
80.603
85.623
113.177
113.796
97.734
87.575
93.816
115.474
100.828
87.677
99.978
119.705
86.898
96.885
111.101
123.349
95.444
122.577
100.586
99.112
81.039
79.210
98.297
91.625
123.743
95.403
122.502
113.668
80.433
87.538
100.564
115.327
95.326
98.282
98.274
82.530
88.666
118.235
116.285
107.427
98.877
87.217
113.179
106.577
113.487
112.544
97.335
103.958
112.994
109.818
88.442
106.965
95.868
83.481
124.888
118.379
84.606
120.902
102.269
109.571
113.358
122.773
85.099
109.549
90.040
91.604
117.032
87.062
85.535
97.780
113.393
102.576
110.865
98.083
86.954
99.298
87.866
93.553
106.478
91.525
122.856
82.008
111.429
125.755
109.286
99.841
118.087
115.174
116.120
98.036
90.060
84.825
114.894
93.346
86.543
103.421
110.857
104.405
81.118
113.239
116.581
96.274
99.529
126.200
89.345
115.950
97.565
125.781
115.618
121.751
124.023
103.688
95.988
109.853
111.744
125.246
107.250
88.248
119.613
81.410
126.981
97.256
96.986
121.536
116.080
104.999
85.611
123.775
99.474
85.547
111.160
123.515
106.571
120.108
86.125
88.876
121.290
119.463
109.080
103.476
89.191
88.906
94.360
122.486
99.578
116.326
97.260
127.176
121.997
121.837
98.575
99.272
106.054
101.849
93.425
87.320
100.237
99.593
93.431
125.244
88.387
101.935
82.623
118.290
87.629
108.183
118.236
100.911
111.594
87.707
113.307
125.574
94.749
95.410
122.521
83.583
116.656
109.760
95.700
94.027
112.186
97.663
110.725
121.388
106.382
123.941
86.091
117.119
120.721
108.464
110.689
88.124
83.594
112.066
98.540
95.811
91.243
90.648
100.783
104.255
118.642
90.407
103.348
109.909
90.889
104.646
125.208
94.756
98.259
119.988
110.882
94.546
86.004
109.104
111.952
128.542
94.234
127.536
113.107
88.517
98.298
112.026
109.070
126.770
105.522
126.982
121.747
109.266
110.980
101.130
121.895
128.665
87.917
88.900
92.378
86.409
128.278
100.530
118.228
121.000
127.890
119.276
113.863
92.539
117.534
95.785
91.080
91.514
87.919
112.136
121.466
88.630
117.867
90.559
125.831
125.360
98.142
105.236
113.220
111.186
101.480
92.065
122.721
114.195
92.952
89.583
109.705
112.829
117.758
93.239
91.993
124.808
110.451
110.520
127.376
87.868
128.285
85.295
109.027
109.596
118.660
104.383
116.398
86.657
108.925
94.604
119.565
114.443
127.858
106.452
88.722
102.866
93.422
112.050
100.920
90.135
127.424
98.894
111.238
126.172
127.492
96.681
98.755
107.876
125.648
125.539
106.988
97.486
119.258
111.710
125.994
117.672
88.634
111.594
84.418
113.861
123.071
93.000
119.211
113.905
117.563
90.277
96.016
119.637
120.131
101.294
126.154
109.897
106.059
129.322
127.231
112.474
126.119
121.269
118.185
104.118
107.896
115.845
121.426
97.269
106.975
114.017
117.605
124.671
113.294
106.565
91.358
109.531
92.950
109.199
115.558
125.409
85.387
99.078
101.193
99.272
125.239
89.296
93.874
121.079
95.774
128.800
122.966
120.688
102.126
125.558
106.274
91.803
84.803
128.210
113.425
118.625
103.986
99.339
117.494
115.908
108.702
129.362
100.291
94.810
95.897
124.504
93.746
97.789
93.352
85.126
100.624
84.659
95.071
111.117
102.461
92.619
127.356
95.793
96.502
102.252
92.741
126.928
109.899
85.110
126.978
98.006
100.385
105.104
106.723
107.972
109.379
111.024
85.608
116.110
116.089
111.984
96.018
127.136
120.001
111.049
126.373
120.887
129.720
92.373
98.891
87.263
114.735
97.877
114.665
126.485
95.975
109.159
105.064
106.947
97.498
85.759
108.822
107.678
91.552
92.170
110.029
123.710
124.941
106.046
102.093
101.934
118.927
118.624
127.186
126.527
127.092
94.486
118.353
102.546
124.997
88.134
114.016
84.819
91.540
84.607
102.426
118.413
84.188
113.120
110.669
109.484
119.104
112.415
83.971
93.875
91.612
125.985
90.178
120.354
85.777
111.586
86.015
112.521
118.520
128.096
100.659
98.988
105.119
92.461
106.993
85.611
122.985
100.327
112.764
122.896
104.958
88.642
125.205
106.055
113.639
117.577
94.372
93.436
110.778
110.341
117.986
87.439
107.715
90.735
122.383
84.306
128.978
117.558
92.535
114.143
97.726
110.251
84.997
87.311
85.127
125.449
113.218
127.159
127.373
109.112
109.805
113.339
94.253
111.149
105.011
93.373
84.851
96.629
112.944
121.998
83.888
120.933
121.119
89.536
113.978
104.400
87.158
113.311
127.621
120.202
112.319
113.970
102.975
123.127
103.798
88.899
119.508
129.489
105.497
127.106
119.490
105.837
126.059
120.941
90.874
105.883
85.381
119.516
126.039
106.952
100.664
116.669
127.968
107.689
87.851
102.503
128.356
117.245
105.401
84.870
109.653
91.528
112.434
125.498
107.010
89.380
86.824
94.530
111.508
101.615
95.597
102.244
125.942
99.199
115.724
103.171
127.982
113.636
91.867
100.004
128.847
108.247
119.200
128.540
112.820
92.090
99.394
108.840
88.140
102.170
89.490
121.841
118.105
92.782
99.231
121.429
112.214
115.500
128.830
120.423
108.291
98.537
95.030
105.338
84.481
99.670
119.272
109.963
89.374
128.819
120.689
99.053
104.206
122.112
86.789
117.910
104.894
120.817
107.902
127.773
105.587
122.935
113.860
125.398
88.989
129.143
125.481
112.989
110.486
104.925
108.490
106.027
89.685
121.491
87.500
129.263
85.205
