961.090
953.305
950.830
951.645
948.753
949.592
949.004
941.317
938.580
935.468
937.297
936.452
933.450
938.126
934.334
924.940
924.143
922.221
927.155
923.641
923.365
923.017
914.573
921.545
910.080
913.444
914.311
918.303
916.297
917.214
903.440
905.976
906.545
903.759
898.189
901.342
901.642
904.480
894.546
899.218
887.114
895.894
890.083
884.522
884.449
881.477
881.631
880.229
878.941
883.556
884.878
879.843
870.183
870.306
867.485
878.163
863.967
871.760
863.218
871.048
858.033
854.971
867.978
856.700
864.082
855.244
858.816
855.019
851.086
845.766
842.698
840.886
848.075
849.446
838.679
837.282
846.975
830.525
839.443
831.380
836.078
829.517
832.961
826.468
819.266
819.066
821.063
820.525
819.399
823.683
824.613
820.725
818.526
812.175
810.922
803.430
808.505
806.786
807.909
804.561
808.499
807.538
799.718
805.296
793.728
789.654
798.429
792.283
798.349
795.941
783.816
784.386
791.880
785.703
775.635
788.386
775.560
782.072
771.247
777.761
780.469
779.452
772.166
774.877
769.053
763.649
767.725
759.574
756.793
756.492
761.545
751.729
760.224
759.023
764.494
755.459
753.660
747.720
750.663
751.112
757.648
745.402
752.192
758.134
756.083
745.106
744.103
743.832
751.373
747.742
738.814
752.383
741.164
746.325
746.146
735.970
743.116
735.824
737.357
732.775
731.583
739.585
730.301
731.874
730.464
740.681
734.199
740.225
740.601
734.687
725.057
734.669
733.348
731.740
732.309
723.557
724.333
728.795
719.106
726.099
723.911
726.963
719.116
719.061
719.063
714.592
721.991
725.946
714.799
718.248
726.442
719.690
724.905
714.897
722.228
707.410
710.399
708.473
713.346
714.059
718.560
705.841
708.934
709.689
702.893
703.749
703.421
702.880
712.842
706.467
707.636
703.235
707.549
696.286
708.686
697.299
701.542
707.112
706.421
702.063
694.737
691.593
694.557
694.541
692.951
700.496
689.332
687.337
695.501
691.376
691.208
688.295
687.275
694.977
684.298
688.513
685.985
691.348
691.945
683.050
689.096
688.671
686.214
689.655
686.778
677.939
676.799
685.767
672.311
669.820
672.896
680.867
675.848
682.913
673.590
673.453
679.049
673.828
666.428
668.288
677.147
664.593
676.265
667.758
670.327
659.003
661.856
662.090
664.667
667.425
667.613
667.955
664.426
655.866
662.889
657.619
662.964
662.512
664.675
664.109
658.010
659.082
653.087
655.033
660.851
645.997
651.994
648.406
655.612
649.485
649.622
652.872
640.344
654.331
645.363
653.077
651.838
636.991
640.053
645.080
641.976
643.165
646.827
642.410
646.079
646.725
638.739
640.059
644.568
633.187
640.952
632.619
636.848
626.276
629.901
625.699
626.087
635.383
624.233
635.512
635.579
629.162
628.166
628.846
633.066
630.252
630.063
618.406
630.552
618.775
625.185
628.506
636.068
623.461
624.835
632.549
639.649
629.505
629.378
642.071
644.233
634.995
643.454
647.977
646.757
636.297
649.611
652.302
649.607
643.881
651.958
655.875
646.014
657.152
652.329
653.114
657.698
655.880
660.080
651.736
654.492
662.248
659.882
661.756
662.868
660.820
670.981
669.871
675.111
675.815
666.957
675.776
671.001
669.838
670.894
676.014
685.161
676.382
672.299
681.302
683.348
680.565
681.833
681.749
687.685
693.606
695.642
697.144
687.139
690.491
692.318
697.007
695.092
692.416
699.058
690.787
697.678
697.186
704.569
699.213
708.874
705.480
706.615
714.624
705.870
703.554
703.059
704.674
705.874
715.874
710.383
715.337
708.925
724.218
716.577
715.129
725.280
720.762
716.044
723.098
719.878
733.044
722.336
729.006
724.180
735.630
735.757
739.000
731.016
731.924
736.287
739.565
733.522
738.221
748.608
734.825
742.209
739.394
739.420
748.472
742.565
749.299
752.324
746.080
749.079
745.210
759.977
757.318
748.156
756.642
761.181
763.888
765.797
754.504
765.737
761.826
772.496
763.245
767.860
770.486
773.063
768.833
765.425
779.539
779.413
781.256
773.997
771.114
781.863
780.688
778.742
784.778
776.967
790.367
785.599
792.336
789.094
788.271
784.198
790.489
788.359
799.699
798.391
797.013
798.952
791.038
797.327
800.075
802.725
801.385
808.166
808.169
801.553
804.722
809.884
811.073
805.476
803.116
805.576
813.403
810.291
819.671
815.481
816.058
825.190
824.539
814.053
826.243
817.602
820.850
818.361
824.168
831.069
826.868
835.812
833.650
828.764
831.559
828.338
835.800
835.084
829.981
831.506
840.478
840.407
841.951
839.666
74.571
74.281
65.191
57.848
53.996
61.820
78.268
65.341
63.395
72.610
71.852
54.195
62.582
66.607
55.243
62.984
80.109
74.825
68.099
59.347
75.639
69.363
59.670
56.858
59.124
67.612
64.479
78.707
69.630
75.214
62.522
55.847
73.111
72.262
57.165
70.952
79.520
75.092
59.898
67.176
52.744
79.154
57.194
61.442
62.665
71.561
58.446
57.697
193.756
179.333
195.383
228.122
175.120
257.902
168.295
182.595
225.943
184.181
174.725
225.871
259.064
192.479
225.137
237.451
237.380
186.134
217.797
190.067
197.632
176.526
228.347
175.216
259.082
166.720
212.757
198.084
221.097
200.332
192.987
173.300
173.420
225.499
245.358
170.144
252.785
178.612
258.888
258.585
256.827
222.402
211.443
221.402
185.290
196.716
233.067
245.794
169.012
218.305
169.986
193.069
142.611
130.229
111.866
135.852
112.787
106.309
117.710
101.577
139.782
133.844
141.712
121.355
117.698
105.667
102.503
95.835
118.245
107.827
137.539
128.931
96.486
95.771
129.502
101.176
132.655
100.081
100.078
122.014
129.053
115.349
115.785
91.242
129.389
94.202
99.326
115.821
132.979
90.437
131.803
106.633
121.557
98.284
116.905
99.952
105.469
129.375
110.931
120.847
115.801
115.931
97.556
134.559
107.750
141.145
93.954
136.636
95.868
118.371
116.436
120.688
137.248
102.700
137.272
98.767
92.609
108.114
130.099
94.503
98.971
141.114
139.897
108.905
139.986
116.968
118.844
105.372
92.268
124.359
90.614
134.485
120.662
95.080
121.633
124.430
99.992
131.937
116.882
136.333
117.797
93.844
115.733
133.977
100.008
99.360
89.068
129.398
99.081
138.314
98.310
122.231
139.069
93.115
106.823
113.893
90.562
122.288
119.975
94.549
96.260
109.539
94.192
93.503
92.118
88.523
104.933
136.784
110.564
111.430
131.330
89.132
96.232
94.014
127.869
110.415
127.389
103.682
92.859
112.245
127.173
114.049
121.033
109.078
137.777
99.160
88.660
138.006
117.961
99.762
93.706
136.084
132.719
134.383
115.495
98.356
125.838
94.234
89.521
93.636
112.312
104.540
110.294
107.701
102.985
111.113
113.697
112.981
102.862
105.937
89.973
92.030
121.631
138.336
121.273
114.563
103.104
140.102
116.747
105.876
118.946
137.435
98.099
107.843
133.985
128.638
100.753
132.163
114.576
124.983
116.050
127.923
99.412
90.515
120.178
133.819
125.237
111.804
108.111
123.273
121.924
98.212
100.948
105.349
93.000
114.098
116.561
133.257
109.787
91.508
116.713
138.211
88.567
101.983
94.743
118.395
137.964
113.328
125.788
106.453
131.041
97.504
131.473
104.430
91.439
118.631
93.333
89.569
92.458
102.988
111.531
96.993
108.522
131.187
96.421
105.562
132.469
124.855
124.055
94.116
95.835
96.372
90.824
97.701
120.543
120.956
130.852
106.081
127.523
139.881
93.112
92.291
129.969
115.720
127.969
96.219
130.803
123.717
106.744
117.635
109.549
98.574
118.646
92.839
106.221
96.638
89.452
107.535
100.460
136.933
118.303
133.333
131.356
108.763
100.965
113.048
97.286
100.827
128.078
118.877
100.363
91.032
93.908
115.848
112.297
93.164
132.238
120.529
102.941
133.435
131.752
111.757
90.197
111.592
99.932
106.674
110.699
99.399
109.579
120.864
122.148
94.204
92.483
90.062
91.125
132.714
123.558
121.258
140.211
110.205
137.331
119.536
134.443
103.416
117.889
127.389
92.007
130.910
135.413
108.514
90.862
109.081
132.918
104.288
89.523
119.557
91.241
125.073
116.508
105.026
121.064
122.232
92.696
118.469
115.682
120.790
94.234
119.765
103.542
109.505
115.860
136.430
128.376
104.022
119.313
125.032
140.753
103.648
135.949
106.454
120.539
107.284
136.231
129.271
132.478
106.222
139.563
122.285
126.201
131.992
124.180
108.132
118.066
102.924
132.627
139.536
103.444
109.019
96.093
127.342
136.286
101.697
97.651
130.431
107.130
118.753
96.315
140.384
109.396
129.226
137.208
106.295
105.119
137.391
92.686
125.593
134.944
97.384
97.688
108.394
142.661
112.872
101.700
109.178
142.872
101.104
129.246
92.277
122.131
117.533
117.352
114.536
108.800
133.430
135.187
119.224
96.554
136.484
112.537
129.752
105.666
104.643
123.379
121.216
103.798
108.104
111.991
115.382
100.955
98.664
127.317
119.055
98.538
128.179
119.538
95.804
122.666
105.893
113.159
139.126
131.723
122.361
136.858
130.856
111.132
128.361
143.642
117.169
112.504
134.154
128.711
140.966
107.886
105.334
96.483
134.267
95.402
140.512
119.541
109.601
127.191
129.764
128.438
112.848
133.088
123.578
109.764
125.471
120.296
134.617
114.871
113.249
100.494
131.326
112.077
97.907
128.471
98.862
130.447
98.859
136.977
134.706
135.055
144.967
128.373
97.379
116.175
103.107
99.970
109.449
129.373
123.249
129.640
127.477
94.355
135.990
101.745
101.925
95.396
101.222
106.872
106.689
143.681
122.531
98.280
129.916
123.067
97.472
115.655
115.594
145.062
104.440
132.336
131.849
99.574
144.632
134.258
126.858
138.123
99.894
114.125
97.491
145.929
124.450
109.909
138.864
97.854
139.058
133.062
99.608
107.832
142.495
106.060
145.156
116.427
98.600
100.119
109.267
116.317
121.649
105.549
142.246
98.057
115.875
140.376
139.619
107.086
131.985
97.658
141.789
95.169
120.000
112.355
130.797
115.680
94.041
108.921
132.087
125.221
118.336
119.225
93.629
127.937
129.744
137.243
105.365
134.833
99.150
120.580
114.680
110.124
96.170
99.461
135.535
115.688
116.838
140.510
112.765
120.146
110.508
97.396
117.937
102.466
142.007
115.024
124.606
119.978
117.657
98.510
127.924
118.876
136.480
104.241
126.692
94.712
125.199
128.742
102.488
129.546
96.263
136.591
142.457
142.650
143.943
131.672
138.058
130.407
134.022
143.943
98.162
143.328
92.991
136.130
142.536
97.311
127.822
116.986
126.448
125.396
122.284
101.268
116.360
132.518
103.446
122.155
122.768
130.691
126.777
136.996
97.028
119.116
102.134
129.893
129.745
101.570
128.557
109.287
130.700
99.303
99.998
110.636
126.012
111.486
100.862
128.691
124.187
107.140
115.301
107.635
125.403
113.894
120.565
116.394
110.251
96.159
137.040
106.913
104.858
125.132
130.841
118.348
141.534
113.636
100.566
111.513
127.051
119.747
120.611
119.866
102.753
110.273
119.866
103.896
117.982
117.334
105.822
94.592
132.581
128.874
138.605
105.590
124.447
132.483
132.201
135.643
101.215
119.859
131.350
138.879
124.341
137.004
135.733
105.986
136.019
100.120
130.911
136.928
132.669
109.782
114.035
114.227
90.096
124.909
140.396
103.723
137.188
128.830
89.087
97.296
133.090
140.426
88.901
133.605
88.747
103.345
92.108
139.333
89.468
107.728
101.713
135.252
96.634
117.084
92.048
104.505
106.029
115.560
115.883
133.055
97.644
118.152
103.022
108.421
134.942
126.618
95.937
113.063
138.685
94.591
120.962
106.687
119.048
110.590
112.152
96.239
112.616
108.429
103.474
102.433
127.207
103.204
104.216
112.989
115.773
116.937
105.711
138.451
113.570
127.656
116.487
106.757
136.494
112.129
90.379
90.881
120.380
104.095
98.161
122.886
118.932
124.172
141.636
121.097
128.091
115.594
94.015
137.351
92.781
117.575
94.753
99.071
114.778
126.352
133.541
109.294
107.662
92.277
123.259
127.280
99.393
115.308
126.452
91.203
137.232
108.172
103.948
124.802
127.982
94.247
108.526
92.374
136.944
138.692
101.816
115.849
96.476
128.066
107.291
101.321
132.741
114.208
134.184
137.598
113.259
113.025
112.560
113.529
111.461
130.473
115.355
118.500
137.122
102.291
115.911
121.976
93.708
114.925
102.614
128.776
125.636
124.253
112.998
102.094
140.808
109.954
104.474
92.466
121.933
96.143
92.671
132.070
120.920
117.431
129.900
93.528
142.609
114.587
127.924
103.099
96.160
101.640
94.761
138.094
120.099
113.352
122.025
131.472
136.334
117.094
140.332
124.776
95.178
128.033
101.636
131.906
106.319
133.519
103.379
128.489
103.059
112.769
120.515
131.980
139.497
111.547
123.501
94.898
128.108
134.348
143.293
124.600
136.769
124.488
111.653
121.181
131.561
122.991
142.997
137.494
123.118
107.834
144.059
137.178
141.180
118.524
105.901
120.554
110.489
126.622
102.807
103.223
122.804
143.886
99.721
144.678
104.862
97.163
133.551
119.479
115.569
133.912
106.362
143.452
143.820
143.052
106.019
132.829
120.500
113.530
109.553
103.861
118.129
132.508
125.448
109.449
103.377
117.120
128.379
126.963
110.225
131.623
94.863
100.059
121.550
107.883
140.481
101.005
123.484
124.392
113.673
122.653
140.700
115.432
143.458
94.870
104.528
118.323
143.941
116.851
137.485
120.022
108.853
116.750
129.284
130.972
135.905
97.418
118.069
126.207
119.135
111.423
131.194
117.201
145.891
139.600
122.967
106.064
142.458
104.390
114.734
133.313
139.634
123.431
119.024
142.762
96.268
105.543
135.524
99.557
110.609
139.556
122.721
97.055
106.765
104.103
144.885
127.000
119.414
117.035
134.947
141.687
139.875
125.081
138.214
126.274
104.097
121.825
137.057
144.949
120.913
115.710
109.567
115.577
123.967
106.436
111.258
115.692
109.688
113.066
107.556
118.637
118.478
102.591
142.568
116.931
142.324
98.449
144.018
123.697
134.018
145.506
104.368
120.838
110.732
111.231
100.122
141.847
110.781
111.235
106.600
119.477
136.969
122.748
115.709
130.558
97.716
112.753
141.698
125.391
95.074
144.596
114.531
117.737
134.460
137.488
122.523
112.756
144.618
146.164
135.178
144.370
129.378
115.359
131.779
114.039
96.655
118.788
117.930
116.998
126.000
118.280
111.708
134.565
107.352
129.448
116.368
95.142
134.556
110.521
98.958
142.333
99.447
145.133
125.430
111.070
99.099
121.952
131.766
128.801
128.370
101.803
126.653
96.775
98.358
109.097
121.534
123.205
109.092
108.414
142.762
103.054
108.352
103.695
106.478
98.745
97.088
104.183
141.544
111.136
99.944
141.912
100.415
101.816
102.735
103.770
106.974
133.069
118.839
96.424
144.810
144.635
133.275
128.630
142.699
131.136
110.566
99.429
127.565
135.204
99.373
101.657
142.572
113.076
98.794
131.264
146.283
118.835
117.149
103.661
103.201
108.208
124.167
140.082
134.395
139.570
107.650
123.496
142.190
130.733
117.074
118.073
134.239
99.994
144.239
135.625
115.377
95.181
99.379
136.860
96.075
103.212
113.812
117.584
118.972
140.709
126.564
108.030
108.867
119.069
140.877
95.449
126.350
140.241
98.720
110.006
110.934
130.987
104.911
127.733
107.302
93.289
136.495
137.612
97.764
100.829
130.959
140.256
102.014
104.489
93.345
120.851
104.705
125.027
116.297
125.868
113.290
108.646
111.339
118.664
116.953
92.896
135.900
139.327
142.801
132.785
132.846
141.052
117.928
121.870
118.814
128.664
99.735
122.920
141.663
138.576
108.606
123.302
143.784
111.117
116.849
131.024
101.194
130.739
108.349
95.376
101.002
93.220
112.506
117.226
114.097
92.150
93.106
101.867
118.028
128.357
109.002
117.423
102.261
121.300
93.652
91.974
138.003
141.088
116.517
141.056
130.664
97.542
115.485
138.351
113.088
108.774
110.008
121.114
105.637
141.577
123.580
100.784
132.205
127.358
106.352
113.972
131.320
137.200
121.648
138.338
100.091
95.374
131.780
137.588
98.182
109.545
123.930
102.037
135.621
137.337
115.196
125.221
106.903
133.556
129.570
98.093
103.818
95.451
116.481
141.308
134.988
137.731
108.438
124.777
120.226
112.313
93.793
100.666
128.068
107.407
125.694
97.635
131.349
115.574
101.077
120.472
120.276
97.735
120.149
90.526
93.751
107.750
137.697
137.679
110.823
122.635
97.248
102.376
90.096
92.244
129.066
89.881
88.958
134.691
89.283
124.145
110.852
135.578
111.119
116.977
134.354
102.231
107.623
102.131
134.827
111.174
93.320
105.592
129.170
120.164
130.541
104.574
109.857
113.625
129.666
95.430
109.742
128.741
129.882
96.374
99.245
135.867
125.075
98.359
95.597
103.372
125.623
131.556
118.294
133.051
93.252
121.801
114.198
107.396
107.808
91.201
116.561
115.887
124.260
136.569
130.416
94.103
140.181
120.913
117.994
100.347
140.584
92.069
100.860
125.135
120.610
134.637
99.858
138.569
123.163
131.852
125.471
141.806
102.135
92.862
141.666
123.503
113.671
112.312
112.612
111.437
120.458
129.159
137.133
106.318
137.775
131.165
105.482
102.499
142.274
92.206
115.597
108.270
125.931
105.397
