1001.942
1001.203
1004.078
1006.567
1001.281
1001.061
1005.696
1004.235
998.103
995.830
995.141
988.793
997.672
1001.183
987.566
988.009
992.321
992.519
984.805
980.288
991.415
987.726
983.864
987.997
987.148
978.310
972.564
985.718
977.355
984.290
978.077
975.771
975.775
975.463
977.877
975.474
967.987
968.100
975.290
965.178
961.158
966.740
969.853
958.696
965.596
965.167
952.456
950.120
959.055
955.030
958.651
948.049
945.442
950.597
944.519
943.290
944.217
954.169
949.226
937.584
943.696
940.980
934.329
946.356
941.349
937.138
940.522
934.135
934.182
939.764
938.092
928.128
927.232
931.056
923.115
932.090
919.497
925.331
916.716
925.959
925.129
925.732
925.992
917.858
916.603
916.781
913.006
916.173
916.563
919.605
909.909
903.137
906.635
905.589
903.122
911.850
912.411
910.670
896.813
893.255
902.728
903.454
896.467
899.019
890.198
890.138
890.954
895.030
889.560
887.573
881.868
885.722
890.156
883.534
886.819
891.339
879.909
874.094
873.312
881.723
879.254
873.169
875.154
880.217
877.643
873.931
867.733
871.419
865.482
867.475
862.461
868.157
869.643
862.258
868.315
860.773
857.092
865.226
861.307
850.291
858.756
861.629
853.842
850.790
859.003
853.279
852.511
847.849
852.419
852.785
860.272
850.985
853.392
858.275
860.033
849.521
851.094
865.067
857.114
855.259
852.917
857.652
851.214
858.780
858.043
861.742
863.170
867.285
862.172
865.103
869.630
855.393
867.454
863.724
862.942
856.925
868.941
863.361
862.687
870.933
868.485
871.459
869.179
867.375
873.407
864.269
873.703
870.280
874.710
865.469
861.789
865.886
875.455
868.025
864.561
864.955
869.545
875.236
874.178
867.127
875.306
870.649
876.661
871.481
869.686
869.135
878.075
873.366
876.815
872.928
872.594
882.659
879.392
879.803
870.893
875.201
875.545
878.738
877.848
882.594
878.149
886.640
884.801
883.750
888.342
880.669
885.172
880.439
885.941
875.703
889.864
885.029
884.746
884.804
885.323
885.976
887.379
885.472
881.161
884.841
880.285
887.358
885.251
895.744
880.576
885.666
881.658
893.182
882.106
895.284
892.256
893.293
884.218
896.052
899.307
891.897
893.388
899.791
888.691
886.348
901.019
901.727
890.948
898.806
890.896
891.134
891.841
891.711
891.455
904.765
891.558
904.116
901.371
902.021
894.092
907.445
892.391
902.361
907.341
893.885
904.528
908.939
895.490
897.734
906.723
907.174
902.880
897.419
901.991
905.598
911.740
908.266
899.699
914.114
906.973
900.567
901.780
902.568
910.112
912.389
916.384
913.565
912.243
911.127
914.169
909.955
906.678
913.904
911.780
905.167
907.547
911.169
912.813
915.658
913.711
921.333
922.179
915.945
921.580
908.257
914.142
917.583
913.315
923.618
922.491
919.738
921.683
912.178
921.926
916.479
924.812
912.826
917.979
921.930
922.756
924.315
918.754
923.098
926.991
930.680
923.083
918.938
929.216
927.070
926.789
923.949
919.093
929.371
928.391
929.261
923.621
918.501
924.979
922.813
925.037
915.660
924.331
914.888
911.332
915.577
916.207
917.649
922.353
913.853
912.886
918.222
907.848
917.969
918.066
905.551
908.931
909.813
905.575
907.072
917.334
902.393
905.166
904.501
911.969
902.498
909.775
908.330
906.389
910.577
897.994
899.266
911.256
902.305
897.495
901.033
903.116
901.484
901.347
897.150
898.694
894.789
906.293
904.114
891.186
900.944
897.955
898.849
897.933
888.540
888.442
902.757
895.570
898.851
893.194
890.146
894.988
889.261
893.193
896.797
894.350
893.500
882.659
885.979
889.131
882.546
882.983
884.579
891.071
889.740
881.107
886.824
882.337
887.216
887.804
885.646
888.749
880.132
878.812
883.674
875.441
884.621
873.636
883.893
882.889
878.235
877.201
875.837
882.103
872.323
870.846
873.636
875.437
878.775
872.915
870.868
868.981
871.936
876.596
868.236
877.345
870.041
865.392
868.408
861.636
872.261
871.632
872.082
869.451
863.914
861.266
865.269
867.281
869.753
857.685
856.101
870.758
860.020
856.406
861.638
865.734
855.600
859.774
855.331
861.107
861.885
854.065
858.426
865.125
849.007
861.305
852.461
862.929
856.063
848.105
850.205
850.976
848.898
854.449
844.164
848.757
856.882
856.215
852.166
847.952
851.885
851.272
840.789
841.583
847.090
848.660
844.235
852.747
849.047
841.457
849.526
835.770
845.480
837.137
845.164
834.259
841.810
839.410
840.754
836.447
840.295
837.798
841.933
841.750
833.130
831.623
837.984
834.921
828.278
830.701
841.957
836.757
825.334
837.105
835.487
824.706
838.740
836.295
838.104
829.561
830.196
829.411
822.900
825.657
822.350
822.640
827.641
832.405
830.380
823.553
828.463
830.360
823.333
832.491
832.039
823.972
830.153
822.655
823.211
825.378
823.591
838.995
827.747
838.259
827.518
831.408
832.837
836.199
830.022
832.448
835.063
831.212
834.805
828.210
827.493
840.407
829.430
835.695
841.222
841.746
835.157
839.782
836.576
833.561
844.181
844.142
843.753
832.412
845.812
846.804
839.846
843.174
841.205
841.434
837.450
832.876
844.887
840.455
835.758
847.015
841.107
837.943
839.640
843.366
839.733
846.156
849.166
839.980
846.531
844.761
846.294
846.664
844.980
849.447
843.159
838.694
846.958
839.029
843.551
852.329
852.727
846.190
846.170
851.599
854.214
856.086
847.393
841.479
849.247
853.147
854.688
856.380
855.322
844.326
845.893
856.780
844.668
848.105
849.485
851.550
855.623
851.469
859.873
861.176
860.786
851.887
855.899
859.839
862.481
854.976
862.742
859.024
855.794
856.113
860.315
861.034
862.440
850.224
862.409
860.288
853.326
860.261
852.466
865.534
857.321
864.803
852.575
858.003
868.135
865.329
854.399
865.713
869.239
869.805
857.424
861.063
856.090
866.808
858.717
861.871
858.296
862.029
869.052
861.466
860.159
860.868
865.972
868.680
860.130
860.440
871.234
868.868
868.280
864.168
871.682
875.682
865.811
875.769
864.647
873.655
876.885
869.593
869.149
874.311
870.458
868.306
864.688
873.318
879.281
869.039
865.297
874.752
876.334
870.680
870.136
870.061
881.308
878.591
877.333
867.219
878.155
872.877
871.871
880.005
876.268
871.130
870.433
876.057
874.656
873.226
872.885
876.803
876.016
883.897
882.814
883.257
882.209
876.194
879.645
877.126
878.280
886.371
875.558
875.732
874.079
887.941
876.729
877.960
882.288
879.420
890.965
886.715
889.309
883.798
878.423
894.180
887.209
895.317
894.988
884.301
894.941
888.060
891.846
886.996
894.581
886.113
892.390
890.083
899.329
887.312
887.405
902.019
894.014
896.497
895.055
895.074
897.621
904.386
905.537
895.536
895.563
898.695
895.149
906.805
900.639
895.762
905.831
905.559
902.042
896.724
911.704
904.780
898.210
909.094
904.151
902.662
910.454
914.876
912.740
901.919
915.358
902.321
911.743
905.687
919.482
915.212
906.601
908.065
907.346
907.345
916.108
919.693
919.852
914.266
913.045
925.149
925.289
912.356
919.257
923.279
924.835
917.110
927.274
927.441
928.701
918.570
921.150
931.094
924.030
924.077
931.265
926.033
922.408
928.412
921.908
920.025
932.887
933.779
932.565
928.504
926.754
937.520
932.655
931.471
929.608
930.324
935.283
941.371
931.910
939.400
933.848
934.215
931.878
941.590
943.719
934.982
937.607
938.976
946.594
932.641
935.356
936.350
947.061
944.326
941.390
937.593
935.561
942.632
950.430
946.581
951.082
948.332
946.542
941.203
949.287
953.056
949.047
946.772
957.252
955.235
952.483
951.029
948.205
959.782
945.211
960.817
950.083
946.468
947.773
952.281
960.601
961.983
963.438
964.420
950.133
952.856
957.558
953.927
962.457
963.482
962.849
964.542
968.625
968.052
968.619
963.859
961.940
967.749
960.678
957.145
971.214
969.435
961.200
968.794
972.463
965.042
971.890
972.052
965.740
971.116
966.721
973.986
975.984
979.139
968.016
973.924
975.719
975.052
975.839
969.216
974.609
977.644
982.135
981.574
970.984
984.660
980.325
973.175
984.771
972.640
981.530
976.751
976.923
988.407
977.040
989.122
983.270
975.593
983.714
982.588
987.175
983.812
985.776
974.435
985.139
972.945
975.105
986.135
983.616
977.187
979.132
983.842
978.640
982.927
975.047
972.182
976.104
978.310
975.557
977.958
982.833
983.122
968.111
970.168
973.938
975.811
981.373
978.183
976.869
974.867
977.901
971.757
966.728
974.817
966.902
973.300
968.666
964.896
966.121
975.921
974.760
964.704
969.937
965.509
967.604
974.911
971.082
961.170
964.051
966.101
960.713
971.334
962.985
970.269
967.963
963.267
970.461
965.826
962.392
971.888
959.026
969.737
959.742
956.812
956.595
968.439
967.854
965.538
963.533
963.591
964.058
957.942
955.818
958.775
964.896
964.720
967.307
958.856
955.907
961.122
950.730
953.022
953.727
954.151
955.568
957.785
954.207
958.609
962.570
955.885
952.167
953.268
956.885
947.855
951.589
959.763
946.944
951.882
954.227
956.682
952.009
946.175
956.814
956.968
948.157
955.206
949.017
950.369
954.675
945.058
947.509
956.386
953.948
946.824
950.336
952.313
950.838
942.648
939.689
947.586
939.366
949.080
947.937
947.256
942.527
946.199
944.048
947.709
941.543
937.951
943.074
938.314
942.860
940.098
945.882
937.694
947.818
934.694
938.521
949.036
942.491
943.348
947.924
938.100
944.837
939.102
940.990
943.705
934.455
942.478
942.280
941.081
939.463
937.041
939.832
929.861
929.510
940.004
940.254
936.368
938.306
933.912
939.135
934.424
928.538
939.828
939.724
929.177
927.455
925.309
930.140
928.265
936.176
923.380
936.741
932.802
925.507
929.909
933.391
934.025
922.496
932.002
927.747
925.006
926.538
923.407
932.391
928.465
934.625
925.173
919.792
923.963
918.701
917.337
923.354
56.957
64.858
76.370
83.671
62.636
63.375
82.871
60.860
70.659
62.684
69.413
64.325
69.815
58.590
66.911
65.638
59.762
71.634
83.605
57.155
76.475
76.197
73.317
76.488
75.822
60.099
60.478
62.736
77.251
81.315
57.490
78.076
60.897
65.004
56.384
63.190
72.195
70.621
61.819
81.755
77.395
59.632
68.535
65.308
83.231
77.331
73.368
74.048
258.168
194.247
265.332
273.350
268.713
225.140
207.654
188.996
229.476
219.672
209.693
206.005
184.285
209.171
245.363
222.422
245.196
246.376
271.523
227.371
189.942
202.326
182.561
232.589
270.695
209.394
209.506
186.841
246.511
245.017
200.278
261.762
213.493
266.158
227.956
268.593
188.037
187.678
259.278
207.055
204.627
229.549
189.091
207.453
261.721
183.934
244.110
214.416
203.071
217.949
191.574
236.818
140.742
103.204
111.969
126.281
141.353
137.480
126.756
118.721
110.081
149.452
126.899
101.171
131.020
110.965
139.514
113.199
139.644
135.949
150.956
121.736
144.498
130.301
121.925
112.562
140.132
137.774
105.680
131.251
116.440
103.992
134.622
119.752
127.311
123.322
141.276
145.401
107.944
135.371
144.055
149.416
144.833
144.030
121.535
146.041
112.857
121.038
142.146
107.358
145.331
148.491
104.693
116.913
112.405
137.887
110.445
138.935
107.290
118.764
138.766
136.670
116.058
102.435
133.188
102.464
104.208
104.931
128.162
125.643
106.571
132.127
116.023
130.922
106.615
111.861
106.108
108.766
150.505
109.229
120.795
119.569
125.575
102.752
121.605
120.992
116.675
127.120
133.767
111.056
136.921
122.004
148.501
133.121
150.648
122.600
110.408
147.386
137.859
149.174
150.310
114.100
127.696
104.303
148.232
129.777
113.268
105.775
136.022
152.434
132.451
125.320
150.694
151.571
147.480
124.606
151.602
104.680
110.055
118.774
120.783
146.139
148.551
153.074
143.967
111.557
111.553
130.781
147.203
149.465
124.520
118.865
120.710
127.696
120.640
145.862
113.529
105.785
115.116
122.847
134.606
134.176
116.396
120.550
151.547
125.352
122.883
143.964
130.699
138.578
142.441
151.321
117.807
146.976
125.454
114.014
132.419
117.529
150.136
145.464
135.300
147.385
139.883
125.117
113.197
118.317
124.536
134.759
127.893
105.244
120.576
112.989
150.466
112.985
141.724
114.975
115.557
115.560
145.221
111.435
137.659
117.111
120.759
125.874
133.233
150.480
119.063
113.309
143.208
134.141
107.549
117.790
111.006
121.302
135.264
102.235
139.387
133.824
125.384
108.701
148.664
121.165
107.642
123.537
104.486
128.930
121.323
126.501
122.398
114.681
144.198
109.884
139.701
139.594
127.225
111.572
141.619
121.508
114.825
111.767
141.199
107.056
147.432
116.026
128.305
150.806
107.014
147.360
118.544
114.486
133.722
102.658
122.736
112.883
146.191
151.448
120.466
111.039
126.818
135.035
142.816
129.746
109.707
130.926
105.350
140.775
135.691
133.333
109.622
131.984
106.356
111.206
134.330
131.320
134.496
130.216
117.969
134.971
101.244
129.358
127.403
116.917
128.012
122.617
129.301
145.491
116.360
144.894
110.961
107.438
132.240
147.901
150.740
111.357
114.744
112.475
110.965
147.355
147.366
152.904
127.033
126.759
113.263
113.621
119.751
142.352
111.215
139.159
120.117
144.417
129.853
144.616
122.751
114.810
131.189
126.453
102.440
123.930
116.306
123.312
131.605
124.262
114.548
117.585
101.969
132.823
127.921
148.972
141.740
113.154
103.764
125.421
112.310
145.110
116.458
144.419
140.921
143.206
107.088
139.819
133.871
107.669
107.351
112.560
114.332
110.248
136.856
117.223
139.363
144.241
102.812
134.211
114.583
107.358
129.633
116.699
107.793
138.971
140.933
103.454
141.094
109.465
118.517
150.063
108.135
101.168
110.750
148.009
134.233
139.415
129.526
143.877
147.327
109.751
129.096
104.386
125.372
139.482
105.546
146.765
149.873
115.202
139.098
103.737
103.777
118.080
151.965
109.304
103.401
116.849
147.880
115.917
148.748
108.849
106.872
140.795
134.057
135.196
123.656
132.473
142.244
119.654
132.008
113.307
117.125
123.689
143.418
151.729
113.655
111.238
110.411
111.029
136.232
129.476
128.860
153.048
108.500
127.451
149.945
102.067
101.572
107.644
147.970
103.952
125.747
145.806
151.933
136.369
112.280
145.592
115.375
102.975
108.271
131.386
133.553
121.058
107.519
113.094
134.657
114.641
118.185
104.774
101.933
133.034
110.146
103.737
126.895
107.057
101.516
152.412
150.401
127.331
136.046
132.481
108.047
151.457
118.422
117.748
136.954
110.821
128.945
110.231
105.878
130.346
117.276
112.573
109.066
133.742
149.091
108.155
116.106
120.563
119.663
114.314
109.717
108.515
128.445
106.378
111.238
103.069
117.676
113.322
124.950
136.185
132.364
102.396
109.202
132.604
145.410
116.973
107.052
126.681
125.358
139.542
147.006
127.349
109.185
126.847
132.044
108.944
127.388
124.809
144.436
104.311
134.493
146.818
120.215
133.718
129.205
149.246
135.986
119.385
131.384
132.627
138.310
149.000
111.424
124.679
131.662
142.217
110.568
120.134
140.648
137.771
129.542
144.356
137.871
123.267
146.290
136.597
140.785
125.268
126.925
127.876
120.819
126.700
108.230
104.201
125.057
126.775
149.025
130.111
108.913
148.594
130.723
152.137
121.496
140.785
106.213
144.856
148.905
125.660
107.184
110.844
122.833
133.729
113.491
108.555
139.174
131.792
148.842
133.310
125.821
144.569
124.529
118.795
151.141
126.036
144.170
126.715
117.463
120.455
118.422
145.281
110.194
145.014
134.416
119.168
150.782
113.447
150.414
128.350
103.240
134.720
117.088
150.057
122.941
112.498
132.267
105.068
150.577
108.285
142.479
102.491
101.963
143.010
116.574
140.289
130.440
108.611
118.928
136.418
117.912
125.862
123.460
142.867
148.000
152.929
125.084
138.643
109.716
135.751
126.557
119.797
116.305
145.143
114.113
140.956
120.202
149.160
135.258
142.279
126.224
139.331
112.884
107.077
150.003
141.122
146.147
142.558
142.581
141.512
147.237
142.739
119.627
117.083
109.478
141.627
125.391
106.345
131.641
132.424
143.751
122.277
136.194
130.030
116.614
113.694
107.882
150.836
122.475
124.764
144.907
108.182
152.732
138.763
138.660
120.761
102.435
117.423
115.874
146.162
108.196
109.788
126.786
112.340
108.120
141.331
121.191
105.858
109.047
146.638
144.750
106.711
115.796
112.237
112.050
127.709
134.733
108.887
151.592
101.594
104.230
124.926
121.116
128.079
105.981
146.310
101.692
103.120
140.351
115.548
135.678
147.100
125.821
135.442
145.029
108.530
132.531
109.232
111.251
113.299
121.252
137.013
135.720
103.181
130.772
124.663
128.365
128.249
142.054
151.962
121.826
141.531
120.617
138.492
133.793
125.341
116.357
127.158
152.655
128.300
139.389
114.938
112.958
108.920
151.141
126.144
115.761
149.167
136.059
133.678
108.723
141.718
103.044
107.753
135.587
107.579
109.858
125.205
128.916
149.426
118.369
119.482
139.383
116.774
112.186
144.008
131.779
140.824
150.115
133.388
121.728
131.268
126.576
101.140
145.467
120.805
141.358
107.990
104.297
105.599
126.218
103.884
102.812
146.382
133.863
128.864
124.689
110.487
107.232
120.893
142.517
152.170
128.542
136.258
132.533
129.113
