838.581
832.639
836.363
839.506
829.204
838.272
833.207
826.191
826.178
829.915
822.728
833.665
817.450
818.977
820.110
824.311
814.904
817.814
810.950
813.510
810.736
811.947
813.155
808.509
808.837
812.205
804.179
804.444
810.708
802.788
811.268
808.429
793.833
803.642
798.591
793.697
800.983
801.007
798.938
798.782
791.903
798.527
792.502
786.651
781.368
784.278
780.332
785.424
783.242
777.832
772.690
779.458
785.555
779.919
770.471
780.552
769.887
774.235
767.640
769.199
771.917
759.593
769.174
768.352
759.614
755.616
760.358
755.440
760.060
752.627
763.665
762.777
756.048
754.235
754.775
750.951
754.550
743.311
749.943
753.166
748.306
748.602
747.583
743.375
744.756
745.051
734.395
733.197
728.079
727.059
729.290
726.263
733.079
734.113
725.677
727.327
722.863
724.615
722.540
721.532
723.721
719.818
718.076
721.416
716.956
715.185
713.637
710.922
717.463
718.365
705.086
709.616
702.581
702.644
703.045
699.417
710.243
704.007
698.445
701.431
701.980
700.862
702.251
689.321
685.873
685.448
692.539
684.520
60.640
65.140
64.844
76.428
74.488
71.005
72.871
70.853
67.192
72.837
72.534
54.933
70.260
55.323
68.541
50.022
68.849
49.291
74.935
67.421
63.603
54.368
60.905
54.285
64.155
61.602
59.669
74.113
60.322
59.029
76.189
72.487
65.048
71.339
78.018
60.367
64.731
58.351
54.429
75.095
55.782
70.814
73.453
58.611
73.200
58.915
55.353
59.868
164.732
191.305
180.854
217.936
240.994
167.736
220.411
175.672
172.865
219.337
255.923
219.775
216.503
170.526
200.113
232.509
195.206
251.378
187.764
180.636
203.459
174.137
206.475
235.774
242.327
187.380
236.224
214.737
244.969
254.153
185.026
232.709
252.318
217.751
196.901
243.721
239.560
220.883
211.256
164.151
202.072
221.183
239.523
234.599
168.806
255.332
240.654
204.886
171.548
197.990
203.840
241.458
115.226
130.722
110.444
118.271
141.237
119.183
98.922
119.721
130.941
94.608
112.329
136.359
122.300
102.627
122.513
103.053
123.046
92.486
140.435
101.688
109.185
103.878
113.956
95.318
122.145
111.909
103.764
113.191
142.997
96.431
127.810
125.907
143.810
93.677
96.930
140.664
94.470
114.048
129.480
104.007
118.367
141.132
118.346
102.303
103.206
122.621
129.832
114.480
98.061
101.811
138.313
131.307
140.720
120.447
106.638
108.196
144.627
113.982
112.414
126.180
103.618
125.129
135.727
95.673
139.762
111.534
128.936
136.598
104.867
125.906
108.949
94.127
99.468
130.497
135.571
119.226
99.931
113.061
127.344
97.979
101.603
104.728
107.658
138.294
129.602
145.324
137.019
128.942
120.747
145.165
124.274
130.949
129.543
107.207
139.499
138.468
126.003
117.002
144.525
141.566
137.411
102.238
123.487
99.791
109.764
115.390
112.871
95.654
129.166
140.782
108.944
106.934
128.295
119.822
107.137
130.466
115.293
115.112
109.831
124.637
145.528
136.520
101.755
115.487
125.367
104.169
95.108
143.404
129.860
126.816
117.101
114.191
102.111
107.006
112.338
108.737
137.397
129.119
135.165
124.768
104.624
108.643
126.423
136.717
131.478
119.951
127.000
100.867
116.460
101.720
108.733
101.986
106.521
112.521
123.705
140.717
122.740
107.021
115.981
109.183
99.109
130.433
124.961
141.779
108.542
127.463
106.467
139.967
97.488
137.993
110.770
132.007
104.837
146.162
109.978
140.858
125.310
123.292
101.525
104.006
136.249
129.695
139.046
138.261
107.034
129.103
141.692
143.046
100.454
145.401
128.098
106.935
114.696
145.323
120.131
106.073
94.822
95.167
138.090
136.233
111.093
95.521
111.835
115.817
103.055
121.764
111.062
96.273
119.402
135.489
130.063
143.948
105.763
118.446
127.570
117.524
106.736
95.766
99.904
129.356
106.717
114.408
135.509
98.990
101.848
139.752
144.888
106.826
115.049
141.462
146.397
135.827
135.745
100.332
142.306
139.734
121.302
106.684
144.741
114.063
123.680
115.141
143.261
132.374
128.949
106.110
134.994
133.879
142.242
118.107
99.895
106.089
102.776
96.988
117.214
102.429
110.775
142.434
122.586
116.565
125.217
103.034
108.699
132.524
142.966
131.225
139.404
128.730
129.942
116.821
122.220
116.732
113.729
98.618
143.170
134.151
102.895
138.090
133.823
110.249
133.197
135.452
103.655
106.373
143.441
119.525
134.708
135.291
137.427
140.439
113.848
117.093
120.253
134.740
103.397
118.149
138.428
144.317
122.602
129.295
132.267
129.863
123.456
110.613
117.748
130.721
103.748
126.908
106.326
97.898
96.563
119.852
134.952
118.015
112.057
144.392
111.758
116.114
105.573
120.694
116.632
127.524
97.057
114.130
94.878
129.153
143.239
101.551
108.475
100.886
145.502
112.102
127.030
125.578
139.034
136.273
144.161
118.769
141.790
107.636
135.788
119.474
143.667
127.542
125.845
130.792
104.442
130.173
132.390
138.610
143.245
119.329
114.351
115.463
146.404
134.959
124.775
135.126
126.907
129.399
144.294
99.898
101.765
112.395
127.855
122.077
111.471
104.786
132.190
132.612
110.840
131.468
100.274
94.854
140.420
102.411
99.814
134.235
99.342
107.267
139.963
113.926
100.973
133.482
146.152
123.448
134.440
122.852
124.655
98.686
128.513
141.738
130.749
144.977
123.052
96.925
104.419
145.390
117.704
94.938
105.279
144.063
121.319
128.405
110.803
117.692
134.426
137.992
103.131
111.028
118.080
140.629
139.320
120.585
142.632
146.730
137.802
122.416
112.885
108.224
116.950
103.896
115.159
117.410
121.901
105.300
103.176
99.564
95.363
143.021
132.106
107.212
116.526
131.711
110.480
131.944
102.958
98.441
95.063
126.926
120.879
125.606
103.771
98.880
140.378
110.108
99.700
144.149
134.980
136.810
110.397
104.273
145.809
97.419
122.158
142.647
129.968
111.202
110.696
126.562
122.600
136.309
124.491
133.579
117.464
131.305
123.667
137.456
104.443
136.779
135.334
116.736
141.160
94.816
141.736
129.185
139.962
112.164
103.389
132.071
109.637
132.448
114.418
110.137
103.414
130.110
110.076
119.177
106.483
146.341
112.865
110.112
136.525
139.940
107.381
139.253
101.081
103.791
114.645
140.778
140.373
142.143
96.218
122.506
144.859
111.316
122.193
95.663
100.079
131.146
144.987
100.872
129.614
130.753
109.568
122.148
103.658
144.466
118.536
100.957
118.540
119.308
117.389
118.332
143.933
112.335
130.173
141.076
142.973
108.789
127.327
103.391
128.455
123.308
112.951
126.625
137.305
143.998
111.532
144.139
96.308
120.736
142.382
125.490
96.783
135.238
139.820
144.020
97.595
119.912
105.024
139.437
146.291
119.060
145.852
107.995
142.300
111.464
136.868
108.994
111.352
97.461
128.762
145.511
121.751
142.691
120.682
141.172
94.900
117.880
134.809
134.867
135.335
110.697
137.753
144.360
109.422
146.018
106.474
122.470
112.508
124.084
127.795
115.866
95.410
145.842
138.831
121.812
116.047
99.686
103.204
112.587
97.866
113.399
123.223
97.862
133.300
95.310
140.911
122.127
109.266
144.088
114.133
122.502
118.029
133.613
104.722
114.302
131.727
105.962
130.825
128.738
109.079
114.167
120.965
108.705
119.043
126.562
99.948
133.435
113.043
137.120
95.314
144.945
114.933
139.908
133.939
98.735
124.279
146.387
116.912
139.816
133.784
137.328
128.546
139.792
119.510
120.331
135.054
96.692
123.918
119.242
97.298
100.536
145.331
142.445
94.970
138.399
125.244
96.914
126.088
115.846
144.351
142.269
122.417
110.996
104.123
126.904
113.024
126.146
145.159
134.983
115.229
131.411
95.993
124.179
112.401
116.790
97.151
103.386
106.779
145.754
123.737
95.550
112.719
122.326
130.624
124.925
120.526
129.900
97.537
104.097
112.706
120.906
126.903
111.855
105.250
112.692
100.676
117.573
132.148
118.477
124.087
97.387
118.670
117.574
101.983
136.768
97.711
137.083
106.687
109.381
122.762
122.213
101.997
128.481
119.129
145.734
99.492
122.111
108.416
145.146
114.868
99.469
120.127
133.304
135.591
143.061
119.203
112.659
146.611
126.720
115.732
128.755
112.188
123.184
120.762
99.919
120.936
123.325
123.952
118.639
123.174
99.744
99.731
117.957
99.275
134.312
119.297
141.800
117.497
102.425
126.074
117.282
139.481
117.717
107.040
125.377
142.146
120.607
144.917
131.764
142.989
120.055
104.994
138.771
120.136
131.003
143.289
115.458
106.259
98.038
137.354
122.212
114.294
112.478
101.633
130.435
119.228
125.312
125.541
129.959
143.649
135.658
101.987
116.850
127.639
105.254
107.611
96.965
120.714
99.074
123.471
100.906
144.002
145.739
120.424
114.882
103.003
139.403
112.929
124.116
99.034
131.675
108.866
127.565
110.443
146.341
129.920
125.310
139.414
115.468
137.338
118.605
131.189
142.779
121.380
138.350
121.965
133.825
101.806
126.194
135.254
94.797
146.321
112.598
138.824
104.487
139.250
145.373
131.442
142.885
129.467
101.225
101.963
124.099
104.991
130.901
103.777
107.585
141.025
101.487
127.863
108.567
133.910
141.515
135.973
145.603
111.177
103.680
97.581
96.651
137.787
130.411
128.941
126.370
139.451
135.363
131.732
145.944
138.435
98.502
132.808
126.533
108.892
122.324
103.196
115.940
113.438
146.652
104.343
144.603
120.340
126.773
143.999
101.830
109.235
117.447
102.276
114.058
128.230
95.510
107.138
95.903
104.300
102.410
141.147
99.042
120.845
101.489
96.833
96.302
118.852
109.059
95.037
135.941
126.241
124.625
115.008
145.284
129.412
125.233
97.388
117.952
115.471
102.799
98.855
143.325
103.524
128.507
118.553
129.876
142.274
132.326
119.327
146.668
99.305
121.570
104.701
105.653
110.685
96.647
117.485
111.728
134.472
127.943
118.089
138.892
102.194
105.049
142.627
97.384
141.809
108.400
105.638
129.799
106.872
139.711
145.180
106.827
135.857
142.365
143.672
131.163
104.358
102.329
133.759
115.831
121.052
123.342
141.710
110.564
130.713
145.112
100.314
104.141
111.681
108.694
113.524
130.754
136.017
102.943
96.785
101.230
142.144
109.557
137.259
126.258
134.258
96.681
124.142
117.362
109.318
97.019
131.374
108.040
105.627
122.283
96.884
123.193
105.864
113.866
125.006
111.862
146.496
96.905
127.247
126.588
117.375
141.760
142.120
106.885
139.977
109.493
117.210
101.416
101.874
130.264
113.687
107.684
106.395
140.754
102.816
125.814
135.735
104.868
126.034
144.818
126.317
143.053
120.961
114.381
116.973
129.840
107.172
101.502
131.446
109.886
145.252
140.672
122.512
102.400
107.391
133.536
126.313
115.703
95.603
132.983
98.907
134.487
112.906
100.078
143.379
140.333
117.339
137.166
130.233
131.432
142.229
134.248
127.445
104.990
144.695
140.285
140.976
137.731
120.502
136.567
110.623
108.011
145.292
135.966
101.480
143.602
136.922
103.075
116.234
115.243
99.280
132.681
125.109
108.467
129.943
132.825
142.084
113.669
97.944
123.361
99.148
125.777
123.712
103.481
96.047
97.280
116.945
115.732
110.839
138.950
98.598
123.881
116.075
127.686
114.809
117.605
133.986
144.313
143.174
132.889
139.833
107.852
119.805
140.060
127.193
140.425
109.950
135.447
143.879
120.737
115.517
113.310
136.741
104.653
103.758
130.200
97.024
142.520
143.440
145.869
118.103
133.793
123.495
106.771
126.682
113.611
128.306
136.401
103.946
129.776
100.918
98.580
138.690
99.625
117.738
119.403
99.061
137.311
146.549
146.208
111.933
95.828
136.976
100.137
100.361
142.925
125.301
111.453
133.604
136.857
111.713
122.128
142.693
124.338
140.438
116.750
99.538
101.849
132.905
116.047
137.712
138.673
95.182
97.151
125.677
97.777
106.767
106.986
97.100
98.628
106.844
117.910
104.647
97.373
116.931
131.782
101.919
96.097
114.325
114.799
138.599
119.944
106.361
132.369
121.484
145.314
107.618
112.568
132.888
101.981
126.510
121.674
129.371
95.117
114.398
145.452
128.338
108.369
145.506
97.958
139.655
98.739
107.623
128.088
117.596
136.503
106.682
109.858
96.849
109.447
143.480
99.319
111.166
101.898
122.840
129.717
111.879
139.443
146.142
143.506
140.433
111.922
123.186
102.094
127.750
142.209
141.303
101.211
97.579
145.977
142.978
133.915
123.076
109.481
123.971
104.575
131.903
125.652
131.512
118.641
130.493
145.547
127.993
125.138
141.982
143.944
141.741
100.334
144.765
119.080
128.361
146.178
122.279
124.124
115.080
133.445
108.518
143.472
104.999
104.980
106.223
96.246
143.599
108.113
129.237
143.292
99.980
132.257
106.017
113.521
96.342
134.266
124.080
106.997
114.557
132.861
146.451
129.102
145.606
137.102
96.449
101.667
114.943
114.000
144.801
118.508
131.413
127.948
114.837
121.201
143.137
127.707
145.238
95.621
137.775
118.200
99.387
130.605
106.744
104.665
111.025
136.832
103.806
96.602
129.327
104.903
111.857
135.453
133.052
104.489
101.101
107.830
112.857
139.494
101.932
124.093
94.999
124.803
94.978
113.137
137.075
130.073
137.010
133.751
103.311
138.954
109.594
106.260
146.157
138.997
141.652
98.337
130.076
111.818
124.481
104.176
103.279
134.791
130.142
113.193
105.885
142.175
106.149
134.460
112.529
96.862
114.703
146.753
103.972
112.401
136.421
143.722
128.848
142.208
99.894
101.624
132.536
108.007
119.728
140.750
130.195
131.579
109.381
144.190
139.835
124.021
140.321
120.079
102.961
142.613
137.747
131.617
110.786
96.994
137.203
135.284
120.725
143.981
117.647
118.168
106.753
133.865
122.570
107.613
146.465
98.647
121.326
140.233
144.621
104.033
102.761
124.075
137.627
102.772
113.604
96.856
139.653
97.360
114.130
136.086
102.381
144.250
135.252
124.301
131.431
117.977
138.481
113.174
120.756
113.879
123.477
131.885
126.539
105.954
134.557
125.231
115.523
133.132
100.213
95.548
140.117
109.658
100.579
113.032
130.121
123.425
142.162
145.364
107.436
129.754
108.167
127.814
98.603
146.482
145.379
129.445
105.195
123.752
95.929
143.824
125.397
129.199
109.818
113.939
119.560
141.839
106.162
139.988
145.798
144.599
138.333
98.218
141.274
142.103
106.723
131.575
126.252
146.000
125.609
143.822
117.543
116.565
118.145
99.316
101.058
98.168
135.035
116.866
107.312
141.349
101.626
114.242
130.086
146.258
117.028
114.385
125.756
129.019
99.793
113.050
129.253
136.672
116.950
123.124
132.186
107.120
98.353
97.495
112.780
101.773
113.951
137.973
131.838
111.992
125.600
102.972
98.534
139.649
125.085
97.046
139.065
133.297
104.625
128.206
100.583
133.692
123.468
99.137
142.338
100.356
136.173
121.051
144.114
119.690
107.991
115.532
141.902
95.376
107.227
113.510
141.823
119.051
120.249
111.848
128.203
101.713
96.605
133.523
99.423
121.310
111.698
129.364
108.950
132.346
110.982
109.904
98.784
136.167
124.597
113.371
104.156
145.489
128.060
124.391
119.049
101.969
112.398
122.551
112.366
98.827
138.742
139.307
95.199
98.339
112.184
95.619
145.495
125.186
142.515
113.375
102.460
129.613
121.907
140.816
120.752
103.909
142.344
118.239
110.463
133.977
132.734
105.225
128.435
145.781
120.715
120.118
126.946
127.262
146.129
141.928
136.455
136.797
98.660
107.964
112.149
122.422
145.883
107.159
137.731
125.140
128.539
106.489
133.927
99.821
113.441
129.143
110.431
127.877
117.362
138.027
143.179
99.964
142.104
104.821
130.883
101.160
102.270
99.504
146.629
137.896
104.411
109.682
131.018
132.378
131.337
131.121
110.176
120.600
143.877
95.870
125.548
132.626
120.471
138.358
144.521
121.281
134.203
137.366
101.898
113.915
122.832
146.709
129.670
113.898
111.502
119.793
146.680
100.538
108.951
140.996
127.315
111.363
128.245
118.700
116.050
113.290
131.336
99.619
98.794
121.735
139.497
126.098
106.245
139.764
111.526
135.715
136.595
125.320
105.763
116.485
142.790
120.942
100.136
139.748
104.242
102.556
137.653
145.783
110.566
96.205
122.410
95.380
121.407
98.900
132.188
102.436
106.036
116.854
125.216
113.450
140.541
117.840
141.355
111.814
107.225
117.178
126.486
113.914
144.390
138.885
120.523
131.879
97.403
116.940
136.837
98.233
143.790
145.654
102.790
117.144
125.010
111.074
124.848
120.972
142.112
135.899
120.420
110.472
146.036
105.763
96.599
95.719
118.123
122.463
107.071
124.045
103.682
140.732
104.751
120.110
100.414
137.493
128.524
122.466
107.954
108.060
140.529
129.644
119.802
141.447
111.603
104.621
102.586
109.970
140.739
132.531
126.885
113.614
143.719
128.986
123.307
113.094
95.464
128.319
116.362
107.235
139.120
121.440
120.484
129.018
108.937
135.638
102.003
115.149
97.875
106.576
144.258
115.829
112.225
103.902
123.053
123.493
118.414
145.045
117.992
141.437
133.926
140.560
102.125
107.758
102.714
97.594
101.486
140.880
123.061
129.251
117.073
133.348
124.683
129.078
104.734
121.386
119.504
96.301
122.634
96.858
137.868
101.517
130.273
112.449
114.797
98.492
114.239
101.647
