748.659
742.699
752.518
744.512
744.732
749.501
761.928
752.548
760.980
753.100
766.151
770.176
766.460
761.538
770.123
772.168
764.425
775.467
774.603
768.512
779.405
774.690
786.960
778.088
783.516
778.629
789.982
781.620
790.054
791.679
790.435
792.285
802.458
794.608
797.002
806.595
803.708
807.069
805.535
808.178
812.359
806.296
816.320
820.962
813.565
812.437
815.261
814.062
829.052
825.497
830.060
821.316
829.010
821.800
836.561
825.718
834.815
830.310
841.112
836.889
846.771
840.073
851.072
848.657
841.361
851.873
844.280
844.889
854.683
856.754
862.048
852.257
861.156
853.529
869.688
859.248
870.909
867.570
870.796
865.713
874.336
879.555
882.246
878.156
879.669
880.330
877.619
888.887
888.306
891.663
891.676
897.625
891.926
898.229
893.941
895.049
890.077
897.947
900.340
904.716
900.576
901.113
911.582
910.811
906.853
917.891
919.618
910.834
917.707
918.655
926.180
919.662
922.550
930.024
920.562
923.088
929.507
933.859
939.501
938.596
929.300
937.681
940.111
941.727
938.274
945.298
940.654
953.214
943.736
942.693
944.426
960.941
953.565
953.943
965.018
962.542
955.546
955.528
969.549
961.703
974.465
962.803
964.648
979.992
975.096
981.238
981.428
979.752
985.938
979.974
988.791
983.212
980.211
985.268
988.279
991.153
993.399
999.875
1000.936
992.569
1004.378
1004.971
996.144
1007.161
1009.073
1001.261
1014.454
1016.626
1008.518
1005.714
1007.633
1011.296
1024.962
1017.229
1025.614
1015.139
1017.673
1020.558
1026.310
1032.643
1034.293
1030.729
1038.376
1042.738
1043.247
1038.538
1044.438
1035.936
1047.389
1040.275
1042.233
1052.517
1041.880
1051.948
1045.943
1061.195
1050.657
1057.160
1063.290
1062.499
1052.689
1054.702
1056.675
1060.476
1053.280
1054.842
1050.435
1062.535
1066.319
1065.535
1058.391
1063.375
1059.661
1051.033
1056.547
1054.383
1056.015
1063.668
1060.119
1060.683
1051.173
1063.143
1066.485
1064.795
1066.209
1054.595
1060.683
1051.986
1051.862
1064.650
1066.752
1053.461
1061.903
1054.257
1067.475
1054.516
1055.663
1066.769
1054.398
1057.919
1063.255
1066.733
1052.747
1063.454
1057.305
1059.541
1060.659
1062.742
1057.320
1059.667
1055.874
1068.763
1068.686
1068.022
1056.313
1068.254
1054.645
1063.534
1061.821
1057.395
1057.319
1067.417
1062.836
1058.810
1064.762
1063.054
1057.525
1055.359
1067.736
1056.533
1062.662
1063.716
1064.591
1068.057
1056.247
1061.150
1057.853
1066.895
1055.671
1059.429
1056.860
1065.965
1055.644
1069.095
1062.576
1066.375
1065.413
1066.250
1067.121
1062.214
1060.126
1058.202
1061.817
1057.904
1058.205
1061.766
1062.175
1058.690
1061.007
1069.687
1064.548
1062.083
1066.945
1057.303
1071.691
1065.953
1062.685
1062.062
1061.572
1058.087
1058.377
1058.792
1060.869
1062.215
1061.729
1065.216
1066.944
1069.021
1064.186
1072.585
1062.138
1059.137
1058.823
1066.079
1065.292
1072.760
1073.090
1072.812
1069.841
1061.032
1058.006
1058.830
1062.750
1071.586
1062.620
1063.623
1069.062
1063.828
1065.587
1073.680
1073.042
1059.216
1064.516
1061.877
1069.092
1067.486
1072.730
1070.461
1070.978
1067.144
1062.591
1060.264
1067.506
1071.875
1060.312
1074.434
1062.887
1061.825
1068.317
1062.548
1073.149
1072.574
1070.992
1062.416
1067.240
1071.685
1071.946
1072.281
1069.076
1072.610
1073.173
1062.098
1061.081
1074.314
1071.400
1063.289
1066.575
1071.614
1069.528
1065.102
1067.115
1061.755
1075.772
1071.008
1068.815
1066.453
1071.450
1067.667
1063.348
1065.628
1062.513
1066.508
1067.570
1068.521
1070.192
1063.575
1067.201
1073.216
1068.520
1065.069
1061.649
1068.894
1058.708
1057.016
1056.527
1066.770
1065.092
1065.124
1060.243
1053.378
1059.357
1047.468
1061.101
1059.693
1051.617
1045.102
1045.407
1050.963
1048.472
1038.755
1049.481
1047.036
1043.759
1042.535
1037.846
1036.344
1035.957
1030.547
1027.993
1033.146
1029.483
1026.315
1029.269
1024.700
1030.156
1026.894
1034.401
1020.134
1022.013
1024.171
1020.792
1019.708
1027.225
1013.018
1025.864
1020.686
1024.038
1016.301
1015.943
1012.718
1007.335
1003.823
1005.546
1005.373
1001.862
1011.299
999.607
1004.107
1008.990
1000.279
1005.869
999.375
994.689
997.439
1002.999
993.679
988.098
998.101
985.647
988.335
992.661
995.252
990.650
991.929
992.883
979.912
988.546
977.628
975.515
973.123
975.354
978.935
978.225
969.645
980.443
976.234
966.330
971.142
974.838
966.050
965.561
972.549
959.465
970.693
962.787
966.513
956.878
967.710
958.077
963.850
950.473
961.354
953.237
952.341
953.789
953.667
954.019
948.035
948.175
942.974
939.784
948.417
939.394
941.918
935.289
936.481
935.972
941.159
942.163
936.828
943.656
933.845
930.464
937.960
931.288
926.207
934.483
934.131
919.525
930.164
920.290
929.381
920.499
914.929
916.009
921.032
911.605
920.926
911.812
910.935
913.843
919.987
915.303
913.550
911.061
914.059
907.670
910.140
911.872
903.773
902.013
905.736
901.135
898.537
907.016
897.080
897.554
890.144
892.306
894.700
899.548
890.124
896.373
885.013
881.928
889.425
886.115
892.107
889.309
876.281
877.933
885.483
877.180
882.424
877.128
875.645
875.715
877.630
876.114
877.334
870.667
871.074
863.606
872.634
870.653
870.523
866.993
856.236
858.339
866.266
853.631
863.408
864.514
852.729
851.949
851.303
850.839
857.782
846.719
853.873
856.214
856.523
846.747
850.109
848.322
848.542
849.206
853.315
851.141
853.061
858.553
861.761
854.428
858.550
854.512
851.616
865.910
867.109
861.899
860.302
862.952
863.405
854.529
857.379
860.871
865.022
860.510
858.172
862.167
867.714
860.660
865.624
860.198
866.012
866.623
865.039
864.562
870.442
870.505
871.033
875.535
869.176
875.400
868.996
861.578
866.470
864.215
877.763
870.853
868.464
874.661
879.052
868.083
870.556
866.881
872.543
877.446
875.473
879.772
873.100
873.979
882.269
874.046
881.128
881.078
871.743
872.020
874.024
880.353
885.224
871.780
880.148
875.384
879.737
882.584
886.248
877.177
878.265
874.132
886.567
888.336
884.100
890.532
880.504
885.550
891.751
888.091
886.134
877.560
882.045
885.936
886.056
891.981
884.457
885.262
885.742
886.310
891.771
892.767
885.168
883.562
890.538
892.763
883.246
888.315
892.010
892.422
884.729
888.972
895.320
896.963
900.334
887.757
901.129
893.381
892.272
899.313
889.693
898.713
889.934
898.859
890.705
897.838
890.606
891.194
906.234
893.578
898.969
902.124
904.751
905.243
901.251
903.214
897.435
894.516
895.947
897.072
901.871
905.966
911.112
898.019
905.970
896.903
910.343
897.995
898.920
907.162
909.770
904.389
903.718
911.552
909.864
906.873
904.920
914.576
912.789
908.317
905.345
913.141
918.287
916.422
916.727
912.203
906.833
920.406
913.028
906.629
917.959
910.502
908.288
920.666
916.939
907.838
913.253
913.301
921.489
912.142
915.764
921.905
914.386
919.155
919.943
911.984
917.351
921.776
917.894
915.575
917.748
925.357
926.365
924.365
929.172
919.624
923.680
930.292
928.405
926.251
927.087
920.336
930.304
930.688
914.771
928.195
926.704
918.191
917.213
922.020
918.841
925.855
924.545
922.462
917.098
915.177
922.521
908.836
921.072
919.682
912.277
913.157
912.637
921.002
911.994
918.030
907.906
911.454
905.975
917.243
912.686
914.899
911.650
913.241
907.983
912.421
909.412
913.212
907.994
912.203
898.802
912.589
908.903
899.042
899.317
896.666
899.154
905.534
907.080
902.159
895.631
892.026
904.036
900.004
899.802
891.414
897.020
896.846
900.428
901.754
895.975
887.622
892.733
900.853
894.320
886.246
889.780
899.643
895.029
886.837
888.510
883.279
891.937
891.376
891.179
885.146
885.143
891.623
883.367
882.054
882.888
878.684
881.275
880.175
889.129
881.273
878.376
881.708
878.422
874.487
881.717
872.760
880.495
886.889
879.207
883.165
881.151
882.138
876.745
877.763
881.461
872.298
870.364
870.797
876.186
869.188
866.710
865.587
868.287
874.308
875.762
876.321
872.927
865.048
873.586
872.300
872.879
866.237
868.520
862.873
871.440
873.005
857.211
858.384
865.476
866.625
857.329
869.465
861.375
866.022
865.380
864.555
852.613
852.842
855.137
864.932
860.879
855.647
852.326
857.979
857.051
855.969
847.845
851.573
851.878
858.187
857.946
856.780
859.947
855.988
854.194
847.288
845.314
852.899
846.858
853.791
850.751
850.473
849.471
846.442
842.580
848.016
853.433
841.973
847.820
839.601
836.551
842.236
839.489
839.758
836.993
839.036
846.170
842.777
833.471
838.973
845.312
839.815
845.623
843.091
832.297
841.455
834.044
842.810
840.680
830.754
838.134
834.266
826.702
839.365
832.266
826.898
823.992
823.044
835.621
833.476
830.859
828.540
821.786
832.479
827.147
823.384
828.934
823.493
824.936
823.914
826.421
829.886
830.431
833.956
825.000
822.370
825.844
837.121
830.387
832.775
832.059
835.653
835.886
832.213
834.086
839.004
828.812
838.702
833.960
831.230
835.235
836.358
828.440
837.644
838.448
828.189
835.020
838.813
834.363
838.403
834.835
834.216
839.834
839.341
831.651
837.627
840.871
845.833
836.875
833.446
831.914
843.097
843.639
842.029
839.774
833.289
835.834
839.199
836.629
839.946
840.820
847.810
839.346
835.125
836.791
841.516
842.948
847.290
843.898
845.806
842.573
842.030
845.947
853.295
844.574
842.308
853.827
839.743
842.230
841.554
843.007
845.569
841.211
851.842
842.630
845.980
842.082
846.466
848.712
849.158
843.464
843.154
845.480
850.487
847.308
858.932
848.141
855.181
848.923
853.328
849.339
856.997
845.920
851.235
851.649
860.637
862.799
847.586
857.750
861.021
857.493
854.654
851.591
864.582
858.511
858.712
859.912
860.442
864.813
853.381
852.261
851.978
855.101
852.804
861.833
858.750
866.905
854.508
864.541
867.273
854.848
859.073
856.168
857.868
868.113
864.453
868.606
858.587
861.957
856.341
857.883
865.859
865.156
859.257
867.808
859.873
860.760
873.811
859.054
861.632
869.863
864.338
867.409
875.266
866.280
862.924
862.385
867.891
872.704
873.505
863.894
875.349
868.166
870.870
863.579
870.560
866.776
866.300
867.829
878.972
870.346
866.383
867.146
867.467
877.511
866.266
867.276
866.817
871.693
867.643
875.889
878.672
879.270
877.639
868.632
876.260
880.383
879.407
876.914
873.196
877.364
875.009
875.799
880.519
873.077
885.932
879.857
872.931
881.335
885.487
885.145
880.434
883.159
881.202
880.419
879.697
880.711
882.627
891.753
889.083
879.165
889.802
886.265
878.683
882.375
890.320
891.084
888.195
885.239
892.587
893.764
894.194
894.222
894.680
899.045
896.068
888.197
899.620
895.061
898.286
897.418
889.643
903.844
896.297
903.818
892.951
903.414
898.056
903.480
897.422
901.091
897.984
905.220
906.446
905.472
902.002
907.592
906.335
905.167
911.964
906.601
905.037
907.836
901.719
904.245
908.614
913.603
905.471
909.207
904.075
915.928
911.440
913.330
907.479
917.104
911.687
908.345
919.337
911.468
920.611
911.732
911.027
913.643
920.322
920.028
911.917
921.165
911.858
927.223
911.853
919.180
913.336
929.312
925.959
914.892
924.167
916.453
925.813
932.125
917.446
928.466
930.872
922.448
925.091
928.413
932.580
932.065
928.333
924.517
928.832
930.441
929.853
931.756
928.133
935.290
931.600
937.815
940.882
941.299
941.681
929.058
934.202
943.192
933.379
932.795
937.357
941.828
938.437
942.336
944.586
945.162
945.835
940.893
941.093
937.088
944.531
936.564
938.991
939.769
946.929
944.057
943.022
942.748
945.957
944.235
941.227
950.816
946.545
948.504
955.142
950.159
956.347
955.767
952.135
952.022
958.625
958.455
952.391
961.132
947.692
961.572
954.652
958.268
951.908
963.243
965.325
965.584
962.284
953.250
967.832
961.977
956.475
958.531
960.592
962.089
965.163
965.258
960.194
969.651
973.068
968.472
961.568
974.972
964.598
968.656
976.395
974.769
970.504
975.272
965.359
967.357
970.297
964.327
973.266
978.916
980.637
966.414
979.239
972.318
978.926
976.480
982.390
983.949
981.477
979.066
982.160
974.528
977.867
984.580
988.849
975.492
984.502
978.297
977.973
984.950
978.897
986.893
974.853
982.482
980.764
987.939
987.570
985.683
988.037
976.596
982.093
982.388
975.506
980.359
983.774
981.757
972.931
985.356
970.113
981.458
970.922
980.789
977.294
981.342
975.130
980.100
977.706
969.952
974.610
979.382
973.154
968.636
970.757
974.170
976.739
966.537
971.584
975.018
968.567
977.040
976.403
970.186
966.046
970.278
967.055
970.036
975.596
966.835
962.617
973.220
962.649
967.865
968.485
966.226
963.693
968.011
969.416
970.602
960.850
960.398
965.363
963.618
971.525
961.511
961.906
964.423
960.133
961.830
968.063
957.972
957.971
962.474
965.144
955.987
953.644
959.961
963.603
963.491
966.881
958.537
960.668
954.175
959.871
952.123
962.588
961.204
958.260
962.047
964.522
962.005
949.037
949.878
958.532
958.672
961.878
954.750
956.900
954.816
956.106
955.060
953.540
954.963
947.677
950.968
950.147
953.477
957.970
947.628
947.811
949.188
956.248
948.732
956.225
942.779
954.973
954.097
942.960
956.145
947.264
941.658
946.633
940.398
941.333
947.858
947.818
951.818
941.863
939.450
941.479
947.179
938.716
952.380
952.189
937.819
944.367
942.172
943.690
943.330
945.422
936.052
945.364
944.437
942.506
933.708
945.691
934.075
939.033
943.914
946.800
932.952
939.373
932.168
942.114
937.617
943.749
944.818
940.110
942.307
932.993
933.578
935.144
935.486
933.103
936.105
934.767
932.871
940.305
934.555
926.637
940.394
935.022
936.794
934.948
940.221
933.908
937.283
926.730
924.502
923.330
930.177
923.839
931.998
928.208
933.752
934.428
924.840
928.248
929.062
922.839
929.133
928.147
933.700
920.773
921.072
933.092
924.055
925.526
918.226
928.344
178.831
177.267
152.055
204.291
183.759
208.258
218.760
200.742
157.377
228.068
160.255
231.059
194.753
204.838
173.049
182.420
225.543
212.653
162.420
194.296
191.287
152.189
193.925
160.950
210.960
197.217
217.510
221.103
194.207
212.740
220.939
152.066
218.370
209.281
217.912
168.238
229.780
163.528
175.553
201.655
202.694
189.912
168.315
197.248
210.530
182.262
227.763
185.646
197.198
203.357
165.852
227.740
167.760
157.253
175.067
155.140
200.399
211.291
174.990
151.806
182.890
208.561
172.373
159.476
210.206
193.403
167.253
194.450
165.997
201.860
207.010
162.140
191.729
181.956
195.794
210.188
231.286
193.193
152.245
189.687
161.688
176.521
159.004
170.090
156.685
201.052
162.189
200.145
174.211
216.997
151.011
165.289
212.368
185.550
172.278
163.197
183.887
152.951
161.947
151.672
123.350
90.687
108.421
125.129
117.182
116.277
117.729
125.707
119.872
125.809
104.738
107.925
89.430
114.306
105.239
87.169
124.392
87.429
111.432
109.916
117.243
88.112
127.311
105.165
105.498
85.314
87.352
112.276
95.815
124.460
101.514
86.730
93.534
110.135
116.014
103.465
92.079
120.123
96.119
129.748
125.137
115.326
105.869
103.431
94.892
97.504
106.270
119.649
99.880
96.977
88.353
87.311
100.048
108.161
125.583
120.517
126.152
98.128
118.754
124.469
118.883
89.497
104.445
118.241
117.285
121.597
103.825
115.482
92.295
101.026
86.930
88.970
114.303
120.096
88.492
93.190
114.695
88.222
87.745
87.503
123.958
118.702
117.590
101.490
104.644
123.585
111.846
112.428
111.487
91.806
88.027
115.471
103.001
91.263
125.563
102.306
86.690
123.896
128.837
110.999
116.461
122.878
89.939
125.739
115.344
99.185
90.727
89.615
111.778
91.115
121.036
110.434
129.161
97.125
93.296
116.994
86.223
111.368
129.698
112.721
89.428
107.579
100.681
121.205
114.212
124.295
119.953
103.352
116.347
105.542
108.244
116.531
87.225
87.711
113.573
105.873
96.741
104.115
102.788
93.767
127.810
118.450
102.485
112.480
119.941
84.217
105.011
106.700
105.024
99.744
114.095
101.243
89.543
120.895
115.368
128.025
95.024
89.295
111.425
124.168
113.029
109.399
93.552
106.516
103.557
90.470
119.642
84.916
93.243
129.411
86.756
89.968
94.882
110.718
106.554
96.980
111.127
93.115
122.237
116.805
117.387
114.992
105.346
92.264
91.877
106.870
101.966
93.300
129.088
109.615
107.652
105.402
101.283
115.014
109.352
94.674
101.597
121.270
93.924
103.363
100.741
114.985
112.662
89.892
106.650
99.028
100.407
91.085
115.940
121.207
85.030
125.801
111.751
126.822
97.598
95.410
113.907
118.926
99.694
112.930
112.414
95.137
119.996
93.029
89.533
113.307
91.409
121.571
107.753
115.618
103.264
90.255
94.502
105.246
102.851
87.709
105.395
127.076
99.647
122.596
94.632
95.199
114.481
90.692
129.783
123.747
100.439
122.426
110.683
86.502
109.836
95.018
122.592
90.280
86.768
108.645
120.944
107.116
91.838
97.637
118.293
111.616
111.381
111.083
88.042
88.156
124.439
88.186
116.558
120.889
121.306
97.073
120.493
86.278
103.735
126.462
87.721
124.418
101.293
105.041
87.580
102.902
90.381
127.415
108.749
92.654
102.072
114.938
119.927
87.233
129.501
119.713
118.261
112.693
114.646
94.144
103.737
126.522
93.467
102.137
91.897
87.376
107.673
