763.534
756.224
756.694
756.814
752.935
754.656
764.018
754.546
761.405
756.164
752.017
764.128
755.552
757.282
753.132
753.868
750.840
757.513
751.910
756.259
760.159
752.069
762.060
758.557
753.082
758.155
748.522
750.756
762.858
762.940
750.647
763.060
755.324
758.598
757.796
749.491
761.899
749.580
757.580
760.833
754.909
756.854
754.150
760.648
756.229
752.352
759.544
758.880
750.394
746.431
754.658
755.165
757.111
765.120
753.972
769.689
772.235
762.982
776.125
768.600
770.820
780.480
774.850
785.691
787.023
784.574
788.726
780.363
780.656
786.961
791.037
796.353
795.613
801.737
803.464
801.639
807.308
801.826
807.000
807.711
803.043
802.821
804.747
809.017
815.145
818.026
819.275
824.417
818.539
821.156
819.188
829.397
831.849
839.418
829.115
838.394
838.768
840.356
848.288
844.291
849.738
853.237
852.727
850.782
850.604
847.110
855.265
851.214
852.271
855.749
855.992
860.006
869.846
869.500
871.539
871.759
867.044
867.679
876.602
884.222
884.727
875.504
878.199
888.212
883.456
891.731
890.892
896.631
901.909
903.095
895.495
892.874
900.167
910.810
911.279
902.675
913.747
918.175
907.039
921.926
917.778
914.193
920.307
926.904
919.985
921.047
919.363
930.133
927.033
939.984
942.303
938.880
942.916
941.696
943.325
950.523
942.194
941.083
942.549
945.453
954.774
950.081
951.028
951.206
967.242
965.295
967.249
961.921
973.204
963.706
973.791
977.971
979.375
976.064
984.918
974.228
980.118
982.811
981.441
984.671
990.936
994.702
996.354
992.868
996.363
992.659
1005.414
1002.702
1008.469
997.179
1008.202
1002.640
1009.735
1006.436
1005.880
1017.801
1024.794
1022.672
1023.147
1029.850
1026.355
1032.377
1022.089
1024.499
1037.433
1027.950
1031.649
1038.543
1045.001
1045.041
1046.929
1050.175
1045.242
1040.075
1046.479
1050.708
1059.996
1056.958
1051.835
1051.300
1060.902
1065.353
1065.325
1073.277
1067.484
1066.743
1063.061
1072.565
1075.850
1083.931
1071.302
1076.926
1088.126
1084.811
1077.570
1085.440
1091.827
1091.153
1092.652
1090.538
1100.740
1094.729
1096.040
1100.754
1101.389
1104.106
1106.614
1103.930
1117.751
1106.283
1113.705
1110.475
1101.711
1101.024
1110.076
1101.220
1107.127
1100.782
1101.807
1096.298
1093.873
1093.580
1090.286
1081.541
1082.968
1080.207
1081.277
1078.508
1073.967
1069.427
1069.340
1068.860
1071.096
1061.919
1059.363
1071.701
1060.878
1068.308
1054.835
1052.256
1049.851
1050.261
1053.602
1057.109
1055.014
1046.882
1051.118
1040.029
1038.917
1045.667
1043.238
1039.855
1031.262
1029.045
1023.667
1022.340
1027.818
1030.932
1017.526
1023.413
1013.640
1013.110
1014.914
1020.097
1011.188
1012.335
1002.212
1003.863
998.654
1004.313
1004.603
998.136
992.418
995.574
987.502
990.806
987.648
988.049
981.057
980.992
983.559
986.431
974.326
979.062
969.730
976.495
970.540
970.820
963.257
970.935
960.486
957.145
963.022
960.926
954.156
947.992
952.229
942.828
949.700
947.436
935.585
947.961
937.822
935.344
942.801
927.058
939.522
934.966
926.667
932.535
930.857
918.715
922.780
923.907
915.165
917.094
913.263
919.548
915.744
909.558
909.370
900.138
909.607
906.090
896.607
890.642
890.880
898.939
890.421
896.149
883.579
881.143
888.521
880.131
887.027
883.574
880.976
871.574
868.155
875.166
864.616
873.475
859.045
857.528
865.850
863.288
850.933
857.226
859.969
848.412
853.916
852.942
846.762
847.680
837.793
835.122
841.501
842.607
840.533
832.038
832.058
829.051
833.966
819.903
830.654
828.640
822.732
825.162
821.034
809.448
819.568
808.479
810.543
803.923
798.734
811.110
808.491
807.833
805.068
799.840
792.592
793.988
789.533
781.442
789.020
789.285
778.038
789.726
774.759
776.115
774.052
767.805
767.673
767.234
768.931
766.902
770.095
756.275
753.969
767.241
761.745
748.694
750.953
752.032
755.723
753.305
746.377
748.225
743.243
748.165
743.172
750.236
740.051
751.584
741.489
740.821
741.366
750.212
748.629
747.099
754.269
757.465
748.975
748.847
752.113
753.961
756.602
763.565
762.033
766.273
765.949
762.724
755.260
758.282
767.961
769.045
765.800
770.482
770.073
775.818
773.866
770.832
774.810
765.131
770.462
776.993
782.956
778.024
778.322
774.055
771.857
784.138
785.533
786.405
776.102
791.237
785.305
778.553
780.256
779.785
789.280
787.359
785.747
797.047
789.620
785.323
798.172
799.951
795.945
793.188
804.415
792.987
804.025
798.061
795.499
806.581
810.158
804.703
806.957
802.883
809.934
808.624
811.120
807.982
815.312
816.076
812.894
813.722
813.355
819.986
823.186
820.054
820.648
815.972
825.726
819.605
826.877
815.322
826.657
822.301
832.620
833.271
834.861
820.453
835.022
827.426
836.972
839.340
833.589
833.920
831.257
830.426
834.638
837.628
833.644
842.430
841.286
844.445
835.040
845.378
851.732
850.627
840.008
841.782
848.586
852.361
841.747
843.543
856.191
844.889
855.324
857.662
854.034
850.305
855.217
861.008
856.475
865.770
853.985
863.795
859.524
865.117
859.215
863.532
865.326
867.153
871.708
868.401
867.047
869.633
866.479
873.059
879.241
879.959
878.097
875.086
874.945
881.745
875.796
873.688
885.790
887.844
886.018
883.102
878.334
884.758
890.710
888.448
888.810
881.757
892.658
895.123
886.857
891.132
897.343
888.175
896.717
902.804
899.654
895.526
897.421
901.992
905.412
907.860
904.297
906.803
897.556
906.643
899.591
910.579
915.056
904.744
908.307
915.353
912.069
919.160
920.239
923.098
919.815
923.391
918.136
917.287
928.036
925.608
924.150
923.986
917.745
925.712
933.174
919.551
926.640
924.926
923.367
933.977
932.075
919.162
930.725
933.502
921.252
918.292
924.275
919.903
921.822
920.951
933.617
929.832
933.806
919.862
933.459
933.791
921.924
919.097
926.323
926.147
926.163
930.960
925.106
929.210
921.862
925.099
920.794
918.400
926.639
923.325
928.845
925.381
930.914
919.203
928.321
921.286
930.095
930.694
927.512
918.551
923.083
923.707
917.850
920.481
917.146
928.371
931.723
925.094
925.865
929.119
922.559
922.046
924.855
930.587
917.212
926.445
924.485
926.574
925.991
925.389
918.175
919.160
917.670
929.700
927.697
915.954
917.508
920.902
918.311
919.282
927.520
925.260
923.297
920.190
923.150
917.918
922.559
927.675
926.087
924.994
930.918
915.936
931.178
917.996
931.012
920.277
927.359
916.876
923.631
916.056
927.251
930.181
925.401
928.125
921.844
929.496
922.602
925.093
924.743
915.176
924.426
929.379
915.044
919.279
915.098
914.759
922.543
917.412
925.124
928.252
928.687
922.645
924.484
918.219
914.146
927.996
920.746
925.388
919.682
924.544
919.783
928.779
923.566
915.810
921.000
928.684
924.831
921.195
917.941
923.300
923.223
924.094
915.538
923.558
913.761
915.807
924.483
926.805
915.012
923.407
922.678
921.700
923.016
928.166
926.150
914.474
926.078
916.924
917.445
923.931
916.708
918.447
917.235
921.433
922.964
917.065
914.284
925.154
915.087
919.536
923.877
921.321
922.516
927.709
921.835
919.201
916.481
920.517
915.146
920.743
918.902
921.456
924.312
918.970
925.572
923.180
925.123
920.852
921.063
925.591
926.307
915.686
918.160
924.652
912.839
912.771
920.186
918.698
919.013
923.835
922.668
915.553
920.132
919.817
919.201
923.217
916.502
919.811
907.476
920.714
906.654
908.666
913.583
912.778
911.999
903.165
899.687
903.218
904.940
895.715
900.885
893.562
889.296
894.182
898.907
887.962
885.694
893.057
889.730
882.260
875.851
888.604
876.631
885.018
882.158
875.129
878.011
874.355
867.306
877.519
869.470
872.252
872.763
867.197
860.967
859.143
852.706
854.958
859.301
851.099
849.683
850.927
846.744
856.807
849.459
840.057
849.705
843.931
846.608
840.879
833.244
837.584
837.107
834.371
826.099
826.216
830.661
830.801
832.226
830.626
821.986
830.268
824.648
818.283
820.153
817.583
823.679
817.414
812.082
814.617
806.839
817.534
804.382
802.024
811.152
799.404
801.863
807.184
799.396
803.704
789.548
791.322
798.314
799.425
788.638
787.574
790.333
788.089
781.980
775.912
790.189
788.101
787.282
782.736
772.197
777.386
781.338
777.527
775.205
777.181
767.602
771.677
770.656
769.710
769.909
759.036
764.455
760.942
763.214
760.861
756.354
748.931
755.990
742.538
752.521
746.894
746.578
742.797
735.931
734.740
739.285
732.619
741.029
729.006
725.986
724.348
736.517
722.254
724.035
725.205
719.588
730.177
716.790
713.578
718.664
716.761
718.482
714.530
707.635
707.787
703.856
709.568
701.728
711.633
702.556
703.656
706.783
706.257
705.511
690.285
692.507
690.057
694.143
699.412
688.534
687.613
694.484
686.041
686.404
689.638
679.594
682.371
686.081
685.103
676.784
675.564
681.021
676.575
663.174
669.082
668.106
669.196
662.943
657.029
666.397
665.544
662.231
658.711
663.698
661.341
656.159
650.172
650.994
641.894
651.185
650.656
637.978
641.420
638.758
646.302
631.055
637.006
642.168
635.363
627.930
623.930
627.291
636.154
636.815
640.170
627.177
640.290
640.075
639.141
643.603
640.794
647.150
640.991
643.497
644.638
649.302
641.048
642.193
640.531
648.547
648.546
645.628
654.043
640.043
644.144
648.047
646.251
645.490
655.928
655.568
659.129
650.222
653.125
658.737
650.573
648.137
661.086
657.908
653.939
664.896
662.123
660.619
664.822
659.264
655.710
665.538
661.108
656.793
664.881
667.675
673.712
665.421
666.224
673.152
667.299
678.080
666.831
673.395
679.916
669.524
678.196
667.978
675.581
677.177
683.425
681.490
670.021
676.821
682.981
675.615
673.155
683.057
675.190
676.017
686.227
681.102
679.867
686.365
688.930
684.979
684.532
696.257
684.894
694.655
691.586
691.185
692.009
691.394
693.570
697.350
690.790
696.619
697.950
702.492
700.702
706.333
697.091
694.260
692.837
702.921
705.523
705.105
703.270
710.727
702.324
706.246
706.284
713.678
703.802
713.195
711.371
715.694
705.316
706.051
709.376
718.820
714.129
710.203
710.324
719.781
722.330
720.182
719.595
722.686
723.024
721.289
727.804
715.902
724.879
721.598
722.440
723.361
723.911
725.666
732.443
719.893
728.680
731.462
721.430
735.299
734.202
736.840
736.039
739.775
731.358
735.612
735.697
739.148
729.029
741.403
735.342
739.691
731.396
741.015
740.008
732.754
735.206
749.903
738.017
750.678
739.251
737.766
749.074
746.679
745.402
751.491
744.550
741.874
751.801
742.635
744.999
754.338
752.419
757.756
748.309
752.735
762.002
755.306
762.984
755.454
756.415
754.858
763.698
760.617
764.685
764.689
768.592
759.203
767.527
771.849
769.857
764.796
764.570
766.279
769.663
766.454
772.050
773.666
769.923
778.141
779.619
766.676
769.142
772.808
764.484
770.033
771.038
768.195
766.903
754.307
752.452
752.582
755.591
754.672
756.882
753.880
743.230
742.521
744.518
740.451
738.906
739.036
734.300
743.598
744.799
738.337
741.812
738.473
735.401
731.965
733.739
728.197
729.652
725.199
725.259
722.417
723.195
726.616
710.844
720.567
713.849
715.904
711.821
706.953
702.967
705.893
708.013
713.916
698.478
696.844
696.775
697.505
692.393
690.568
704.213
690.175
687.085
694.688
684.826
681.613
687.437
684.320
686.403
683.774
688.433
678.879
678.231
673.242
677.465
670.917
668.275
669.939
671.825
668.197
667.650
661.337
667.862
667.523
660.641
653.551
665.783
659.924
661.614
661.202
656.777
654.422
646.413
642.666
644.339
650.311
640.577
636.806
641.691
644.466
637.425
643.858
630.566
629.532
636.124
639.413
636.210
636.903
623.514
631.545
620.199
630.415
615.860
625.361
616.251
624.582
618.393
622.475
608.969
618.566
618.425
617.466
614.135
609.570
598.501
598.624
600.064
597.244
600.126
605.576
604.184
599.631
594.178
591.231
598.888
590.433
581.545
589.187
588.236
577.153
587.971
584.231
581.209
580.993
578.064
578.070
578.922
578.980
578.702
570.033
566.281
560.200
560.745
571.814
571.431
563.371
559.282
557.244
550.611
556.731
555.662
550.530
557.306
546.890
546.995
549.837
553.836
544.214
550.396
541.441
548.902
546.851
533.016
539.623
532.343
534.745
525.924
524.379
529.407
534.615
523.281
527.521
518.064
523.721
526.683
523.251
512.477
515.126
523.015
511.069
515.290
519.723
508.700
503.893
500.687
502.411
502.843
503.177
495.482
507.423
506.152
500.527
488.816
489.336
488.785
493.831
55.807
61.295
75.971
61.207
75.264
57.602
59.679
55.130
54.790
60.652
72.837
57.368
59.756
75.239
59.673
72.794
64.589
78.535
62.290
79.996
75.948
74.778
68.875
55.713
66.915
78.365
58.027
72.412
63.725
55.905
61.284
54.529
62.920
64.249
67.933
79.669
74.325
79.209
80.911
71.495
66.724
184.465
220.303
173.364
220.650
263.173
209.603
172.521
192.537
237.910
229.463
264.048
247.902
233.363
259.837
230.358
224.972
203.106
170.786
189.144
207.252
243.540
179.047
250.536
262.462
226.176
261.703
229.121
249.618
202.515
225.572
208.816
193.307
201.133
219.591
187.729
199.036
184.252
246.601
234.566
173.975
241.734
230.788
187.811
192.337
240.778
185.249
236.471
213.232
207.211
233.128
203.631
232.960
259.530
260.765
254.816
226.900
264.149
209.131
219.453
133.041
95.742
97.590
113.263
113.612
127.739
118.312
130.189
142.095
97.193
106.998
111.783
99.083
109.676
99.908
127.812
119.751
116.963
134.689
130.038
101.500
110.284
140.185
124.369
128.263
136.818
127.094
98.915
102.853
128.289
135.985
117.237
132.962
117.272
132.594
123.752
113.640
101.984
138.586
127.019
119.321
141.133
105.307
104.456
123.555
143.387
113.248
95.819
136.380
132.569
143.355
143.950
134.881
97.139
120.352
130.041
113.390
96.505
140.880
140.859
130.213
122.857
128.529
102.035
100.606
135.453
130.323
120.797
127.058
121.783
126.740
124.552
100.433
139.491
140.767
109.084
95.416
121.844
112.965
122.413
122.992
124.156
146.128
101.040
100.274
122.890
118.451
124.314
103.567
124.476
138.459
111.020
97.609
137.588
122.152
134.068
132.559
98.181
106.063
121.804
124.904
103.027
96.319
98.187
141.598
141.229
97.649
104.813
106.131
101.337
143.573
110.730
113.620
101.017
113.407
124.719
145.125
103.462
138.578
121.385
127.747
94.882
114.002
130.665
124.768
123.266
138.265
129.489
105.331
144.284
116.907
126.005
107.981
124.738
97.375
135.505
120.155
97.061
138.997
102.257
106.949
99.141
99.169
124.685
106.416
141.626
128.514
99.399
130.078
94.509
114.323
95.232
140.111
97.890
102.220
138.539
123.450
112.327
110.062
137.120
130.265
112.734
115.692
119.657
112.888
100.142
135.761
96.363
106.750
109.097
131.368
118.329
99.827
125.779
125.516
132.276
117.794
112.352
118.088
136.804
132.937
104.749
114.510
142.370
103.743
107.522
126.906
119.905
98.901
129.086
134.415
141.976
140.998
97.845
92.456
101.559
119.251
115.468
108.986
127.681
116.712
107.578
94.479
117.819
142.270
119.556
91.860
106.733
97.993
96.553
94.592
114.471
91.678
122.081
142.130
105.464
103.160
105.418
142.323
102.012
125.745
104.682
126.311
92.026
111.424
121.124
100.683
133.457
100.313
122.893
114.864
133.015
141.140
115.423
134.246
131.377
100.074
124.774
139.782
136.091
131.649
119.637
118.912
106.591
90.291
92.414
128.944
120.488
100.201
95.773
118.123
122.092
95.840
114.395
114.102
129.385
125.517
98.037
128.948
124.215
99.397
90.052
134.360
137.070
96.679
138.693
102.449
131.850
132.086
114.880
138.689
124.103
122.002
127.177
136.078
116.148
98.558
101.186
99.833
132.435
121.195
108.430
127.080
113.409
99.339
101.328
129.349
124.012
123.667
138.178
93.220
101.216
137.607
101.405
139.328
106.795
136.214
93.876
127.132
132.711
90.684
106.748
109.188
101.004
113.896
104.115
136.414
101.339
89.312
104.604
95.587
97.902
121.680
136.264
117.015
97.753
89.444
122.287
122.152
136.727
123.542
140.203
136.540
136.757
114.853
134.746
118.454
132.687
106.246
88.690
123.201
111.407
137.348
96.883
105.734
105.478
118.096
89.515
104.630
99.337
101.565
89.571
132.389
115.468
132.344
126.224
100.924
127.296
110.904
105.404
135.881
126.609
132.734
99.955
135.544
88.629
106.099
119.599
119.544
125.920
101.903
124.142
103.044
132.275
94.291
91.044
133.116
133.914
125.820
131.793
136.561
132.767
119.251
96.809
99.787
91.584
97.656
117.970
109.352
103.016
128.838
131.186
94.941
111.039
130.515
120.009
113.457
101.456
118.817
128.753
96.235
109.525
100.189
132.409
140.325
114.435
119.395
134.994
112.262
103.363
99.224
94.864
114.169
112.753
121.690
95.128
138.243
97.041
129.626
124.945
125.010
95.576
94.095
90.132
125.418
97.419
140.129
110.388
138.244
100.917
113.021
119.329
92.975
95.599
97.911
108.749
91.214
124.084
113.599
103.161
90.196
101.375
125.243
132.927
113.433
102.947
89.620
101.758
137.168
113.391
126.224
96.654
93.415
138.330
119.354
88.471
117.461
118.727
102.007
95.184
104.137
