745.463
748.895
751.642
741.499
741.258
743.161
751.390
747.311
759.960
762.024
747.108
750.775
760.852
764.253
753.081
758.048
766.141
757.668
763.407
765.266
770.969
765.302
767.473
763.763
770.904
776.956
773.784
780.543
780.894
770.903
778.896
770.048
780.073
774.526
774.280
784.548
784.371
789.473
792.316
791.855
792.762
784.659
790.644
791.847
784.801
792.075
786.349
794.055
797.934
799.204
795.835
795.715
793.585
805.385
802.650
808.259
810.129
800.991
808.589
800.382
808.520
814.808
806.050
813.548
808.631
809.176
813.740
819.617
813.956
818.668
824.107
822.224
827.166
817.255
827.880
821.152
827.264
820.870
823.062
826.888
820.205
833.333
834.929
823.377
834.557
831.438
829.347
829.381
834.936
839.312
830.451
833.145
826.723
839.170
836.153
842.478
842.034
830.213
835.763
832.534
832.991
840.842
837.383
840.948
835.159
850.082
835.609
836.743
847.802
851.810
846.196
853.191
850.135
841.027
840.357
849.801
843.783
843.670
846.684
850.222
846.168
855.539
860.270
855.141
848.428
849.586
857.732
858.696
856.820
863.080
856.997
853.629
855.613
858.082
865.272
855.035
857.970
856.852
868.985
863.399
857.759
864.235
873.280
860.969
873.826
864.662
867.116
872.430
865.321
868.640
865.752
865.297
872.984
874.688
873.853
874.595
880.090
875.097
879.581
872.797
873.133
880.217
871.040
877.982
879.403
885.892
885.248
878.816
878.260
883.294
881.960
878.540
877.185
883.829
892.628
880.373
887.444
882.391
893.036
887.020
891.048
886.882
889.657
898.387
890.264
898.217
885.623
898.093
887.969
891.066
898.445
903.324
896.852
892.492
897.688
901.573
895.868
898.564
896.697
907.471
898.134
902.246
902.422
902.521
910.779
903.600
910.067
910.964
908.457
915.134
913.581
903.728
912.007
908.388
904.102
916.203
916.577
908.888
919.584
913.956
919.638
920.632
911.585
914.992
917.788
918.787
912.295
922.192
919.037
918.520
928.811
926.026
919.854
919.625
916.219
920.960
923.535
932.903
932.340
922.962
924.301
926.986
927.996
932.874
930.697
934.839
935.296
934.311
934.928
938.495
940.787
936.151
934.831
938.920
934.084
943.779
936.455
938.381
937.403
932.369
947.424
938.185
934.297
939.639
948.685
946.742
947.126
937.672
944.362
949.528
952.699
944.818
953.874
951.434
944.329
947.639
956.378
953.786
954.221
945.162
944.525
943.553
950.787
940.467
940.585
949.778
942.889
946.291
943.191
941.626
942.889
943.316
938.882
943.168
942.273
935.507
929.587
934.003
930.065
935.323
930.191
929.840
931.154
923.564
936.655
925.173
921.965
921.454
926.618
932.597
928.863
924.267
925.181
924.359
923.332
919.477
928.282
921.372
923.012
915.231
914.793
924.407
922.436
915.314
916.438
909.269
913.764
914.495
920.869
914.898
916.635
912.706
910.168
901.966
915.640
912.402
914.678
909.237
899.147
910.517
910.786
904.374
904.089
903.878
903.693
904.210
907.277
897.310
893.426
901.593
898.819
890.080
890.174
892.223
892.173
891.406
891.305
889.880
886.088
897.575
894.018
889.587
882.292
891.681
893.729
880.547
894.373
878.548
893.205
883.261
885.175
888.966
877.822
885.903
882.413
875.137
873.476
886.471
880.295
876.338
874.694
878.189
873.322
877.496
882.093
880.095
873.723
876.429
875.838
878.058
866.012
862.840
874.121
872.346
860.227
874.079
860.452
867.339
868.396
867.044
856.114
861.376
865.460
859.670
864.924
852.387
854.661
859.649
861.068
851.870
852.939
856.089
855.042
859.711
858.772
851.054
847.838
846.914
854.644
843.739
857.313
843.518
852.812
841.166
852.258
848.509
840.123
838.026
838.351
836.769
834.855
838.286
836.808
848.088
847.474
835.675
845.980
835.453
832.087
838.346
835.716
829.005
841.481
836.101
833.091
837.679
835.190
824.427
837.148
831.560
821.043
832.349
821.415
819.040
833.154
830.111
825.231
826.305
830.777
823.678
826.780
814.502
822.258
818.705
821.056
817.387
811.701
821.734
813.223
818.314
819.970
812.664
818.074
806.926
807.424
806.605
818.977
815.460
820.971
812.170
817.655
813.105
826.693
822.293
828.207
828.014
823.768
837.703
825.162
830.974
830.281
842.801
831.925
841.941
838.499
849.221
848.924
845.093
841.480
852.024
846.539
857.813
847.515
850.563
859.957
861.105
860.753
866.309
862.495
867.814
861.247
865.476
866.351
877.518
870.296
871.248
872.315
878.511
875.008
878.537
884.994
879.026
876.550
890.880
890.681
888.325
895.499
885.344
892.491
890.499
899.257
905.566
895.112
903.402
903.363
904.603
901.031
908.762
904.470
910.470
911.653
907.067
919.626
914.459
916.393
912.960
923.651
928.860
920.692
925.835
932.693
931.121
932.729
932.460
938.869
934.005
936.506
940.121
946.325
938.471
941.158
944.493
941.817
948.438
951.980
957.281
950.232
953.055
960.746
962.065
960.244
963.059
954.720
964.119
969.038
973.341
969.327
973.214
979.009
966.986
966.843
982.055
969.801
986.026
987.237
979.799
980.340
987.689
990.567
990.215
990.899
999.577
997.697
994.776
992.628
1001.697
1006.078
1000.382
998.143
1009.009
998.590
1011.751
1015.130
1010.392
1012.007
1009.001
1019.452
1014.199
1022.956
1012.007
1014.723
1030.264
1027.311
1031.991
1035.101
1036.165
1032.294
1029.550
1040.603
1034.870
1037.233
1036.970
1036.981
1040.086
1039.519
1038.315
1052.410
1048.633
1045.209
1055.709
1053.585
1058.645
1058.442
1061.685
1062.258
1061.163
1068.337
1057.521
1068.856
1060.790
1063.164
1063.405
1068.694
1066.443
1070.043
1074.037
1080.741
1076.779
1082.662
1085.435
1083.746
1081.789
1092.054
1081.378
1097.064
1090.629
1098.160
1087.772
1098.765
1090.578
1103.120
1107.044
1104.182
1108.688
1108.357
1101.156
1108.925
1107.748
1104.070
1113.100
1109.601
1109.524
1110.791
1116.329
1121.991
1126.744
1114.793
1122.981
1112.960
1120.739
1123.793
1110.872
1117.952
1114.939
1122.873
1120.210
1114.510
1112.545
1121.382
1119.174
1107.787
1118.475
1106.913
1107.178
1116.764
1109.075
1116.939
1105.954
1101.116
1111.693
1106.389
1100.633
1100.898
1098.854
1111.363
1105.173
1103.706
1104.455
1098.249
1108.306
1097.667
1099.219
1104.467
1092.282
1106.656
1092.538
1096.407
1092.427
1095.106
1091.604
1094.854
1091.803
1089.227
1090.407
1085.423
1095.523
1089.182
1092.793
1089.547
1083.771
1096.585
1094.726
1095.552
1084.754
1089.667
1093.689
1086.721
1083.696
1089.155
1078.990
1077.178
1083.478
1087.902
1084.449
1078.067
1081.093
1073.545
1083.350
1076.624
1073.189
1070.614
1080.083
1069.494
1073.278
1071.599
1073.552
1071.834
1078.745
1072.503
1072.213
1066.677
1065.451
1066.687
1067.436
1073.648
1067.063
1074.623
1067.414
1061.523
1062.074
1065.052
1069.274
1059.639
1070.570
1066.997
1066.459
1068.830
1056.410
1058.130
1066.848
1066.669
1052.180
1051.455
1053.022
1064.622
1057.196
1048.117
1061.786
1059.896
1047.317
1054.773
1050.927
1047.936
1051.771
1050.226
1052.695
1049.786
1049.118
1053.390
1048.678
1040.532
1040.880
1045.093
1040.510
1050.390
1049.709
1051.467
1047.212
1036.432
1043.936
1042.317
1042.073
1040.539
1047.825
1038.238
1045.355
1039.744
1037.691
1036.379
1029.150
1030.613
1032.267
1034.757
1030.587
1031.725
1036.430
1030.524
1037.142
1027.814
1027.974
1036.249
1029.031
1033.217
1025.228
1027.996
1027.709
1029.086
1019.680
1022.137
1027.862
1030.642
1031.137
1015.960
1016.263
1023.061
1016.178
1014.940
1013.175
1011.621
1019.068
1012.362
1011.985
1019.834
1010.217
1021.287
1013.982
1013.991
1018.952
1017.260
1010.656
1012.733
1010.512
1005.051
1008.914
1012.942
1007.253
1001.564
1011.874
1001.909
1013.947
1003.425
1002.545
1011.634
999.080
1002.091
998.956
1001.581
995.882
994.478
992.030
1002.867
1001.895
1001.907
990.720
990.755
990.689
997.702
981.482
994.813
991.046
989.669
987.376
979.087
988.386
977.879
986.656
974.461
978.872
978.536
968.932
980.253
973.244
977.501
971.047
969.695
969.581
971.591
968.950
970.263
962.135
962.915
966.287
963.196
954.145
960.334
952.007
961.003
953.047
950.387
950.905
945.907
956.348
955.446
954.931
952.309
950.815
941.097
941.409
946.221
946.157
949.018
938.376
937.503
937.847
939.546
939.660
940.074
934.225
929.151
930.691
922.258
923.228
931.793
933.354
923.417
919.306
916.686
918.242
925.486
922.789
923.835
922.249
921.511
910.416
909.876
918.056
914.762
916.507
915.708
916.215
904.430
904.377
908.065
911.280
895.330
896.447
903.738
891.824
902.959
900.418
894.873
887.439
901.554
886.805
895.773
890.195
894.313
886.182
893.155
890.367
885.605
886.469
885.455
885.026
886.538
876.524
881.992
869.086
881.069
872.299
873.450
872.963
879.240
865.780
875.294
875.414
863.606
861.868
867.896
869.433
864.046
867.712
852.408
859.586
864.313
863.490
848.762
856.021
853.793
858.876
844.126
857.694
851.416
841.717
845.268
852.788
849.124
841.826
840.244
843.684
842.227
833.609
832.798
835.857
837.338
839.990
837.166
828.626
829.579
829.625
821.807
825.352
830.368
818.087
823.655
830.006
828.434
817.736
815.687
816.565
814.816
813.691
822.770
807.303
810.864
804.195
805.547
802.793
815.825
807.731
802.060
801.191
796.306
808.877
809.345
793.296
803.933
795.958
791.948
800.435
798.846
796.702
787.572
797.021
784.299
785.586
786.266
785.389
786.422
784.457
785.095
781.738
781.060
785.336
779.453
781.346
777.460
768.601
767.197
766.534
762.366
758.100
760.635
767.373
756.859
750.738
755.092
746.761
755.421
744.554
751.856
744.120
744.576
745.304
732.624
733.615
724.280
736.554
725.698
730.523
727.928
725.243
720.846
717.264
708.324
715.603
716.464
712.192
707.898
706.987
696.710
702.272
699.616
701.921
690.988
698.012
687.718
693.194
691.019
684.305
674.761
681.359
679.001
673.432
677.283
668.325
670.053
669.037
668.874
666.060
656.647
656.453
652.619
644.773
655.051
653.629
648.297
648.924
646.339
633.525
627.776
634.277
631.639
634.314
623.245
630.899
616.221
613.545
614.669
620.277
619.025
616.327
614.438
601.866
603.655
607.330
605.122
605.043
590.759
598.629
591.266
596.048
584.468
592.511
579.915
586.539
585.321
568.332
581.243
575.425
572.602
572.584
572.771
566.959
568.005
558.344
551.790
554.582
552.621
555.327
545.799
549.029
538.658
545.148
542.781
536.720
535.375
529.772
533.968
524.621
533.076
521.366
514.106
513.835
524.075
522.054
506.829
515.598
507.571
500.764
508.958
497.155
491.151
489.604
502.308
499.809
495.377
490.254
487.168
479.914
481.182
481.996
481.637
477.029
474.236
472.830
465.133
466.409
460.747
459.653
463.679
450.267
450.450
452.500
442.659
447.095
439.524
440.312
437.451
439.139
434.899
430.671
436.281
424.093
434.571
429.571
419.354
418.297
413.929
418.626
416.970
415.074
404.589
405.081
412.584
400.023
403.111
399.605
401.957
401.352
397.426
395.336
385.836
387.346
380.821
385.475
387.366
373.917
379.344
380.132
373.610
375.715
359.147
367.415
354.680
368.128
363.034
349.609
353.970
348.594
347.817
351.501
340.070
345.469
341.727
60.319
64.471
67.400
80.590
63.406
80.587
61.448
72.638
72.752
68.642
60.478
74.345
82.175
76.939
83.059
73.513
61.381
62.314
81.470
84.082
82.069
68.647
70.993
77.519
80.522
64.547
83.845
76.670
61.364
66.685
81.630
268.324
199.101
203.061
270.650
245.516
212.871
265.365
199.958
250.286
235.992
183.168
273.927
187.599
247.007
188.496
260.696
255.350
240.842
222.137
270.569
265.280
188.201
230.605
208.478
253.522
258.973
188.413
209.949
257.674
222.140
262.558
219.161
200.145
231.073
265.454
205.168
201.257
264.315
274.187
195.862
248.647
252.093
183.987
242.111
246.761
241.190
205.036
219.009
251.263
231.767
198.581
213.342
263.254
195.819
187.119
240.370
231.944
245.188
251.609
241.864
231.023
239.865
271.837
204.961
234.163
263.983
205.120
194.724
259.303
139.019
125.393
111.722
123.774
116.148
117.310
117.629
114.071
105.106
140.822
117.824
122.897
146.770
132.588
105.713
104.242
128.394
151.819
127.101
105.576
103.266
148.421
129.025
140.358
135.695
111.178
144.091
122.792
149.217
104.330
145.066
149.486
124.441
106.397
131.845
120.198
127.976
128.894
144.074
128.828
103.747
117.205
114.464
132.195
143.274
143.022
137.307
152.407
114.099
119.195
149.783
150.793
109.488
109.462
130.993
138.237
132.087
137.117
135.893
102.698
124.331
142.483
109.910
113.677
120.483
133.809
150.294
151.377
148.728
117.844
151.633
145.273
119.804
118.830
112.665
145.807
120.264
131.200
102.155
107.356
147.268
141.421
142.471
111.726
118.079
142.226
128.764
136.989
125.057
149.183
139.817
143.753
126.389
122.193
111.424
130.861
116.401
152.164
103.303
125.443
135.840
121.042
103.353
109.431
104.987
107.362
113.474
126.854
115.162
109.480
139.652
107.813
142.756
120.674
130.451
143.845
149.347
150.000
150.586
129.259
130.237
127.260
139.498
130.231
115.395
108.457
142.501
143.867
117.123
145.702
104.083
150.092
112.821
113.939
143.132
126.011
146.579
135.952
128.323
118.670
144.195
104.501
115.476
126.273
111.511
149.553
124.074
146.837
139.347
121.927
129.126
125.049
135.875
151.878
108.719
151.671
126.045
102.469
128.771
150.375
103.774
145.939
133.196
135.979
122.051
151.947
145.676
112.366
104.730
107.660
138.002
150.653
102.390
109.683
117.740
110.373
143.336
125.222
120.593
101.903
153.126
130.117
152.984
144.412
107.179
105.124
153.084
107.768
140.278
130.389
119.403
137.431
132.268
120.057
120.382
146.767
130.001
117.167
143.154
115.087
131.641
118.886
130.797
143.688
109.480
148.633
137.424
133.927
117.827
131.771
133.856
142.885
124.987
120.077
105.626
122.291
110.886
115.617
120.946
143.100
103.974
132.207
120.730
142.473
144.662
114.987
125.958
138.969
116.421
108.870
151.113
140.403
101.387
130.378
101.754
152.879
149.666
146.830
130.644
128.343
140.208
133.186
102.267
113.639
141.258
122.499
104.801
140.728
137.084
125.915
144.397
141.889
151.526
107.055
111.272
127.890
147.182
129.790
152.282
103.601
130.031
125.495
115.685
127.254
130.096
129.704
128.543
102.714
121.041
145.064
148.712
137.459
131.836
125.143
142.475
142.029
102.436
118.196
134.034
136.501
140.287
116.359
143.315
118.046
146.971
120.582
153.018
124.180
119.710
150.394
122.024
118.464
123.623
102.457
123.453
118.548
125.273
152.089
111.333
129.557
124.474
144.861
110.530
108.062
115.776
139.770
128.525
146.287
145.559
142.200
140.927
123.200
115.894
114.358
135.362
122.920
119.455
105.340
110.229
122.068
133.291
101.572
113.354
132.086
101.927
126.170
135.519
122.946
131.793
116.578
131.380
142.368
123.147
152.103
118.409
150.620
124.677
151.324
133.331
120.372
152.668
103.181
101.560
149.311
120.650
114.239
128.040
107.177
147.756
101.883
131.400
114.551
129.170
142.432
136.574
143.246
130.680
136.935
114.395
141.160
111.323
103.990
119.092
117.865
132.513
128.109
138.520
124.501
111.345
144.502
141.393
135.037
115.499
140.752
142.758
112.611
132.698
151.171
108.794
145.153
105.135
134.119
108.253
103.539
133.225
116.846
115.350
114.402
116.552
108.075
125.306
128.652
151.207
149.295
152.237
120.718
153.017
136.867
103.267
139.012
121.927
110.223
114.690
123.269
115.039
137.478
149.103
101.893
135.260
102.354
103.117
119.736
135.851
101.564
150.947
142.902
123.696
113.051
152.126
149.222
111.608
124.069
125.687
132.213
111.964
145.904
105.184
113.166
131.639
125.788
110.250
101.540
128.581
133.799
140.454
136.320
115.648
127.723
126.952
130.713
146.174
132.237
115.134
106.710
113.178
146.972
146.311
148.985
121.989
144.912
120.201
109.721
105.402
133.996
138.833
121.145
119.791
121.713
151.847
103.771
124.787
112.332
115.675
147.789
110.999
106.320
121.665
118.995
120.169
133.605
143.600
131.678
141.948
127.646
114.935
128.195
125.132
108.278
112.295
101.879
102.770
127.500
102.956
134.703
148.308
151.541
138.695
135.014
106.234
139.172
146.921
119.047
110.869
107.264
112.601
103.367
136.380
117.855
141.593
114.618
110.457
115.309
103.791
126.790
144.004
132.021
113.334
129.108
146.513
143.386
136.242
120.810
136.202
128.471
142.854
126.642
125.054
134.824
103.176
146.812
152.351
136.745
122.401
133.857
103.342
152.694
107.941
139.336
141.826
142.789
103.055
116.615
120.795
150.983
101.597
120.351
151.844
135.498
143.647
138.348
135.335
126.735
147.729
103.313
151.051
138.016
150.291
111.919
134.612
102.780
113.719
101.442
124.406
105.129
112.438
101.975
107.653
152.942
108.212
151.294
112.370
126.331
108.460
134.644
146.673
150.363
110.868
109.862
109.397
109.302
102.656
143.274
129.337
139.188
122.393
146.864
122.846
114.210
140.657
106.109
114.535
140.905
140.646
111.143
147.933
126.002
145.123
109.014
113.672
135.611
104.083
122.647
134.421
149.323
130.969
133.153
127.517
116.076
109.496
141.880
142.788
134.658
142.199
124.630
111.924
136.926
102.654
141.177
122.077
144.008
136.185
136.647
149.164
105.056
130.624
123.869
148.709
105.367
119.803
113.326
105.505
102.086
131.128
121.279
146.435
