759.006
762.314
760.537
765.860
755.638
757.501
762.544
758.739
753.895
749.375
754.057
747.933
744.717
748.752
751.219
745.570
733.737
733.756
729.945
735.642
728.316
740.760
731.034
723.567
734.721
728.766
722.467
716.936
722.649
719.750
726.842
719.945
720.930
708.182
718.981
706.433
713.752
712.039
713.029
708.470
709.928
700.349
706.599
696.365
692.923
691.375
693.385
699.321
699.760
692.507
683.336
686.235
688.973
680.491
690.277
677.549
679.611
678.199
685.108
673.395
683.131
670.238
678.131
679.946
670.511
677.988
672.639
672.863
687.880
686.681
678.043
688.122
686.048
685.267
677.417
693.346
689.102
683.164
684.368
690.845
687.993
697.040
689.503
697.020
690.982
698.536
694.469
695.020
693.424
693.638
691.483
692.808
706.001
707.917
700.652
696.040
703.794
710.018
711.110
707.464
713.762
706.967
712.064
705.049
708.570
702.343
713.415
713.739
710.888
718.978
709.910
711.163
708.395
711.071
719.949
722.513
711.375
721.997
722.847
727.835
715.654
728.016
716.573
719.836
717.870
721.937
723.559
724.082
726.862
732.855
732.877
729.128
734.409
734.201
735.817
741.692
738.409
737.483
742.613
736.078
739.346
747.127
747.342
746.039
742.928
740.496
750.636
742.630
745.314
749.986
741.030
742.385
745.229
747.593
743.341
758.370
748.966
750.661
759.333
754.806
753.320
761.056
748.787
762.269
758.432
761.672
756.152
759.321
754.266
765.412
755.896
764.174
769.848
771.304
758.949
762.701
771.084
760.777
763.056
770.815
765.468
765.919
773.218
767.664
778.826
779.742
774.315
777.121
780.394
785.024
778.376
778.961
773.276
788.028
783.364
783.805
787.831
786.174
787.229
790.610
782.052
790.582
793.248
788.297
787.000
797.960
796.954
799.204
790.807
790.825
794.474
797.406
793.427
801.860
792.208
795.901
793.170
793.352
800.428
798.975
805.433
797.852
802.131
809.913
813.341
803.518
811.382
811.804
809.035
814.100
817.003
815.364
806.185
808.970
808.718
818.445
809.453
816.419
812.834
823.257
820.663
813.806
826.613
824.912
823.862
818.771
826.080
818.740
825.527
829.216
824.476
823.078
826.287
825.529
827.057
834.874
838.667
828.198
838.810
829.389
842.692
843.124
841.470
843.680
834.142
831.926
840.526
839.130
843.376
837.663
838.837
835.410
839.786
841.835
843.160
847.397
839.058
845.921
846.132
843.888
851.286
852.619
839.455
853.292
840.088
849.987
854.180
847.650
841.287
855.858
849.182
842.072
852.621
848.223
850.972
846.555
857.387
860.139
845.135
854.607
859.973
861.220
852.689
855.595
852.031
850.985
855.907
863.279
855.667
854.906
864.811
860.528
852.766
866.732
852.988
855.437
864.801
866.695
863.556
862.715
860.231
868.687
869.833
860.428
865.778
867.788
862.091
861.816
873.112
858.480
863.153
868.379
874.735
861.014
875.947
875.070
872.083
870.714
862.712
872.328
877.245
874.309
869.038
870.887
878.508
872.718
879.530
871.247
868.410
875.568
872.443
880.398
876.347
872.790
880.784
870.285
884.332
871.668
885.645
879.756
875.026
872.691
877.797
881.855
884.974
885.678
884.860
880.722
883.817
879.692
876.881
891.518
889.181
889.826
888.379
889.689
883.228
890.252
885.730
890.677
886.092
896.120
881.707
884.996
884.939
895.441
888.600
891.283
885.519
887.865
899.203
886.268
896.417
887.025
890.320
895.066
891.833
897.509
895.378
899.986
889.063
898.001
895.891
890.762
903.275
904.702
895.507
896.966
896.717
907.232
901.731
900.304
907.091
901.214
897.935
903.056
899.595
905.058
898.633
902.791
901.295
899.407
899.313
912.483
903.558
908.381
905.096
908.938
908.603
903.208
914.299
905.708
905.837
918.574
903.365
915.963
908.416
905.197
912.421
920.729
920.548
908.686
907.204
915.959
911.183
909.718
918.116
918.909
924.964
916.413
911.346
922.290
920.971
913.823
922.326
924.325
924.348
915.571
921.323
915.851
921.464
915.068
923.602
919.998
919.780
919.745
923.233
919.503
927.560
928.417
927.087
926.671
936.103
924.127
938.650
936.235
937.288
926.058
939.729
937.719
928.535
936.019
942.107
938.130
930.948
931.694
945.493
937.902
947.088
943.050
943.605
948.307
940.564
951.346
941.143
941.666
950.220
940.517
954.555
955.220
956.329
946.406
949.210
959.278
951.152
957.722
955.236
962.564
959.046
963.876
950.542
964.343
953.580
964.381
957.438
957.907
963.842
954.267
965.305
964.696
956.294
971.147
970.389
971.379
970.341
962.855
972.357
966.705
975.801
971.688
967.699
964.471
974.687
968.449
975.523
971.142
977.563
975.666
969.678
979.797
974.018
972.570
972.982
980.196
973.359
984.964
987.407
979.813
976.928
981.327
979.759
987.472
979.300
981.648
988.454
987.851
983.955
988.250
991.543
991.546
989.604
1000.915
986.949
995.589
989.419
994.123
999.983
995.759
992.890
1001.572
999.471
997.407
996.166
1003.029
997.053
1004.653
1007.219
1005.155
1007.945
1002.921
999.726
1004.124
1009.975
1003.915
1011.809
1008.612
1015.347
1009.654
1007.889
1016.512
1015.110
1022.066
1019.365
1018.606
1019.915
1022.200
1011.864
1017.031
1024.788
1014.752
1027.342
1015.663
1029.117
1014.765
1020.051
1016.339
1016.934
1019.965
1032.268
1029.344
1027.951
1028.457
1021.530
1030.982
1037.741
1034.640
1035.387
1032.852
1029.569
1038.520
1027.419
1042.244
1044.043
1031.887
1043.184
1043.299
1035.391
1042.051
1044.327
1042.996
1040.033
1037.085
1037.352
1040.115
1050.577
1045.792
1041.164
1045.285
1046.979
1048.762
1041.318
1042.443
1042.353
1053.369
1051.885
1053.492
1045.079
1060.959
1060.061
1053.560
1063.556
1051.436
1053.964
1061.647
1065.989
1063.292
1065.809
1059.323
1061.434
1061.325
1065.469
1067.486
1067.322
1064.655
1064.326
1053.014
1050.315
1050.221
1060.419
1055.476
1042.025
1043.716
1042.101
1049.504
1040.923
1035.862
1039.627
1047.316
1040.412
1036.103
1027.601
1030.935
1024.380
1037.158
1033.839
1024.834
1021.996
1029.739
1023.855
1020.609
1012.443
1011.316
1011.257
1021.877
1021.264
1004.410
1018.263
1004.180
1001.981
1009.106
1003.396
1008.564
1000.381
998.996
992.386
993.911
993.102
991.371
1000.557
996.746
986.461
992.954
992.906
987.775
981.084
980.351
976.244
982.654
970.395
974.264
976.552
973.882
966.489
974.391
963.477
971.281
970.299
960.100
955.837
961.459
959.694
956.133
961.891
960.365
961.149
944.983
951.935
943.647
945.291
952.578
952.279
936.833
935.619
933.514
934.003
938.711
939.597
926.977
935.085
934.381
931.903
930.498
923.317
927.631
917.553
922.118
918.467
915.844
915.588
913.985
916.770
916.329
904.785
904.038
912.441
900.761
898.797
900.597
909.245
903.866
901.150
904.795
901.087
898.643
900.503
896.163
898.170
892.295
891.589
886.718
887.024
878.457
874.785
887.749
884.274
882.064
869.356
873.395
870.402
877.014
872.784
865.040
870.243
870.140
858.259
863.908
858.824
851.647
855.703
848.919
858.119
846.967
855.494
852.250
852.585
842.781
840.800
843.580
848.513
837.021
832.411
830.869
840.611
840.493
833.752
839.715
827.930
827.308
829.392
833.519
823.948
828.347
817.707
825.736
816.064
818.739
821.377
813.320
817.476
805.310
801.281
808.003
807.619
812.286
802.198
798.764
806.693
801.108
801.352
793.456
787.163
784.854
796.315
792.941
795.499
792.986
784.391
783.335
787.990
776.213
780.232
782.333
774.279
771.868
778.503
775.793
771.587
774.116
773.934
769.719
770.470
760.686
760.220
764.511
762.128
756.034
757.406
758.723
751.650
762.131
760.859
754.554
755.144
752.939
758.299
754.676
750.081
751.801
754.931
752.190
746.333
744.317
750.099
739.226
750.317
746.583
739.050
747.676
740.501
740.870
743.663
740.256
736.574
738.246
747.387
741.819
735.066
740.288
740.846
739.454
741.215
731.655
726.491
729.711
739.372
726.015
728.254
729.710
729.277
731.949
735.970
723.253
734.857
727.869
718.813
726.031
716.876
717.576
725.301
714.486
718.099
720.954
716.861
721.484
719.176
722.085
717.606
709.370
715.485
711.830
711.728
715.002
707.628
706.622
704.822
703.674
708.218
710.881
715.353
709.930
709.329
711.995
709.555
701.102
703.217
704.571
701.504
698.696
698.824
696.785
706.927
700.013
699.955
696.611
693.914
689.363
692.121
689.857
699.544
690.755
692.811
688.998
696.501
688.950
693.998
694.494
694.979
685.089
681.466
694.712
686.888
689.342
683.774
678.534
681.305
681.361
681.682
682.717
686.566
677.014
680.558
675.164
680.865
674.945
679.003
676.257
682.288
673.045
682.190
678.506
671.634
668.993
673.680
670.741
675.718
670.606
675.808
672.623
669.813
674.254
669.389
666.060
662.453
671.229
659.614
668.322
656.384
666.863
653.499
658.025
662.163
664.162
661.544
649.050
655.612
655.073
650.107
647.025
654.300
655.180
647.469
646.287
651.741
657.837
644.374
654.582
651.347
654.436
640.080
644.182
642.684
643.698
641.029
649.635
643.087
643.061
639.813
639.697
635.549
635.968
632.902
641.424
643.652
632.876
636.507
641.968
631.893
634.921
625.883
635.461
633.970
637.146
632.050
634.367
633.949
624.570
629.201
630.859
624.200
618.568
620.872
628.720
623.259
628.070
625.509
623.226
632.478
625.924
625.174
634.876
629.836
641.812
643.490
638.281
636.666
642.741
635.627
639.804
648.101
641.186
645.932
639.451
642.875
647.715
641.513
647.534
656.462
649.534
660.580
658.378
662.670
650.064
655.476
651.300
657.818
659.452
667.102
669.737
670.817
668.143
661.966
672.719
673.291
665.800
672.605
678.575
672.950
678.962
679.628
679.698
679.860
681.641
685.507
681.998
683.445
676.386
684.111
681.890
681.940
690.576
681.899
693.687
683.991
694.856
699.936
697.846
691.602
689.301
702.035
692.019
700.912
704.480
702.121
705.863
710.984
705.156
706.770
709.220
707.592
704.185
703.561
712.006
708.256
713.836
707.847
713.224
711.567
719.798
712.630
726.916
719.309
720.992
725.402
719.812
728.829
719.996
719.876
734.053
722.296
736.685
731.928
728.088
738.019
740.809
741.243
738.936
733.031
741.503
741.509
745.602
741.013
740.702
745.620
745.510
748.389
749.299
744.562
754.341
743.994
745.533
754.824
760.086
763.953
750.308
761.188
752.329
756.254
767.407
754.799
764.114
771.919
763.470
772.881
763.987
764.187
768.143
775.840
765.607
777.550
775.276
771.028
784.578
781.932
778.438
787.433
773.799
778.323
782.817
790.496
789.190
783.918
783.819
790.311
787.090
788.945
789.751
800.537
801.688
787.687
794.351
792.899
806.735
794.230
794.853
804.183
801.498
801.128
805.629
800.563
807.130
801.874
805.835
803.639
813.604
819.070
815.111
818.461
820.937
814.536
818.164
821.225
821.607
825.814
829.060
819.730
828.433
824.702
833.505
821.255
824.556
831.527
833.826
839.898
828.377
830.887
840.433
839.397
842.623
842.495
838.413
835.207
834.749
848.264
842.012
839.157
848.013
849.684
854.895
848.156
853.519
855.561
846.599
848.368
862.794
859.541
862.919
862.402
856.182
863.121
858.487
858.069
868.800
871.327
866.862
872.423
868.830
870.827
875.156
872.703
878.290
876.122
881.355
868.525
881.210
869.641
876.501
873.988
877.978
886.006
881.530
877.963
877.263
889.698
889.198
893.886
889.765
896.993
884.153
894.238
892.376
896.360
888.595
902.167
899.273
901.023
894.531
901.335
905.722
898.681
906.949
912.289
909.097
903.246
907.007
906.114
903.467
910.439
917.118
911.688
920.831
919.218
910.889
921.701
914.277
919.084
927.219
920.599
921.221
927.708
917.547
918.344
931.344
933.255
935.541
925.077
924.736
924.647
930.722
939.384
929.185
929.926
929.605
934.181
941.243
935.320
944.329
942.924
936.426
951.879
945.772
940.931
949.693
941.664
956.396
955.379
944.449
951.454
953.197
961.299
953.508
963.835
959.356
957.928
955.795
961.646
967.023
956.271
957.179
964.107
959.791
972.253
975.078
962.848
975.887
968.218
976.490
965.853
980.186
973.962
972.165
980.861
978.894
985.343
975.300
976.040
988.203
980.878
982.774
986.835
982.231
989.359
987.629
984.235
996.918
988.176
995.133
987.050
994.237
1003.430
998.654
998.075
1005.220
1001.275
1008.862
1007.113
1002.531
996.939
997.866
1004.874
1003.135
1015.882
1011.446
1009.091
1012.252
1006.891
1008.406
1011.013
1014.341
1017.459
1023.565
1012.069
1024.275
1027.630
1016.833
1026.902
1026.895
1026.050
1024.998
1024.720
1036.020
1031.957
1028.658
1039.027
1025.345
1035.650
1038.467
1031.071
1030.914
1038.119
1032.948
1037.890
1046.347
1038.953
1044.892
1051.412
1047.005
1044.869
1045.038
1053.898
1045.926
1048.879
74.532
71.639
60.545
76.290
61.265
65.146
60.692
74.140
76.610
54.915
80.805
57.097
53.952
76.349
64.925
70.107
63.765
58.482
67.704
75.448
69.174
60.548
61.859
56.390
72.057
60.066
81.272
62.052
66.590
54.255
57.379
75.212
58.711
64.798
60.486
55.364
63.718
68.618
53.281
52.711
69.772
57.309
60.366
52.884
58.391
79.810
57.067
62.784
173.528
258.601
185.188
200.027
206.545
228.362
228.438
184.391
178.305
209.329
170.669
177.997
206.618
205.514
182.040
213.763
190.947
230.603
263.465
238.259
236.371
204.313
171.817
187.648
175.020
195.549
194.967
262.932
201.449
232.176
203.260
203.685
172.923
198.223
199.377
220.886
200.242
195.369
232.829
179.020
208.636
241.833
252.230
177.833
240.882
173.080
233.561
193.185
253.804
254.522
247.191
199.580
144.248
107.799
129.920
142.096
138.098
123.886
126.916
113.173
114.566
107.951
107.812
97.249
145.627
138.018
100.866
144.571
131.008
118.518
128.238
145.795
132.933
120.524
118.003
116.040
110.791
106.017
95.468
132.363
126.450
124.108
117.519
127.802
131.928
144.747
103.091
114.222
122.280
102.289
123.499
140.605
136.029
133.093
125.179
119.302
107.653
132.904
99.724
131.424
142.264
103.593
111.086
138.884
117.087
133.216
105.963
111.957
119.994
125.602
111.350
103.358
96.476
110.944
132.744
121.015
128.223
100.183
120.695
98.171
138.338
100.094
101.478
95.237
142.689
99.451
118.188
140.688
136.856
137.013
144.669
97.245
110.956
104.494
96.169
102.044
105.914
129.995
109.609
101.990
121.435
104.673
103.355
134.391
129.507
132.323
131.173
142.991
121.106
107.993
140.984
136.515
143.767
113.043
115.784
133.484
97.563
102.352
97.641
104.542
145.200
118.704
137.838
102.597
125.796
115.856
100.531
138.620
96.929
124.188
110.902
100.359
137.399
97.819
129.957
138.128
125.883
129.113
141.639
103.847
128.999
137.914
109.659
145.296
115.577
136.634
140.737
101.865
115.393
120.344
141.330
135.721
130.670
128.281
99.301
145.711
127.584
125.279
107.948
97.898
111.892
122.444
145.473
136.381
117.412
115.217
97.935
117.552
121.397
143.691
128.574
122.193
139.907
95.284
132.613
105.178
116.292
95.128
116.435
135.101
114.298
145.419
145.293
98.208
107.616
97.519
138.116
131.633
105.042
106.698
145.165
124.121
103.649
141.434
144.876
145.886
130.932
134.667
99.513
129.860
127.596
115.943
97.083
95.523
97.309
142.938
141.704
101.825
139.770
143.568
131.555
124.103
135.335
129.229
131.565
128.647
118.300
113.319
129.101
110.637
123.446
116.763
104.802
121.157
115.639
132.682
144.899
114.977
97.122
123.339
109.508
138.505
125.464
140.060
96.090
133.796
130.775
143.597
122.090
113.259
126.594
99.727
137.792
113.610
116.615
136.547
137.783
141.134
111.387
110.093
102.024
105.575
97.301
139.230
120.661
121.036
141.509
138.142
99.312
133.424
125.146
117.077
95.564
122.974
127.884
127.079
124.913
110.954
131.833
132.545
99.440
144.917
140.094
111.328
139.099
121.021
144.279
111.989
105.909
102.091
116.121
142.498
141.980
138.862
110.403
105.037
109.632
144.062
136.908
138.594
107.538
108.170
133.321
112.904
141.367
136.230
122.915
100.086
100.296
130.989
99.537
105.748
127.676
119.001
129.429
95.096
101.226
120.145
144.051
113.862
101.825
121.575
124.503
105.377
144.824
120.489
111.183
109.058
130.651
109.567
105.809
132.399
130.811
127.035
134.123
133.306
141.579
99.180
118.607
103.109
104.821
128.259
118.314
144.282
102.614
107.357
131.145
109.176
111.974
128.765
98.555
131.674
143.075
118.729
96.868
145.278
135.738
142.528
139.475
124.464
112.522
112.225
113.998
120.960
115.123
98.170
128.572
125.305
106.508
125.127
141.823
104.680
142.842
141.011
136.600
127.600
115.565
123.724
137.969
146.073
133.368
129.550
104.357
113.034
98.652
107.589
102.557
95.433
129.030
117.124
125.021
116.908
131.774
97.159
116.848
98.714
99.916
129.404
108.072
107.085
99.067
110.512
140.763
98.728
136.598
120.985
123.513
139.563
103.392
144.697
95.087
146.364
134.416
112.962
95.181
102.751
104.959
139.986
117.829
109.991
117.170
128.155
101.173
142.009
107.450
108.955
107.132
124.928
130.103
140.335
104.920
107.604
139.825
107.887
135.189
139.467
124.464
145.793
139.283
96.536
132.843
121.336
98.462
124.967
102.321
128.967
143.665
130.417
116.654
138.408
138.124
95.804
138.252
96.063
142.964
112.567
111.730
109.778
130.998
109.050
112.972
