833.555
827.575
835.704
840.522
830.220
843.650
842.551
836.427
833.381
833.020
836.679
839.470
836.711
849.178
846.894
847.401
843.367
844.045
845.140
846.096
845.425
856.135
856.746
854.225
853.939
859.114
852.723
852.310
853.710
855.644
866.886
866.096
866.003
866.542
851.981
851.761
862.061
858.969
857.079
849.944
850.990
862.088
855.903
861.131
854.855
857.214
854.186
860.560
861.430
851.638
849.215
850.289
849.551
860.295
849.965
849.827
852.105
848.021
859.714
853.860
848.270
855.089
851.822
853.782
854.252
856.609
852.353
850.296
850.643
853.959
850.553
843.276
854.829
854.493
839.303
844.495
847.226
852.495
845.237
850.120
839.757
842.391
838.703
848.275
849.939
838.336
835.693
850.295
844.375
846.676
846.617
841.650
839.729
838.010
847.306
846.735
832.451
837.948
846.076
841.184
833.873
839.649
838.941
843.758
835.718
831.046
833.110
832.195
828.137
837.630
830.894
833.760
827.485
827.303
836.728
833.126
826.757
835.075
832.178
831.484
836.014
833.715
830.022
827.627
836.471
831.310
825.565
825.430
827.834
827.655
827.012
834.255
821.153
832.279
825.561
825.144
824.605
829.996
821.850
825.642
819.417
820.030
826.844
825.286
826.419
821.646
828.440
828.534
826.696
815.960
830.467
825.385
817.733
816.395
817.624
823.813
819.518
826.413
817.926
818.697
815.209
825.393
817.711
818.555
825.353
819.088
825.575
819.765
822.696
810.316
817.456
810.883
816.219
817.589
811.151
809.348
815.975
811.888
816.067
807.502
818.530
809.801
816.593
811.171
811.598
818.466
815.167
806.794
803.512
817.872
809.050
815.286
814.049
814.146
815.951
813.591
809.582
815.482
806.159
812.251
808.552
800.018
804.375
798.588
812.758
812.184
801.415
797.920
812.115
808.994
800.330
798.448
804.306
809.270
799.004
807.515
794.417
794.032
797.491
809.190
805.260
794.201
799.983
794.658
793.154
807.361
803.859
804.430
794.462
804.711
796.707
795.933
790.921
802.799
797.452
798.622
796.987
787.701
786.470
793.626
785.618
788.535
790.757
785.190
792.953
786.860
786.723
781.407
782.416
792.371
787.797
785.183
791.074
778.481
777.277
779.794
776.544
785.219
790.664
776.549
785.016
779.924
784.603
772.716
787.264
778.530
770.980
783.669
784.581
773.521
768.603
779.794
774.928
778.268
774.963
767.192
772.128
773.900
764.554
765.993
778.328
767.684
770.826
769.985
771.276
773.618
765.391
760.229
761.473
763.792
766.380
760.408
757.159
757.442
762.023
769.397
765.065
760.666
765.686
757.548
752.612
755.440
763.719
763.057
759.215
764.758
761.971
750.367
750.836
756.226
754.814
758.520
751.684
755.769
746.380
749.073
749.463
758.461
747.338
755.659
752.171
744.693
744.460
742.673
753.577
750.290
740.603
752.174
746.580
736.651
747.147
747.739
747.665
735.269
739.488
735.940
733.972
734.600
742.766
737.345
735.217
738.154
740.032
735.942
732.976
731.390
733.187
734.096
735.923
739.431
734.660
725.618
729.192
727.722
738.137
728.461
722.341
735.965
732.006
729.173
720.189
732.427
725.556
730.287
728.170
720.496
717.087
721.980
725.740
719.013
713.736
713.780
722.393
713.939
716.157
715.512
716.992
713.580
724.590
722.147
715.798
719.241
709.633
717.377
710.892
706.625
710.385
719.532
714.436
718.612
712.465
717.418
703.307
707.818
711.766
707.567
713.492
701.886
700.568
703.322
711.815
699.679
697.495
701.137
702.811
708.437
697.841
701.095
704.951
706.892
707.341
698.586
703.195
697.598
702.204
704.626
700.642
689.608
702.857
688.501
686.341
699.472
694.091
695.316
691.349
691.753
691.474
690.674
690.342
690.330
692.638
684.909
695.653
686.251
690.413
684.301
698.389
697.564
689.357
702.661
695.290
697.935
694.444
703.068
704.731
704.904
694.094
705.132
707.074
710.610
699.925
712.209
708.818
705.185
704.296
711.377
706.892
717.558
705.947
713.502
715.201
719.450
717.533
720.429
713.078
721.481
715.485
721.090
717.275
714.800
729.283
719.383
718.723
727.513
722.106
730.477
731.409
728.615
724.010
730.798
733.385
725.554
725.046
739.199
737.911
733.411
739.091
738.642
731.021
736.800
730.675
743.418
735.244
735.744
733.960
744.223
747.593
738.119
747.025
739.299
749.283
752.099
741.379
747.759
745.161
749.719
747.140
754.283
754.836
762.374
755.553
763.323
760.228
759.149
756.740
753.779
754.127
766.984
757.536
758.801
768.543
761.027
769.943
761.883
761.169
769.184
775.472
764.455
767.594
776.397
773.827
772.780
775.447
779.721
768.629
776.183
780.787
776.895
780.821
778.458
786.357
776.592
789.950
784.680
778.286
784.030
788.676
780.162
784.567
786.358
792.187
787.333
785.905
792.332
790.144
797.124
798.982
801.799
801.137
801.969
791.263
791.270
804.273
807.551
793.502
797.591
797.919
809.887
802.490
805.066
800.660
800.602
803.534
809.509
804.173
815.341
812.217
815.951
813.423
816.140
812.619
817.052
819.709
813.980
815.559
815.177
827.933
814.841
822.061
820.829
817.765
820.684
818.718
821.763
827.532
823.434
828.170
827.124
837.455
831.877
831.079
836.039
827.472
830.240
832.483
844.094
832.851
837.299
842.437
838.537
847.065
840.601
839.203
850.678
843.894
849.067
850.847
839.405
854.574
851.808
853.046
851.168
844.203
844.014
852.398
851.937
847.433
855.351
855.536
863.145
856.771
862.288
859.696
859.676
847.666
853.354
850.831
853.989
847.542
851.914
840.150
848.686
847.670
837.612
843.892
841.168
838.039
837.472
831.510
830.460
827.950
824.317
822.631
830.496
824.085
827.847
817.732
828.606
818.570
816.288
819.716
821.842
817.892
807.354
804.226
803.726
807.366
807.085
807.696
811.443
808.694
801.780
803.323
803.795
803.758
798.874
789.733
796.821
792.857
793.405
791.732
790.829
778.549
780.608
777.464
775.240
781.226
781.135
769.735
769.155
780.074
778.121
773.803
773.827
766.246
774.067
758.544
758.428
763.001
754.821
765.589
757.224
759.376
755.023
755.185
749.206
753.826
750.333
743.603
738.926
746.278
747.878
735.534
739.433
733.623
743.068
730.015
730.042
733.184
737.256
737.450
726.954
720.737
732.976
725.551
728.824
718.633
725.554
712.327
709.747
715.441
710.466
708.214
713.531
718.043
703.707
704.258
707.408
710.260
702.105
700.421
706.005
692.016
692.730
697.029
700.956
695.976
694.746
694.882
688.206
684.156
689.417
691.491
689.149
678.034
676.376
683.897
670.474
682.530
669.645
678.074
664.718
677.125
669.197
667.589
662.746
671.296
669.322
662.641
655.206
657.993
662.240
662.196
653.367
652.886
652.732
654.153
645.747
651.635
646.415
638.514
635.155
634.582
637.433
636.657
637.850
636.268
636.442
635.400
633.397
624.617
622.393
623.653
627.612
625.448
619.489
619.042
614.395
626.220
610.342
610.001
618.529
605.759
611.419
604.794
609.578
599.391
606.801
601.129
604.698
605.050
599.296
593.084
590.251
601.037
590.121
594.476
594.766
592.762
593.882
586.988
591.404
588.974
586.440
581.626
585.226
578.478
584.402
579.814
580.676
578.913
572.131
564.840
579.026
574.488
578.752
576.334
578.948
568.648
575.396
570.560
578.832
577.173
565.791
567.689
576.989
571.524
571.317
577.350
577.043
577.350
578.158
572.907
574.093
570.753
571.091
577.879
580.964
573.995
571.114
569.378
578.194
571.443
582.549
572.694
579.091
579.443
578.686
569.223
574.042
571.565
579.339
576.691
569.483
579.584
584.204
572.923
573.517
583.163
580.530
573.381
574.314
578.613
582.180
570.888
577.189
574.440
585.655
585.153
582.507
572.790
580.833
576.200
585.925
581.754
581.030
585.511
576.942
577.605
573.440
572.735
577.826
584.977
584.233
582.926
583.314
575.606
587.167
582.933
584.475
588.061
588.714
574.612
581.245
582.674
586.152
585.323
578.918
584.415
584.629
586.719
587.700
577.029
578.005
575.998
579.605
583.533
587.439
588.722
588.062
584.035
583.236
589.325
580.049
581.728
585.348
576.820
584.234
592.254
591.351
581.715
577.396
588.583
592.652
589.747
586.266
581.645
588.295
593.011
581.899
582.379
589.268
590.319
590.447
582.880
579.278
586.362
582.587
586.294
582.209
585.007
590.027
587.142
582.301
591.057
593.656
588.247
585.020
585.733
584.820
584.230
587.307
589.287
586.785
592.697
585.799
594.670
595.041
594.711
594.673
592.146
593.249
591.106
591.678
583.435
589.567
593.470
597.342
598.392
586.729
589.058
586.387
583.469
591.549
598.441
598.749
591.646
590.646
598.142
599.227
587.457
585.724
591.806
590.401
584.975
587.139
586.354
591.498
586.296
595.940
591.876
589.702
595.173
586.570
599.170
600.240
589.951
596.987
597.482
598.370
600.393
590.491
601.740
600.719
602.241
603.126
588.969
591.930
591.494
593.088
597.342
602.645
596.652
596.100
589.319
581.762
587.222
587.242
580.356
586.971
577.269
577.176
566.984
573.761
574.966
571.941
572.495
567.752
562.476
563.275
551.603
557.694
550.242
554.155
552.883
547.397
548.262
541.152
543.479
536.268
527.551
541.077
533.700
531.022
526.329
528.694
523.831
519.702
516.030
515.082
516.529
511.273
509.572
500.489
508.667
503.447
495.779
497.618
501.027
492.978
489.121
487.355
496.152
486.696
477.493
483.845
478.818
472.366
473.483
467.399
471.335
472.790
461.397
472.701
460.669
457.069
466.411
458.261
451.965
458.202
450.552
451.211
443.723
442.617
438.375
440.888
440.242
434.907
432.873
437.611
430.467
430.825
418.564
428.627
422.138
414.845
412.071
410.973
415.356
413.999
408.565
410.444
407.676
404.849
397.625
402.835
396.021
394.840
386.829
388.841
393.738
393.166
377.060
387.528
384.918
376.947
369.436
377.499
366.630
371.774
367.651
366.203
359.467
361.734
351.448
354.602
359.533
357.543
355.889
355.484
353.453
340.701
339.509
337.959
342.543
335.428
331.214
337.223
322.641
329.362
323.146
320.677
318.336
316.385
323.626
314.832
306.422
309.882
313.525
300.601
307.321
298.888
298.357
297.423
289.589
286.950
289.107
282.856
292.335
285.692
289.633
284.751
280.110
271.947
280.914
271.814
265.857
270.424
270.118
270.475
256.926
263.011
256.887
258.984
255.627
252.253
253.723
241.991
238.145
238.365
241.715
231.495
231.485
228.983
231.912
236.627
229.759
232.484
221.994
226.647
212.298
224.004
208.687
206.873
216.243
212.717
202.038
207.718
201.752
202.277
198.030
197.087
202.459
184.980
193.819
192.070
179.080
188.788
178.633
177.626
180.076
73.972
55.022
78.668
69.374
61.457
53.645
60.363
67.963
71.194
60.031
75.121
71.496
52.532
74.013
70.797
67.259
71.298
188.415
209.625
235.360
178.935
256.054
205.730
209.824
232.725
243.475
205.971
186.222
248.016
230.908
206.560
183.899
231.385
243.112
236.719
241.958
231.190
230.776
184.980
242.002
240.166
237.222
202.501
225.987
263.541
206.300
229.431
231.479
260.342
242.522
199.848
209.873
191.890
226.483
262.900
223.056
175.861
175.414
171.843
220.654
253.752
219.079
259.896
187.309
228.985
202.848
254.534
195.945
195.472
202.663
180.281
194.682
214.438
220.231
239.535
204.262
171.984
190.252
208.947
196.292
177.241
186.854
228.218
207.478
200.030
221.832
260.204
195.263
218.894
256.031
204.744
243.007
194.964
178.289
171.266
188.492
234.640
243.702
226.337
226.131
108.815
121.481
132.986
143.038
114.789
102.939
122.558
124.672
107.928
119.436
116.837
112.112
140.886
132.062
106.681
99.292
134.979
112.144
113.820
133.316
126.371
112.904
139.442
137.925
144.034
116.810
139.582
98.098
146.558
136.519
101.933
130.337
146.762
121.043
100.470
107.485
121.212
105.919
106.661
115.840
132.090
107.987
130.978
100.645
99.503
108.845
132.887
141.673
123.729
138.339
117.180
140.289
131.072
138.568
136.816
136.149
122.156
120.894
126.479
103.297
142.648
128.756
127.871
125.158
121.138
105.823
117.822
129.712
112.508
142.727
128.561
126.297
132.227
125.224
110.000
100.704
141.828
127.129
104.201
132.200
121.794
96.318
96.666
111.840
101.797
114.476
106.620
145.041
124.107
142.096
133.510
135.804
110.122
133.327
138.189
112.830
144.302
106.314
138.824
115.175
144.122
95.654
144.736
125.598
110.456
135.660
99.525
131.449
120.275
137.539
104.877
145.427
121.101
133.387
140.629
99.826
109.591
101.611
99.554
144.770
144.449
104.958
100.498
101.793
107.580
145.730
128.493
111.829
130.961
145.224
99.983
114.150
105.923
132.395
128.102
114.304
135.940
125.557
122.158
107.810
99.788
146.532
115.697
129.174
142.865
99.856
109.438
131.047
121.391
125.666
104.272
134.488
115.492
139.235
131.661
125.488
118.524
117.116
112.603
136.388
95.580
126.439
134.011
116.738
112.558
118.121
106.825
129.957
103.319
106.566
142.692
142.227
119.497
143.920
98.792
113.671
108.682
140.927
129.580
123.939
141.416
137.431
139.196
121.234
129.446
142.342
138.575
128.699
139.492
97.128
134.748
143.285
115.033
146.073
124.973
99.026
109.992
110.330
112.054
135.046
134.954
136.799
142.814
121.542
111.230
133.127
120.440
107.144
112.983
114.622
103.131
140.334
112.178
129.026
131.847
137.165
144.130
121.979
120.645
128.851
106.730
146.295
146.269
111.272
134.343
116.377
110.500
108.468
131.951
140.758
98.223
135.954
123.301
98.248
117.204
115.895
127.903
105.196
121.243
124.925
138.736
137.060
112.138
141.316
138.690
100.026
138.515
143.608
126.762
106.601
137.815
97.242
132.174
115.578
105.657
133.601
130.493
109.622
99.547
95.688
102.868
138.662
141.281
99.934
109.350
103.785
106.925
96.159
140.418
116.393
142.336
129.267
137.927
96.562
122.128
97.835
125.415
104.431
114.210
129.753
115.548
99.758
131.771
118.843
117.222
133.203
121.324
115.198
137.350
109.408
111.019
143.070
120.398
129.440
131.164
109.116
146.336
132.998
135.746
145.779
123.689
146.706
118.481
134.095
98.750
98.957
102.336
105.815
132.184
119.558
96.476
108.440
111.280
116.412
123.231
132.649
141.562
115.204
129.866
101.790
99.900
114.656
124.222
138.070
141.685
102.894
138.246
120.298
117.430
103.726
112.757
95.037
144.058
114.032
131.000
142.546
140.361
114.635
118.083
100.554
99.737
126.502
112.296
117.480
127.903
94.804
145.004
110.340
103.376
144.654
132.317
97.081
143.792
141.101
123.959
102.438
99.527
134.053
138.590
129.059
95.028
111.464
122.286
120.435
131.718
134.062
144.847
136.157
100.927
115.154
128.719
109.405
106.052
138.164
123.529
141.759
102.420
129.074
96.474
145.340
96.424
140.699
99.064
106.946
131.457
143.343
102.461
111.530
107.254
123.891
128.107
109.432
133.439
104.477
145.106
108.720
116.228
137.166
126.889
139.592
127.015
143.677
112.825
137.865
105.351
128.775
121.820
106.427
101.227
127.200
146.361
109.908
140.043
126.342
131.660
103.617
108.789
105.662
131.123
139.431
141.097
100.683
103.025
95.555
119.489
98.957
101.505
137.919
127.422
110.882
146.394
101.692
128.323
106.745
107.896
140.489
116.758
105.533
121.731
116.660
129.252
125.054
137.254
122.690
124.898
122.771
100.454
133.236
109.829
94.993
95.148
104.557
118.826
99.795
95.392
140.432
137.236
146.204
126.139
123.702
141.024
100.084
140.527
112.002
127.578
96.295
134.734
144.592
142.764
121.177
111.337
145.268
96.692
104.836
137.438
140.443
115.682
112.704
100.776
141.283
123.816
101.502
119.190
115.362
109.991
105.075
136.912
98.292
109.066
102.341
118.712
110.441
100.286
116.370
140.304
97.990
101.391
122.641
138.191
140.863
98.663
133.582
131.776
95.634
107.010
107.031
100.680
125.901
104.000
110.774
116.339
110.415
131.177
95.142
130.911
111.385
100.392
127.852
125.726
122.579
111.526
107.158
131.189
115.977
105.996
110.518
103.039
102.693
134.732
136.624
139.638
115.362
120.422
101.925
135.338
117.513
117.179
102.440
122.764
107.497
141.389
121.073
125.414
125.678
97.197
98.888
107.523
114.935
135.117
108.615
108.328
144.046
122.789
104.762
117.264
114.429
115.571
144.137
145.967
97.168
139.596
146.455
111.133
112.717
122.610
142.681
103.165
108.170
116.615
146.041
123.283
103.682
140.956
107.103
122.973
98.117
132.612
140.368
131.253
119.636
99.583
110.656
133.403
140.997
110.551
105.969
137.336
104.875
132.421
107.428
100.805
97.309
108.326
134.053
112.259
106.262
136.545
126.258
126.686
98.709
138.105
122.483
121.977
135.025
104.679
109.884
114.145
118.986
145.533
98.845
104.929
100.229
118.948
101.290
104.837
112.423
121.940
125.027
108.262
135.728
124.650
126.191
115.915
143.195
133.697
126.855
140.636
113.991
125.516
126.967
113.954
117.020
141.333
102.206
146.045
133.614
113.600
133.071
108.377
144.072
94.911
96.104
137.531
124.149
115.659
136.010
135.945
112.625
109.234
146.111
137.601
117.713
136.087
137.731
107.648
142.470
109.595
104.595
126.226
145.166
112.636
98.868
143.458
97.576
129.381
117.309
124.954
111.726
113.234
