775.792
781.494
782.207
789.371
785.779
783.759
782.089
781.316
782.905
779.185
790.991
784.806
786.371
787.228
787.016
786.480
781.195
778.596
787.595
776.084
789.225
787.871
786.790
782.771
784.735
785.697
788.778
776.906
789.487
777.894
782.373
780.372
781.495
783.624
778.200
785.894
783.289
774.725
773.197
782.396
777.337
778.746
788.094
787.098
778.520
775.333
781.193
776.863
786.867
780.648
777.222
786.504
780.972
777.757
781.187
782.855
774.428
781.314
774.604
780.057
778.368
782.094
773.627
780.646
781.041
776.990
773.658
780.433
778.684
782.691
783.116
771.474
776.537
771.638
776.029
779.441
779.143
781.354
775.762
779.500
778.355
775.452
765.861
779.374
775.809
768.862
772.136
777.757
766.308
771.516
779.353
772.996
772.442
764.135
773.010
776.591
764.585
768.061
764.258
764.309
773.401
764.485
770.949
772.332
775.868
762.928
764.188
770.659
776.660
768.879
768.687
766.814
766.980
763.651
763.685
762.637
762.855
772.609
762.394
764.845
767.952
762.612
760.929
764.014
772.978
759.076
765.829
758.291
766.268
765.501
768.594
770.663
762.680
765.129
766.454
756.659
762.226
761.177
769.679
763.611
767.216
764.451
764.442
770.860
761.231
763.180
762.828
757.323
764.945
762.209
759.997
762.389
755.219
755.842
760.149
762.377
758.393
768.934
765.778
766.267
754.597
763.780
766.081
762.311
763.936
765.376
758.562
756.898
758.605
759.750
751.628
765.724
761.979
750.825
759.406
764.446
753.930
762.679
763.401
758.128
761.168
756.090
754.959
761.182
755.713
750.129
762.170
752.707
754.978
748.881
761.685
760.131
750.591
751.420
757.548
757.236
758.665
757.881
757.608
758.649
759.560
751.901
749.244
746.946
751.050
746.646
751.956
757.489
752.254
759.544
765.815
757.977
758.307
764.081
772.304
769.426
774.315
775.010
777.936
773.703
775.536
784.209
772.061
786.854
790.862
787.146
791.311
786.389
797.633
795.433
800.097
795.901
796.093
797.825
805.878
807.768
804.403
798.654
815.796
804.142
813.556
811.940
814.506
822.833
812.774
828.393
827.156
831.194
823.617
829.880
826.128
835.230
831.772
836.779
832.727
841.235
838.959
838.775
836.456
853.934
844.522
842.400
858.985
853.844
856.302
857.038
857.128
857.044
864.643
857.312
860.245
870.560
867.623
871.175
874.662
869.753
869.730
881.598
873.332
886.859
887.419
893.408
883.472
885.560
884.333
890.592
900.815
892.534
897.040
892.503
904.029
905.488
906.176
909.227
916.909
917.715
918.683
916.623
923.589
922.694
913.641
917.435
918.677
931.015
929.130
929.985
936.469
936.596
926.539
937.639
940.690
935.423
936.135
950.289
938.975
942.278
946.840
948.831
959.569
953.716
955.921
960.531
957.686
958.615
969.650
972.610
964.410
962.169
972.367
967.148
970.165
979.048
985.331
976.259
980.539
980.182
992.016
993.135
991.855
994.997
997.727
993.583
992.951
995.123
1001.722
1005.472
1001.075
1005.264
1003.156
1014.313
1005.806
1004.673
1008.553
1017.708
1009.790
1014.146
1028.628
1017.876
1019.118
1032.241
1028.217
1037.544
1032.835
1031.511
1032.873
1029.075
1045.517
1041.240
1049.883
1048.230
1050.405
1043.319
1044.564
1049.866
1058.558
1048.881
1049.427
1050.863
1053.169
1062.096
1060.751
1064.336
1073.442
1066.339
1063.344
1074.146
1069.116
1083.331
1074.752
1078.220
1078.026
1088.308
1085.293
1093.968
1081.131
1084.806
1100.135
1088.845
1089.473
1097.474
1092.673
1105.215
1107.595
1112.271
1114.202
1104.524
1108.067
1113.346
1111.308
1111.646
1113.293
1102.958
1102.936
1103.335
1097.492
1102.165
1096.281
1101.463
1086.301
1087.735
1096.206
1082.339
1090.662
1075.887
1079.105
1086.366
1077.893
1079.573
1076.975
1074.740
1071.711
1069.996
1065.977
1068.457
1059.535
1062.983
1063.861
1062.127
1058.544
1049.975
1043.474
1055.384
1043.344
1049.311
1044.157
1038.229
1046.708
1035.629
1035.833
1033.270
1027.649
1026.892
1026.124
1031.925
1026.113
1027.702
1023.545
1015.777
1024.319
1008.889
1016.483
1010.686
1005.450
1014.400
1003.362
1006.025
996.703
1008.382
999.987
992.423
999.127
990.122
985.221
989.679
983.830
984.063
979.850
981.258
978.779
981.502
974.723
978.201
975.781
965.853
963.959
960.860
963.143
960.101
955.591
965.614
962.127
956.655
953.680
949.932
954.117
941.061
944.053
939.789
937.600
941.266
934.776
933.942
939.214
937.770
932.780
934.610
925.174
924.591
919.902
922.762
915.815
917.046
914.308
908.769
905.814
905.661
911.990
911.418
903.780
911.452
910.019
893.152
903.313
899.189
893.200
891.790
895.190
888.158
886.646
892.838
877.876
884.959
885.447
882.332
871.468
880.680
873.590
875.039
867.205
869.437
867.448
856.158
862.516
864.878
861.368
850.532
846.996
845.713
848.906
856.162
848.272
840.162
850.212
839.301
833.429
845.395
836.458
831.312
827.194
822.728
821.199
833.762
820.917
827.181
818.938
816.307
821.960
810.112
812.016
804.433
805.827
800.584
801.146
802.863
807.140
793.642
795.430
800.309
801.077
790.945
798.433
792.303
794.131
792.946
783.776
785.131
775.273
777.472
773.524
766.876
773.707
771.042
772.542
762.914
760.182
758.060
768.437
758.324
756.471
750.227
755.879
749.882
749.623
746.545
741.759
741.781
735.951
734.697
741.715
739.376
738.270
749.481
748.397
742.045
747.276
746.624
750.533
746.543
744.303
756.925
758.006
747.584
757.483
757.923
764.636
765.540
755.473
761.566
764.127
755.721
754.729
759.243
760.935
766.995
768.795
773.384
763.973
764.714
776.727
776.312
764.875
777.224
768.427
769.095
783.126
774.644
782.749
784.558
773.401
781.434
787.396
788.227
775.781
775.973
777.556
789.293
786.142
789.574
793.588
793.205
792.359
797.266
795.812
795.274
792.429
789.413
796.806
802.552
793.943
803.115
800.723
793.766
804.949
798.605
803.266
796.726
797.476
802.662
805.760
800.701
812.629
805.455
815.632
808.144
806.869
814.205
821.011
809.289
818.910
811.667
810.586
825.810
819.018
825.597
818.896
826.365
831.242
831.676
833.164
824.248
821.712
829.846
823.849
831.944
827.988
832.847
833.051
835.776
827.009
842.175
829.951
834.379
835.892
836.825
833.926
840.825
844.966
849.800
850.123
850.781
839.299
849.511
843.715
845.219
854.814
856.410
858.755
855.380
846.015
853.972
854.097
851.063
855.011
862.220
865.319
865.155
854.085
856.017
869.791
858.142
868.019
863.835
871.899
865.409
874.375
865.573
862.240
870.820
874.738
878.593
880.486
871.926
876.146
882.913
870.149
876.872
886.354
880.069
878.639
883.833
886.346
880.597
881.457
890.263
886.386
895.042
893.094
890.171
887.559
885.224
891.701
890.541
897.319
896.486
901.840
897.549
893.761
905.553
893.792
896.841
898.482
906.109
909.595
902.004
897.338
906.295
912.529
908.470
916.367
903.449
903.717
917.149
913.988
909.245
915.818
920.658
920.093
922.600
918.926
921.467
919.938
919.569
922.786
916.705
926.141
929.760
921.336
921.542
927.970
919.419
932.182
933.304
919.683
931.636
929.488
922.009
921.288
933.043
924.309
920.322
933.479
918.773
918.242
920.812
924.749
929.549
926.371
928.561
927.406
925.303
918.216
923.034
927.730
924.654
919.282
927.563
931.055
928.048
929.527
922.297
920.490
918.545
922.880
932.561
924.753
929.062
932.314
917.732
931.779
918.771
920.853
924.511
919.879
921.666
930.207
932.131
925.765
927.769
926.237
927.887
928.682
918.876
927.346
916.886
920.958
924.567
919.698
930.998
931.202
927.590
921.352
924.449
927.293
931.112
925.630
931.914
923.136
917.282
917.925
927.229
923.636
920.543
923.551
929.623
926.613
916.992
931.504
931.285
916.107
922.281
929.885
931.064
924.006
929.093
919.695
915.853
917.729
921.738
919.992
918.220
917.249
924.776
916.975
916.118
925.647
916.599
914.931
925.620
930.497
930.179
925.225
928.126
924.494
927.600
923.503
923.933
915.154
920.601
922.710
921.362
919.498
923.207
923.473
916.427
916.364
921.366
919.622
916.951
926.777
914.964
917.797
916.456
926.502
928.099
923.374
925.997
923.988
928.561
915.681
926.038
923.078
926.174
914.617
924.136
916.436
914.175
915.447
924.515
923.900
918.346
916.374
919.129
927.691
925.418
928.484
925.442
914.113
921.306
919.071
928.708
916.037
914.730
920.132
922.192
923.302
928.138
925.022
912.960
921.562
928.111
927.739
912.929
915.716
916.116
914.697
924.641
923.290
925.661
919.053
926.118
924.491
912.590
922.488
913.789
920.883
914.899
926.653
916.931
925.970
922.203
926.867
922.339
914.232
925.425
913.703
918.660
915.317
925.588
924.108
922.243
921.816
912.602
918.466
924.143
923.554
924.860
914.947
922.799
918.792
917.298
916.120
909.943
919.273
916.266
907.160
910.330
908.851
912.449
904.260
896.804
896.024
899.343
890.613
901.436
889.456
889.890
898.349
892.778
896.008
893.099
879.657
891.205
876.795
874.907
880.803
872.265
876.479
880.794
879.514
865.337
864.173
872.570
864.089
860.285
870.460
860.238
866.916
865.837
859.166
866.348
859.914
861.449
856.141
847.696
856.891
856.024
850.567
842.033
841.432
841.456
846.260
845.287
833.524
845.211
843.235
841.269
834.221
840.293
834.859
835.076
825.429
821.623
822.102
820.260
821.112
826.691
813.935
826.193
819.220
821.869
818.570
819.357
816.814
808.929
805.461
806.657
807.914
796.979
799.227
807.437
794.674
800.064
795.643
796.187
799.370
791.151
788.754
783.456
792.515
787.991
779.403
779.164
776.941
773.704
775.765
786.054
772.979
780.925
776.043
773.960
769.303
762.304
775.263
766.105
771.713
765.930
760.038
759.708
761.513
755.680
755.372
759.933
758.247
746.751
754.158
747.799
739.891
740.007
739.371
750.693
741.257
746.934
737.643
735.254
731.781
736.818
733.976
727.858
722.857
721.805
734.908
731.793
726.952
719.485
721.018
728.445
714.856
712.674
708.868
716.287
713.586
715.496
709.783
710.470
706.503
712.791
711.219
707.450
703.492
697.940
705.661
695.232
693.631
700.529
695.321
691.158
689.477
683.555
691.962
678.894
678.828
682.782
676.926
676.289
673.617
682.120
668.785
676.221
671.442
664.120
669.305
675.145
670.740
659.754
668.815
665.964
656.245
664.265
665.531
656.112
661.951
654.432
658.879
644.121
653.801
646.620
645.102
645.732
636.681
639.636
635.145
647.744
634.312
634.316
633.131
626.920
632.749
629.510
628.174
634.636
630.018
642.057
642.122
631.519
631.553
636.356
632.534
638.640
640.824
635.433
648.102
649.234
638.459
640.301
636.331
643.508
637.199
638.733
651.110
645.805
640.782
654.924
644.859
645.866
654.554
643.210
647.066
649.145
654.774
655.889
651.875
655.856
661.656
658.535
652.948
653.113
666.408
656.949
666.043
658.735
668.693
658.342
670.148
658.334
656.768
664.317
672.365
663.211
671.773
673.386
671.608
676.946
668.035
663.024
674.437
673.910
680.638
677.588
674.443
674.429
683.498
670.267
681.311
683.991
670.965
680.162
672.167
676.820
686.819
688.424
684.480
685.879
689.561
679.159
681.773
688.045
679.580
685.254
680.856
695.247
696.583
682.814
685.219
699.515
686.956
689.838
698.657
690.328
695.900
691.982
690.440
696.613
697.658
704.682
698.208
694.660
698.628
700.720
707.191
696.198
711.676
703.207
711.956
709.905
711.698
707.908
706.510
705.615
703.050
717.085
714.654
719.415
706.270
714.761
717.978
713.081
719.366
715.236
718.482
710.929
724.435
718.847
719.719
718.889
713.716
715.158
719.544
730.710
718.572
730.598
717.983
729.951
728.878
729.035
724.258
727.692
729.758
728.388
737.384
738.000
737.525
728.784
725.554
730.665
739.614
742.470
738.218
741.725
730.147
741.910
745.067
735.422
746.307
735.764
743.729
737.796
749.923
748.576
748.879
750.053
753.027
746.441
748.296
744.190
756.048
750.989
758.277
743.284
751.906
756.481
753.314
756.514
762.388
758.647
761.652
750.101
761.536
763.030
752.804
766.498
768.076
758.114
766.274
766.399
760.076
756.647
771.677
770.001
771.864
763.433
772.020
767.352
767.425
771.509
768.700
777.927
776.196
771.259
767.787
768.683
764.298
758.624
763.538
762.994
770.326
757.484
753.622
751.605
751.064
751.956
746.711
753.980
745.296
750.855
741.086
750.039
737.646
740.761
744.260
739.342
742.445
735.537
739.568
738.616
736.789
736.530
731.429
733.147
735.764
723.229
721.024
719.246
723.472
727.921
722.453
715.031
711.646
710.937
714.874
714.185
712.000
713.261
711.658
701.610
701.520
708.577
696.159
704.107
704.395
696.007
699.427
689.884
697.626
690.013
693.365
688.700
691.944
689.515
684.064
681.662
683.009
678.060
673.370
677.308
682.356
674.841
680.969
681.697
676.719
667.307
670.300
665.665
674.509
672.562
656.859
664.199
666.671
659.201
661.537
655.745
649.930
658.056
660.444
659.016
646.283
651.341
648.926
641.871
638.764
648.505
648.525
636.582
639.769
636.040
634.363
638.428
628.184
626.854
624.714
621.699
625.624
627.292
625.627
629.115
615.340
616.243
620.671
620.239
612.805
621.920
606.998
604.970
616.195
602.285
609.718
598.609
597.299
602.733
604.938
599.542
599.518
594.468
596.944
601.424
591.722
597.899
593.071
586.096
593.614
581.325
580.713
586.920
585.208
586.988
578.885
578.390
582.986
577.278
578.148
564.530
566.736
569.733
565.910
570.899
563.285
566.290
569.615
567.419
559.596
552.340
559.945
554.519
561.738
560.185
554.241
542.205
552.762
539.475
550.252
540.914
548.377
546.801
536.026
533.312
529.823
531.061
526.509
526.283
524.459
530.420
534.845
524.764
527.902
516.772
522.772
523.121
513.023
524.654
519.684
520.566
520.781
515.263
509.173
513.734
508.453
514.302
505.400
508.765
503.437
502.824
494.393
495.838
491.262
496.149
495.318
492.633
493.957
74.955
69.413
54.280
71.274
71.660
61.754
54.253
53.997
53.191
63.538
51.435
57.054
53.213
56.356
51.048
76.780
68.547
69.818
75.374
53.802
55.759
65.165
67.670
62.563
64.966
58.477
49.524
51.506
61.345
66.948
56.984
61.330
63.074
55.395
61.601
53.908
61.569
69.327
70.232
61.371
66.271
172.842
247.395
230.113
242.993
178.008
217.021
220.381
164.746
173.809
166.805
166.842
188.309
224.663
223.332
170.835
196.406
210.415
163.942
207.819
251.154
210.684
175.144
186.064
205.724
192.243
254.533
228.409
212.354
211.017
168.728
196.183
246.080
186.067
208.288
171.678
247.402
215.460
182.058
190.789
241.460
174.321
178.937
184.594
257.330
207.977
204.742
245.153
220.626
179.120
178.307
242.320
208.595
217.124
180.065
242.863
204.261
177.010
174.899
254.904
136.758
135.537
111.308
116.883
104.721
102.055
140.145
99.757
124.022
122.193
131.112
108.055
126.996
128.434
118.745
111.587
131.760
104.885
97.976
110.847
124.193
136.175
105.392
142.069
113.631
107.088
109.841
103.709
141.064
113.746
133.763
102.434
138.728
97.093
137.173
106.006
96.843
97.992
109.604
139.672
93.488
115.109
107.358
126.204
119.976
129.535
113.040
140.168
103.418
137.277
141.516
123.836
137.364
127.717
142.553
127.845
136.711
141.805
122.967
144.524
109.394
131.548
104.453
117.326
102.805
95.629
138.305
143.397
140.658
133.214
103.155
105.922
113.134
143.567
122.507
132.981
117.655
95.766
96.251
115.395
120.617
136.064
115.235
130.560
99.498
105.156
129.293
98.354
98.153
113.075
115.547
122.130
126.474
120.132
107.172
126.877
114.983
120.063
122.567
144.111
135.491
119.065
135.801
124.497
109.009
144.207
119.805
140.244
107.108
143.558
145.237
110.106
120.157
142.669
137.693
138.566
131.007
142.016
108.448
126.445
107.479
126.538
134.221
99.272
132.961
125.789
131.091
146.566
132.141
96.503
120.348
121.487
144.764
125.812
122.906
113.609
107.297
102.325
111.447
141.261
140.033
126.122
98.995
121.693
142.811
119.974
145.305
122.066
113.253
107.675
121.969
129.616
97.590
136.821
145.622
106.125
134.461
108.197
142.222
103.069
144.784
127.453
113.656
124.799
140.815
137.130
101.335
137.157
119.154
135.909
140.180
95.774
131.760
133.902
110.993
112.725
134.569
105.591
97.255
127.562
138.961
140.374
134.755
145.007
145.089
125.163
134.931
137.767
103.661
114.306
125.525
125.321
125.797
123.891
146.556
136.979
144.911
126.579
103.476
100.901
100.646
100.127
98.551
119.644
144.351
140.620
127.970
102.754
142.021
114.368
130.927
116.954
102.948
140.611
114.287
118.293
114.532
126.303
109.053
96.932
117.666
95.919
114.397
99.792
109.429
133.138
141.473
115.195
95.681
101.543
104.756
140.558
138.303
122.958
142.851
142.580
109.780
145.837
130.989
146.708
102.149
124.003
108.754
107.889
135.343
107.493
134.096
98.974
95.513
129.744
125.395
138.880
126.337
94.894
131.011
104.875
126.666
123.938
143.480
106.715
110.346
110.160
128.525
127.266
146.188
96.193
110.981
134.611
110.825
146.574
143.647
100.910
98.408
130.655
112.995
111.483
95.020
98.542
103.654
111.218
119.678
95.238
131.130
125.097
125.307
115.109
119.637
121.053
113.083
144.331
140.912
95.259
119.411
