805.818
792.838
804.952
793.723
797.499
806.521
801.097
796.629
803.422
803.481
800.188
797.662
799.131
799.574
811.177
801.322
812.526
807.518
811.958
805.347
809.969
808.351
814.284
809.544
803.913
807.090
805.917
806.975
805.394
805.499
808.435
807.449
820.719
816.866
810.131
817.905
811.558
817.846
816.407
820.820
817.926
813.481
817.591
820.585
814.148
821.857
827.159
822.550
821.939
815.769
816.936
814.322
822.220
815.712
822.703
822.001
828.411
830.480
821.363
822.344
830.762
819.605
833.376
820.864
827.651
822.658
824.024
832.216
822.769
823.407
834.042
831.810
833.202
831.777
828.020
828.270
839.600
837.537
833.773
839.088
835.765
842.137
834.419
831.074
832.186
830.526
844.405
844.887
841.394
843.484
845.473
843.439
840.181
839.734
835.672
844.848
840.564
846.945
834.250
839.881
836.614
846.545
848.382
843.054
844.438
843.294
849.984
843.272
850.197
844.920
842.656
855.035
852.620
852.109
845.080
854.244
842.369
842.323
850.981
847.923
849.331
853.626
856.402
855.997
856.952
845.791
855.036
848.757
855.694
860.687
862.119
861.167
848.522
850.856
855.574
861.099
865.907
864.759
851.677
859.529
856.660
860.488
861.419
856.034
865.027
861.781
863.110
867.017
865.217
862.864
868.093
865.496
869.091
864.869
862.449
865.629
861.231
874.307
870.581
868.944
865.780
872.419
873.547
865.143
872.885
875.192
867.870
873.786
868.422
867.566
869.984
876.947
869.077
880.957
877.986
870.017
873.815
870.489
875.341
883.051
875.752
880.407
885.599
879.971
873.726
872.857
871.741
869.123
869.972
871.703
883.479
870.666
877.558
870.548
875.778
882.835
871.996
873.644
878.556
872.027
877.468
873.361
872.873
876.637
871.824
866.773
880.011
868.067
866.439
873.334
866.501
876.003
876.847
865.489
876.705
867.562
866.678
873.590
876.837
865.245
868.526
872.576
866.952
878.070
874.350
870.313
875.691
873.449
865.082
867.085
864.059
870.774
873.004
867.519
861.775
865.485
874.024
873.816
874.017
863.185
871.670
867.703
871.040
871.987
863.993
875.429
871.308
869.301
866.262
874.057
862.091
872.892
864.780
870.150
868.404
867.398
864.551
859.198
873.393
865.646
858.361
870.331
859.900
867.680
867.395
872.806
866.919
869.806
868.257
865.979
862.884
868.500
870.897
863.340
865.935
868.392
866.293
869.776
857.546
856.007
866.167
860.436
855.843
867.229
864.419
861.424
863.604
866.259
864.012
863.761
862.580
863.457
862.245
853.245
855.441
859.029
864.005
852.466
853.491
865.627
857.313
858.272
865.774
864.481
865.528
854.631
853.856
857.164
856.809
856.830
854.099
858.888
853.793
858.759
862.860
856.187
862.184
856.878
864.168
856.540
855.277
862.985
857.733
848.845
853.612
852.862
849.881
858.671
855.207
849.252
858.389
856.590
847.183
852.558
851.410
855.059
854.697
855.405
856.451
854.620
848.256
858.803
856.860
857.765
850.893
858.082
849.011
859.458
846.197
845.135
854.700
847.098
845.802
853.338
843.527
849.096
848.106
853.242
849.594
858.050
849.350
856.100
843.373
845.031
851.499
843.716
856.728
854.962
842.487
851.383
853.082
853.506
849.977
848.190
843.755
850.710
842.859
848.188
845.263
845.119
844.991
842.801
848.644
851.462
838.146
847.016
839.100
848.609
848.589
841.646
845.645
843.672
843.032
846.378
846.161
845.516
849.862
834.570
849.001
838.781
841.859
843.165
834.817
833.722
844.837
842.246
835.567
834.631
840.873
836.746
840.358
845.955
837.559
842.773
844.964
830.530
836.742
834.905
841.169
828.543
827.421
842.784
835.831
829.126
833.447
834.258
831.372
828.137
828.436
826.923
837.611
826.739
834.143
834.712
828.438
835.072
835.204
833.384
827.308
832.683
826.744
832.820
829.787
831.916
831.340
829.809
825.301
835.438
821.215
823.020
819.021
826.492
830.189
832.791
820.230
824.470
823.894
830.694
822.637
816.176
829.532
816.646
818.061
824.158
822.286
819.265
828.724
823.135
824.007
821.732
813.299
824.804
815.041
812.705
819.548
815.436
813.459
826.211
817.606
820.362
819.468
816.303
816.654
819.345
812.696
816.729
808.743
814.248
813.270
822.379
812.032
816.097
816.265
807.447
818.859
810.817
809.253
819.877
813.988
812.735
808.569
805.105
813.105
819.042
804.970
817.202
803.835
803.931
813.281
806.649
808.311
802.955
807.962
803.706
808.516
810.458
799.850
813.050
799.766
810.811
812.282
806.502
802.734
807.573
812.510
797.627
807.663
810.913
804.016
801.500
803.331
799.231
807.461
807.849
802.586
801.215
798.242
797.467
805.320
805.064
806.298
799.591
800.254
806.171
791.914
802.944
794.850
803.004
805.471
804.709
795.228
801.917
790.277
791.027
800.866
794.611
802.165
795.227
787.938
787.169
801.243
801.525
791.275
792.594
796.727
789.598
798.115
796.033
786.556
793.651
788.456
786.788
796.159
788.937
787.514
794.589
784.941
785.721
796.972
780.915
782.572
782.854
784.311
792.839
791.353
789.594
788.919
785.467
790.848
779.303
784.004
780.628
787.490
781.294
774.611
779.842
776.441
772.598
781.130
781.544
772.602
775.340
770.245
773.747
770.394
773.953
762.494
774.173
766.970
771.016
773.206
770.188
764.080
757.406
771.361
764.558
765.948
755.997
760.083
757.931
760.544
762.915
759.309
749.011
761.786
749.625
755.618
759.956
760.657
759.103
744.110
746.236
745.162
741.844
754.896
744.358
748.283
745.362
743.531
737.757
737.226
748.363
739.270
741.092
746.474
743.736
736.733
731.887
742.912
741.425
741.391
743.231
738.353
736.387
739.124
739.369
724.963
726.546
728.146
734.953
732.502
720.276
731.584
731.133
731.473
731.451
718.453
717.536
728.585
728.652
718.572
724.506
711.360
711.946
715.254
713.062
714.821
717.763
721.525
707.648
706.814
713.468
708.168
711.067
716.786
708.049
707.679
710.687
702.782
705.383
708.581
708.763
710.636
700.639
706.671
702.937
707.811
703.114
694.631
694.476
704.516
697.532
692.799
689.357
699.030
695.277
687.403
696.999
693.516
694.559
695.743
689.996
682.705
689.424
689.204
684.271
686.485
688.487
684.082
688.294
684.569
684.535
675.260
686.156
683.940
678.736
682.279
676.398
668.618
672.291
674.896
670.346
669.056
675.052
678.208
673.303
673.291
662.884
663.243
674.400
673.769
662.340
664.232
659.627
666.753
664.538
667.831
664.264
661.902
668.266
664.895
653.635
652.123
662.981
650.777
650.326
648.587
652.636
654.643
657.842
646.176
650.137
657.437
645.283
654.052
645.031
640.949
654.775
648.137
638.681
645.517
639.675
644.283
647.118
637.197
634.785
639.810
641.960
636.528
634.895
643.720
631.996
629.540
641.006
627.269
638.060
638.172
638.558
632.240
634.297
630.284
628.520
637.090
631.273
633.584
631.657
639.315
628.652
626.316
635.545
627.114
635.235
629.973
632.189
634.311
639.189
640.231
636.193
625.434
626.461
629.393
634.180
638.473
637.454
629.415
635.540
632.048
630.416
632.695
630.580
627.104
632.153
626.311
637.480
629.694
628.329
638.902
628.434
625.747
629.519
634.442
627.832
629.808
624.528
625.343
626.255
627.941
636.075
627.308
631.176
636.521
636.293
636.996
623.337
635.873
630.257
636.070
625.777
629.270
628.767
629.220
626.535
631.428
626.648
624.302
630.613
629.943
623.277
629.942
634.560
628.133
634.374
635.472
632.648
626.501
629.787
635.755
627.959
629.011
627.935
621.255
629.696
633.108
619.711
633.733
631.146
619.263
626.975
632.176
626.096
632.912
625.126
631.004
631.550
634.285
624.928
624.861
618.330
633.023
624.195
627.525
628.018
630.761
621.011
617.838
632.612
625.418
626.337
622.017
626.110
628.786
623.146
632.621
628.737
628.846
632.048
619.883
629.840
631.812
623.416
623.776
617.974
631.390
617.967
623.520
622.134
618.456
615.767
621.282
617.190
626.343
628.412
623.624
625.379
622.086
625.870
621.744
622.156
620.780
620.540
619.800
627.650
624.302
617.218
627.224
620.815
626.379
620.805
628.226
618.333
613.705
627.041
618.820
626.786
628.242
618.349
626.894
614.848
617.837
623.128
621.308
623.128
626.059
613.943
622.820
619.729
617.711
625.773
616.196
613.409
614.843
616.218
627.451
621.766
615.871
627.240
625.463
616.238
619.054
611.003
619.270
620.894
617.623
622.839
620.856
625.319
624.327
626.001
615.237
621.066
622.022
625.006
618.245
613.802
618.593
623.764
630.781
622.378
621.562
631.258
620.391
635.989
624.976
640.000
633.984
631.811
632.264
632.072
639.438
636.631
641.769
649.584
648.920
643.695
643.939
646.128
649.806
656.519
655.533
657.476
659.984
663.737
659.302
652.140
662.730
661.977
659.093
657.555
669.540
672.910
666.748
673.165
672.672
676.419
675.836
674.935
673.099
677.521
677.966
678.324
687.642
679.095
675.441
682.319
688.138
693.232
684.677
685.848
696.629
688.637
700.808
691.288
689.472
701.097
697.356
692.469
707.195
707.437
704.929
700.314
702.738
709.479
709.705
710.400
717.094
715.730
718.325
723.460
710.546
722.180
713.181
726.607
719.510
717.117
719.112
722.077
735.309
724.297
736.422
736.241
728.760
727.250
729.998
730.876
744.823
739.793
738.393
739.387
745.888
739.494
749.510
748.966
746.521
752.026
754.968
759.778
751.777
752.653
754.040
753.101
756.195
757.342
760.917
756.462
764.811
764.627
774.870
767.821
767.146
768.584
777.693
774.809
776.034
779.718
769.907
782.707
776.879
777.613
789.119
776.432
787.862
790.352
780.906
792.428
783.074
793.659
799.511
792.896
796.841
796.178
795.098
802.684
808.229
804.448
802.389
800.914
805.324
804.944
806.597
811.697
812.639
809.090
818.909
819.352
819.454
825.654
826.437
818.543
817.255
820.179
823.224
827.803
822.439
835.785
835.034
831.820
837.056
836.226
840.488
834.794
843.207
836.132
846.137
847.785
843.137
845.275
843.092
851.748
856.084
846.900
849.022
846.516
847.687
859.808
864.166
860.650
856.399
852.175
857.283
857.801
861.342
870.524
865.492
864.800
875.611
878.243
868.794
879.170
881.737
879.090
870.763
882.564
883.795
873.788
875.558
880.524
870.824
873.566
871.478
871.574
875.058
878.719
866.320
863.250
874.703
863.260
865.856
862.820
868.632
860.661
859.858
862.206
859.289
867.907
864.475
863.340
859.998
865.383
857.744
853.712
854.991
850.581
854.918
851.007
853.091
852.322
853.804
856.408
848.767
851.240
848.136
843.702
844.629
840.419
843.541
846.890
837.064
838.543
839.190
839.473
844.601
832.345
842.943
843.136
827.728
831.093
827.173
828.946
838.601
829.498
823.006
835.733
829.943
833.552
824.667
819.726
817.484
823.030
821.317
824.760
822.929
824.511
818.830
817.267
813.438
813.956
809.740
809.296
813.243
806.784
810.295
816.298
808.976
816.816
812.264
803.110
815.091
806.893
809.235
797.828
803.419
798.835
807.625
804.206
806.226
801.816
795.496
793.221
791.482
790.228
801.950
792.843
786.816
788.649
787.445
790.749
793.994
794.114
789.066
792.598
794.619
791.171
789.602
785.502
788.548
783.750
787.731
783.818
781.439
781.977
777.758
776.238
774.320
783.233
769.289
771.305
772.102
776.588
772.194
775.915
767.007
774.159
774.739
769.623
769.746
762.274
758.433
769.137
769.459
762.800
767.189
765.054
754.935
762.501
764.428
761.761
751.903
751.890
749.481
753.690
760.546
758.881
751.270
750.107
743.594
756.689
741.527
751.256
747.587
739.409
739.561
740.254
739.697
736.819
734.162
736.453
747.908
739.185
737.776
741.020
741.669
735.555
728.576
728.447
732.072
738.998
738.548
725.014
734.680
723.588
723.453
722.719
727.438
721.938
732.188
719.842
717.690
728.129
713.656
725.532
719.696
717.103
724.253
722.602
721.593
720.585
713.805
720.769
709.400
715.900
714.373
717.117
716.696
705.367
703.776
706.800
708.748
711.906
703.945
710.323
699.092
698.203
700.866
712.655
697.809
697.930
711.375
697.010
706.049
699.549
699.550
699.182
695.934
698.498
707.724
703.604
700.434
698.209
704.263
698.307
694.457
690.988
699.858
694.264
696.396
699.443
693.425
701.611
696.123
699.344
699.959
695.690
698.559
690.658
686.195
692.623
699.477
686.311
696.860
692.032
691.533
691.874
684.289
689.209
685.655
688.892
681.564
690.633
680.851
690.065
688.795
686.368
684.887
682.794
682.795
682.207
676.522
676.697
685.097
688.414
678.286
684.615
678.337
684.856
680.664
683.400
676.620
671.829
672.353
676.772
681.126
682.007
684.468
682.899
682.198
670.866
676.092
671.418
670.182
678.972
679.990
678.408
674.606
678.713
664.025
673.375
670.642
665.701
677.621
673.159
662.079
667.061
669.678
672.258
669.454
660.437
670.080
670.250
673.193
667.618
657.435
672.796
665.726
661.355
662.328
659.721
659.009
669.686
661.255
661.688
667.957
661.628
662.829
665.932
660.281
665.515
651.593
650.423
651.632
649.813
657.327
653.543
658.981
657.418
650.543
656.525
649.610
647.177
646.297
648.485
653.244
647.851
655.529
656.913
659.273
646.184
644.067
655.294
643.805
644.310
651.983
650.892
641.126
649.334
642.948
654.804
641.178
643.690
651.012
647.534
642.792
638.542
645.162
649.778
646.461
650.431
646.824
636.278
648.130
636.127
641.217
645.506
632.103
641.796
631.588
635.468
634.457
641.903
638.876
642.079
630.936
631.068
643.072
641.445
632.599
633.251
641.842
634.504
627.310
639.871
625.056
632.213
623.861
638.817
636.849
635.796
631.757
633.863
636.932
629.270
633.573
633.534
74.783
57.309
79.841
61.962
80.451
75.305
66.275
66.166
67.091
59.976
75.416
80.037
55.812
57.051
56.053
80.352
67.765
68.496
65.119
75.496
72.578
73.581
73.077
59.560
78.953
60.351
84.140
77.204
83.153
81.201
62.205
77.832
56.699
68.096
83.932
73.763
80.165
76.732
70.142
75.444
63.584
60.981
80.205
63.546
55.937
70.485
63.068
271.684
231.710
227.516
179.693
229.123
207.409
253.195
253.134
222.026
264.590
184.813
271.356
230.068
265.365
236.997
238.211
248.175
211.286
209.982
205.375
197.541
189.794
261.369
195.228
196.530
223.367
239.094
188.647
223.514
252.151
223.951
233.876
237.939
259.976
239.859
192.341
257.490
247.995
215.058
252.146
238.697
254.198
202.082
240.079
212.843
249.529
211.688
245.221
219.826
230.598
269.235
211.986
201.833
124.412
105.866
108.081
146.769
111.668
142.786
147.494
115.488
141.038
140.933
129.536
134.460
99.672
144.737
146.013
104.465
134.985
146.399
125.137
145.774
140.119
117.867
115.129
97.972
140.710
104.291
124.448
112.957
136.097
138.638
123.049
132.830
117.322
117.911
130.138
136.010
120.969
126.448
143.757
144.651
105.720
118.548
118.488
132.340
106.212
112.094
131.564
143.123
138.267
122.697
115.115
113.494
118.408
131.477
132.551
137.285
123.787
124.632
112.320
128.079
100.155
137.803
142.797
134.075
100.393
103.575
128.907
125.253
132.034
125.472
96.446
143.758
141.929
122.352
125.004
130.590
122.894
103.671
133.758
143.403
145.770
132.786
120.977
111.141
142.830
99.811
115.272
100.342
114.975
96.918
143.488
96.290
124.482
103.078
109.597
141.128
123.467
140.534
97.777
141.469
110.498
124.265
135.086
107.911
124.978
106.778
131.081
120.732
140.948
102.739
111.022
105.556
129.306
119.031
123.249
111.668
95.197
111.342
129.653
103.928
101.045
98.891
117.443
109.581
127.513
104.117
96.274
109.617
105.540
121.149
132.108
123.015
130.970
117.332
105.827
102.928
120.657
98.454
99.326
116.624
128.976
136.995
134.485
129.624
104.315
118.539
111.002
122.367
128.395
100.903
117.142
127.425
112.136
140.271
104.748
126.613
109.819
110.955
122.711
145.173
132.141
144.669
128.932
145.777
141.001
129.712
127.593
97.552
139.842
126.254
111.258
131.176
134.882
108.794
113.073
96.623
143.391
95.694
108.673
129.757
108.231
122.483
113.655
119.149
110.109
142.598
128.145
144.018
112.207
110.547
127.554
116.598
102.618
98.656
110.677
125.988
101.194
129.615
111.321
123.359
142.364
119.889
99.597
106.426
134.242
112.430
129.614
98.414
141.067
130.353
120.563
134.532
138.524
121.210
131.944
137.322
118.070
122.035
101.762
135.426
96.062
99.675
97.419
124.773
112.394
99.197
133.259
118.313
120.283
106.734
126.078
121.521
104.107
123.075
146.279
98.923
126.891
142.560
122.385
104.557
113.706
140.602
99.530
110.715
112.001
116.761
111.649
127.042
128.168
136.225
99.085
143.782
104.267
102.700
110.934
107.922
104.114
132.411
130.053
131.730
143.898
100.902
123.257
98.605
126.016
120.497
100.069
142.714
123.936
128.603
114.154
140.705
109.428
112.197
140.763
119.772
137.479
136.323
113.269
127.611
132.242
140.694
132.067
119.116
128.255
135.688
105.494
142.044
128.130
118.207
138.482
143.156
137.384
129.486
122.058
140.313
106.584
136.980
138.773
137.919
126.392
118.835
134.160
129.558
119.726
126.283
108.609
108.999
102.428
99.920
131.886
111.749
116.855
108.671
108.405
96.357
132.464
99.968
