836.324
828.992
822.247
819.212
822.292
814.479
823.160
809.179
814.017
816.947
810.680
806.649
803.247
798.803
800.498
789.692
800.576
786.838
784.803
791.453
787.285
785.802
787.127
782.176
776.516
774.109
774.151
766.234
761.414
768.757
757.408
756.103
758.802
747.873
757.395
750.073
748.081
739.618
740.096
740.875
732.114
740.417
741.039
732.171
721.868
726.094
720.227
719.577
724.982
713.381
709.074
713.340
712.181
711.475
708.031
707.765
705.746
704.019
703.843
698.989
687.815
693.439
683.172
689.865
688.960
684.774
674.365
668.233
667.506
664.336
672.551
667.406
658.984
666.036
652.772
665.223
654.668
652.247
654.466
643.742
649.678
649.975
642.363
646.402
631.644
628.382
627.933
635.404
624.810
618.903
618.075
619.641
623.229
613.691
613.171
615.747
618.523
617.574
613.569
621.439
623.858
627.662
626.223
631.057
621.468
629.841
623.916
634.471
626.136
637.452
629.136
639.590
626.412
640.979
642.707
634.893
639.489
634.720
641.235
639.002
643.782
649.350
636.269
651.589
641.965
650.649
642.182
642.071
648.098
645.453
652.081
649.838
649.959
648.534
647.765
650.533
656.474
655.856
666.185
662.594
666.043
664.688
667.638
671.241
673.866
667.911
669.243
667.212
673.993
675.861
676.684
667.355
677.896
682.665
679.847
677.792
685.803
678.959
676.443
679.983
690.469
687.004
681.356
682.806
682.858
686.044
681.617
682.533
696.889
689.355
692.102
691.391
690.824
690.733
690.525
704.568
692.536
708.330
698.325
695.888
710.907
709.693
708.601
707.568
712.887
710.329
713.282
708.804
709.654
714.701
720.980
715.091
711.069
716.262
725.217
726.331
714.037
720.334
717.165
721.164
718.714
721.714
719.094
734.594
731.215
722.748
725.408
734.740
728.940
733.128
731.993
743.328
742.462
741.769
739.286
732.837
748.875
745.892
742.817
743.150
744.088
746.712
744.385
754.646
753.034
752.305
756.927
752.352
748.104
748.886
760.520
763.221
759.578
763.928
766.207
766.681
766.989
762.529
758.843
765.766
763.150
773.572
765.868
774.674
774.736
765.388
766.236
776.957
782.754
776.941
772.065
776.382
784.252
774.228
786.817
779.561
790.864
781.125
787.653
781.663
793.033
796.019
795.017
786.784
789.672
787.658
785.949
789.274
795.853
799.476
799.421
795.882
803.181
801.191
806.414
806.741
809.136
808.764
803.483
811.870
812.457
804.351
804.144
809.972
804.892
807.087
817.824
815.798
814.429
823.571
814.377
822.074
818.035
814.174
818.468
818.638
830.503
831.685
818.896
822.881
834.273
832.271
821.891
835.730
831.983
832.786
835.407
836.162
830.166
831.316
830.101
833.027
829.039
842.607
833.689
835.883
844.334
836.473
846.110
841.744
838.987
842.078
834.076
849.105
838.785
845.385
848.025
841.333
845.057
845.662
844.353
841.747
841.207
845.205
840.793
842.385
853.913
848.293
849.021
854.241
857.934
858.473
859.041
848.835
847.004
862.469
861.580
858.509
862.783
860.853
862.978
856.486
858.848
867.176
857.270
861.593
856.357
855.613
869.094
857.938
857.515
868.958
870.344
866.594
860.591
875.525
862.110
862.406
867.706
864.900
872.174
872.214
867.317
867.678
866.847
867.859
877.968
882.922
869.263
876.328
875.534
880.341
880.012
886.935
875.345
884.676
885.292
877.616
877.267
879.526
878.092
882.542
886.971
878.222
893.056
888.325
880.491
892.226
890.395
895.923
894.203
889.440
884.603
898.482
893.112
901.129
887.425
889.494
896.250
899.716
903.329
892.783
905.379
898.272
894.673
895.855
895.465
895.762
899.764
908.212
906.290
906.924
902.751
910.705
910.487
900.821
907.140
910.584
913.722
910.619
911.140
909.415
917.101
903.572
916.454
906.785
917.586
918.318
911.419
914.150
911.799
917.359
919.510
913.870
919.114
917.846
924.614
922.640
927.735
919.892
916.641
923.573
923.060
929.170
931.685
925.617
918.377
933.005
934.611
931.973
936.301
934.168
936.764
933.509
929.417
936.489
927.504
934.106
938.865
935.515
937.112
933.382
940.982
933.700
938.537
936.072
943.037
942.599
944.631
934.778
943.316
941.095
943.902
943.260
939.372
951.613
950.685
947.695
952.815
950.140
949.321
946.082
943.714
951.745
944.867
952.770
952.406
946.405
941.651
951.064
951.475
942.939
947.763
950.645
948.702
936.232
936.361
933.988
934.530
939.848
935.925
931.435
939.749
935.741
937.623
939.425
938.275
927.314
940.611
926.144
934.827
935.775
931.061
937.167
923.984
920.871
931.985
926.282
920.930
928.319
924.444
923.929
921.775
922.260
927.843
916.916
923.819
913.092
922.363
918.562
917.001
921.485
922.723
915.628
914.959
908.332
921.882
914.896
916.780
907.890
915.394
909.334
913.101
902.075
900.592
902.258
911.587
907.908
909.318
900.937
900.709
901.113
896.409
894.444
906.572
903.146
893.984
893.007
904.925
893.119
904.785
901.053
896.871
899.156
894.456
899.893
896.195
895.484
888.423
887.467
883.317
884.635
884.871
894.122
889.170
884.159
883.341
877.732
885.715
877.582
886.681
889.681
884.590
883.247
881.841
880.433
884.826
880.304
874.511
879.317
869.123
868.135
870.421
874.261
879.953
869.385
868.693
867.597
875.809
867.877
864.717
874.207
871.279
869.156
871.034
865.539
867.350
865.648
867.434
861.106
862.502
869.439
864.126
855.322
857.672
863.792
855.399
851.439
861.842
864.330
850.123
859.694
855.248
849.362
855.832
852.069
858.766
854.955
856.397
856.229
849.748
840.876
855.202
846.257
838.305
845.501
842.944
848.982
837.255
845.105
841.991
843.237
832.506
839.969
841.464
833.554
845.474
840.295
828.586
841.251
832.994
839.532
825.759
829.487
839.871
837.811
837.136
826.377
833.471
822.035
831.268
826.247
822.126
832.466
822.677
818.646
824.991
818.461
829.937
827.787
816.946
824.768
823.367
822.023
823.402
811.425
823.162
817.872
811.009
810.128
808.109
806.333
809.213
817.073
812.142
814.929
818.729
819.907
821.869
826.276
822.142
814.423
823.650
822.716
826.210
833.026
835.025
835.896
830.081
830.617
832.142
836.511
836.895
844.947
839.106
845.775
838.195
849.258
852.322
849.777
848.662
847.472
859.933
857.516
856.792
867.274
854.692
865.129
858.106
861.236
874.401
876.041
866.830
878.412
870.621
871.054
884.173
874.833
880.417
884.638
890.154
885.703
886.156
885.118
888.837
890.738
892.894
891.714
899.724
898.936
895.747
896.040
906.939
906.220
910.684
910.993
905.171
906.106
907.117
916.871
914.399
917.633
909.221
914.829
916.359
928.938
916.233
922.397
927.055
930.992
926.431
931.144
930.075
941.539
940.713
941.547
941.424
937.241
943.237
947.086
950.162
949.655
949.049
950.246
954.927
955.757
952.905
959.462
955.253
966.767
954.479
968.605
962.343
965.085
970.974
966.641
963.335
964.086
967.897
975.738
981.990
983.825
985.452
980.802
980.500
990.045
989.799
989.748
980.730
998.006
998.940
996.388
996.762
999.761
992.750
995.769
995.539
1001.939
1000.526
1005.360
1013.977
1007.112
1009.230
1018.939
1008.330
1010.495
1013.322
1022.432
1023.183
1017.459
1025.410
1027.542
1031.626
1027.611
1031.373
1027.858
1031.847
1034.442
1028.210
1043.482
1033.760
1046.339
1046.944
1047.547
1038.813
1046.176
1040.868
1050.313
1045.662
1056.438
1056.556
1052.631
1050.447
1057.635
1065.290
1068.571
1059.582
1056.717
1063.430
1074.717
1062.866
1070.691
1074.691
1079.622
1080.678
1083.811
1071.962
1072.452
1084.281
1082.454
1079.075
1083.184
1080.972
1086.646
1099.100
1090.990
1097.578
1088.885
1092.497
1096.452
1104.042
1104.467
1108.375
1103.695
1114.046
1107.028
1111.976
1107.413
1114.289
1119.407
1122.858
1113.770
1125.793
1123.517
1119.785
1125.868
1117.528
1121.248
1118.372
1126.254
1125.577
1112.760
1115.261
1120.799
1114.564
1111.393
1121.962
1110.530
1106.684
1113.123
1107.836
1117.673
1109.787
1111.346
1104.426
1104.557
1113.647
1104.237
1113.919
1111.800
1101.271
1102.156
1107.061
1103.477
1096.594
1098.414
1096.007
1103.100
1105.730
1107.209
1095.717
1106.341
1102.249
1099.267
1106.314
1089.892
1091.652
1091.098
1093.273
1088.512
1099.303
1095.855
1101.440
1089.571
1100.008
1094.465
1087.850
1084.244
1093.888
1083.753
1085.565
1083.701
1090.487
1093.584
1088.437
1092.821
1086.638
1091.849
1085.161
1089.728
1080.010
1080.328
1086.785
1074.796
1088.179
1082.711
1075.134
1078.666
1072.305
1071.576
1069.599
1080.888
1073.857
1068.696
1067.347
1080.638
1077.099
1078.543
1077.642
1074.718
1067.517
1077.773
1064.138
1066.985
1062.040
1060.329
1068.804
1066.900
1063.001
1072.587
1066.227
1056.785
1062.068
1068.043
1059.836
1061.944
1056.201
1062.823
1066.620
1066.128
1066.141
1053.327
1056.795
1061.163
1052.579
1051.271
1055.214
1061.640
1061.646
1051.563
1057.119
1051.081
1048.987
1047.511
1048.900
1046.513
1047.351
1049.385
1056.156
1040.034
1051.627
1050.362
1051.121
1040.949
1045.823
1037.176
1042.166
1043.470
1043.768
1034.283
1037.256
1038.699
1042.205
1032.007
1035.354
1030.267
1041.673
1042.105
1035.009
1038.169
1039.322
1033.651
1032.166
1026.035
1029.433
1024.979
1026.194
1038.489
1023.602
1031.548
1029.794
1033.169
1034.597
1021.241
1030.885
1023.824
1020.255
1024.889
1019.457
1024.376
1023.292
1030.268
1017.465
1028.385
1013.213
1018.361
1017.161
1012.514
1014.845
1014.080
1011.052
1024.301
1010.949
1012.034
1010.105
1015.487
1019.180
1012.352
1011.393
1017.363
1017.835
1017.700
1009.961
1002.193
1001.432
1013.534
1008.970
1008.892
1011.488
1002.327
1009.834
1010.498
1007.430
999.350
996.729
1007.316
998.649
1005.217
1000.318
990.543
993.642
995.568
988.674
997.583
989.282
997.739
989.385
981.917
989.195
978.223
983.239
982.543
985.665
980.913
988.336
972.759
981.112
971.636
979.149
971.215
969.961
973.550
968.796
974.979
966.392
960.132
964.756
959.345
960.309
964.070
955.870
962.571
953.377
962.760
961.044
962.873
954.310
958.853
957.566
958.304
952.829
948.777
951.227
946.760
945.563
951.572
946.361
944.195
945.252
938.447
935.034
940.834
935.566
936.980
941.984
932.463
937.628
939.550
926.220
937.338
920.962
932.082
927.487
919.126
924.552
929.013
916.185
917.728
917.760
924.884
916.100
918.076
916.478
920.257
918.226
918.236
908.131
907.368
902.419
915.091
906.396
904.793
906.595
900.560
909.403
907.520
902.751
898.145
891.693
894.132
899.449
887.725
896.731
895.518
898.385
895.379
889.082
888.837
888.303
877.429
891.382
875.557
885.856
873.362
873.965
878.098
869.439
867.957
881.822
876.752
876.766
878.328
867.421
871.245
866.730
859.803
858.630
872.515
869.941
856.610
865.249
861.020
854.205
854.572
863.101
862.176
851.238
852.266
851.058
849.320
854.271
844.858
843.189
850.746
838.905
846.499
851.034
837.089
833.551
843.495
832.217
835.105
844.308
842.267
840.736
828.179
828.044
836.968
828.806
832.479
831.221
823.597
823.034
819.820
826.324
828.800
821.999
821.484
812.306
813.849
819.475
810.698
808.739
820.431
806.744
814.750
810.090
803.945
809.276
809.674
805.376
810.382
806.348
808.749
808.377
802.918
801.437
791.119
791.889
796.954
798.448
790.474
789.433
794.410
797.200
781.249
787.218
784.537
785.030
779.165
789.092
789.046
785.459
773.821
74.498
65.026
58.006
67.269
69.236
80.941
60.132
58.513
79.084
79.940
77.982
60.561
72.309
73.159
73.121
66.041
71.545
56.728
56.231
67.840
74.857
67.690
52.925
79.103
66.528
64.596
69.305
80.976
72.450
69.525
66.295
54.952
71.879
66.508
67.038
73.433
73.136
53.831
61.125
70.014
79.193
55.036
66.046
55.404
56.084
75.204
252.674
221.100
245.246
234.791
199.385
196.290
215.931
256.585
221.160
222.200
190.638
259.656
234.853
225.059
239.167
248.305
181.779
174.681
222.378
211.867
216.921
252.179
258.522
259.613
179.869
180.910
194.156
175.079
250.590
214.007
170.742
219.901
255.261
205.299
206.943
215.800
204.695
213.857
174.543
173.751
214.054
182.272
253.290
182.466
215.465
210.326
179.188
225.565
224.589
195.102
188.475
244.646
218.507
238.839
103.362
108.134
124.123
102.055
137.112
130.814
131.743
132.155
114.201
123.353
98.348
125.134
130.536
127.351
108.748
122.561
107.264
121.806
134.559
144.829
106.687
99.067
142.495
121.714
143.448
135.450
146.478
142.769
97.780
116.579
117.602
117.903
132.519
142.312
133.989
118.751
94.995
133.428
141.432
103.364
131.354
113.177
126.502
137.796
127.873
137.797
133.274
106.578
124.493
131.746
101.525
137.052
139.053
123.037
109.911
136.079
119.540
138.819
99.755
107.338
133.898
108.663
111.797
97.114
117.631
128.852
117.561
128.467
113.799
108.924
101.910
122.142
141.331
131.503
97.545
113.708
130.824
146.528
109.815
139.040
136.953
124.815
117.794
113.430
100.475
104.249
126.678
136.095
138.481
125.326
99.743
113.757
130.201
100.114
101.545
95.400
122.307
120.389
95.679
130.628
128.440
133.242
114.678
138.301
113.982
120.684
138.821
126.278
131.608
136.806
129.348
126.423
131.854
95.926
102.828
139.366
144.465
134.768
96.104
145.619
138.858
113.362
125.436
134.393
125.011
129.378
98.182
105.405
109.263
126.000
112.722
121.396
144.183
100.120
137.318
131.337
98.911
103.769
139.341
121.546
143.319
134.472
115.828
140.233
130.377
104.653
136.086
97.277
146.260
140.537
134.431
140.028
116.467
146.400
144.959
120.673
117.202
107.115
131.870
116.388
97.829
122.026
108.047
97.441
99.051
146.029
119.929
115.580
144.644
118.579
100.113
132.740
97.672
117.118
133.275
137.152
100.939
135.441
143.068
126.332
104.471
107.695
140.626
117.876
108.163
129.048
99.138
111.887
129.833
104.162
113.920
100.186
144.800
103.895
96.175
104.620
121.444
144.871
138.758
132.887
130.473
110.164
98.558
95.535
100.849
108.939
141.016
128.355
137.610
138.908
120.639
114.878
119.840
143.213
95.842
104.098
138.304
144.721
97.776
121.565
135.081
132.347
102.450
110.349
142.420
128.344
98.885
100.708
128.583
145.381
110.535
143.341
110.095
144.253
141.011
125.141
95.020
105.090
143.638
103.287
133.519
121.606
106.497
140.805
145.660
111.916
104.893
138.197
105.743
145.313
121.650
113.824
145.619
99.990
134.527
128.785
128.703
139.557
146.662
96.515
133.488
143.985
112.450
117.251
135.766
114.312
142.531
120.805
133.096
125.796
121.289
111.862
100.310
113.358
135.232
132.260
96.383
94.897
104.214
96.811
120.517
111.098
108.080
101.240
120.233
103.213
134.737
141.124
130.159
100.791
124.667
114.495
111.927
117.119
140.752
106.583
121.133
130.494
108.537
124.623
102.238
134.339
138.403
140.814
103.434
108.054
137.114
122.723
136.376
95.943
144.931
121.471
129.789
130.004
108.107
128.461
105.208
146.411
144.978
139.282
146.348
129.904
121.541
113.593
119.484
112.976
131.211
109.747
143.990
144.599
113.201
110.855
97.857
121.494
135.282
97.552
124.178
146.679
134.716
116.145
126.862
144.891
122.489
143.352
145.491
145.415
112.437
95.179
141.070
130.872
100.419
135.243
134.576
105.308
101.153
134.120
138.282
97.331
99.129
116.088
123.348
117.667
121.886
128.209
106.499
123.435
122.626
121.197
134.576
122.066
140.320
100.305
126.367
133.050
137.611
128.018
96.683
124.980
136.621
110.289
118.610
126.260
122.421
138.938
94.899
126.047
108.923
127.450
94.845
96.890
116.872
112.255
133.531
138.116
112.464
106.113
96.029
138.892
108.562
139.427
105.506
106.444
146.365
145.265
99.023
123.996
131.557
126.087
142.831
129.010
145.144
104.327
121.832
142.027
127.701
119.231
97.827
137.379
136.972
107.608
126.610
100.940
116.650
112.821
95.685
143.097
142.183
116.875
95.953
128.788
129.730
144.199
114.156
144.727
120.252
117.784
133.470
97.259
106.393
122.785
138.480
111.889
107.437
137.920
102.374
112.085
122.711
134.280
118.833
141.928
143.257
98.094
116.753
137.857
128.738
145.150
97.145
120.096
142.586
129.164
128.137
143.616
143.106
122.913
123.116
97.989
105.062
134.679
119.971
108.127
100.151
106.364
143.119
139.193
96.528
96.476
145.835
128.115
98.250
113.560
109.820
140.740
108.388
136.388
96.104
137.081
107.099
130.338
129.424
120.623
105.598
96.559
119.667
103.676
126.069
96.155
109.982
117.154
126.108
146.110
136.223
137.106
135.502
146.154
125.953
103.253
104.424
119.449
138.762
127.911
107.659
143.807
112.255
100.520
96.308
96.644
96.541
121.126
143.678
130.466
114.061
116.936
106.805
145.932
138.878
104.355
117.497
146.663
127.725
116.954
104.372
102.856
137.466
112.718
107.275
130.814
137.544
128.139
114.262
128.245
144.933
144.281
132.760
127.010
108.845
140.476
129.597
109.815
100.139
145.074
119.106
116.094
98.448
143.016
115.821
95.793
114.929
110.881
138.393
101.246
144.421
104.191
106.391
116.669
98.321
142.491
119.821
98.639
118.755
138.177
126.001
146.210
120.836
145.558
120.558
102.165
103.065
132.965
124.023
141.263
128.197
110.126
98.490
98.615
138.401
142.186
128.698
117.514
98.736
107.873
126.134
142.994
136.905
130.849
130.277
96.211
115.032
97.182
146.010
122.932
139.356
135.106
124.337
128.217
111.817
118.195
