697.040
703.949
700.919
697.726
693.656
702.977
707.513
703.773
707.456
711.768
710.979
718.403
707.413
719.271
723.668
721.229
718.968
724.315
731.782
725.947
728.023
731.357
726.608
728.511
738.215
739.455
738.033
743.697
740.568
744.927
744.287
747.049
748.579
741.975
747.045
752.322
759.210
756.753
754.449
762.058
758.835
765.252
761.519
764.666
758.783
760.869
765.687
769.525
772.374
779.541
776.789
780.400
783.207
787.470
779.107
775.678
779.278
787.928
788.341
785.511
797.238
800.187
790.060
792.442
791.382
802.231
798.611
808.615
805.508
804.290
815.071
810.535
813.180
807.664
807.486
823.424
815.661
813.435
826.062
824.854
831.041
821.914
825.350
824.098
829.081
824.008
826.470
835.501
841.460
839.143
836.593
835.373
837.257
849.572
840.248
841.752
852.148
855.793
859.388
859.655
852.384
854.409
853.403
867.843
855.664
861.812
859.733
874.335
863.263
871.820
871.748
875.632
877.196
879.363
873.716
885.536
883.128
877.251
881.065
891.026
890.446
890.444
886.022
888.369
889.137
901.636
902.897
900.007
897.546
900.857
904.953
901.704
906.390
911.077
908.411
914.831
905.602
913.709
915.477
916.675
916.035
916.647
918.916
922.200
932.420
926.736
937.130
937.250
929.580
927.270
936.727
940.014
940.559
943.771
944.344
944.229
945.126
950.075
954.765
943.760
956.128
955.786
960.098
950.293
955.236
966.145
955.425
968.869
965.293
961.107
967.982
961.853
958.251
958.534
965.508
969.220
969.662
957.265
962.258
958.238
957.118
962.573
958.485
949.039
956.925
954.852
958.925
943.129
949.686
954.697
949.265
946.473
944.660
944.803
937.586
949.196
937.363
947.289
933.721
939.567
934.543
933.956
937.475
937.401
938.308
926.673
936.390
932.552
935.717
926.028
932.572
922.710
919.966
927.344
931.164
915.835
915.069
920.508
922.602
926.356
916.769
915.199
916.515
921.636
914.130
910.792
917.891
918.950
915.278
907.594
901.319
901.848
909.065
906.014
907.810
900.772
902.470
905.410
905.682
895.559
901.162
903.952
889.525
899.814
898.876
887.509
891.551
898.564
891.529
893.239
894.246
894.910
878.891
880.359
887.375
890.513
878.479
883.124
875.334
883.504
876.751
878.398
871.451
870.018
867.252
876.159
875.326
864.996
867.469
866.396
865.891
864.673
861.442
859.880
864.050
865.157
867.257
869.814
861.522
857.102
857.503
854.386
853.234
851.642
861.862
859.013
845.223
845.247
853.036
849.616
856.889
847.325
843.422
842.594
850.712
843.097
842.703
848.722
844.281
833.945
836.877
844.696
834.062
842.566
837.846
828.283
835.291
829.768
838.091
838.234
834.578
828.625
832.203
825.838
822.773
818.602
819.088
825.813
828.994
826.999
816.297
819.629
818.074
811.591
815.352
808.741
806.428
811.865
819.661
808.492
816.711
804.549
807.461
814.043
812.160
797.928
796.567
806.668
805.898
801.711
804.777
796.637
789.957
800.280
803.509
795.690
792.160
786.095
796.503
798.176
792.548
791.855
795.802
793.067
789.482
791.666
790.747
777.885
778.740
780.239
780.123
773.645
776.613
776.245
776.753
773.846
781.551
765.540
767.459
773.129
770.586
762.366
762.570
761.030
770.723
765.249
770.216
772.007
765.296
768.097
758.257
768.496
766.020
767.380
757.418
755.433
761.644
763.345
762.275
756.743
753.221
766.588
761.815
756.012
765.948
755.843
750.435
752.041
761.022
756.743
753.827
762.914
750.272
750.965
755.748
748.116
756.741
746.223
759.243
745.259
757.523
756.562
750.253
750.330
748.932
746.710
751.729
744.947
748.502
745.281
753.430
748.243
741.950
747.154
749.241
745.549
741.922
744.540
749.715
748.350
740.069
742.303
738.572
735.313
737.613
747.192
741.301
739.170
742.613
740.826
735.366
730.254
739.794
728.082
737.330
733.088
731.246
726.900
729.532
738.037
730.899
726.518
728.982
729.027
736.003
731.334
736.262
736.510
725.547
725.846
722.148
725.684
722.270
723.640
722.340
724.564
722.638
723.056
729.996
731.120
726.953
724.645
723.833
716.228
727.091
723.229
728.498
717.245
716.810
718.896
716.244
714.078
716.092
710.789
724.183
716.857
722.069
714.848
717.758
709.853
707.425
708.504
706.969
713.158
707.049
715.239
706.010
703.193
710.002
717.220
713.207
704.227
713.376
709.658
707.250
710.292
711.263
707.573
699.083
705.445
704.888
708.365
705.779
703.085
697.510
703.561
697.825
699.319
705.965
698.122
703.183
698.932
702.617
700.436
690.652
699.413
697.181
691.144
688.478
702.213
696.553
702.517
696.110
695.083
698.880
687.200
697.989
699.186
696.714
692.540
698.033
695.303
682.246
694.536
695.081
685.708
688.335
680.651
685.930
682.190
681.283
683.469
687.168
690.111
686.246
676.500
677.762
686.388
685.214
683.615
679.579
679.622
673.533
682.250
673.500
684.238
670.731
678.678
684.547
670.127
681.724
680.127
674.306
668.253
668.740
672.415
670.780
667.896
671.832
664.780
665.071
664.591
662.863
655.047
654.928
659.980
663.749
653.033
649.155
651.558
657.617
654.473
648.086
648.057
640.669
640.227
642.914
635.972
636.445
637.500
638.139
640.469
630.955
628.181
630.236
631.770
631.373
632.833
630.123
632.385
631.199
632.354
626.901
631.331
629.636
620.593
613.153
615.101
614.559
609.588
612.889
615.095
610.769
609.092
606.235
607.692
603.545
614.436
607.327
604.800
599.421
596.761
599.883
607.263
596.657
597.332
595.898
602.411
592.377
592.765
597.070
595.972
590.179
587.840
592.124
589.332
586.928
583.673
574.597
581.080
576.987
581.292
582.765
567.457
566.210
565.033
572.629
576.873
573.042
570.106
571.431
569.419
564.130
560.089
568.248
564.900
565.021
557.112
557.929
552.572
562.213
548.370
548.383
544.733
553.643
552.387
548.187
546.142
541.352
541.817
543.127
533.358
537.130
538.476
537.900
531.517
537.802
537.977
532.490
524.684
526.389
521.659
523.824
531.154
520.420
522.762
522.308
524.671
514.481
520.794
514.552
517.384
507.572
518.651
508.794
510.289
517.967
510.387
509.606
510.336
500.989
510.768
499.594
494.374
500.817
504.363
503.545
501.981
496.201
486.408
491.258
497.033
485.128
487.827
495.870
490.695
486.471
483.524
489.514
476.045
481.628
481.026
486.210
472.476
469.489
480.774
475.853
477.904
464.128
474.890
472.152
470.301
472.795
464.033
456.707
454.934
458.027
453.708
457.320
450.556
448.759
459.713
460.205
448.670
446.936
443.159
442.141
453.205
442.835
445.454
444.640
439.344
442.396
433.299
443.981
443.309
439.494
439.147
431.421
441.211
431.307
428.929
428.485
429.183
443.152
431.309
432.563
437.174
440.711
446.567
444.479
450.172
454.419
454.356
447.328
446.971
457.692
460.786
451.003
453.440
457.306
458.835
464.048
459.174
473.077
460.533
476.161
466.201
477.936
473.630
470.981
475.011
480.748
484.496
482.319
478.639
488.634
481.205
481.890
493.551
485.118
483.701
495.707
491.782
497.813
491.197
490.840
495.240
491.704
494.343
497.616
509.680
504.140
502.722
509.654
512.684
517.010
513.674
512.221
518.694
518.082
520.747
519.597
518.134
525.301
518.055
530.790
518.449
527.283
523.123
534.423
528.204
537.001
537.402
528.715
532.446
540.588
538.199
547.133
548.995
544.557
545.490
544.849
539.312
544.339
547.524
556.413
550.451
555.184
563.407
556.912
554.761
564.479
567.791
570.279
558.945
561.983
569.623
560.523
566.866
575.245
565.835
568.964
578.344
583.879
573.959
576.630
577.146
574.586
575.551
579.372
589.614
591.373
592.831
585.395
586.507
599.060
592.120
597.386
591.320
606.238
594.708
596.550
609.388
608.455
605.732
600.450
605.815
606.169
613.151
613.966
618.708
617.610
623.721
622.078
627.123
622.391
626.850
623.551
626.928
631.153
629.066
636.336
624.840
628.688
627.027
627.214
636.350
640.667
640.663
643.445
635.864
635.928
644.382
640.954
643.076
653.943
657.278
653.693
645.924
654.506
660.728
660.863
662.846
665.835
660.602
663.085
669.407
665.380
658.777
663.458
664.252
670.454
665.157
670.903
667.188
673.262
683.910
685.820
673.683
679.586
680.631
685.338
687.098
684.636
682.478
685.071
698.994
695.153
697.608
700.335
699.228
693.004
700.117
698.312
705.310
706.675
700.145
699.606
707.460
707.827
714.880
709.472
707.675
691.103
695.309
691.090
688.145
684.091
684.500
674.400
684.475
679.837
674.492
667.583
663.466
665.042
666.152
663.138
660.842
653.353
649.835
643.349
650.076
648.175
637.126
643.540
631.502
626.426
624.105
623.223
617.936
617.369
613.798
621.857
618.171
603.401
600.194
597.013
600.109
604.967
596.673
589.392
587.874
586.890
584.108
585.520
585.183
581.373
568.597
569.809
562.592
560.664
567.346
554.662
562.945
548.384
558.878
556.161
545.540
549.231
536.125
537.634
543.558
540.984
535.561
533.904
522.767
515.202
524.446
515.460
521.474
512.539
509.929
506.505
502.574
493.178
498.364
500.957
497.442
494.952
487.728
480.885
482.656
480.432
476.557
473.960
473.931
461.432
462.808
459.725
457.234
454.934
459.261
455.817
449.201
442.506
437.045
437.063
438.475
436.177
427.664
421.370
421.723
419.490
420.676
424.122
411.034
411.978
404.519
412.990
406.215
398.029
398.843
390.328
397.189
387.740
382.566
391.409
375.739
382.763
374.345
368.234
363.509
374.378
366.912
364.412
353.768
350.099
359.498
355.737
352.044
338.551
338.267
347.541
340.004
335.068
324.356
324.633
319.207
323.370
323.770
320.805
318.261
306.565
317.398
306.543
301.242
305.056
301.651
303.589
298.345
295.602
281.009
279.714
286.060
280.642
273.370
269.793
269.333
270.609
269.303
263.582
262.942
255.503
258.314
251.081
254.974
249.208
242.124
236.834
238.502
243.482
233.856
232.268
234.111
218.305
222.953
223.428
209.720
215.148
215.056
215.134
206.368
210.302
194.472
196.716
194.086
191.600
192.035
180.741
189.070
186.622
170.614
171.333
166.266
164.450
174.027
165.861
167.128
163.989
153.903
155.497
152.462
162.572
161.963
156.537
148.405
148.659
155.299
155.878
159.849
156.114
149.269
151.984
147.633
150.064
150.550
157.271
153.546
150.546
153.014
150.008
143.978
152.637
141.151
149.607
138.667
149.479
141.523
143.228
137.435
151.188
139.291
144.865
143.652
139.387
141.443
141.603
145.942
134.009
142.834
456.800
474.684
434.572
423.507
420.540
429.530
422.460
441.316
443.665
435.925
428.704
443.816
415.581
438.114
422.730
421.766
431.478
402.910
422.638
414.545
396.812
432.044
438.719
393.787
406.207
392.658
437.919
386.933
385.347
411.645
431.706
391.436
409.459
376.879
405.338
384.611
404.717
382.365
371.130
419.227
405.359
398.988
410.298
374.647
389.231
395.476
360.579
371.467
380.921
393.133
402.631
356.670
396.524
396.469
387.260
353.580
358.320
354.530
370.732
378.835
382.471
384.644
381.896
367.578
375.298
335.291
373.243
357.627
349.416
373.266
335.936
357.399
332.858
336.765
339.463
323.653
333.976
328.237
320.487
323.071
329.026
325.015
335.400
322.763
336.685
323.256
336.405
296.484
296.470
344.859
306.630
318.789
320.295
321.376
303.906
323.113
333.559
326.493
280.826
306.725
279.840
298.753
299.677
284.813
299.673
310.833
287.923
303.348
295.914
276.117
291.251
310.413
277.997
275.870
301.187
302.518
295.495
266.367
273.963
275.054
281.683
275.145
259.223
293.611
247.353
246.216
285.891
256.861
237.523
258.620
256.168
273.233
267.103
252.634
260.871
238.693
237.267
248.270
259.019
219.493
241.731
236.768
221.156
248.358
243.916
227.940
245.814
247.900
234.140
233.335
204.116
239.317
203.788
237.345
198.538
203.081
232.146
226.814
200.088
195.225
216.423
221.948
223.790
213.137
233.800
218.731
232.863
222.602
226.590
221.607
208.933
203.927
223.301
197.976
195.406
240.516
199.885
219.598
221.404
232.024
193.543
239.595
215.441
191.198
204.188
240.219
207.585
220.913
224.216
237.787
235.610
240.596
228.023
207.428
240.004
193.740
197.581
227.206
234.999
192.206
240.755
205.028
228.624
214.034
190.528
215.744
192.835
241.967
232.688
194.890
228.094
225.265
213.649
205.393
220.273
221.288
190.476
238.828
220.394
222.857
201.670
234.956
204.276
223.076
238.612
195.438
241.281
227.652
231.126
229.981
207.295
238.767
226.757
240.518
224.769
240.285
210.980
209.965
196.157
204.131
208.250
234.585
193.610
209.223
232.017
205.833
213.807
193.034
213.511
221.638
206.172
217.787
238.731
222.018
233.464
208.909
193.508
229.444
219.981
229.557
211.699
214.286
196.704
205.884
202.414
229.766
205.688
227.819
217.484
234.171
203.259
221.961
217.962
191.820
227.295
197.918
240.143
196.930
222.976
223.699
226.868
227.043
192.170
194.467
197.292
202.872
196.804
220.813
213.261
205.528
215.382
190.244
194.713
198.714
239.731
201.874
228.049
214.771
209.970
200.896
208.438
234.361
192.498
227.055
196.049
214.378
230.678
199.464
236.227
240.493
234.220
236.713
219.719
233.471
240.077
201.013
200.753
238.685
222.779
224.135
221.463
209.086
220.686
227.495
217.780
225.150
202.934
194.061
190.624
221.189
235.688
226.638
239.176
206.378
238.628
195.555
214.118
194.010
200.037
207.581
208.785
219.161
211.352
238.420
215.843
200.465
207.756
223.570
197.605
198.623
203.077
239.368
237.855
208.273
235.851
216.818
193.652
207.685
142.409
120.233
122.836
107.953
120.092
139.412
135.337
127.726
133.188
144.605
127.048
143.154
146.714
132.382
126.125
111.461
115.980
138.277
140.221
119.489
128.394
120.223
114.894
106.908
145.725
137.646
111.771
140.879
136.528
96.521
140.941
127.375
102.060
118.916
103.538
99.200
124.652
120.271
99.062
96.202
116.987
131.711
124.233
123.665
141.321
121.761
103.764
124.822
115.644
124.278
138.752
129.041
126.269
129.652
127.165
131.479
125.212
117.347
135.571
116.381
110.441
111.527
125.843
106.192
119.503
115.207
115.832
113.561
110.726
116.817
115.429
139.276
120.428
97.708
102.628
115.695
125.479
125.634
115.450
108.306
116.796
123.132
95.395
116.431
109.500
115.102
110.276
117.102
137.448
134.594
120.168
99.314
143.759
120.262
143.873
99.612
96.443
136.338
107.470
112.432
116.102
127.100
99.774
138.030
113.473
107.037
130.376
143.211
129.165
105.071
143.724
137.057
131.677
126.452
136.911
137.776
130.693
107.222
112.822
112.420
143.835
103.909
108.234
143.502
117.541
119.233
132.637
139.481
112.252
130.458
107.684
120.398
115.423
98.414
108.459
141.101
102.558
102.104
98.901
103.077
140.913
98.599
134.539
107.598
137.979
137.300
121.429
115.382
124.671
96.690
123.509
130.620
97.296
121.169
111.162
135.787
130.393
134.890
125.715
139.165
116.727
101.498
108.183
118.785
123.486
132.547
120.202
141.968
124.641
144.504
111.558
143.955
121.167
132.060
112.238
137.212
109.038
111.112
119.729
130.276
98.965
145.817
113.230
125.584
134.980
98.030
123.200
99.561
138.514
110.802
123.512
112.254
115.698
118.373
125.612
119.925
113.897
111.033
104.852
99.470
110.011
98.432
116.712
110.359
134.293
98.912
132.181
144.342
113.468
135.492
132.729
113.376
124.847
146.123
115.708
130.491
104.304
99.239
119.028
139.624
94.853
142.610
120.058
96.518
145.527
139.868
102.837
106.215
122.876
101.093
103.189
113.688
124.170
138.716
128.190
104.627
97.290
96.086
137.741
119.181
98.841
126.898
141.325
112.780
112.466
142.997
140.813
97.224
137.203
122.485
105.753
101.675
106.018
132.122
96.293
116.304
145.795
127.976
137.028
128.646
115.637
118.853
123.301
144.006
122.775
143.633
105.204
143.706
116.948
141.018
114.658
136.503
136.953
123.692
128.621
109.299
134.705
127.939
145.597
133.800
111.011
121.156
118.195
103.961
110.596
143.731
144.690
95.512
135.830
108.285
106.362
108.381
120.604
118.272
122.211
136.602
134.873
138.646
146.154
136.658
98.214
97.824
123.617
144.698
117.676
99.663
101.468
103.902
139.101
95.704
140.815
102.231
142.839
135.299
111.868
117.108
120.266
110.830
126.780
125.891
138.082
110.063
103.967
141.246
114.053
124.478
133.832
128.473
117.112
141.708
101.289
140.177
137.900
137.405
119.909
140.332
143.285
121.333
140.904
118.065
102.487
104.347
143.590
124.840
133.917
128.737
131.934
99.519
129.227
96.185
134.838
97.988
144.300
101.574
112.657
101.422
110.660
128.540
104.408
108.713
112.120
142.963
97.900
97.871
102.020
140.174
106.748
136.736
112.504
115.743
143.839
133.983
120.087
143.247
125.302
140.592
121.802
144.108
108.324
138.332
120.977
135.778
130.041
104.458
97.406
102.332
95.369
124.427
127.556
132.432
141.471
96.497
123.386
142.122
95.579
97.747
143.045
99.303
132.182
128.272
139.315
121.095
102.050
145.585
108.527
107.349
109.720
106.841
131.164
128.094
128.768
134.641
113.680
139.166
118.045
118.329
121.031
103.533
128.656
134.054
125.039
106.833
104.991
145.468
120.009
115.938
122.230
120.358
123.800
124.830
