407.242
403.184
396.942
408.610
405.203
397.772
400.392
409.719
408.684
404.390
406.827
403.454
417.996
410.811
411.925
413.777
419.607
406.748
421.758
409.882
423.659
422.279
424.103
412.161
420.463
426.089
427.766
426.390
429.877
425.467
422.497
418.753
429.202
420.669
426.121
425.409
429.221
427.334
426.842
437.933
423.335
430.633
425.387
431.935
427.625
433.288
442.183
443.398
432.686
430.128
436.342
436.763
437.329
435.166
436.375
441.523
443.657
449.919
447.374
446.504
448.462
453.112
444.441
452.487
446.939
451.449
456.183
449.449
451.036
456.634
445.982
458.863
451.389
451.851
451.431
451.126
457.894
462.375
466.249
457.008
456.476
465.456
459.409
455.768
461.554
459.079
461.362
468.059
461.693
464.394
465.780
473.395
469.221
470.826
473.690
478.666
472.394
477.009
472.527
471.303
474.863
474.913
484.451
483.545
478.468
478.642
482.066
477.866
473.398
488.205
488.004
479.507
486.471
484.531
489.264
488.348
479.758
492.590
495.315
495.534
497.407
484.643
483.292
488.233
494.552
493.453
493.761
499.571
488.211
499.489
498.993
502.716
497.484
500.441
500.195
498.693
498.743
508.957
505.081
505.108
509.901
505.525
506.627
511.262
511.884
506.698
511.334
509.927
510.351
511.593
511.747
509.310
517.295
527.953
527.876
522.617
535.346
531.119
540.388
540.033
543.513
532.480
535.039
541.648
554.471
544.854
550.086
552.405
553.631
555.383
556.840
561.394
561.236
571.333
574.972
575.675
574.769
580.671
586.077
576.197
575.704
586.238
595.162
598.005
590.172
591.195
600.583
596.367
600.734
596.290
608.725
615.623
616.127
616.271
618.771
610.446
628.062
629.057
624.373
625.312
624.300
632.045
626.213
631.968
638.677
645.613
638.728
649.086
641.915
651.392
659.768
646.631
656.090
651.694
657.639
667.173
661.409
672.613
667.839
673.797
668.961
672.617
681.435
689.055
680.699
693.312
696.431
683.472
687.158
697.971
690.311
695.305
699.715
710.466
711.708
705.213
708.546
719.122
709.452
713.742
719.338
720.265
724.430
721.176
733.435
733.739
733.307
741.509
741.803
745.073
748.773
748.489
745.586
753.481
757.585
753.835
764.152
762.817
766.185
761.162
765.213
763.299
771.080
765.599
771.803
783.793
782.154
785.629
790.525
783.854
788.098
796.920
799.586
798.378
793.352
799.258
800.305
805.739
799.752
808.515
818.168
814.707
816.710
811.935
822.742
820.693
828.521
833.688
832.272
832.773
832.562
840.955
840.864
839.197
839.084
848.588
842.343
847.104
845.754
858.462
854.347
865.292
865.702
869.288
870.425
875.576
867.783
875.789
881.520
874.905
874.632
888.965
877.630
881.137
895.607
888.955
889.599
901.596
903.910
896.087
902.855
913.679
902.437
902.963
916.571
912.709
917.299
915.496
924.996
925.916
932.787
922.219
931.904
929.868
940.044
932.282
940.206
938.328
943.890
939.861
955.899
944.549
961.775
948.327
964.363
960.837
955.704
964.400
967.211
960.958
971.213
968.856
957.458
967.528
955.290
964.503
956.446
954.498
959.238
944.268
953.178
942.880
950.740
938.429
946.108
947.187
943.106
939.525
938.921
943.036
942.826
929.539
928.007
927.995
927.926
924.591
921.620
928.783
921.561
923.984
919.304
920.059
921.818
917.120
912.979
920.932
905.285
914.002
910.516
902.623
900.215
900.252
896.465
909.136
899.972
893.252
895.988
891.069
888.795
898.932
898.149
893.762
882.612
892.888
886.316
878.460
881.990
873.746
877.410
879.327
884.581
872.996
877.896
864.516
869.462
876.724
870.785
863.248
862.413
856.787
856.205
866.421
863.058
855.416
851.211
858.914
849.736
850.668
856.096
846.450
843.409
847.321
837.338
838.816
842.553
845.846
838.793
842.460
835.621
837.946
831.750
825.776
824.779
830.804
831.921
822.678
825.212
820.486
823.718
814.355
823.549
816.296
819.570
813.320
806.601
807.912
814.867
809.712
802.746
807.838
796.776
808.544
798.774
803.955
790.239
799.604
792.388
795.061
791.778
793.553
793.918
793.769
785.562
787.823
780.401
773.801
778.973
771.708
778.591
781.301
777.614
780.498
770.630
776.677
762.060
761.881
768.117
761.293
769.467
759.843
753.537
755.617
762.894
747.559
759.748
747.181
744.001
756.682
753.770
743.000
748.547
747.785
740.790
733.006
745.991
745.493
741.400
739.103
737.617
738.156
728.755
729.270
732.055
723.784
721.515
719.223
724.045
725.163
715.712
711.419
721.950
710.080
720.408
715.518
717.567
700.523
708.813
699.812
700.806
697.882
707.337
705.871
693.298
701.473
695.587
698.880
691.422
687.730
693.726
690.679
678.442
677.997
684.721
686.926
684.670
677.204
679.202
670.453
677.337
674.473
681.681
676.148
678.023
684.289
674.757
678.589
675.160
689.095
683.489
690.028
687.342
682.311
692.509
681.039
686.532
684.446
689.915
685.569
692.335
691.645
686.742
699.005
697.351
700.488
696.346
694.003
703.831
692.067
702.735
707.191
699.609
695.727
703.669
709.205
699.986
710.516
710.682
700.955
700.502
702.811
703.601
708.630
706.711
716.400
718.679
715.920
706.297
719.130
720.804
714.265
715.757
717.505
723.525
712.666
716.127
724.581
720.935
717.510
724.597
721.624
730.980
730.622
718.936
732.000
732.806
736.601
726.484
729.559
731.008
734.356
735.645
727.257
739.026
732.012
741.566
739.872
732.912
738.372
733.546
743.903
748.465
740.431
741.764
735.609
745.848
741.994
753.015
752.358
745.298
751.229
756.696
757.269
751.693
755.953
760.194
755.140
756.512
758.271
754.694
759.600
757.313
750.820
751.297
764.502
765.994
762.201
757.414
756.890
766.912
760.272
760.915
763.696
766.958
774.659
776.017
763.323
767.461
764.261
772.931
768.700
777.371
773.012
775.070
775.374
777.213
769.560
781.234
785.507
771.985
783.227
784.039
787.477
788.745
782.992
785.821
777.973
781.909
781.065
793.819
782.483
791.595
788.631
785.308
798.518
797.306
795.018
801.464
789.300
801.864
804.095
792.078
797.134
803.757
795.949
800.472
808.333
801.592
806.185
798.967
806.600
811.639
809.511
808.636
811.455
807.477
806.321
810.090
812.401
805.767
820.028
806.382
822.810
816.838
821.312
811.110
810.489
822.279
820.256
820.096
829.230
815.756
816.627
824.755
819.463
828.232
823.951
821.867
829.201
830.494
834.062
826.908
832.214
834.369
835.558
834.827
830.486
839.176
829.313
844.380
833.663
832.084
835.422
834.028
845.254
840.707
840.165
841.975
838.646
848.620
834.166
848.972
849.645
849.475
842.012
846.359
851.869
838.680
849.420
839.382
851.854
848.552
842.249
853.798
851.326
852.357
853.646
847.561
855.513
848.892
849.190
848.767
847.654
845.906
854.692
851.325
845.342
850.746
855.639
857.862
861.858
859.351
857.939
862.492
859.988
858.003
863.927
863.363
858.466
850.488
865.608
851.767
856.849
858.506
860.835
855.934
862.099
854.779
862.962
862.563
868.200
868.071
858.905
869.401
865.448
871.043
869.389
865.899
865.324
859.079
870.326
865.449
872.600
868.818
870.456
867.639
866.453
873.732
869.584
879.021
863.651
878.309
874.694
880.416
880.009
876.278
866.900
879.139
867.083
874.817
874.733
869.061
877.148
874.571
876.313
875.228
871.514
880.623
872.444
885.258
879.482
881.732
873.975
877.163
875.309
875.499
885.302
876.505
881.746
887.927
882.881
885.203
877.552
885.116
885.616
886.560
886.128
894.209
885.738
885.824
881.143
897.199
882.346
889.471
897.776
887.345
886.352
895.407
894.162
885.921
891.795
898.382
886.940
889.542
894.257
890.652
889.376
899.478
903.747
904.055
898.801
898.530
901.958
897.378
900.762
892.314
896.541
903.260
905.190
903.685
907.486
909.241
906.940
901.305
905.265
895.862
908.411
903.510
910.880
903.577
906.425
900.716
914.417
909.592
903.600
912.832
903.801
915.217
914.615
902.409
906.547
910.310
911.596
917.989
909.252
919.717
907.525
910.247
916.545
915.750
918.306
918.414
917.613
910.441
917.444
914.497
917.507
912.362
910.922
926.037
917.445
915.912
917.577
927.954
924.489
917.482
923.193
914.107
917.348
925.297
927.595
929.073
920.217
930.441
919.000
930.630
921.398
922.732
930.166
925.155
936.956
929.627
932.783
938.237
936.554
935.649
928.359
932.994
939.336
932.137
939.396
934.736
935.505
932.156
942.097
933.159
939.658
940.364
950.328
948.187
947.337
947.630
938.178
942.943
951.140
951.526
953.624
943.150
955.455
945.380
949.913
946.868
959.834
959.513
957.268
956.923
954.681
952.965
964.357
956.502
965.831
953.457
958.376
960.953
963.091
954.173
962.697
957.079
959.827
959.068
968.096
959.645
972.332
972.782
974.966
963.835
962.668
967.226
970.302
972.539
979.286
972.561
977.153
979.453
970.874
969.042
976.146
971.587
971.999
972.258
978.131
975.111
988.631
981.789
979.681
984.275
976.028
980.586
988.408
982.666
980.143
992.052
988.378
981.239
989.934
989.456
989.931
998.753
989.782
1000.404
996.607
989.852
995.679
991.953
991.690
993.038
999.756
1000.645
998.422
1004.740
1003.183
1008.872
1008.304
999.938
997.917
1005.605
998.023
1011.788
1011.142
999.789
1002.376
1011.619
1011.405
1011.029
1011.667
1014.622
1018.642
1017.575
1008.403
1011.249
1008.685
1023.101
1012.326
1016.102
1013.875
1026.029
1022.233
1012.602
1016.321
1016.979
1029.646
1029.920
1028.297
1020.665
1032.242
1031.573
1025.814
1021.233
1032.152
1024.529
1027.792
1034.438
1033.069
1029.845
1031.081
1037.977
1039.241
1030.127
1036.116
1032.096
1040.688
1030.028
1037.858
1037.867
1042.066
1042.652
1047.146
1034.364
1035.244
1040.414
1040.256
1046.204
1040.143
1039.826
1038.515
1051.051
1043.417
1053.311
1054.146
1051.829
1055.226
1057.960
1046.481
1045.994
1052.536
1056.003
1052.761
1058.637
1056.297
1053.576
1055.236
1063.436
1054.017
1065.692
1059.771
1066.834
1057.158
1068.344
1069.546
1064.723
1068.428
1065.214
1056.987
1049.896
1054.441
1050.780
1050.976
1057.406
1046.876
1056.206
1049.046
1042.261
1039.095
1048.082
1035.738
1042.504
1030.806
1041.950
1029.472
1041.174
1026.420
1030.399
1031.687
1031.473
1020.884
1020.997
1024.201
1015.677
1024.250
1012.739
1021.805
1018.418
1020.673
1017.807
1014.518
1016.734
1005.150
1005.058
1011.520
995.455
996.749
1007.826
993.602
992.910
994.998
1000.675
994.750
993.190
995.653
989.627
992.884
990.301
988.390
974.804
976.595
986.727
975.501
980.834
979.550
969.880
973.122
976.832
964.720
968.906
959.256
970.040
970.276
954.456
966.102
965.790
958.771
953.268
956.805
953.541
955.452
954.133
940.099
945.109
943.045
947.305
941.651
943.593
946.060
931.256
942.002
932.736
938.518
924.602
932.424
929.606
927.576
925.682
927.404
924.477
914.975
916.330
912.153
922.189
913.858
910.545
905.476
909.509
904.914
912.939
897.735
902.249
900.437
893.542
895.805
901.412
890.237
896.976
890.897
892.479
895.613
895.496
890.433
883.934
883.047
886.251
888.008
881.386
874.291
869.025
877.751
871.219
878.390
870.643
866.848
862.967
865.155
864.979
858.840
868.921
867.178
851.433
854.192
860.579
861.485
853.340
853.880
844.774
855.187
841.983
850.890
838.807
839.258
835.882
842.257
837.516
838.506
842.098
827.384
836.212
833.465
829.973
824.019
821.154
817.099
826.610
819.273
827.448
816.076
822.529
813.291
817.059
804.397
806.070
803.542
806.294
798.148
807.004
805.575
803.307
806.640
796.158
801.673
791.372
787.067
793.584
789.627
784.188
793.488
791.510
786.906
779.198
779.343
779.025
774.969
780.248
769.527
773.622
779.045
770.622
763.154
762.141
760.071
764.141
756.695
763.145
763.472
764.203
763.443
752.364
760.152
754.585
759.571
759.690
757.934
759.530
760.891
756.204
758.933
752.531
748.952
751.482
750.557
754.099
742.659
747.057
747.037
754.938
746.050
748.528
741.052
745.033
743.905
747.208
750.147
744.735
739.215
734.922
736.377
738.212
735.429
744.407
736.181
729.337
730.096
738.637
726.524
740.382
728.701
723.949
737.289
734.685
736.787
733.230
733.472
731.602
719.102
721.948
727.395
719.188
730.370
716.094
721.093
726.429
725.478
725.004
719.794
713.835
720.296
713.426
717.800
713.046
714.021
708.004
713.159
713.557
711.028
719.929
717.212
716.097
713.266
708.463
710.594
714.241
707.944
700.041
705.150
706.298
708.785
700.681
695.867
702.634
707.171
699.148
701.928
696.060
700.965
696.084
703.123
702.108
689.758
699.826
692.539
688.910
699.959
688.111
684.729
689.860
687.590
682.662
689.808
696.099
688.112
694.509
679.995
682.076
677.622
677.857
688.415
681.093
686.951
677.914
687.294
672.724
680.830
678.221
684.049
674.539
671.019
669.322
675.341
681.272
679.423
675.403
676.333
668.620
664.627
666.252
675.659
664.278
666.211
671.714
668.670
662.628
670.051
671.532
665.234
656.258
665.489
663.976
654.739
664.811
652.674
667.233
659.625
653.046
663.449
664.487
652.866
650.647
651.184
659.115
652.356
649.733
653.101
655.321
647.827
647.965
648.601
645.785
655.712
640.957
642.103
650.120
650.697
645.727
637.261
645.662
641.722
637.600
634.556
644.959
636.912
633.695
637.785
630.264
641.590
641.688
641.048
634.484
627.845
628.702
624.990
639.711
632.937
631.899
634.817
631.197
622.879
630.740
624.322
623.545
624.564
632.329
620.365
628.764
617.608
631.232
625.588
622.659
636.151
622.236
638.104
625.488
633.963
631.031
639.400
630.223
633.956
632.674
634.067
642.242
635.568
649.787
641.932
650.892
644.978
640.278
656.644
656.442
651.438
650.006
649.186
655.255
663.202
651.243
662.340
665.178
666.502
665.235
664.103
666.832
670.720
667.615
672.096
669.179
663.478
673.920
669.072
669.309
668.140
670.585
673.767
671.072
680.422
684.615
673.922
681.141
680.284
686.670
682.519
687.850
679.761
686.336
691.612
690.692
686.608
684.658
696.416
688.057
698.903
689.622
697.517
697.404
702.719
703.941
700.407
704.063
696.702
703.675
712.299
714.632
701.585
713.371
711.965
715.364
707.046
714.717
720.829
721.962
709.028
722.372
712.935
720.471
725.400
720.208
726.099
723.371
726.720
729.984
721.054
729.939
723.914
723.655
734.929
734.487
741.394
730.113
728.736
730.181
746.247
747.377
740.436
747.026
736.214
738.534
740.246
753.623
739.799
747.488
753.280
749.978
747.354
753.209
756.445
756.948
761.940
756.744
756.246
764.592
757.886
761.884
769.787
769.621
765.197
767.361
764.413
775.174
777.146
765.337
773.035
772.412
774.416
779.095
769.613
777.178
776.595
773.489
773.731
777.951
784.132
790.131
780.086
779.199
784.562
793.584
795.375
795.587
794.963
792.014
794.290
797.952
789.544
798.003
796.176
794.894
800.422
802.058
794.969
809.740
798.778
804.636
811.948
813.121
810.162
815.620
813.252
807.789
818.121
815.133
812.008
808.390
814.263
820.420
821.441
825.498
826.987
827.743
830.545
828.123
821.894
833.652
829.567
836.140
826.961
838.666
840.173
838.098
829.522
828.305
830.374
841.785
833.601
838.258
840.237
846.860
847.214
838.657
851.796
847.483
853.230
845.037
845.726
849.512
845.705
860.167
856.138
847.508
859.733
864.115
865.836
865.136
867.106
868.969
867.955
858.150
862.546
866.267
859.548
867.486
865.435
877.240
872.585
876.743
873.970
877.452
876.625
875.059
881.490
872.155
876.181
881.416
883.798
887.369
877.981
879.411
893.306
880.595
884.576
890.577
887.825
897.826
890.230
898.559
898.493
897.115
899.600
898.800
898.354
898.170
896.400
899.599
908.322
897.062
903.538
907.439
907.178
913.658
915.572
904.740
908.044
912.636
919.127
914.377
915.188
915.063
912.392
919.003
917.099
925.802
918.853
920.152
926.140
926.845
919.728
922.568
922.216
923.628
922.448
930.692
928.822
934.445
929.439
930.439
933.556
934.745
945.780
934.783
933.151
936.051
945.812
942.428
950.234
953.046
942.457
952.088
949.807
943.748
948.762
954.235
946.762
958.692
958.482
958.206
954.415
955.336
961.096
965.458
966.169
959.236
960.957
959.026
960.747
967.785
961.288
963.648
968.256
971.366
975.762
976.508
976.274
968.452
973.005
971.054
982.254
972.854
984.055
984.815
983.008
977.430
983.416
992.420
983.393
987.542
980.688
995.824
996.240
997.014
999.572
997.132
994.321
990.953
999.162
999.928
1000.713
997.947
998.080
996.501
1003.413
996.206
1005.941
1012.183
1006.286
1012.087
1013.334
1004.273
1012.679
1012.165
1005.409
1015.661
1011.859
1019.587
1024.208
1019.404
1012.034
1023.785
1029.378
1019.920
1027.044
1028.096
1033.362
1021.795
1023.367
1033.482
1032.928
1036.736
1024.650
1030.949
1027.186
1030.986
1028.884
1030.347
1045.814
1038.014
1047.766
1036.023
1038.124
1041.966
1050.174
1049.238
1046.671
1042.246
1054.315
1052.336
1049.547
220.087
224.872
195.198
192.439
207.519
187.841
209.947
199.862
217.132
219.796
196.306
207.750
196.727
260.593
253.791
205.972
227.908
217.527
216.442
187.559
219.449
220.069
235.437
238.353
212.074
246.575
217.141
243.748
207.482
202.403
243.251
231.605
239.820
203.797
229.876
206.770
233.294
184.458
242.284
193.595
177.237
213.305
178.278
200.510
210.031
192.041
189.960
201.266
177.422
252.931
190.879
187.220
