1015.399
1008.993
1014.099
998.323
1011.932
1012.474
1002.893
999.211
1010.738
1000.544
1004.632
997.713
993.195
992.453
990.682
1002.806
994.662
999.282
990.052
998.090
993.067
983.602
991.013
993.787
984.991
977.962
980.281
980.643
988.264
976.222
984.546
982.090
977.324
971.483
980.100
974.285
971.210
963.891
964.036
970.193
966.949
968.417
963.261
968.123
963.507
967.617
956.274
963.912
957.747
950.844
960.145
956.563
954.597
953.083
947.332
953.192
956.896
949.409
938.721
938.162
941.980
945.632
947.809
938.088
941.169
941.541
934.356
937.431
932.243
942.178
933.369
930.435
935.337
928.220
921.701
932.797
926.213
931.037
926.878
923.555
916.392
922.420
916.359
913.945
923.997
923.290
918.779
913.548
915.213
918.850
904.561
902.531
908.877
912.549
900.726
908.634
898.407
899.706
894.390
901.619
897.405
894.851
897.488
901.117
898.337
888.265
891.376
890.294
893.956
896.353
888.231
889.305
878.601
877.646
876.516
885.102
882.399
884.596
877.536
872.129
879.536
882.618
880.500
877.941
878.170
876.350
863.259
870.253
868.361
862.122
873.356
868.769
871.488
854.751
855.243
853.569
861.373
850.644
856.856
862.412
860.691
845.516
846.757
856.737
854.712
848.285
847.959
854.047
838.781
838.636
848.345
840.200
842.826
842.273
830.949
844.231
835.293
830.209
839.786
829.685
839.323
836.483
822.300
831.268
822.094
821.404
817.821
824.678
829.643
815.776
817.708
813.229
811.747
817.156
814.028
822.911
813.872
808.213
812.107
815.693
803.533
813.303
814.406
813.616
810.785
803.467
804.929
801.862
804.283
795.106
791.234
804.345
802.200
788.658
793.591
790.996
791.343
792.383
795.398
781.352
788.933
789.455
782.911
788.350
777.334
776.484
786.098
783.951
780.458
768.614
771.119
771.029
762.320
760.433
758.865
761.250
760.920
753.114
748.169
752.159
751.709
748.524
741.238
749.636
743.783
736.385
739.710
736.219
731.255
725.286
728.115
730.125
730.268
717.290
713.718
722.459
712.024
717.383
704.210
708.359
703.150
702.520
706.337
700.997
700.100
700.981
700.994
700.315
684.134
694.808
679.568
685.892
683.866
684.720
672.458
668.424
677.132
670.780
674.493
658.881
669.613
661.666
661.261
659.242
657.137
653.415
648.274
648.973
648.354
647.591
647.466
637.763
629.744
639.057
628.810
633.048
635.565
618.459
620.688
625.779
621.794
615.521
620.158
616.695
605.153
610.774
599.829
607.734
597.088
606.803
599.925
598.547
591.166
591.664
586.443
591.789
576.914
590.003
584.447
581.913
574.279
570.300
573.776
568.433
568.008
571.588
559.658
555.839
552.636
551.650
554.361
548.243
543.673
549.239
551.624
546.149
538.581
545.785
542.759
539.206
537.346
522.200
530.297
525.716
519.313
516.589
523.903
512.414
508.756
516.742
516.166
508.180
506.737
506.795
496.831
502.924
500.938
500.547
487.759
485.159
486.649
483.854
480.785
482.026
471.170
482.279
480.587
468.098
476.537
471.571
465.015
470.061
463.676
455.835
459.606
460.274
454.875
455.237
442.241
453.362
440.626
445.924
441.306
432.729
434.226
431.161
428.092
426.927
424.818
429.031
415.245
420.835
413.112
423.014
409.477
406.736
413.650
412.347
399.272
395.197
392.189
403.383
395.211
389.684
395.312
385.320
390.534
381.664
388.552
383.336
375.232
374.578
373.920
372.679
362.729
363.291
359.581
369.723
360.682
355.907
357.754
345.823
355.263
354.314
348.332
351.024
349.402
339.911
339.765
331.168
342.933
331.970
328.319
337.685
329.579
321.848
329.948
334.101
330.285
320.673
325.863
327.731
313.356
315.980
314.051
314.732
313.948
319.360
309.189
310.114
304.662
312.661
308.504
308.305
300.284
309.023
308.126
292.940
301.778
293.788
291.680
295.951
289.458
288.621
287.624
286.944
290.718
280.637
287.142
291.484
284.022
282.447
282.403
281.018
279.176
284.105
281.654
271.884
276.966
263.282
272.117
270.127
270.119
265.038
271.328
265.818
266.049
264.230
251.486
263.835
258.579
247.872
246.988
246.565
252.134
243.415
254.780
248.872
253.055
247.671
247.275
244.365
237.688
242.671
232.954
233.066
229.629
238.692
228.234
230.948
227.112
222.925
224.556
228.379
227.256
228.069
217.930
220.863
214.262
222.675
218.274
211.162
212.805
212.558
203.800
207.776
209.256
206.492
200.224
207.798
201.596
205.128
202.298
192.593
196.865
195.215
200.367
190.983
197.266
194.967
190.391
194.211
181.692
179.613
177.296
182.413
183.209
180.180
183.068
179.615
170.247
181.984
168.013
173.210
165.272
163.048
177.056
162.367
170.740
168.337
163.226
163.282
168.220
160.748
157.266
159.593
161.882
155.363
150.785
155.010
145.338
156.596
148.230
148.794
143.267
144.833
147.964
149.054
137.485
132.533
461.669
446.328
418.329
443.519
450.648
426.910
396.837
415.276
394.301
426.467
422.932
386.655
418.664
415.118
385.262
365.004
362.807
349.186
372.328
372.442
371.756
364.815
369.857
324.528
366.824
335.233
329.158
306.348
340.233
305.301
335.395
288.860
330.529
288.622
324.134
290.729
313.119
291.796
295.952
257.751
287.115
285.433
245.036
275.072
263.608
231.037
260.824
236.685
150.353
105.648
145.015
112.020
128.987
141.738
124.733
113.031
115.951
145.951
145.731
127.090
113.766
145.633
107.267
151.890
112.579
141.232
112.093
110.264
153.114
138.718
151.616
115.987
109.640
138.380
110.283
151.163
130.383
147.865
103.522
117.565
148.585
128.587
136.277
147.551
115.584
147.214
117.886
104.509
124.127
134.616
150.924
122.205
116.594
113.622
111.711
119.877
144.385
125.216
133.287
133.406
140.646
135.535
106.514
102.653
126.482
115.291
142.008
101.408
138.395
117.405
129.283
124.515
108.656
110.677
102.045
118.053
139.281
130.705
125.147
146.306
117.239
107.303
102.031
146.331
134.343
116.135
106.668
113.953
150.178
140.925
107.370
118.772
135.124
143.188
150.571
114.907
106.383
135.441
148.332
152.145
142.195
137.081
144.736
109.486
128.769
125.357
148.371
125.324
121.324
131.382
121.747
142.985
142.439
136.622
122.194
125.923
124.292
126.789
144.886
128.134
130.674
125.625
113.329
148.064
118.806
147.792
125.139
114.157
130.192
129.444
132.857
128.435
148.974
126.503
149.801
152.386
107.029
131.765
109.152
109.343
136.872
118.179
143.685
146.629
152.638
147.331
107.012
132.911
140.160
101.843
111.582
152.462
151.241
119.237
113.004
125.082
135.975
140.772
145.187
117.572
125.451
125.948
121.546
115.642
127.876
110.574
133.897
104.745
124.260
106.740
132.616
151.452
119.149
120.520
152.635
152.508
128.984
119.661
133.987
114.842
105.490
136.827
108.525
129.555
137.580
111.290
124.749
141.464
115.513
115.914
106.181
129.500
108.063
109.164
128.190
128.360
143.803
144.407
114.102
106.347
122.354
146.446
133.994
119.209
127.461
122.174
123.755
120.459
135.274
109.866
141.451
102.119
148.679
116.079
109.787
143.843
101.937
111.309
138.762
145.970
150.115
112.973
115.136
120.743
114.660
117.662
102.718
126.714
114.687
118.338
152.941
102.302
152.503
152.100
112.045
144.362
113.711
130.274
129.714
149.144
110.736
147.149
150.156
111.382
150.210
147.524
134.146
130.835
101.954
116.865
118.354
136.096
134.035
118.836
136.357
103.214
112.759
136.756
139.201
123.824
107.629
145.908
109.480
113.025
103.343
129.486
144.389
122.864
147.658
136.935
121.408
122.277
125.604
152.005
136.862
141.653
142.566
129.977
122.606
127.300
143.025
121.852
120.777
130.418
150.690
114.413
121.295
143.151
116.696
116.489
121.373
106.867
144.651
143.022
143.388
141.593
116.593
143.311
116.616
107.851
128.339
142.992
108.190
103.879
135.437
106.296
133.567
130.899
129.686
117.522
112.603
105.941
116.178
117.341
109.212
132.999
122.261
107.188
152.392
145.922
143.161
149.309
108.086
145.571
132.564
126.032
107.961
143.155
106.868
125.613
141.763
118.469
118.131
140.595
125.613
119.927
108.241
147.580
116.447
147.586
108.534
146.242
114.064
134.601
145.378
116.900
152.823
148.385
112.272
147.599
142.011
127.227
140.935
106.580
129.784
125.385
106.167
114.111
135.857
150.453
130.345
142.289
126.067
123.083
118.401
141.628
115.583
133.363
138.811
119.354
115.738
128.389
119.580
143.704
116.365
107.871
119.118
105.810
116.970
134.115
139.166
138.588
125.989
121.079
133.187
127.057
139.484
145.781
138.342
139.814
128.768
104.501
123.828
109.380
125.122
136.142
120.321
150.912
138.660
134.909
152.305
147.080
110.161
119.802
119.455
150.251
147.927
135.790
128.489
113.495
123.826
117.516
142.286
135.185
129.734
126.214
145.084
140.279
150.202
116.417
108.570
146.130
149.000
143.574
141.964
116.920
148.709
128.037
119.259
109.695
116.942
101.743
118.932
119.007
136.125
152.677
125.428
109.437
137.115
101.675
125.532
101.914
149.103
150.691
132.177
113.827
133.352
115.399
125.566
146.345
131.294
149.147
135.141
152.713
105.605
108.466
119.966
125.301
112.313
109.624
120.110
130.948
138.196
141.892
108.522
115.429
119.512
123.304
138.862
142.886
124.101
106.201
101.658
124.317
122.104
133.292
110.802
123.129
145.092
134.867
148.768
121.464
141.982
126.049
114.404
133.247
113.724
106.890
133.044
142.304
122.466
145.241
109.610
128.407
142.574
153.053
120.677
146.204
105.452
121.923
122.574
101.213
140.812
132.563
106.074
151.284
112.649
150.752
105.292
128.930
112.616
110.801
127.178
132.404
139.085
120.798
141.738
129.852
121.922
113.832
108.814
152.024
105.493
125.445
137.972
120.809
109.730
136.096
133.438
148.932
118.249
142.193
130.529
106.735
130.682
140.594
103.949
151.443
106.069
150.742
152.668
106.882
124.159
146.981
132.680
112.343
142.339
128.837
125.764
119.600
114.512
129.130
118.732
138.413
125.623
129.770
135.705
103.659
149.631
111.469
145.949
133.204
125.854
147.868
109.049
114.488
102.984
130.065
152.420
118.193
121.275
147.854
118.777
120.013
152.721
150.754
104.292
112.562
148.462
143.782
151.096
103.254
131.755
136.790
109.796
140.337
143.941
108.056
144.285
134.810
112.862
137.356
148.961
120.092
145.029
143.143
115.880
122.286
132.835
131.233
120.558
105.799
143.114
152.682
124.053
151.201
148.158
105.887
139.482
146.276
145.841
128.172
142.328
132.099
151.514
131.126
132.875
113.324
103.792
126.537
126.852
134.962
112.141
109.141
145.597
106.338
106.391
121.695
142.846
109.842
128.393
133.850
141.314
151.510
116.563
120.223
130.056
139.602
119.748
139.403
106.177
140.126
114.383
114.791
152.600
127.725
111.214
111.966
126.957
107.888
150.081
123.814
106.505
113.925
150.195
108.828
105.148
116.108
141.110
113.263
122.201
121.256
128.666
110.449
106.234
131.494
111.117
128.443
145.094
142.606
112.677
123.628
104.864
120.031
144.820
101.432
130.571
119.189
142.041
149.605
144.736
119.830
115.821
103.579
119.523
111.729
103.968
127.964
113.988
131.026
105.080
139.099
134.389
145.769
129.206
141.347
135.200
110.149
113.338
146.708
147.423
131.642
122.395
150.965
149.546
133.007
117.974
112.325
109.335
101.808
112.965
113.838
118.921
147.870
104.819
137.517
111.191
131.988
146.258
105.363
143.749
140.019
122.452
137.789
109.400
151.670
141.445
114.336
140.555
136.435
132.632
135.199
149.621
115.066
149.825
105.580
109.795
108.984
137.400
123.940
105.741
140.612
126.425
103.991
131.247
149.800
129.328
143.288
103.749
142.681
128.812
143.795
150.488
124.564
114.984
133.077
144.635
147.378
123.113
114.455
123.334
144.872
133.022
101.920
142.387
148.802
117.693
118.259
124.991
122.729
114.353
133.598
114.002
149.594
141.123
113.541
101.770
147.279
110.893
124.611
113.005
120.710
108.202
149.527
140.529
109.260
131.886
104.234
116.662
137.249
151.044
128.979
117.015
106.267
108.236
140.837
147.748
145.513
116.595
147.874
126.082
127.601
105.085
102.634
117.096
128.685
152.621
146.681
110.423
145.237
118.699
149.528
128.660
146.969
104.057
152.640
114.190
122.251
144.866
112.401
128.792
123.768
116.581
149.084
124.960
144.740
129.268
133.611
152.864
118.595
105.029
113.658
112.349
138.877
132.244
112.119
147.411
131.913
109.955
133.966
122.089
151.343
117.340
145.458
137.464
135.807
106.360
102.675
115.671
109.147
103.082
143.672
146.460
112.276
106.179
102.950
128.480
140.790
115.039
115.630
129.633
110.665
150.040
105.101
127.215
148.297
105.885
120.335
146.120
112.169
110.822
140.321
149.150
151.334
109.084
111.718
132.608
148.407
148.323
111.401
125.648
125.523
134.049
147.956
137.561
114.075
118.665
123.995
111.383
106.359
152.254
126.353
141.147
101.167
132.203
104.127
117.032
107.716
152.404
117.291
104.968
119.730
116.416
143.796
102.611
125.771
143.956
150.702
129.172
110.600
128.895
130.380
109.870
128.599
125.604
118.044
139.425
128.159
131.239
147.344
148.967
123.385
149.858
133.586
115.863
101.395
135.705
111.018
137.779
120.420
135.064
140.214
104.694
144.902
118.673
140.578
114.862
125.226
120.310
130.965
132.284
123.199
132.889
132.758
109.139
141.927
137.146
137.584
121.719
148.568
143.028
127.515
101.629
118.509
150.463
130.646
137.115
125.894
145.818
115.413
115.732
118.267
110.246
103.816
112.925
148.004
140.755
127.961
126.736
120.935
121.689
103.575
134.280
147.679
146.974
116.315
131.023
145.673
114.329
143.741
105.334
137.673
105.754
101.447
131.792
106.464
116.809
137.876
131.011
110.074
125.206
102.171
131.726
108.542
107.777
124.127
110.315
151.834
132.798
123.992
101.407
110.542
125.997
125.935
138.846
119.068
141.762
149.907
122.409
106.125
134.083
119.602
122.567
122.756
105.037
135.770
128.042
127.206
115.614
138.975
125.771
127.486
111.694
136.658
130.022
147.833
133.601
135.598
132.169
111.422
153.004
119.326
130.721
141.527
144.709
109.220
128.101
150.970
121.265
132.586
152.331
136.312
130.864
149.399
107.047
132.532
138.325
133.318
124.360
118.052
107.734
139.248
152.110
109.518
123.151
114.233
137.578
103.431
141.567
145.356
121.308
132.053
107.121
134.907
129.486
125.886
106.645
134.709
127.617
133.421
139.286
123.610
102.559
110.299
140.435
104.814
135.783
126.052
134.929
131.312
121.409
124.406
148.689
117.767
146.294
151.182
148.469
133.208
118.477
128.224
119.847
117.182
143.785
105.748
134.967
130.980
131.577
124.806
139.198
122.701
143.985
111.778
131.178
133.586
133.687
136.267
133.567
137.802
144.249
126.945
129.789
129.822
115.661
101.259
106.973
122.723
115.993
141.822
130.551
123.573
109.164
127.565
129.945
121.045
117.800
104.338
125.478
114.745
104.085
141.018
110.637
101.971
131.397
114.180
123.926
128.848
114.649
151.836
115.736
105.941
102.334
110.869
111.585
151.674
111.469
117.333
101.173
151.026
128.808
108.095
141.202
137.071
138.224
123.612
116.448
143.626
139.331
133.564
151.357
138.072
106.436
117.415
144.931
113.263
106.585
112.685
135.613
124.832
140.291
111.165
116.379
145.482
115.357
122.896
106.641
129.498
135.749
111.371
151.623
110.159
135.417
150.297
114.922
141.073
136.176
145.837
115.925
132.946
130.437
104.034
128.502
136.293
105.928
107.571
130.818
110.488
101.841
138.073
141.328
117.492
117.335
140.949
119.874
138.095
152.529
101.913
137.653
133.136
119.681
124.548
104.796
104.442
106.219
111.273
127.054
151.750
129.243
136.083
116.354
133.863
149.222
141.815
150.281
151.696
152.777
137.103
111.851
106.823
127.028
152.513
146.050
148.016
115.485
118.752
117.948
132.132
149.210
142.485
108.221
104.700
106.615
145.383
123.084
129.973
108.840
113.358
150.912
133.343
107.809
135.602
123.212
136.935
106.461
126.963
120.385
150.082
110.073
141.668
116.435
121.462
142.493
107.338
124.471
147.473
105.062
147.372
132.530
108.360
114.696
142.770
152.051
109.602
101.755
135.246
113.802
130.660
136.561
142.212
113.870
132.812
137.144
135.844
142.571
125.453
112.939
138.641
122.041
141.010
125.017
150.163
146.839
136.209
110.175
114.717
127.157
107.490
118.902
118.073
131.564
130.633
152.300
109.346
137.838
142.207
131.452
147.265
140.962
110.859
135.809
153.004
117.404
136.606
133.413
119.277
139.331
107.430
116.682
129.798
105.186
107.531
150.539
150.446
153.049
108.516
110.835
124.107
109.972
129.229
112.705
109.768
127.259
140.982
112.699
112.289
123.878
112.254
109.312
122.577
129.579
147.538
150.823
106.161
136.129
144.621
146.284
129.384
149.937
121.828
120.896
149.413
135.300
132.719
108.114
125.882
143.085
116.328
141.733
147.868
106.403
148.071
138.451
123.419
125.709
127.710
146.249
150.512
106.866
128.334
144.440
119.949
140.569
114.671
110.277
106.691
141.703
144.497
104.030
134.750
149.222
143.091
127.273
119.584
128.695
128.342
112.370
104.962
150.775
118.560
139.044
105.296
111.817
108.792
140.642
146.172
147.913
120.945
141.905
139.837
133.645
147.468
