833.884
841.152
845.381
833.987
840.820
845.779
847.033
834.675
848.277
839.721
845.552
841.191
842.297
835.352
835.426
838.984
845.104
845.056
844.122
842.392
850.152
850.717
840.118
842.940
851.820
850.761
839.283
848.449
847.868
845.723
852.301
843.288
850.634
840.127
846.509
841.845
845.828
851.614
852.297
845.888
854.901
851.062
845.703
845.724
854.486
855.648
848.519
844.896
852.973
855.041
851.820
848.486
844.719
842.821
849.207
849.174
840.800
852.584
845.907
852.700
844.359
850.289
840.717
841.706
844.533
840.727
834.554
837.234
840.985
847.241
845.117
834.470
836.766
843.301
835.175
840.308
831.270
840.109
835.316
838.034
828.625
832.298
827.677
824.980
836.941
833.712
827.708
836.026
830.621
835.908
820.936
824.192
830.865
824.642
827.214
819.512
830.044
821.846
817.074
823.164
817.862
825.874
817.557
820.794
821.046
814.534
825.613
822.140
824.362
824.111
810.049
821.415
821.674
817.586
815.049
821.879
813.081
817.034
805.706
811.252
805.832
817.276
816.232
811.755
805.906
811.929
810.092
799.995
812.042
800.516
798.679
806.712
811.742
806.310
798.696
799.561
799.735
803.335
795.839
803.288
804.947
791.476
802.950
802.278
792.418
794.891
799.857
790.568
797.436
787.406
793.329
790.178
795.207
787.982
793.004
791.135
790.179
790.472
793.516
782.651
787.498
789.786
789.211
792.431
780.392
789.230
779.312
781.344
781.064
781.831
780.635
789.754
782.853
782.185
782.900
785.015
772.202
785.923
784.621
779.577
777.800
779.188
781.486
770.092
772.963
780.099
768.267
766.761
773.898
771.001
765.412
770.387
764.477
772.789
765.071
773.616
764.209
765.184
762.110
768.175
772.906
768.040
766.008
768.940
762.132
764.701
764.095
766.899
768.246
765.025
763.737
752.946
759.560
758.314
757.629
755.985
754.981
761.383
751.101
753.322
758.646
756.105
746.264
748.011
747.330
743.252
749.936
750.519
750.472
745.657
745.832
746.422
745.057
747.396
752.231
742.474
738.985
737.550
744.420
745.334
743.694
736.656
742.774
735.917
736.981
739.879
745.608
732.661
742.350
744.696
732.606
741.408
732.848
734.344
739.992
734.035
739.080
745.128
744.963
736.523
743.870
749.046
748.468
746.363
748.078
750.659
745.710
748.379
745.503
748.154
751.608
754.977
751.064
753.651
754.874
749.514
752.842
759.063
760.345
759.859
760.861
763.192
760.618
760.202
767.989
769.709
770.395
770.723
762.737
766.173
771.579
771.221
774.505
768.013
769.018
776.821
781.446
782.237
786.479
783.653
786.555
779.334
788.938
790.687
790.947
784.347
783.071
794.390
785.300
786.059
797.806
783.962
789.471
788.629
787.094
799.096
792.025
796.867
799.621
804.950
798.833
793.394
801.326
798.280
800.151
811.813
802.136
810.744
804.481
806.525
813.368
804.947
806.265
814.839
811.848
812.882
813.636
808.993
810.293
818.013
823.740
826.800
819.722
824.090
820.757
820.853
823.248
822.264
826.628
822.433
830.047
828.680
835.928
825.220
826.743
831.861
835.064
836.547
836.271
829.393
844.846
834.228
838.289
841.841
841.168
848.940
835.643
836.576
841.909
839.395
848.875
848.909
850.337
850.954
853.401
856.645
857.126
855.677
847.431
851.648
852.613
855.495
852.084
860.275
854.225
857.720
862.540
863.720
866.837
865.068
873.195
868.045
871.883
867.752
877.142
864.160
866.702
880.514
872.452
872.186
875.723
872.423
869.804
876.534
886.878
882.491
876.966
888.640
883.044
877.394
883.396
886.523
884.636
880.810
891.094
884.659
890.421
884.995
898.146
899.313
896.040
888.123
902.691
893.308
893.785
905.478
895.576
904.244
906.373
903.963
903.249
911.015
904.728
908.753
902.798
903.242
904.310
908.071
903.757
911.540
912.053
915.499
918.246
915.951
922.249
915.369
916.401
921.614
917.016
918.579
928.633
918.128
924.771
931.803
931.099
916.736
921.523
919.149
924.890
919.710
915.695
921.883
925.605
914.066
916.158
928.213
915.409
923.441
916.140
911.755
922.060
916.459
922.494
917.586
920.795
914.799
910.810
923.378
922.258
922.273
914.488
921.149
910.549
909.865
920.969
916.607
908.398
913.527
915.238
909.214
909.792
908.973
903.869
907.443
908.698
903.674
913.021
913.450
904.009
908.975
908.834
913.959
912.271
909.005
911.702
910.833
901.052
911.493
906.952
904.157
903.076
903.102
897.815
900.663
899.920
909.317
895.333
896.065
903.250
895.053
894.564
899.220
895.330
898.815
892.361
900.831
895.484
897.557
892.046
891.312
892.476
892.457
903.695
891.649
896.556
898.675
893.021
897.492
890.181
897.635
898.307
900.443
891.005
893.108
896.270
892.982
894.591
899.541
899.362
894.752
898.636
897.444
889.655
882.224
896.443
894.472
891.782
886.463
886.641
896.020
894.796
884.246
889.359
888.965
886.766
893.404
885.217
891.431
883.628
889.011
885.603
888.335
883.884
885.262
875.586
878.811
889.459
886.004
880.386
882.914
881.225
886.685
872.731
872.309
876.728
871.698
883.056
870.698
875.244
877.218
882.582
882.361
880.311
869.685
871.014
882.097
873.955
876.365
875.867
866.495
873.329
866.152
881.013
866.901
874.762
873.034
879.752
872.511
868.410
872.091
874.094
868.926
862.919
876.127
872.292
861.818
862.748
866.801
870.030
864.290
861.266
862.368
863.068
865.352
870.805
861.588
857.673
865.795
860.551
856.380
870.861
863.381
870.828
867.270
862.745
866.626
861.286
863.149
867.250
864.800
868.177
863.290
862.235
856.276
860.644
857.795
858.153
861.232
855.719
858.255
857.358
859.248
851.902
851.868
860.018
851.475
852.141
846.352
850.134
856.236
846.811
849.710
842.196
854.471
845.498
841.414
851.728
837.444
838.246
841.817
832.640
836.269
844.044
839.820
843.837
843.254
841.722
841.428
831.701
827.707
835.899
828.414
834.164
822.718
830.328
830.830
829.435
831.061
819.227
821.144
814.789
820.697
824.846
826.246
811.949
817.526
816.548
808.406
818.941
811.145
815.530
807.784
811.577
815.987
817.134
816.646
808.138
802.045
799.440
807.107
806.517
803.826
804.768
803.780
801.707
792.557
802.463
797.053
801.960
799.982
796.437
801.712
786.463
788.488
788.750
798.746
792.415
784.845
782.897
787.254
794.858
782.757
784.111
785.736
790.221
779.147
782.056
781.187
781.071
783.041
780.976
777.543
776.102
781.233
782.230
766.347
779.500
764.863
774.580
769.076
761.956
763.733
770.675
770.815
766.204
765.557
766.010
769.469
769.085
765.617
757.626
752.005
760.811
761.875
757.131
760.560
753.647
759.657
747.495
756.950
751.994
749.980
751.044
745.989
745.768
747.926
739.873
739.080
736.438
745.874
743.739
746.586
736.710
736.441
734.033
734.777
739.643
728.437
729.163
737.025
740.419
734.031
724.348
731.709
737.314
736.024
721.390
724.155
725.559
731.187
727.166
719.877
728.695
721.316
722.844
719.603
712.731
717.440
725.258
719.171
720.098
719.818
718.013
705.561
715.439
712.568
702.574
710.693
703.776
704.189
703.336
704.650
701.469
699.759
710.918
700.822
698.417
699.451
697.236
694.747
698.414
694.935
689.059
695.648
690.462
692.420
691.234
698.466
683.213
692.314
694.819
684.107
693.194
678.849
680.391
689.555
682.353
687.807
681.676
678.694
675.623
685.915
674.365
686.318
678.216
678.337
685.411
675.880
683.789
685.260
687.982
690.342
686.276
684.032
687.934
692.636
686.080
694.657
699.576
696.277
703.051
696.725
700.537
694.491
693.054
696.208
700.838
696.219
698.730
700.665
709.282
709.264
712.028
703.631
705.887
708.545
705.933
714.036
715.767
719.601
716.887
715.908
719.556
716.227
714.279
710.527
713.512
723.936
727.367
729.707
720.667
730.318
719.315
725.145
729.991
721.699
721.502
734.681
734.764
728.991
735.740
738.035
733.148
740.217
738.241
736.102
732.313
744.510
734.216
735.625
744.490
750.408
750.691
745.730
744.751
748.694
753.997
742.673
743.700
754.717
743.950
745.532
756.750
760.213
750.868
749.344
753.131
758.694
754.950
763.915
760.013
758.914
769.278
770.129
768.449
770.842
760.422
764.402
772.031
763.213
775.733
768.659
767.741
775.855
768.544
775.784
770.041
773.633
778.592
778.480
784.572
786.607
786.482
777.216
787.260
785.844
776.402
790.101
792.211
781.988
789.903
786.649
796.808
782.986
796.225
794.882
789.230
792.608
795.244
789.765
793.481
803.993
802.315
792.339
799.676
809.333
804.962
807.101
802.236
798.422
802.038
799.710
815.420
803.507
813.925
810.757
818.414
813.847
820.352
819.718
818.501
811.434
817.508
826.481
814.640
825.590
815.275
818.118
830.356
826.320
831.700
822.702
822.618
819.949
823.449
825.498
822.748
826.433
824.585
832.558
828.430
834.452
830.588
842.215
842.502
839.423
838.937
839.556
836.722
839.857
842.128
846.299
853.155
845.561
851.146
840.522
856.060
846.954
848.926
852.403
850.172
847.899
857.739
860.632
864.432
861.401
860.677
859.938
857.202
861.594
859.519
871.153
864.354
872.467
864.469
874.319
869.903
870.741
874.011
873.963
869.352
872.429
879.317
885.683
886.579
889.682
875.768
880.709
893.962
882.101
886.158
888.011
886.144
900.665
894.682
901.337
902.461
890.761
905.046
903.045
897.678
904.299
901.138
913.803
915.556
903.488
915.982
910.731
916.764
921.000
913.646
912.905
916.943
917.964
923.599
928.472
929.578
928.002
927.426
933.950
922.735
932.888
929.329
938.948
936.105
937.399
934.905
946.774
939.141
937.168
941.738
938.156
947.279
948.712
949.196
954.310
948.262
948.424
954.133
962.125
955.825
955.900
961.110
956.433
968.895
956.770
963.812
969.766
963.641
963.712
970.549
966.001
965.893
982.722
977.653
981.793
973.294
988.125
982.268
976.852
991.779
987.044
983.683
990.440
985.188
996.145
993.790
990.019
988.868
1003.280
1001.467
1002.826
1006.875
1006.006
1001.536
1012.824
1011.179
1006.947
1002.897
1002.581
1012.318
1016.302
1012.802
1023.076
1021.759
1018.686
1012.321
1023.615
1015.667
1018.491
1018.468
1026.676
1022.280
1024.108
1031.914
1032.744
1036.876
1029.263
1042.670
1036.122
1045.596
1048.520
1039.633
1035.838
1044.424
1046.232
1047.481
1048.355
1047.473
1057.360
1046.181
1058.455
1057.139
1050.052
1058.169
1052.178
1063.488
1056.106
1071.410
1059.652
1058.812
1069.299
1068.036
1075.688
1070.320
1066.459
1078.485
1081.700
1072.085
1074.202
1082.341
1079.208
1089.905
1086.427
1088.813
1079.426
1086.240
1097.443
1087.726
1097.436
1090.062
1100.411
1100.790
1101.264
1104.342
1108.857
1101.234
1109.332
1108.541
1109.038
1101.073
1108.175
1117.490
1116.789
1105.728
1117.430
1117.472
1124.737
1118.143
1116.449
1126.017
1115.365
1116.734
1123.407
1122.489
1135.006
1124.648
1125.164
1132.114
1137.550
1136.505
1142.257
1139.777
1130.425
1129.689
1127.990
1128.642
1126.951
1129.191
1135.540
1126.392
1127.283
1131.801
1126.119
1124.828
1122.104
1118.768
1116.711
1122.624
1112.131
1115.428
1121.978
1121.423
1107.408
1109.609
1109.612
1110.633
1108.443
1101.684
1114.553
1103.687
1103.417
1102.668
1109.721
1110.324
1109.198
1095.069
1096.308
1101.844
1105.340
1100.397
1093.869
1096.376
1100.190
1089.292
1089.209
1086.316
1082.126
1082.398
1092.943
1088.031
1084.555
1082.411
1076.993
1085.821
1082.575
1081.741
1076.381
1077.223
1076.049
1074.143
1078.551
1072.993
1076.932
1076.196
1069.331
1075.163
1061.276
1071.967
1061.402
1059.872
1058.183
1069.060
1062.659
1056.272
1064.865
1054.346
1061.771
1059.310
1059.365
1059.163
1046.942
1047.916
1054.190
1056.492
1052.764
1048.680
1050.646
1043.905
1035.829
1041.864
1041.308
1045.565
1040.711
1036.639
1044.559
1041.074
1034.427
1027.156
1025.074
1029.378
1034.827
1023.959
1021.812
1028.586
1033.890
1018.643
1028.335
1019.244
1014.052
1014.065
1015.966
1017.922
1025.166
1013.794
1016.198
1007.370
1008.050
1015.698
1012.899
1012.119
1002.996
1010.256
1009.160
999.121
1003.167
1006.952
995.740
996.876
996.428
1003.250
1002.015
1004.308
992.871
996.487
996.865
988.086
993.024
998.062
986.173
986.951
986.555
986.738
987.641
986.938
984.194
986.263
987.445
984.247
979.146
983.192
972.844
976.350
978.313
967.736
979.782
965.301
968.692
976.194
960.439
960.105
972.659
959.047
971.063
960.411
965.139
967.865
959.492
958.526
950.046
957.354
957.816
946.763
949.821
958.084
957.769
950.451
943.648
949.350
942.460
938.504
941.266
938.579
934.777
938.984
939.538
931.855
944.100
932.833
940.506
927.488
931.839
931.316
929.321
922.574
924.519
931.896
933.094
924.098
922.168
924.281
926.109
187.828
188.297
162.802
143.417
203.896
169.649
154.636
144.251
218.592
163.172
159.427
192.860
191.597
144.355
160.997
172.250
171.371
178.252
221.551
142.277
157.373
154.999
149.699
176.212
214.996
195.771
179.681
167.242
149.964
187.529
158.449
193.413
188.573
195.577
183.260
193.020
204.035
220.608
158.854
158.213
213.995
225.240
163.738
170.836
213.924
181.553
218.714
188.369
224.994
219.724
194.578
155.923
146.579
215.581
162.037
176.272
199.354
152.628
178.598
181.584
221.301
158.386
218.816
148.594
206.329
213.116
151.505
155.838
179.105
198.992
186.154
177.826
146.914
168.838
219.815
165.392
199.728
159.224
188.106
211.749
161.296
186.128
184.713
175.187
188.830
211.843
184.309
159.503
210.504
216.185
183.623
161.177
218.967
223.592
200.200
182.398
197.386
206.918
160.509
199.589
85.996
87.295
88.662
106.917
119.050
121.680
85.282
85.296
125.955
115.271
102.362
111.642
120.197
91.913
127.125
91.331
126.101
106.799
84.468
89.304
107.305
95.795
116.828
103.343
85.189
98.040
100.626
95.229
100.517
105.531
97.838
87.515
113.244
127.733
124.344
96.711
108.124
120.457
118.638
99.689
84.408
117.061
103.516
97.651
126.668
106.176
117.474
127.090
119.317
98.649
104.423
111.877
94.045
86.206
111.207
126.993
125.932
84.933
117.020
110.400
116.367
124.620
93.644
90.623
92.822
91.893
127.579
124.129
114.505
98.875
113.020
111.831
101.666
125.531
92.982
114.856
90.789
85.837
122.817
99.972
84.729
90.826
123.304
95.299
90.400
90.526
109.058
84.424
96.393
85.821
94.620
87.561
107.747
119.917
87.531
117.471
98.316
98.032
90.594
92.652
125.070
123.331
85.344
127.207
116.097
129.576
121.925
118.519
128.688
105.769
96.601
121.930
109.901
128.444
93.233
113.239
86.746
85.452
119.573
123.322
114.114
118.167
84.870
94.911
88.850
122.085
105.910
85.334
110.303
86.754
129.502
96.971
114.627
124.515
97.136
84.158
123.169
116.351
128.995
127.905
126.834
95.263
94.685
93.855
110.765
116.868
117.976
120.252
112.421
107.365
95.686
108.369
102.309
86.111
101.223
102.310
91.583
122.310
96.171
111.017
94.757
124.747
126.677
112.116
109.755
100.708
102.106
113.752
86.845
126.557
113.617
85.460
99.171
129.014
105.686
124.166
98.732
101.620
122.721
127.812
113.373
99.440
90.916
114.725
101.044
127.605
116.159
119.483
116.954
86.008
109.289
117.721
112.766
123.752
117.411
118.586
101.941
99.498
112.765
102.747
99.693
121.056
120.311
101.886
103.963
110.409
111.767
87.031
113.384
128.081
113.136
124.163
93.054
106.050
106.458
111.493
126.728
85.648
105.481
117.655
111.779
129.046
115.022
103.101
92.401
108.534
110.160
98.439
117.056
94.233
113.009
100.074
84.908
85.021
85.960
118.430
109.627
95.642
93.376
96.750
101.438
112.599
127.153
120.718
93.240
96.236
96.294
96.906
117.018
119.526
93.434
91.552
126.469
119.630
110.213
98.553
124.765
101.557
101.513
100.655
104.064
91.014
104.152
128.450
116.652
124.543
127.567
95.663
123.582
93.832
116.636
123.986
99.324
105.319
117.623
101.803
126.779
119.194
87.131
84.673
118.496
100.434
93.415
88.831
111.660
91.560
111.313
115.560
113.168
86.090
111.112
129.353
114.014
101.174
105.105
106.248
103.168
108.292
123.261
106.374
103.658
113.681
86.336
122.764
128.240
88.576
109.156
95.926
99.020
93.989
120.767
96.900
110.175
96.626
128.786
111.139
88.161
88.246
128.141
104.237
86.640
107.401
129.049
114.078
123.523
125.624
129.688
89.583
122.119
91.341
86.219
90.333
102.628
89.824
97.999
101.342
112.073
92.382
125.130
120.063
95.274
100.316
91.642
116.060
86.942
92.398
128.345
89.310
95.433
123.940
104.284
104.114
96.822
94.004
97.889
107.771
116.913
124.446
107.159
115.902
121.429
118.084
91.967
102.252
92.917
113.983
95.001
120.493
103.421
120.936
124.480
107.268
92.361
89.046
88.799
121.939
102.875
101.468
115.807
96.213
91.607
105.877
86.886
129.760
84.363
124.274
116.371
112.773
112.909
125.318
121.055
125.253
91.129
84.934
110.987
104.757
92.466
128.190
91.136
100.521
128.902
128.971
125.234
105.272
87.283
106.865
117.085
97.510
85.550
101.572
94.670
89.653
93.557
112.746
93.142
98.581
105.284
92.157
107.234
90.913
90.722
84.787
95.768
105.766
100.403
99.981
127.735
124.575
121.536
121.932
125.780
86.658
118.197
92.973
86.629
125.452
121.411
89.417
119.725
126.760
98.733
84.290
110.010
124.122
103.781
109.573
88.715
88.812
