896.611
901.055
903.824
907.007
907.770
902.287
903.191
907.494
915.789
914.042
913.148
917.561
926.092
921.037
915.326
931.338
918.432
923.836
923.637
938.620
939.321
934.813
939.901
939.528
944.959
946.761
949.669
947.260
954.395
954.073
951.461
953.060
950.093
948.585
954.190
951.912
959.672
958.145
966.504
959.069
971.332
974.411
971.070
966.569
972.132
974.424
975.053
985.683
978.747
979.869
986.787
980.673
983.190
992.639
992.002
997.721
997.177
996.324
1003.591
996.964
1004.833
1003.222
1008.798
1002.267
1014.685
1015.013
1011.805
1015.606
1015.515
1015.758
1030.112
1018.464
1018.819
1034.310
1023.226
1034.655
1028.735
1030.838
1040.986
1045.663
1036.630
1038.456
1037.094
1048.830
1055.164
1053.532
1057.064
1054.700
1047.398
1058.747
1059.736
1063.315
1060.533
1066.942
1071.896
1062.057
1067.529
1067.029
1068.730
1081.230
1081.439
1070.343
1087.114
1087.855
1088.982
1081.401
1081.234
1092.523
1083.133
1087.532
1095.589
1096.608
1099.301
1097.063
1096.203
1105.039
1101.124
1102.771
1108.898
1105.845
1117.235
1110.767
1102.649
1100.766
1112.882
1105.817
1108.769
1098.167
1092.025
1090.201
1099.749
1097.021
1086.403
1084.156
1092.222
1092.493
1077.799
1087.859
1073.796
1083.666
1069.847
1071.806
1076.202
1067.872
1066.841
1066.121
1068.961
1058.906
1060.929
1062.415
1059.387
1056.925
1053.704
1053.593
1053.849
1051.075
1048.150
1047.338
1042.238
1043.496
1042.423
1041.071
1042.062
1034.281
1028.423
1035.018
1027.113
1021.122
1027.670
1022.450
1026.824
1011.605
1009.481
1007.322
1018.837
1011.863
1012.707
1007.607
1002.958
1009.054
998.326
996.236
993.673
996.316
991.524
984.934
988.716
992.048
981.636
982.424
977.074
985.554
980.516
971.913
971.412
979.667
977.123
967.118
964.279
963.078
965.368
961.508
954.483
953.202
955.007
960.687
959.944
949.633
952.045
942.731
951.674
950.937
944.251
938.307
931.906
930.638
936.094
938.031
935.030
932.773
923.250
921.090
926.148
920.452
919.142
919.605
918.060
915.291
905.792
908.130
910.146
903.246
910.149
907.883
901.189
892.814
900.106
893.693
898.406
894.402
882.681
894.524
878.329
885.139
875.438
881.553
882.855
877.269
877.727
879.830
872.528
869.534
866.526
865.470
865.366
861.046
859.163
864.378
851.550
846.852
853.690
855.946
854.327
848.603
838.170
843.300
834.158
841.972
830.826
842.300
834.095
839.832
830.123
823.670
826.650
829.300
829.426
824.860
818.901
819.318
811.900
817.699
803.970
803.860
806.109
811.418
809.396
800.397
806.912
803.687
792.516
786.968
793.437
798.300
787.867
792.588
792.388
787.118
784.106
784.713
776.298
772.510
777.257
768.696
763.886
771.710
761.444
762.363
764.991
761.069
763.105
763.688
762.785
760.103
755.947
757.832
746.298
742.289
747.688
750.630
745.898
743.583
738.638
740.723
745.015
739.502
750.434
750.592
749.980
755.940
744.139
746.799
749.132
760.950
750.818
748.300
758.703
762.681
755.421
762.284
751.828
754.006
760.942
755.706
756.252
770.826
757.108
760.389
769.950
761.038
772.323
770.465
772.694
767.910
780.387
771.937
775.826
779.396
777.377
773.146
786.002
778.929
774.761
782.183
783.643
777.119
788.318
790.554
782.613
783.074
791.213
784.134
794.346
797.017
786.085
791.761
787.635
786.691
797.927
800.843
800.891
805.110
793.832
804.040
806.081
795.139
800.261
802.251
802.801
809.483
801.738
810.539
810.928
813.774
810.392
807.293
814.993
818.469
811.711
820.155
813.100
819.595
817.650
817.799
826.624
827.558
813.767
820.729
823.670
817.951
830.015
827.869
826.909
831.450
824.158
833.383
833.555
835.901
839.639
825.097
835.690
832.562
836.146
841.819
839.319
837.781
838.330
833.048
841.212
834.639
845.317
836.072
839.384
840.591
852.785
843.011
852.828
855.975
853.986
853.305
854.226
853.227
849.907
859.719
854.504
853.529
858.944
858.779
854.412
866.447
858.420
862.039
860.278
858.719
858.989
866.553
874.471
864.584
868.268
874.737
865.984
866.212
868.271
878.883
874.992
871.041
882.752
881.929
877.922
884.352
885.101
884.067
883.428
881.068
877.953
889.644
886.891
894.625
887.854
893.768
888.086
886.899
889.452
896.479
893.428
894.823
888.624
891.268
900.356
900.858
896.051
896.638
902.411
909.366
896.966
908.245
897.618
911.741
905.548
901.089
910.672
901.246
914.267
907.674
905.741
911.749
913.016
910.443
912.108
909.075
916.638
918.785
919.095
923.521
920.766
920.987
927.082
917.690
922.744
927.573
930.951
921.226
933.386
920.424
920.546
918.487
924.195
927.659
921.366
918.507
928.341
929.063
931.196
934.109
928.968
929.329
929.648
925.745
919.523
928.341
929.094
929.045
925.971
932.700
924.190
919.317
932.442
933.548
921.647
924.755
924.751
922.419
926.006
921.047
927.691
918.868
922.319
924.730
925.290
919.901
921.835
925.574
920.355
918.993
928.289
927.383
926.361
932.163
917.664
927.697
920.290
922.569
928.881
920.809
930.560
931.007
921.661
927.021
919.638
924.594
925.198
931.160
919.951
918.022
931.308
929.808
925.978
927.394
929.575
923.127
920.832
923.505
916.337
918.790
925.237
930.243
917.980
918.080
924.728
931.107
930.860
918.667
923.098
927.136
919.451
925.926
917.273
930.283
918.270
925.874
920.145
929.661
922.674
925.735
918.816
920.455
921.057
926.409
923.847
921.511
924.447
917.716
924.614
919.524
919.673
922.580
921.340
916.511
927.002
916.834
925.891
921.224
916.347
929.557
923.305
922.999
922.509
920.642
921.605
923.839
917.512
916.468
918.801
924.450
913.923
918.700
921.569
918.345
925.780
919.462
925.764
926.469
920.991
916.315
928.844
925.730
927.154
925.899
924.592
920.037
915.793
922.573
916.134
915.147
923.435
924.355
920.182
927.965
922.288
921.002
918.348
926.329
919.969
917.673
915.486
926.831
916.409
921.463
916.564
912.959
916.618
918.345
919.663
921.962
912.493
917.770
919.799
927.096
913.461
927.956
912.983
927.976
923.961
912.351
919.559
923.829
921.790
925.785
918.055
919.743
922.746
925.150
923.283
925.707
917.507
917.866
914.559
926.881
913.897
924.614
927.043
921.039
922.607
913.836
921.822
921.098
920.807
915.631
911.844
912.422
917.551
925.126
914.114
918.053
914.567
906.443
910.059
910.062
901.386
903.349
911.300
899.953
904.584
907.898
900.766
900.707
895.254
894.033
888.033
887.839
889.573
881.386
881.405
889.013
891.130
875.050
882.752
875.194
878.860
872.930
874.266
874.229
866.704
877.491
877.753
871.666
859.663
863.153
859.367
860.587
857.639
858.057
857.627
860.678
862.762
853.476
855.631
858.505
848.506
852.939
844.003
850.642
847.597
846.490
838.809
843.377
837.904
835.471
840.288
834.189
840.653
836.793
822.815
822.226
827.984
825.159
828.373
815.782
819.203
817.286
811.154
811.967
809.105
808.790
818.149
818.947
812.905
815.741
809.501
807.662
809.817
810.151
803.106
799.964
793.753
794.736
801.658
798.893
788.010
787.565
792.074
790.496
788.862
792.270
778.608
780.994
778.716
784.952
772.691
774.727
768.542
774.999
778.315
768.968
777.312
765.625
770.034
772.182
760.163
754.697
761.205
759.570
761.898
762.309
757.007
755.994
757.028
751.376
751.895
742.672
738.821
745.441
740.135
747.134
743.356
739.261
738.813
743.663
728.830
735.345
728.891
733.010
733.627
735.124
722.043
723.328
717.011
722.456
728.418
714.026
719.174
709.088
716.655
708.230
704.636
710.501
713.581
714.960
707.575
703.884
698.746
699.307
699.973
700.342
705.176
691.217
699.568
698.597
697.121
692.821
694.902
688.202
689.944
682.736
681.401
676.048
677.227
685.707
677.315
679.220
677.044
666.233
666.633
671.831
673.431
665.275
667.900
658.653
668.188
664.641
665.261
665.348
660.864
655.940
648.025
649.158
646.537
643.150
649.659
649.081
649.736
640.667
645.925
638.401
641.981
638.377
629.898
629.524
636.086
624.932
632.215
631.160
630.439
631.677
627.711
640.218
638.005
628.669
634.374
635.914
641.240
641.545
638.780
647.466
643.496
647.862
647.515
645.229
647.533
650.594
642.036
642.611
644.564
645.957
653.061
655.164
655.413
648.253
658.669
656.234
646.404
652.262
655.217
661.531
649.552
663.303
663.649
655.965
653.335
666.669
658.002
657.005
663.481
664.731
669.455
668.108
661.476
671.072
661.065
671.369
659.551
668.576
670.565
666.584
664.566
670.016
665.626
666.341
665.652
677.609
666.511
680.058
678.038
682.563
670.915
674.223
670.589
686.278
675.015
677.500
678.614
687.954
681.648
678.193
690.141
679.931
689.674
678.561
682.827
682.195
686.304
680.770
684.422
682.826
698.127
695.830
684.011
697.810
689.045
691.579
698.327
691.775
701.735
692.861
693.707
695.350
696.053
703.016
701.683
705.355
703.542
698.728
702.070
710.780
706.812
700.385
711.456
709.344
715.384
704.574
712.340
707.542
708.320
716.400
715.939
708.290
714.972
716.628
721.625
707.345
714.036
717.992
719.916
723.532
714.955
723.062
721.637
726.092
714.407
724.535
722.160
728.161
724.530
721.950
724.626
723.159
722.757
732.916
721.256
732.304
725.144
736.065
733.393
738.305
738.315
728.131
737.324
742.633
729.098
739.678
744.969
733.017
733.148
736.331
740.430
732.608
733.336
745.595
746.600
742.995
752.083
744.344
740.163
747.150
746.055
750.318
753.438
742.854
750.339
752.130
750.566
749.983
746.497
751.879
754.751
762.386
755.812
752.515
759.068
754.994
755.623
759.477
755.691
765.418
759.623
753.686
766.836
770.595
759.330
758.451
765.163
762.449
764.336
768.769
774.839
766.259
771.994
769.485
764.657
776.187
770.009
773.836
776.022
769.035
766.110
761.313
757.928
766.946
768.500
760.493
751.801
754.796
753.250
755.588
754.573
751.885
755.508
748.035
752.169
744.955
748.825
743.602
739.034
737.762
741.643
742.886
731.254
734.856
736.023
737.997
732.927
728.496
720.667
722.660
725.933
718.521
720.111
712.285
722.353
716.952
721.048
718.699
707.788
717.484
702.385
714.041
701.414
705.228
709.994
705.997
695.953
704.778
697.938
692.108
694.677
699.668
695.323
699.571
692.097
697.147
688.741
680.881
685.478
676.747
681.711
678.837
672.473
671.581
674.593
674.784
674.643
673.030
677.049
666.951
671.582
670.046
671.470
665.713
662.227
665.043
651.730
658.393
659.339
651.793
659.364
646.987
654.079
642.662
641.314
649.956
638.588
638.236
649.421
639.224
643.256
638.478
634.732
640.667
634.179
639.601
625.105
628.148
627.335
623.230
623.213
618.423
624.420
624.926
627.373
621.351
613.051
612.345
609.740
605.655
614.831
617.417
606.435
610.140
602.699
601.084
595.886
602.436
601.738
592.097
593.938
591.618
601.134
598.243
589.800
588.063
586.072
587.924
592.270
592.841
581.702
581.142
576.198
586.422
571.214
572.102
581.817
575.136
567.350
567.775
573.777
562.738
572.671
570.057
560.633
558.511
568.283
555.134
553.938
563.538
556.161
550.612
550.061
556.158
548.953
547.390
540.552
552.366
540.160
536.670
538.928
534.969
538.287
532.715
540.714
530.061
535.504
536.287
526.897
521.970
523.916
533.606
529.071
523.318
528.003
517.067
525.902
513.883
512.197
509.057
512.955
512.872
504.983
511.849
510.467
501.811
497.625
507.640
505.005
498.141
504.103
505.002
492.659
499.144
487.563
497.212
490.235
496.702
493.627
480.091
479.244
478.921
481.784
479.322
482.750
467.604
473.038
466.154
464.759
470.129
470.383
468.608
466.757
464.034
457.879
450.542
454.228
443.188
442.651
448.364
446.216
448.200
448.238
438.627
432.528
435.194
426.990
431.268
427.930
425.311
417.358
419.603
415.969
415.383
413.469
414.664
412.428
410.197
405.627
413.903
409.860
407.351
398.051
405.195
399.836
391.800
394.684
384.041
394.675
381.621
379.346
383.420
381.850
385.170
370.583
377.197
372.773
368.627
376.347
367.138
364.341
367.411
362.282
356.778
353.139
351.572
355.357
353.540
357.710
352.164
342.137
353.464
347.100
337.106
332.414
341.061
336.963
338.567
339.532
331.789
324.143
319.117
321.244
324.300
312.975
317.772
313.944
319.541
308.232
314.520
308.715
309.272
304.142
306.823
303.824
291.460
290.225
302.798
297.019
288.478
281.580
286.793
279.978
277.700
275.222
275.265
277.786
268.039
274.207
272.517
266.839
264.825
272.078
269.284
266.372
257.378
254.356
258.674
257.934
257.607
242.775
241.316
246.930
242.685
238.669
233.292
240.221
241.954
243.041
229.414
231.925
227.891
235.138
220.087
227.787
226.971
226.217
214.877
221.848
218.217
210.643
216.598
205.727
208.213
210.189
198.571
199.888
191.134
200.819
186.708
185.734
195.119
194.359
194.169
180.648
178.250
182.966
183.524
179.052
171.391
179.063
178.988
163.095
166.118
161.113
160.422
166.903
161.965
160.722
152.625
155.458
150.185
150.788
149.367
141.519
445.205
447.773
442.553
452.286
432.797
423.403
430.272
420.230
435.435
414.735
411.839
409.322
394.209
385.616
374.036
396.127
354.757
341.804
345.603
334.535
355.776
362.357
353.499
330.670
312.362
360.584
342.850
309.566
332.072
313.270
341.976
329.964
329.892
356.659
312.058
304.130
331.976
324.372
335.853
336.606
348.571
309.847
317.382
311.016
307.890
304.845
302.879
344.449
347.231
326.648
317.649
297.904
345.295
325.333
306.737
314.731
295.988
331.506
302.465
328.013
325.798
321.069
295.445
306.594
313.512
289.840
291.918
334.683
317.715
296.436
322.443
288.368
290.308
287.814
329.283
335.824
299.380
297.084
300.592
313.448
328.998
319.996
323.135
331.359
300.340
313.304
286.641
317.569
290.107
287.722
328.591
291.713
328.394
286.380
282.525
318.997
307.314
306.587
300.902
315.495
274.627
299.081
323.885
310.522
317.382
273.309
283.419
297.266
318.724
280.453
278.028
316.641
311.144
313.292
301.561
281.543
273.027
306.813
290.719
274.628
290.956
306.648
267.142
300.825
306.365
305.691
271.987
267.891
274.615
270.742
262.748
264.302
304.488
287.870
277.334
277.795
299.292
296.105
301.851
285.237
267.839
258.633
267.504
280.359
256.076
273.598
252.097
276.253
267.124
268.647
271.151
285.664
291.280
272.295
254.434
252.387
248.344
287.088
248.563
270.260
265.996
289.872
279.851
277.630
244.958
251.544
267.021
241.938
243.464
287.965
266.590
268.379
282.714
257.823
248.381
260.334
277.987
284.550
273.678
280.700
284.980
241.766
270.075
267.305
247.004
249.426
262.310
242.394
261.590
235.184
249.099
268.620
240.734
279.647
244.490
234.397
238.398
228.908
277.434
231.508
272.599
228.255
230.102
256.241
274.913
230.999
227.087
236.563
246.514
251.531
267.812
256.520
229.625
240.704
265.257
262.895
228.017
247.979
229.428
241.165
239.132
140.881
103.808
96.359
128.144
110.818
106.533
136.755
116.944
138.190
146.411
117.014
139.156
124.149
111.101
96.112
139.495
136.328
139.206
101.683
104.211
113.927
110.940
99.009
96.401
131.820
128.153
123.407
108.435
138.037
102.787
103.856
128.706
137.371
111.918
141.041
116.158
120.099
139.336
118.532
113.112
103.582
132.909
130.557
108.182
106.375
105.227
122.594
109.685
140.911
95.276
107.605
130.190
104.324
100.009
116.030
119.033
118.611
137.059
108.597
97.992
119.450
131.596
95.366
104.385
103.297
119.480
122.696
124.623
113.638
135.316
105.384
141.368
129.948
123.582
122.717
140.318
143.140
96.674
95.983
126.211
106.834
129.878
144.671
130.452
102.442
140.255
116.561
129.153
136.758
113.247
113.879
126.988
116.633
96.732
104.436
115.263
140.256
134.787
107.003
97.795
101.479
105.580
108.395
111.826
134.389
121.886
113.139
128.380
109.330
129.431
108.556
131.598
128.369
130.376
113.018
126.883
98.873
138.403
106.116
117.232
114.740
96.479
128.365
110.949
115.451
143.039
117.502
122.574
104.101
102.858
146.687
105.663
133.462
106.114
112.603
103.415
102.031
97.792
121.216
103.353
138.335
137.172
118.891
132.020
141.483
146.716
119.987
106.377
99.211
137.870
142.254
141.727
137.268
105.928
122.860
123.407
114.654
129.710
98.522
129.828
139.956
139.686
144.012
143.152
119.624
136.771
111.684
145.501
129.783
97.012
135.636
112.557
102.593
113.776
97.476
115.229
126.961
129.527
138.206
141.485
132.690
135.406
98.015
103.718
103.996
102.392
112.516
135.587
142.891
139.605
131.626
113.610
116.303
134.896
96.061
128.446
105.203
117.602
146.033
116.492
141.190
96.486
140.884
130.460
95.043
127.692
105.569
103.927
106.488
132.852
114.626
129.904
106.360
95.493
110.260
105.093
139.308
111.715
119.570
103.759
123.596
98.544
100.308
112.493
129.511
116.740
132.018
104.681
116.164
100.990
130.477
139.449
104.005
120.758
104.145
103.850
111.760
99.395
121.385
123.418
109.395
111.647
145.091
138.877
102.838
143.641
132.586
130.130
115.438
126.502
124.492
127.611
141.352
136.567
110.131
108.453
125.222
115.626
100.458
113.787
131.590
139.173
146.079
110.880
136.046
113.312
115.725
140.367
101.728
129.046
123.049
127.585
108.362
119.021
141.891
103.503
120.171
105.746
142.547
138.602
