727.400
721.968
721.206
726.304
727.150
728.529
730.372
728.755
733.626
726.844
734.578
729.792
730.602
730.820
736.124
736.955
741.221
744.506
747.699
740.912
738.931
749.270
738.768
750.687
750.796
740.208
747.794
743.674
744.198
751.339
745.330
749.067
748.696
760.214
756.940
749.864
761.321
748.464
760.123
765.430
765.135
754.707
760.034
768.587
759.295
758.822
770.757
756.406
762.668
765.544
773.132
774.495
762.317
762.796
772.964
765.289
763.541
769.618
771.122
765.400
773.795
764.778
774.000
761.118
763.203
762.717
772.987
766.066
760.488
775.440
770.749
767.536
774.751
763.845
765.401
768.071
763.975
761.177
776.017
761.588
766.791
773.519
769.747
772.647
762.390
776.181
772.076
774.778
760.938
765.576
763.721
769.936
771.365
767.209
767.961
767.186
774.268
768.410
762.552
767.739
766.554
767.421
766.269
769.839
769.228
769.536
763.616
766.835
771.721
761.155
770.083
766.066
761.607
764.939
767.018
766.415
763.072
773.966
761.480
769.958
771.886
773.824
768.461
774.597
766.644
768.967
775.632
766.280
767.876
761.570
767.965
776.702
765.642
773.988
766.276
776.027
769.084
775.618
761.769
767.788
776.266
775.408
768.669
765.984
766.813
768.664
762.474
770.864
766.893
767.620
775.022
773.595
775.016
767.195
764.697
763.940
770.494
769.554
768.939
775.040
777.109
774.650
762.669
766.366
766.182
763.794
773.869
770.115
765.054
769.764
762.740
770.453
763.890
765.974
764.338
772.241
772.455
777.050
770.482
773.374
767.423
769.971
769.317
770.981
764.334
763.005
775.140
764.856
762.163
776.116
775.797
772.086
762.601
777.131
776.343
770.789
768.237
764.349
772.050
775.462
777.659
776.739
768.113
767.156
766.582
773.365
773.592
767.541
763.064
777.043
772.007
764.571
764.362
764.364
768.061
764.239
762.809
764.801
765.374
762.441
763.644
763.743
771.788
770.286
776.902
775.641
766.152
774.432
772.822
774.865
773.799
770.041
765.040
772.078
765.507
776.162
764.090
771.845
770.054
764.885
773.969
766.530
770.312
771.594
776.262
765.045
762.912
764.766
772.269
767.575
767.231
775.213
763.837
774.622
769.868
778.907
767.812
766.351
773.135
780.477
767.173
771.841
782.361
780.201
783.892
776.402
780.272
771.984
777.162
786.086
787.361
784.986
774.206
779.268
776.255
781.201
777.300
779.963
790.665
780.141
787.208
792.573
785.641
789.730
783.551
785.635
796.548
791.948
787.748
789.532
787.379
794.850
789.621
796.370
796.110
792.915
798.761
791.409
793.056
796.687
796.372
791.260
798.071
806.873
807.854
808.748
802.727
809.701
807.655
807.368
803.758
806.286
812.361
803.369
799.997
813.342
815.470
801.976
804.792
809.769
817.812
803.909
812.136
809.484
817.817
818.383
810.312
821.819
812.490
809.579
817.185
817.466
818.697
825.703
815.645
823.126
818.103
823.496
823.151
823.878
815.928
824.249
815.908
816.888
829.979
830.102
826.275
821.190
826.223
833.132
826.168
824.986
827.537
830.321
832.862
836.960
832.968
831.616
826.294
830.233
839.444
834.350
828.333
828.699
835.040
830.076
839.548
831.473
833.331
831.879
834.428
842.519
835.498
836.833
845.677
846.205
849.623
843.091
847.195
850.621
850.214
843.544
839.480
844.270
844.686
845.091
844.835
850.874
852.322
845.921
843.990
844.443
857.538
854.171
858.235
854.543
856.186
855.212
863.719
864.448
862.754
851.024
854.158
865.756
859.926
867.370
867.111
863.742
858.647
864.812
860.157
858.119
861.458
863.348
857.807
871.212
865.081
864.993
868.628
868.360
862.961
867.544
872.443
869.976
868.269
871.553
870.299
868.019
878.726
866.320
878.816
872.365
874.280
879.597
874.188
873.599
873.203
882.541
879.703
884.472
883.566
881.760
883.160
884.897
887.977
883.316
881.634
887.308
886.448
886.290
883.093
889.177
883.007
886.495
882.041
893.487
889.313
882.634
890.306
886.706
881.072
886.269
887.589
894.282
885.435
891.555
890.158
892.433
882.191
888.489
883.222
889.447
893.039
895.750
891.534
882.669
880.334
883.773
880.432
882.074
890.622
893.789
884.937
895.467
881.811
885.029
888.891
890.282
884.294
893.906
880.367
884.849
893.920
883.855
887.914
885.831
894.639
881.201
891.957
894.651
895.759
894.408
894.906
884.191
881.517
889.244
884.324
885.143
882.909
886.986
895.449
894.244
882.298
889.846
889.937
890.552
886.699
882.478
882.384
885.761
885.546
887.883
881.670
887.887
884.388
888.387
882.300
890.470
890.886
883.276
884.433
893.630
893.281
896.325
888.314
883.503
886.493
895.633
888.329
892.775
890.793
892.643
890.280
884.508
895.872
889.124
886.322
883.815
892.669
885.341
896.197
887.262
884.915
896.060
889.774
885.203
888.461
890.510
881.708
890.107
896.721
897.603
892.411
893.921
886.302
883.522
893.589
892.678
896.770
894.585
895.953
894.951
894.011
892.006
897.965
883.051
890.033
883.175
884.787
887.841
885.516
893.249
890.824
893.124
882.224
896.066
885.174
894.598
894.084
894.464
885.644
887.819
885.414
887.504
892.131
890.204
897.122
886.075
897.327
889.671
883.398
893.911
888.567
897.824
889.578
892.770
886.142
894.424
884.514
885.587
897.753
893.809
890.476
886.401
883.150
883.953
896.253
896.080
887.901
894.022
892.000
884.135
898.839
883.648
894.962
897.279
887.882
896.615
891.369
886.244
887.018
888.756
898.604
897.806
896.671
884.398
885.656
897.424
884.132
889.531
884.202
888.489
883.851
891.605
891.592
896.333
897.282
894.948
887.404
894.845
886.316
889.951
889.626
889.562
896.213
889.476
892.571
895.753
895.148
896.304
884.321
887.046
889.583
894.554
886.045
890.689
898.866
899.133
887.443
889.827
893.194
892.050
886.750
884.834
887.996
883.513
894.099
897.275
889.785
898.903
884.231
892.931
886.353
891.035
897.315
895.339
897.378
895.931
896.250
891.596
886.618
883.190
884.597
889.251
891.999
893.333
890.629
889.918
898.379
895.275
889.871
889.895
884.679
890.898
885.664
891.694
887.387
897.597
898.744
891.834
884.345
886.710
896.448
886.624
888.028
896.972
889.351
884.296
895.538
890.459
889.426
891.390
893.440
890.203
883.071
887.474
885.113
894.500
892.305
891.100
887.015
885.778
888.670
895.363
898.663
889.039
896.812
890.605
896.501
895.123
885.445
888.186
883.417
891.752
889.379
892.869
882.591
891.924
889.722
883.541
894.725
897.824
885.500
893.344
884.159
886.649
894.881
890.443
885.855
895.928
892.579
887.807
893.044
893.974
889.537
897.725
889.375
891.574
893.290
883.391
893.637
894.494
889.867
892.501
896.598
884.851
891.123
890.835
889.880
897.887
888.648
888.903
882.434
884.746
887.906
883.279
890.446
893.697
893.577
887.047
894.195
889.757
888.328
896.240
893.854
889.152
894.249
896.990
892.879
890.598
892.296
887.767
893.077
885.908
887.681
897.667
895.736
892.074
888.160
888.404
888.257
882.407
891.392
891.197
884.697
885.068
895.974
891.038
889.390
894.290
885.512
887.545
896.445
892.084
892.255
885.022
893.164
886.391
886.326
883.074
891.825
890.961
891.618
888.826
885.696
892.420
884.360
893.283
892.118
892.666
892.821
885.718
882.270
893.686
881.688
882.122
884.460
893.021
885.138
897.311
886.005
883.163
887.837
885.085
887.147
891.289
886.650
895.290
893.502
898.138
892.535
891.646
890.360
888.777
887.985
890.132
892.063
899.178
889.541
886.816
899.592
900.558
894.945
888.575
891.380
899.462
896.021
890.624
889.729
890.330
891.483
900.628
896.189
896.330
896.846
904.883
898.604
895.818
905.933
893.635
894.360
903.385
901.993
899.288
893.195
896.942
907.320
905.975
902.741
901.467
903.612
897.483
899.191
901.458
897.421
905.107
906.173
905.921
902.938
909.147
911.306
903.465
905.348
906.493
906.587
903.203
901.727
910.331
904.167
907.836
906.497
912.733
903.262
902.525
910.816
912.996
909.494
909.654
906.801
904.644
903.331
907.236
913.991
915.766
907.532
917.152
913.264
919.822
906.684
915.651
916.805
915.545
915.492
922.000
913.810
916.352
911.175
913.678
914.161
917.490
916.088
918.007
923.712
920.108
918.914
910.565
920.385
922.106
918.016
912.324
921.891
919.005
922.334
924.402
912.980
922.197
927.996
923.175
928.170
916.332
927.088
922.364
921.759
929.011
930.217
922.109
924.241
925.136
921.471
920.462
924.528
920.937
924.395
929.916
930.705
925.680
918.732
924.995
920.702
934.483
934.941
923.402
920.865
925.122
931.441
921.424
930.462
924.759
929.493
936.610
931.145
927.256
936.246
935.952
927.421
925.072
935.569
927.348
933.007
934.767
939.377
933.521
938.649
928.683
936.096
938.405
937.457
942.225
934.770
937.002
935.650
937.673
935.905
942.536
934.440
929.829
942.375
936.023
937.187
945.105
942.961
937.485
936.097
943.214
939.591
942.916
943.057
942.571
942.400
944.191
943.215
942.289
945.994
949.023
946.844
944.142
934.891
943.359
946.620
943.385
950.374
949.387
941.541
947.984
939.276
950.132
945.513
940.294
935.598
936.876
939.327
946.272
935.615
935.857
945.126
943.556
929.885
927.959
936.531
933.108
927.255
930.809
931.350
937.963
931.234
930.394
929.794
935.374
931.326
931.369
923.329
930.534
931.895
929.058
932.358
920.435
920.017
925.501
924.593
929.534
922.181
916.647
919.650
914.964
916.586
916.285
914.287
913.693
918.127
917.807
915.714
921.109
916.957
916.293
917.004
913.165
920.290
911.782
917.832
912.263
910.490
916.847
914.306
911.745
910.603
906.748
903.440
906.156
902.650
910.477
913.452
897.941
897.472
904.806
897.927
910.637
907.211
908.168
902.367
895.114
906.139
895.598
905.570
899.392
898.401
898.158
903.184
903.212
892.588
895.878
902.309
893.771
896.905
898.092
889.015
894.926
898.949
893.080
887.820
896.742
897.277
882.908
893.068
889.655
885.861
885.635
881.264
885.194
892.610
886.037
881.750
886.971
879.750
887.175
878.699
885.255
873.501
877.060
886.848
884.029
883.633
870.803
870.926
879.743
877.072
879.981
881.135
878.961
876.809
867.334
875.812
879.374
878.165
864.370
876.752
864.105
869.197
876.872
863.077
862.561
873.712
861.075
872.822
862.887
871.424
868.326
859.122
859.944
856.521
855.024
858.656
868.712
860.425
857.833
867.268
858.466
862.708
858.688
862.607
864.480
858.000
850.566
856.592
857.769
847.215
856.733
854.452
859.470
849.686
845.128
857.354
855.111
844.813
852.656
850.632
841.887
851.368
850.674
840.259
843.533
846.597
842.525
849.056
850.491
842.439
843.395
849.750
835.131
844.353
842.447
837.011
837.447
834.971
832.689
833.392
835.077
836.896
841.295
836.143
835.064
838.891
836.442
837.490
835.153
835.086
830.354
834.304
832.852
835.737
832.100
830.077
827.217
825.856
827.520
825.830
828.933
830.763
831.183
831.380
829.801
825.228
829.366
834.537
824.043
829.573
830.704
828.263
831.945
822.906
834.578
824.950
821.951
832.121
825.838
824.024
825.662
831.462
835.878
830.188
828.984
826.916
824.130
828.495
835.740
833.426
821.605
822.147
827.075
832.558
819.550
832.659
826.299
819.252
819.726
818.929
820.811
829.860
832.198
821.437
824.967
827.975
821.362
824.846
828.155
832.668
828.246
820.756
829.454
831.365
827.070
829.011
823.789
830.010
822.773
823.890
823.166
817.307
828.579
816.896
822.651
827.081
819.214
823.992
818.704
824.700
824.065
823.488
820.302
830.423
821.627
830.516
826.246
825.584
817.293
824.703
825.138
824.049
826.914
823.192
819.177
824.926
813.867
816.048
825.430
825.221
825.607
827.201
812.915
815.059
821.052
826.456
827.097
817.029
814.932
817.248
819.730
819.342
811.495
824.672
812.239
813.361
820.353
825.647
826.487
821.859
816.395
817.348
820.508
816.429
813.596
813.845
824.220
815.267
815.965
813.516
820.462
814.140
820.461
819.988
819.411
820.192
810.535
816.183
815.990
821.961
815.034
821.116
808.890
809.174
810.474
808.278
819.104
815.561
807.311
813.337
811.392
809.433
809.256
806.600
807.614
820.519
810.063
814.740
821.873
817.413
817.596
809.555
816.927
812.611
811.537
819.159
807.273
816.222
809.347
812.270
818.364
810.433
805.282
804.709
812.229
807.600
806.562
808.667
808.169
813.553
816.579
806.252
818.747
812.011
815.990
802.955
815.987
815.043
813.852
812.487
814.999
802.610
806.312
817.393
804.329
803.138
806.846
808.635
799.471
796.700
805.162
791.414
786.470
792.516
791.775
783.342
784.959
773.547
773.571
764.942
761.518
766.892
765.317
758.394
764.839
752.678
757.095
747.630
752.454
749.031
742.483
735.210
729.208
721.834
729.988
718.684
726.636
710.024
715.071
708.506
714.817
705.487
702.251
705.030
689.260
685.074
683.765
681.128
685.196
678.463
682.515
670.855
673.607
665.263
669.014
669.808
659.961
650.181
656.684
650.453
639.317
644.097
632.934
645.435
633.729
635.767
635.537
622.297
625.967
618.308
622.746
618.432
606.725
612.016
606.666
598.859
598.103
602.399
591.922
584.450
584.663
577.157
576.907
579.698
571.004
577.169
564.747
560.297
562.531
555.969
547.125
550.927
544.610
542.285
540.307
543.914
540.942
532.958
527.773
534.022
530.613
518.104
518.310
519.243
513.175
505.681
508.436
507.383
495.274
489.462
488.095
483.979
482.317
491.319
473.226
479.931
481.289
479.424
472.614
462.429
459.896
465.481
461.357
456.342
454.852
445.902
442.860
442.897
433.042
437.347
424.141
426.526
421.315
425.247
422.640
421.808
408.064
405.758
411.158
401.296
400.280
404.190
387.736
399.230
385.319
379.240
389.502
383.327
377.224
365.902
377.378
361.282
363.580
368.575
360.137
355.693
351.758
356.322
350.967
343.163
347.537
337.733
326.373
335.615
334.339
329.651
319.092
320.367
309.092
319.333
310.455
313.644
305.867
293.585
302.756
293.350
294.928
289.162
284.795
285.270
272.449
272.054
264.361
262.752
264.140
266.176
262.360
257.340
260.351
254.073
254.865
244.452
246.127
234.366
236.305
232.697
223.230
223.202
227.403
213.590
209.328
208.702
205.276
207.313
208.343
197.320
201.500
192.510
193.341
195.593
194.584
186.162
198.489
199.266
197.764
195.226
188.771
194.035
189.182
196.470
193.218
192.425
185.667
190.520
191.062
192.780
193.514
182.474
184.636
181.690
181.662
183.954
179.580
179.661
183.561
189.130
182.305
175.033
187.876
177.784
182.844
187.433
180.694
178.303
179.003
185.037
179.813
172.246
180.075
172.443
173.690
177.063
169.717
171.173
173.682
169.186
173.600
166.212
165.177
175.342
167.897
169.432
176.943
177.137
173.859
160.962
162.030
166.223
160.655
159.443
162.399
173.045
166.671
172.782
169.384
163.517
157.580
165.071
159.344
165.492
155.601
156.010
155.923
160.741
165.883
163.781
156.005
152.726
150.661
151.244
152.267
155.304
163.497
148.461
163.172
148.219
150.405
146.598
157.435
154.286
157.534
151.274
159.097
155.603
146.010
142.543
147.154
153.788
153.319
153.280
153.785
144.561
146.185
143.879
152.505
153.677
150.669
152.776
149.345
140.998
148.583
148.062
146.105
135.471
144.198
137.140
146.147
136.005
147.033
135.760
142.076
142.774
135.476
132.786
132.023
144.476
130.101
142.869
137.573
129.187
139.338
128.255
138.881
128.483
135.616
131.264
129.597
129.962
124.199
131.599
130.920
132.762
133.802
135.078
133.543
132.808
134.591
124.028
119.203
127.967
120.178
117.858
117.764
121.224
125.514
121.560
123.764
120.572
123.155
113.534
122.155
116.945
123.556
121.133
112.493
113.073
118.305
119.127
120.835
122.175
115.801
109.751
113.839
110.564
121.837
109.306
105.909
115.197
110.426
117.898
113.626
107.967
108.176
115.992
114.032
105.458
105.593
107.179
102.485
102.421
103.951
99.973
107.388
100.436
104.043
99.088
109.642
240.211
236.047
221.781
207.148
186.825
230.171
219.845
251.602
220.346
240.814
207.826
204.020
185.783
194.191
215.785
230.734
258.450
250.926
200.082
221.930
231.115
244.403
253.487
187.439
179.178
207.397
212.836
197.217
239.585
243.201
256.637
200.232
211.922
206.082
219.510
182.463
190.695
188.012
201.825
242.063
178.517
211.508
256.531
238.725
184.092
237.574
231.074
226.510
176.227
231.291
194.743
246.265
240.102
173.971
244.608
204.899
188.655
189.170
214.732
177.539
218.401
202.225
251.104
209.580
176.475
192.694
181.388
223.315
238.159
240.290
184.793
251.478
236.000
192.060
170.110
223.877
216.176
172.956
170.155
196.681
181.177
187.815
245.403
174.064
178.139
226.014
215.490
193.556
176.442
247.506
179.441
235.695
190.299
194.141
240.873
231.398
230.682
217.917
223.235
198.720
98.127
106.978
129.973
116.661
96.741
130.815
135.145
117.243
118.136
117.784
101.899
98.974
122.811
92.378
126.625
98.154
134.959
128.696
91.304
118.374
114.947
105.540
111.199
119.445
103.570
115.793
100.888
116.821
91.845
129.626
101.742
132.295
114.987
129.540
97.948
120.130
118.183
112.255
119.452
103.857
96.526
94.846
122.685
106.634
120.259
97.044
129.196
96.758
