889.316
885.951
884.456
887.229
883.806
886.369
886.984
884.128
897.943
892.075
896.958
890.892
885.099
891.238
886.693
898.805
883.747
896.714
885.856
892.604
884.950
884.889
887.973
893.118
896.710
887.663
886.381
892.731
888.129
887.090
896.911
897.944
888.956
887.455
882.895
897.952
885.043
897.616
897.166
892.922
894.490
896.280
891.222
891.919
893.220
888.242
891.226
891.202
893.393
893.747
895.657
887.451
892.798
888.555
894.564
897.354
893.616
888.870
897.018
896.033
886.011
894.596
890.052
896.396
884.966
894.937
885.388
888.876
888.781
893.410
895.126
891.903
892.585
896.094
885.442
887.945
882.934
889.882
884.599
896.964
891.245
886.362
889.027
897.486
884.132
890.422
890.143
898.266
892.450
889.230
889.081
894.933
885.514
890.835
890.245
882.804
887.091
889.711
883.350
888.650
884.182
895.183
896.134
897.855
890.794
887.285
894.416
894.109
888.327
891.273
895.046
898.042
887.403
891.623
884.687
885.183
890.133
892.767
887.255
897.473
884.694
889.413
886.316
892.017
892.315
885.276
885.505
886.627
891.034
889.013
883.405
891.239
896.548
886.776
896.107
882.755
887.971
894.263
885.974
886.747
883.242
897.449
889.475
891.215
891.273
897.120
890.819
888.172
894.678
897.203
894.334
893.382
885.621
884.100
896.911
884.047
882.157
888.874
894.737
890.795
884.759
894.589
896.336
881.867
892.806
891.801
893.918
892.618
887.814
889.168
884.551
884.987
893.662
889.827
888.934
889.537
888.309
898.228
893.401
894.319
897.392
887.599
887.845
896.664
902.144
893.206
892.524
888.054
903.014
894.852
898.937
900.674
896.131
902.549
895.079
894.560
903.127
894.844
899.491
899.795
904.811
895.549
896.892
902.469
904.361
896.841
897.407
906.498
900.328
897.414
906.685
901.442
898.714
895.521
905.503
896.898
904.139
903.085
908.522
908.685
911.635
901.593
911.271
913.264
897.841
903.760
905.243
899.444
913.650
906.774
913.647
902.313
909.338
916.158
912.465
903.919
905.466
916.137
917.191
910.221
909.260
904.563
914.183
912.716
909.011
907.052
910.343
919.361
915.989
911.595
905.953
905.443
911.939
916.477
907.597
921.349
916.341
906.752
907.730
921.628
915.321
910.968
911.607
921.195
912.786
911.030
910.909
914.522
920.921
925.212
924.388
914.512
918.411
915.557
925.498
923.767
922.410
923.329
918.393
916.120
918.006
919.819
917.930
926.836
927.093
928.206
923.609
916.322
929.389
922.945
927.271
916.349
919.070
925.337
919.810
927.699
923.327
932.178
920.645
927.781
919.352
921.821
930.479
935.150
922.281
926.753
925.832
927.904
930.529
931.618
927.918
930.694
931.536
932.992
924.540
929.988
926.627
938.885
935.289
937.078
930.694
929.211
933.708
931.414
927.621
934.678
935.680
939.173
931.266
932.235
939.310
931.633
929.255
927.731
931.262
942.963
942.783
939.160
942.663
931.147
930.001
933.195
936.817
944.878
941.470
945.834
941.160
939.840
943.322
941.939
944.743
937.566
947.641
937.899
938.217
941.747
938.018
945.459
935.650
948.626
947.396
937.754
936.635
946.189
942.653
941.154
950.028
941.282
944.835
949.807
936.379
944.535
941.189
940.449
942.097
940.691
937.012
940.343
932.607
936.089
928.390
939.593
942.515
942.035
932.120
925.280
938.576
939.570
923.703
932.587
930.144
924.206
936.421
921.163
925.119
919.938
931.305
934.210
927.969
917.729
917.650
923.387
929.951
922.317
928.439
919.995
913.758
917.563
921.344
927.017
923.477
915.403
911.268
917.949
918.354
917.573
920.892
915.011
922.652
916.761
913.505
915.670
909.561
908.567
910.835
907.056
917.050
909.605
903.362
910.751
900.604
902.957
910.470
910.903
901.293
910.286
907.878
901.480
907.338
901.627
909.464
894.040
901.442
904.090
899.961
906.523
893.377
905.483
891.723
893.372
896.575
899.158
901.951
902.166
902.184
888.703
886.327
889.275
885.058
896.345
892.700
892.137
896.867
896.818
885.607
886.848
886.912
882.936
890.422
878.564
890.026
884.857
890.093
887.133
888.813
879.114
888.176
881.134
881.563
887.090
881.040
873.573
873.259
872.460
879.352
876.117
875.579
869.331
877.437
867.327
869.259
874.981
879.694
880.723
865.283
878.197
864.802
871.107
877.012
870.509
863.789
870.381
863.746
862.142
870.408
859.570
872.893
869.139
871.953
862.071
868.680
870.703
857.474
853.859
865.725
867.525
854.759
863.119
860.447
859.950
850.211
863.662
863.804
852.226
852.331
848.167
858.826
848.123
845.608
845.391
848.150
847.498
849.670
848.372
851.690
852.404
852.840
843.935
846.192
849.268
846.762
843.558
843.328
843.677
839.172
839.925
839.563
839.591
839.155
848.927
843.545
840.160
844.289
845.242
844.549
835.626
837.180
843.980
831.217
838.717
837.335
827.930
830.033
832.893
827.175
830.557
826.592
834.544
828.870
839.960
829.541
830.884
835.957
828.717
831.398
824.870
827.200
836.847
832.183
832.505
834.335
825.033
835.309
832.908
828.865
832.245
837.581
824.187
830.971
835.006
830.409
823.214
825.479
828.905
833.644
824.304
835.203
836.011
833.366
823.608
836.229
828.052
823.098
829.107
822.492
828.957
826.934
827.544
833.423
830.304
823.919
823.670
833.267
831.591
831.457
822.001
831.987
833.249
832.108
831.018
831.474
832.495
821.825
827.638
828.240
823.473
819.519
823.206
819.728
829.574
822.320
821.517
830.783
831.432
824.955
823.536
820.718
821.265
820.799
830.328
829.703
822.992
829.299
819.256
827.719
816.584
823.186
824.623
828.576
816.584
821.155
830.308
821.201
822.590
826.695
817.892
827.835
827.314
823.734
829.087
817.823
818.251
818.572
819.430
820.121
815.917
826.794
825.281
816.379
822.656
819.688
818.231
821.501
827.159
818.910
817.750
817.263
825.191
815.597
826.094
823.870
812.726
824.171
815.146
817.306
823.984
823.597
816.586
814.177
819.738
812.100
818.332
819.609
818.150
818.071
815.761
820.524
812.130
817.032
814.952
819.969
817.282
812.323
811.645
817.246
820.691
823.098
823.920
815.190
812.554
808.211
810.851
812.054
813.888
817.075
815.214
814.833
812.722
809.717
814.622
815.449
816.661
815.694
806.677
816.239
808.904
813.666
821.750
817.058
821.507
818.495
815.717
810.866
811.787
810.830
811.625
810.819
820.502
806.163
817.823
816.189
808.052
805.926
813.498
805.254
816.699
807.657
811.571
818.958
817.410
818.992
807.144
803.183
815.307
805.090
808.400
805.145
810.110
805.158
811.803
807.988
814.028
812.514
804.105
809.555
63.395
63.845
65.101
60.006
80.858
60.668
77.600
69.723
63.146
72.187
73.190
70.714
76.067
79.731
73.396
54.263
61.542
54.937
68.531
72.111
76.878
59.852
54.112
61.047
64.395
79.644
76.710
53.899
61.152
60.830
71.222
60.084
80.174
66.492
67.491
57.778
70.514
55.237
57.871
55.004
75.673
71.942
62.773
71.512
79.565
58.943
69.389
73.601
176.814
171.574
242.642
172.128
179.084
261.766
217.385
207.567
184.019
258.554
201.399
241.719
224.065
220.092
190.132
216.417
228.494
210.043
170.833
248.697
213.540
263.213
190.572
227.993
189.897
259.999
255.581
193.072
178.368
242.503
173.072
219.336
204.375
172.087
226.514
184.204
262.722
208.549
214.269
171.187
199.761
181.574
201.278
211.623
177.207
217.531
237.997
257.114
205.305
247.684
211.259
177.251
142.593
123.438
99.420
141.748
102.091
134.992
97.883
121.604
101.225
142.497
102.152
97.019
112.050
142.159
139.483
134.559
119.940
121.980
112.694
98.711
146.425
112.304
140.370
141.608
111.213
124.903
123.602
111.776
129.170
139.304
121.028
130.620
132.667
109.508
102.594
124.291
119.891
98.195
111.201
104.328
113.478
140.384
118.687
109.579
105.473
120.667
103.552
110.966
122.796
126.435
143.902
107.510
107.928
143.538
136.454
122.252
136.855
98.072
122.813
102.965
140.076
143.915
104.764
113.602
143.619
124.074
116.157
117.449
145.671
113.079
123.252
130.534
142.860
141.388
128.879
96.338
103.546
138.101
145.127
101.743
110.487
119.438
131.868
127.301
144.488
143.000
120.005
126.442
99.810
120.383
129.992
112.378
103.045
106.400
103.257
130.985
143.815
111.769
138.489
123.107
103.258
107.846
104.615
101.942
142.806
134.801
102.664
138.121
105.453
106.508
139.064
106.974
130.393
138.174
97.077
99.995
105.181
114.695
139.518
125.645
137.998
114.498
131.732
138.919
103.590
97.548
101.968
105.953
105.564
115.188
136.819
114.202
120.035
135.230
144.303
119.134
124.370
102.189
102.569
105.271
101.289
119.133
123.580
137.948
97.733
131.248
123.818
132.143
113.344
136.460
105.379
110.906
140.703
103.755
135.980
129.802
130.703
105.345
107.261
105.950
134.977
145.395
121.473
111.184
126.107
110.433
119.942
146.248
132.502
145.936
111.485
125.090
122.712
95.755
129.458
145.349
131.008
140.910
100.047
120.105
134.342
118.110
146.296
100.922
138.400
125.031
119.033
100.509
113.787
112.996
124.829
129.532
121.915
121.460
141.182
111.550
103.937
142.236
124.276
98.754
112.814
124.313
121.057
106.578
103.222
136.390
105.957
122.790
136.275
146.393
105.036
98.247
119.286
130.734
146.131
118.788
128.765
138.854
123.014
138.517
122.752
101.411
145.944
105.654
111.636
112.232
120.761
121.066
123.040
105.250
131.420
100.894
99.141
96.436
104.294
119.925
125.993
111.383
107.300
116.737
100.250
127.337
95.923
138.813
135.510
118.825
129.402
110.722
140.429
106.633
138.291
125.402
129.513
140.619
143.349
132.387
102.953
104.579
96.997
118.082
130.160
98.744
97.206
144.864
133.285
140.665
106.097
143.045
102.113
129.852
133.831
127.385
131.387
109.163
96.079
116.024
117.118
137.813
128.522
105.504
112.836
129.922
125.772
146.057
124.329
132.129
108.333
101.439
138.791
117.028
115.863
115.658
116.852
97.807
116.645
108.979
126.707
140.008
144.264
123.504
99.294
97.920
137.868
122.087
137.781
126.778
107.503
97.680
132.918
135.027
95.661
130.487
115.093
132.158
143.359
130.848
123.750
127.731
94.798
125.266
113.699
119.923
131.167
141.973
130.342
98.627
132.146
116.213
109.965
107.589
105.052
95.128
139.914
145.356
102.635
95.321
119.410
98.884
131.576
126.182
132.186
100.591
141.584
119.495
126.019
127.619
120.973
99.619
123.168
130.543
105.627
145.439
111.604
138.486
99.066
125.701
125.217
103.289
126.980
128.164
98.212
100.919
142.427
137.117
100.012
145.251
132.915
114.638
142.969
96.796
110.447
138.621
122.009
99.140
105.371
134.777
142.799
143.149
97.384
136.265
100.613
111.342
140.750
133.227
118.724
124.540
137.340
98.956
128.110
102.767
125.140
118.622
143.235
144.690
141.375
108.955
97.313
119.233
145.897
141.642
98.705
122.408
101.461
134.636
110.238
124.767
146.357
111.002
133.270
132.666
143.086
109.774
144.807
125.552
131.531
118.596
131.614
134.489
103.361
124.768
117.860
127.357
117.521
100.014
98.366
115.134
106.466
132.682
106.105
131.952
120.551
118.382
131.435
118.222
141.550
110.078
96.761
135.479
114.617
119.295
125.710
97.610
127.829
128.976
140.286
107.335
100.064
113.717
129.593
134.015
94.995
125.189
125.157
145.435
101.711
123.841
130.338
140.787
112.351
117.934
112.956
130.803
109.517
113.022
97.953
98.138
113.195
112.143
98.345
125.053
117.388
125.925
100.126
127.098
136.959
107.858
121.812
129.920
103.248
143.756
130.148
115.379
101.588
128.870
95.100
140.795
108.449
134.785
107.144
98.220
131.890
115.203
122.577
127.597
138.094
98.248
135.797
137.997
130.443
139.441
142.176
97.775
107.947
121.399
108.466
126.554
108.387
143.074
120.611
145.721
143.759
114.755
101.416
123.301
103.874
128.224
131.837
137.573
96.750
120.231
111.364
97.010
117.636
117.474
130.895
97.036
121.771
126.561
106.584
99.395
99.702
131.371
113.061
98.587
117.771
117.821
107.856
120.947
122.740
129.828
117.982
136.892
113.733
125.800
113.775
116.018
113.531
124.095
129.329
129.220
127.093
145.129
116.911
145.293
124.811
146.411
102.502
139.004
107.298
102.407
146.136
123.305
103.540
97.593
111.476
117.496
125.715
106.401
119.160
126.179
132.782
113.964
108.832
131.177
97.422
113.991
102.166
120.907
112.059
121.033
111.413
108.309
132.139
145.344
144.438
142.281
133.222
118.276
102.679
134.740
112.333
127.239
142.977
99.622
143.724
123.451
129.643
140.133
117.016
140.046
108.965
114.170
105.987
130.882
142.386
132.047
144.410
144.184
117.161
109.771
122.192
128.879
112.944
104.371
99.631
121.663
139.418
123.667
133.036
117.514
105.315
122.924
139.514
145.164
130.563
95.925
97.772
112.165
125.317
98.296
99.145
111.951
136.621
125.483
126.257
144.708
96.027
95.405
121.739
138.296
117.486
133.529
136.736
125.510
107.363
139.200
132.487
127.532
97.334
124.636
112.074
139.074
144.800
106.770
137.538
125.255
118.106
96.953
95.526
102.409
121.240
116.037
136.087
98.295
98.558
98.608
143.557
104.999
98.340
135.062
122.130
144.906
122.561
132.526
136.705
127.642
136.474
121.705
111.887
140.970
112.954
114.330
102.400
104.135
99.235
143.277
131.419
135.520
105.366
142.238
112.800
124.205
106.664
95.694
108.836
113.856
106.316
125.634
114.820
138.809
144.198
111.729
136.067
95.178
100.457
130.270
106.885
105.920
128.345
134.436
122.846
110.665
136.147
133.000
142.588
119.387
120.771
104.854
111.964
124.769
99.380
108.512
122.609
117.765
140.208
120.195
140.058
121.839
141.046
103.626
129.897
106.915
106.586
142.882
127.612
120.502
116.651
105.366
121.262
111.686
107.044
138.695
99.905
119.401
114.057
112.654
94.829
110.932
120.066
142.217
106.571
105.208
102.270
118.090
146.375
108.995
131.700
103.221
124.531
126.103
113.589
137.251
129.321
103.415
118.951
144.978
133.582
142.805
127.473
145.949
95.332
109.846
98.180
108.526
109.608
105.288
112.561
144.580
135.835
97.512
139.994
95.151
96.954
108.374
133.276
111.272
129.784
125.541
106.795
138.452
118.511
140.456
141.118
122.894
95.372
102.010
97.723
135.748
122.055
135.612
110.657
117.247
123.607
120.057
100.185
142.452
140.601
136.867
105.821
123.527
113.522
114.009
99.360
103.466
96.024
118.622
141.196
116.778
145.874
126.382
138.078
124.663
136.709
127.445
97.784
128.204
114.033
128.248
142.431
111.511
115.321
126.545
136.083
100.540
116.273
124.340
116.786
146.246
130.301
135.457
98.675
139.420
129.601
107.121
135.561
104.807
130.663
96.670
104.316
101.713
123.128
112.048
129.692
112.741
109.512
143.180
142.128
110.086
118.515
136.057
141.975
121.664
116.067
97.498
106.407
140.932
135.648
131.469
145.894
98.295
102.130
128.611
135.344
118.119
141.467
145.985
111.774
118.405
103.587
110.540
97.976
114.066
99.942
120.650
118.740
134.603
136.258
108.331
100.977
96.175
109.894
99.005
138.490
124.810
144.217
136.503
110.725
139.204
146.693
105.758
111.194
118.857
123.764
97.125
121.154
112.714
108.283
128.284
140.490
129.102
121.555
98.287
118.874
135.108
103.845
143.322
110.514
114.627
95.128
113.215
97.129
111.911
131.593
123.023
130.619
121.450
105.128
117.274
132.507
124.013
123.257
139.622
98.265
134.976
118.962
133.575
115.400
102.019
118.360
109.459
124.847
116.184
116.091
119.210
106.682
146.705
107.375
140.167
106.599
126.021
103.880
97.657
102.596
101.148
114.379
100.621
121.962
132.419
102.080
97.324
125.192
126.393
102.250
99.650
133.565
104.893
105.706
133.651
134.930
99.354
142.967
109.491
143.807
110.574
107.400
126.078
104.980
121.916
144.493
118.058
126.462
106.654
122.707
133.847
116.728
132.993
100.516
140.904
145.530
128.460
100.584
98.004
135.469
115.238
102.822
100.113
135.351
145.358
101.608
97.068
104.211
125.564
98.814
103.944
98.773
101.859
136.670
119.870
119.502
138.002
133.523
106.227
106.777
109.389
95.283
121.911
103.968
138.748
138.320
144.039
125.934
130.605
112.207
136.798
121.062
101.533
95.867
95.538
145.407
112.237
108.820
107.383
110.082
117.216
110.755
104.667
110.280
128.003
146.290
120.255
133.964
145.437
96.280
144.171
107.576
143.814
134.777
118.756
98.061
104.046
139.226
110.138
140.449
101.127
101.212
110.790
102.688
119.578
128.208
113.666
102.761
126.666
115.415
108.189
112.106
98.235
144.979
144.287
146.449
116.822
133.725
128.791
99.069
134.952
99.423
118.921
105.984
130.245
117.217
96.694
129.277
128.265
121.251
111.679
128.819
144.647
115.107
133.197
144.928
139.653
98.115
131.453
110.382
108.341
105.873
146.254
121.580
145.602
143.559
125.696
98.534
96.155
130.576
146.481
101.034
95.819
136.424
144.219
100.004
105.647
123.395
120.884
123.367
126.365
131.610
142.179
127.023
112.116
117.171
136.725
134.338
138.955
131.843
116.065
117.588
143.831
134.042
112.753
112.211
106.414
139.744
96.507
104.974
104.126
126.254
