781.846
776.619
773.367
771.601
777.539
781.144
768.846
775.152
774.502
782.806
771.085
769.007
775.752
778.080
767.108
782.258
772.732
769.693
774.360
778.045
781.029
774.094
776.200
774.814
766.690
766.215
766.830
772.116
770.843
779.693
768.459
770.980
766.906
778.355
767.644
774.706
770.082
764.594
768.962
767.895
776.692
767.746
768.572
774.408
763.663
774.922
776.293
776.597
771.476
767.537
774.747
775.283
763.838
773.933
770.760
765.576
763.074
774.492
770.671
760.207
762.893
768.915
770.854
774.114
767.397
772.898
762.528
764.325
763.896
772.110
772.583
768.522
764.648
765.198
771.954
769.117
770.795
765.771
761.317
758.450
768.476
760.182
764.431
769.693
770.467
755.593
763.875
763.812
759.886
770.099
764.898
762.251
767.676
757.407
754.885
755.163
767.714
758.765
768.619
768.645
768.031
755.614
765.476
759.713
762.961
766.985
755.719
762.331
759.933
758.208
760.549
763.201
758.394
754.209
752.950
751.799
753.448
752.659
751.281
763.150
752.881
752.661
752.746
753.730
762.121
750.625
752.680
762.511
761.533
750.605
760.206
749.799
758.838
748.714
761.036
755.363
762.452
749.185
750.594
752.139
749.792
760.921
759.171
757.565
747.554
758.882
759.292
746.174
761.133
748.351
756.333
762.379
763.295
768.033
758.997
772.868
764.688
773.195
767.160
781.021
780.231
776.767
776.523
784.091
780.785
780.587
790.308
784.209
784.941
785.121
791.948
790.178
789.909
806.542
799.295
807.652
810.965
807.079
813.612
817.772
805.403
813.541
818.343
810.156
818.251
813.300
819.157
817.468
831.447
828.678
828.252
836.940
834.649
829.271
834.315
844.547
837.441
841.945
844.750
851.838
844.754
849.550
848.108
855.865
856.566
862.390
855.938
866.618
857.694
864.984
862.400
875.062
869.865
864.232
881.155
871.144
877.209
875.709
881.623
882.202
887.037
878.469
890.071
894.878
891.703
900.041
902.744
897.020
902.109
902.042
909.110
909.001
901.509
911.881
903.020
915.007
912.156
910.708
912.393
911.721
923.478
914.618
916.073
930.044
932.368
933.242
924.761
933.316
932.078
937.086
937.532
943.311
937.623
936.004
944.714
946.049
950.821
949.324
952.449
955.222
953.490
962.648
959.049
954.427
966.410
962.742
963.476
966.552
974.590
968.139
981.498
976.561
970.448
982.131
980.310
987.374
992.591
979.753
984.435
988.758
989.228
993.537
998.208
989.440
1002.157
995.259
996.634
1006.827
1008.402
1012.414
1014.723
1005.805
1011.146
1013.612
1023.032
1019.802
1027.755
1025.679
1023.018
1019.408
1034.821
1030.010
1028.577
1033.052
1027.609
1036.173
1032.107
1044.051
1050.096
1048.301
1041.291
1040.226
1046.052
1053.511
1061.043
1053.749
1059.162
1064.016
1064.196
1060.799
1065.438
1067.566
1075.081
1075.574
1063.497
1071.285
1082.312
1076.654
1083.476
1073.413
1087.976
1085.832
1080.436
1091.213
1092.927
1084.018
1086.106
1101.332
1099.148
1096.183
1107.051
1100.598
1106.638
1098.226
1107.552
1103.663
1112.952
1116.596
1116.409
1105.961
1113.403
1105.459
1108.139
1095.044
1095.691
1100.458
1095.641
1095.461
1084.700
1094.900
1080.870
1086.586
1088.124
1079.793
1087.814
1076.786
1070.862
1068.236
1078.111
1079.484
1064.825
1072.664
1069.314
1067.059
1061.736
1064.530
1064.918
1052.619
1053.431
1053.857
1049.381
1041.934
1046.899
1037.546
1036.431
1035.347
1034.527
1044.490
1036.772
1038.051
1034.115
1031.772
1032.071
1026.405
1030.982
1018.098
1014.566
1012.918
1023.511
1021.560
1009.360
1012.838
1006.172
1005.219
999.095
1006.656
1009.858
994.447
1005.993
999.033
989.337
985.987
997.663
983.166
988.268
989.058
977.826
981.254
979.375
976.263
982.047
975.529
973.220
973.142
963.957
964.034
958.931
957.959
962.470
955.528
957.333
959.292
949.334
953.171
951.678
951.178
953.053
947.252
944.068
935.723
940.830
944.622
932.237
937.240
937.614
928.827
923.278
933.767
922.524
930.732
913.371
925.465
912.354
921.760
913.796
913.961
911.890
904.590
912.315
910.885
910.452
897.775
904.546
890.839
900.341
887.179
892.232
882.170
888.387
884.274
884.781
888.476
878.102
883.527
874.568
882.354
875.989
867.429
875.700
861.511
857.729
856.453
862.553
859.600
854.613
858.293
862.102
855.932
849.323
841.290
843.170
852.027
844.510
837.304
839.381
833.653
832.156
841.705
827.879
829.360
827.824
818.468
820.615
828.882
820.077
817.048
819.855
815.136
805.665
817.750
815.159
811.135
803.232
796.442
809.137
794.330
795.991
791.145
796.654
790.239
784.833
783.755
788.906
783.553
790.250
780.881
775.511
776.749
770.084
780.966
767.642
774.430
766.103
759.750
762.793
755.969
764.378
752.619
755.906
755.294
746.363
756.389
746.625
749.924
739.420
747.029
739.340
735.864
745.637
743.291
745.517
747.172
745.352
746.874
745.861
746.776
750.196
754.868
743.293
750.147
748.731
759.851
753.897
763.496
760.906
754.617
756.374
754.954
755.758
757.641
761.246
758.813
765.208
763.166
761.569
760.719
760.567
774.904
762.872
772.244
772.309
766.389
767.745
781.034
774.570
781.346
776.116
783.663
785.364
786.936
780.704
775.206
774.816
790.168
785.614
791.679
779.035
791.326
788.750
786.620
785.679
783.284
792.623
786.433
791.108
791.773
792.930
803.153
794.355
799.437
796.889
798.416
805.572
806.929
806.346
811.062
804.021
808.400
809.340
812.655
803.542
802.067
809.590
807.076
809.083
813.732
818.424
815.522
812.773
821.524
810.217
810.965
826.495
818.712
820.048
821.765
816.326
819.341
832.952
830.429
834.936
827.383
830.590
834.705
824.444
837.567
836.502
829.960
830.806
830.981
842.793
830.139
839.502
837.404
834.490
838.998
843.179
842.202
837.598
837.009
845.502
843.047
841.189
854.816
844.604
849.347
850.334
844.556
860.380
858.764
857.932
860.781
853.180
861.450
851.419
852.036
860.265
867.370
855.401
856.699
858.505
864.818
862.229
870.825
875.380
875.201
873.798
873.840
877.513
866.820
870.305
870.806
879.177
883.857
875.298
874.207
871.498
886.048
876.367
885.202
886.785
886.153
891.718
883.292
894.009
891.536
886.538
884.824
887.945
884.415
884.747
891.024
894.360
888.083
889.341
892.657
901.477
898.479
903.088
906.720
895.658
902.853
896.668
900.796
909.891
906.026
899.228
914.016
904.872
902.021
903.026
910.110
916.475
915.104
917.162
908.916
913.331
923.916
912.249
926.991
920.127
927.259
921.962
922.614
921.762
918.237
929.381
930.882
920.147
921.126
922.467
927.405
934.219
921.663
928.114
931.325
933.914
928.526
928.984
929.213
928.441
924.855
920.424
921.611
919.783
927.983
926.178
924.018
932.378
929.651
918.708
930.341
930.227
931.581
933.504
928.157
920.923
922.281
926.199
931.635
923.064
925.492
927.010
931.873
921.927
928.365
928.992
927.310
932.105
932.955
925.951
919.480
923.916
922.437
924.990
920.672
928.631
925.387
926.616
925.792
927.293
923.030
921.245
922.338
922.781
920.200
927.191
917.371
923.040
923.757
918.164
921.477
931.418
925.427
928.610
925.125
928.125
931.514
926.641
916.578
919.407
928.929
924.887
921.492
918.801
923.566
931.550
920.005
921.041
931.037
927.298
917.958
929.645
924.222
919.188
918.061
924.631
929.171
925.982
918.076
916.231
916.512
926.185
920.659
925.684
925.346
926.035
916.551
927.152
924.047
925.120
926.781
930.164
925.811
928.506
923.419
921.245
928.145
920.628
917.036
917.600
926.781
927.874
924.887
926.635
915.506
926.515
924.795
921.407
919.920
923.277
917.181
915.480
924.877
916.737
914.110
920.549
920.619
915.605
924.239
924.743
923.873
926.045
920.753
922.542
924.906
921.247
920.346
915.006
917.449
917.246
925.426
922.694
924.577
924.587
915.615
926.319
913.479
914.243
915.943
921.027
923.946
917.195
923.850
915.710
920.651
913.443
914.890
927.437
921.263
922.344
924.427
920.452
914.908
925.457
919.564
919.432
926.936
914.985
913.789
922.273
912.723
924.914
920.423
918.221
920.321
914.662
923.517
920.271
912.565
926.948
925.918
923.606
914.316
915.356
920.164
926.734
927.202
918.871
920.470
917.933
925.057
914.434
925.767
912.883
918.484
921.105
922.417
920.270
922.233
918.701
917.181
917.888
912.702
912.632
905.634
901.110
902.871
897.933
894.990
896.037
893.981
891.562
896.719
896.833
892.248
889.115
895.615
890.565
887.612
882.004
882.837
882.465
878.069
881.670
882.067
874.148
880.771
868.681
871.954
870.474
865.962
869.689
867.881
860.490
859.624
862.374
862.531
854.839
855.493
854.676
862.418
854.844
852.329
844.893
856.458
852.106
847.685
844.555
849.713
844.934
837.032
834.639
838.399
833.944
839.158
836.911
828.749
833.493
834.781
822.368
828.401
826.141
829.307
816.714
827.537
818.322
819.978
822.819
810.575
810.500
805.795
808.264
810.950
813.779
800.797
808.290
803.617
809.509
795.751
794.169
800.012
800.177
796.355
786.183
800.118
788.579
791.255
794.258
793.137
791.818
782.476
782.484
786.636
782.999
778.092
778.880
768.953
779.769
779.539
773.361
773.152
760.730
767.145
761.924
760.202
767.770
759.805
761.721
754.523
760.130
759.017
755.683
749.439
751.014
752.513
753.690
752.827
745.870
736.097
742.158
742.541
740.713
734.036
738.646
732.187
736.249
736.140
734.524
727.900
725.804
719.609
727.273
715.683
716.222
727.590
717.761
715.248
721.273
708.991
708.828
704.045
713.138
706.016
709.656
710.154
708.135
709.175
701.512
695.528
692.579
702.176
689.409
696.364
688.478
691.281
682.583
692.056
680.961
688.474
687.718
681.618
686.477
681.533
682.306
681.040
680.247
679.404
676.723
665.771
676.412
665.757
674.184
662.048
668.734
665.032
654.308
652.709
666.406
659.376
656.609
659.325
650.444
658.721
655.217
648.105
653.709
653.441
652.263
642.071
647.664
634.773
641.275
642.688
630.225
641.265
630.164
631.329
624.677
634.289
640.020
637.638
631.517
640.442
632.747
644.612
633.201
637.372
637.895
638.977
637.176
646.680
637.588
636.707
640.567
641.406
649.898
651.994
647.522
652.745
653.869
652.056
649.144
650.766
657.949
649.433
650.306
645.604
648.305
661.264
661.349
652.289
650.759
660.665
656.244
659.445
664.790
653.593
652.770
664.363
655.288
656.336
663.289
658.940
668.616
666.759
671.681
664.020
660.754
665.491
667.071
665.329
665.293
664.631
677.109
666.583
677.778
679.510
677.181
668.836
673.772
677.841
683.488
676.690
686.529
672.161
684.856
684.561
678.819
686.458
690.549
687.736
682.752
685.486
682.829
682.734
686.764
690.257
692.065
694.601
693.103
685.960
695.145
694.581
689.802
695.764
691.769
698.178
687.535
694.370
703.949
695.438
695.769
700.684
700.878
701.237
695.241
704.618
697.318
703.195
700.464
705.566
706.763
712.372
703.887
712.358
704.070
713.534
704.591
702.602
705.713
705.240
715.063
709.549
717.603
720.382
712.707
708.098
721.894
710.724
713.959
715.896
720.463
715.757
723.192
718.267
726.540
725.678
725.516
725.213
732.084
723.924
734.153
728.549
720.419
728.387
722.340
735.268
729.778
723.599
732.291
734.249
735.555
730.937
733.373
733.204
733.541
736.887
736.750
735.570
740.494
739.431
748.008
738.795
736.724
739.577
750.093
744.852
747.768
742.530
746.765
751.830
751.623
750.389
746.790
749.689
749.151
746.765
751.773
752.468
752.243
751.691
752.986
757.439
755.763
749.269
759.594
765.980
752.269
766.593
754.234
757.167
768.618
767.594
769.242
760.755
759.912
767.591
772.118
770.828
762.790
766.088
774.479
771.201
768.312
773.504
773.937
768.866
777.858
776.257
770.042
769.769
765.537
758.602
764.421
760.196
755.230
756.112
752.289
753.175
746.798
749.677
752.928
751.427
749.560
740.048
745.611
741.599
742.942
741.793
743.963
742.599
741.268
736.762
727.540
727.775
731.808
729.866
724.830
719.860
726.106
727.391
719.535
725.475
722.644
711.445
716.448
722.384
721.604
707.712
712.403
711.720
709.958
712.495
704.660
704.599
702.081
708.329
704.820
703.069
701.699
697.533
699.459
694.926
697.794
683.149
688.536
695.608
679.507
690.917
680.951
689.612
681.149
671.870
674.883
675.845
677.381
675.472
668.858
675.333
663.664
665.121
672.880
668.716
656.092
668.798
665.429
655.662
657.090
649.893
660.959
657.700
646.756
654.172
650.550
644.576
640.825
651.989
645.703
644.270
647.088
646.067
632.513
629.891
628.454
637.398
634.131
637.109
636.730
624.888
634.350
628.220
622.552
625.721
621.464
622.303
614.187
621.129
614.524
617.407
617.621
617.437
617.051
612.602
615.309
598.747
609.924
610.511
594.251
606.631
591.348
592.628
603.800
588.275
600.525
590.419
583.047
596.797
595.563
584.691
590.058
579.363
574.660
585.972
584.687
571.242
571.657
580.803
568.992
569.645
571.001
576.196
567.833
574.087
565.014
561.343
558.459
559.806
567.274
554.563
558.402
551.294
547.091
556.478
545.297
556.001
549.314
541.340
550.135
538.926
539.318
547.485
540.972
531.141
531.428
537.544
540.842
538.628
529.253
526.387
526.797
534.232
523.260
530.664
519.481
517.798
524.962
522.015
521.170
521.588
517.016
518.443
508.103
506.626
511.698
512.629
509.004
496.967
503.697
498.066
504.402
501.354
500.897
498.862
500.489
488.097
498.155
62.294
62.862
58.952
64.441
66.014
73.138
58.336
73.763
55.134
56.488
73.418
78.682
74.561
66.479
77.910
59.885
67.724
66.981
64.343
74.655
56.528
77.239
55.677
81.002
80.249
80.646
63.485
53.130
53.657
60.359
75.958
74.659
60.939
55.707
77.492
72.736
73.226
58.720
60.240
67.396
68.665
253.214
244.714
176.235
193.439
230.128
220.018
192.011
234.206
184.403
175.079
204.596
220.071
239.453
182.108
212.234
177.816
222.988
250.857
171.518
248.248
218.388
257.169
171.997
211.228
211.203
219.684
216.061
220.306
235.098
220.296
182.689
245.661
177.210
259.733
229.347
235.899
191.851
181.958
219.302
178.072
234.287
242.514
202.738
223.316
217.690
210.410
177.800
199.970
262.191
239.535
178.372
198.903
230.115
187.310
223.110
238.263
236.736
200.280
210.889
96.215
129.382
133.132
111.597
102.997
115.039
133.132
105.221
140.311
102.564
119.110
108.947
109.680
125.613
111.647
107.469
98.942
100.966
111.823
109.746
99.779
104.525
125.116
122.699
130.857
144.051
132.892
123.468
100.642
119.207
108.597
106.894
114.409
135.675
99.249
143.789
118.477
102.075
140.882
131.089
111.581
101.232
133.381
108.135
114.441
112.208
139.480
96.462
104.087
103.501
121.146
139.387
114.683
127.786
99.261
120.708
97.892
126.533
129.371
106.660
127.930
141.298
118.433
139.762
114.647
121.099
129.896
105.299
100.068
117.929
115.883
112.892
101.158
99.412
137.221
122.145
119.678
105.637
134.244
119.477
99.319
114.532
117.823
131.310
115.033
120.276
141.903
131.686
137.849
137.684
138.738
98.503
126.667
110.460
122.776
110.163
117.770
100.869
135.823
129.958
140.528
123.726
133.247
145.151
135.138
100.790
106.064
97.350
115.029
119.857
129.176
127.457
125.927
104.007
141.206
121.300
98.842
131.490
125.193
123.089
138.015
138.410
121.192
96.552
112.090
120.335
99.875
143.044
121.387
122.776
104.934
133.752
139.108
128.108
144.129
143.320
110.221
141.356
117.118
129.403
101.090
107.118
113.960
117.505
114.615
120.747
98.394
126.944
131.703
122.018
128.689
97.598
119.743
145.449
128.239
141.367
131.467
142.785
107.352
139.237
110.489
135.961
142.335
126.046
131.994
122.334
96.295
109.575
100.714
108.046
127.166
107.421
139.538
135.835
122.050
146.343
106.380
133.362
145.183
125.051
116.804
145.549
117.206
145.103
137.622
142.181
115.464
107.331
103.680
144.623
136.460
114.197
132.902
97.193
107.545
138.080
125.322
145.119
106.678
123.202
95.345
121.989
139.372
128.073
95.534
116.705
118.207
139.656
127.415
95.207
141.393
133.563
144.179
98.741
123.108
106.874
121.921
107.770
103.265
98.587
132.327
105.522
107.186
105.454
109.161
113.448
118.110
138.751
129.846
115.537
98.084
136.598
128.279
103.072
107.049
135.956
116.395
128.505
120.863
143.271
143.607
113.541
114.548
104.408
106.010
104.167
107.347
137.542
97.456
96.110
145.788
142.495
98.217
141.575
100.211
138.354
141.729
143.733
125.365
101.755
128.478
104.672
109.293
118.603
132.314
116.907
144.802
105.968
108.719
107.930
116.099
128.605
141.896
122.446
132.427
125.998
122.643
99.123
113.099
108.209
98.493
138.512
141.153
110.206
126.137
110.100
109.550
125.865
111.753
95.432
146.656
114.992
106.775
131.216
124.027
129.712
139.165
131.500
139.256
116.059
124.282
104.169
127.289
137.978
117.620
106.317
138.228
132.471
98.420
137.875
117.070
124.508
123.956
101.115
142.138
97.542
129.033
146.342
99.521
100.211
128.045
117.767
99.862
119.588
117.955
125.308
127.646
143.686
100.412
115.367
106.876
115.944
120.661
134.624
141.402
129.277
108.393
107.731
112.528
109.805
137.461
136.293
114.027
117.547
144.796
112.991
118.097
99.741
131.786
136.271
102.758
99.723
97.354
