715.302
703.191
710.764
715.754
714.787
703.501
701.074
703.565
713.453
715.216
702.220
707.300
714.647
706.250
703.341
703.944
706.200
714.044
706.626
712.245
711.341
707.876
705.099
704.189
712.190
710.025
706.675
698.398
699.558
707.412
703.033
706.324
706.108
703.760
706.641
710.184
706.066
701.088
706.035
700.443
696.579
701.632
700.611
703.703
707.060
701.348
704.730
705.669
705.223
696.730
707.578
695.802
700.301
704.419
696.448
702.126
707.088
700.758
709.015
696.479
706.450
701.838
704.289
703.120
709.022
702.658
705.607
708.425
705.245
693.063
700.557
701.613
693.897
698.987
696.532
701.174
698.708
701.095
700.152
706.421
699.814
701.699
698.091
697.766
700.563
699.366
696.508
694.435
697.771
695.570
696.135
705.272
691.719
698.316
696.635
691.973
693.444
692.407
691.748
701.601
699.005
700.583
692.088
697.242
690.743
696.933
693.800
698.576
699.980
694.302
692.567
703.792
691.087
699.026
691.687
688.564
699.482
698.018
698.899
689.040
694.351
702.211
693.546
698.950
698.950
698.284
692.939
692.851
698.483
696.169
698.041
688.174
689.756
695.791
693.038
696.178
688.732
692.568
697.644
695.611
701.501
696.150
686.235
692.554
690.725
699.075
693.758
686.636
692.687
688.676
692.965
698.068
696.115
697.097
694.350
684.723
695.214
684.534
697.534
698.754
686.069
698.600
696.185
690.154
687.615
696.586
692.038
696.088
690.181
691.065
690.303
697.877
697.970
691.415
687.743
688.340
697.800
689.350
694.589
696.008
694.669
693.422
695.548
690.986
684.589
696.994
693.618
697.277
688.618
690.779
690.433
691.996
689.557
688.744
684.985
687.499
681.695
683.811
685.076
693.736
690.550
690.622
683.303
693.534
682.856
693.284
692.086
694.828
686.496
686.188
679.407
681.305
682.564
691.255
687.400
692.323
690.360
682.650
693.745
685.494
685.773
687.935
688.026
688.278
678.971
682.629
687.247
679.026
692.628
688.873
682.347
692.109
685.965
688.057
680.092
684.060
692.164
677.255
687.207
691.710
688.035
689.673
676.676
681.236
683.365
676.681
691.550
685.087
677.082
682.847
678.396
676.491
686.840
681.643
676.987
684.719
677.022
686.143
677.758
689.251
684.150
678.374
688.660
683.654
691.370
683.763
695.683
689.972
693.435
685.450
685.871
693.303
697.582
698.607
699.493
703.384
704.954
704.380
702.045
697.478
703.740
694.291
698.699
696.605
702.570
711.124
706.531
705.001
707.070
705.121
707.317
713.716
718.496
707.178
712.572
721.081
714.239
708.323
719.087
714.221
711.152
718.349
716.002
726.115
714.955
727.962
728.848
722.354
727.677
725.656
726.584
731.114
722.114
725.504
727.021
735.295
729.113
741.456
737.151
742.596
732.648
737.614
741.678
735.450
735.706
739.015
735.842
742.395
739.422
745.366
743.224
742.435
753.608
747.349
752.262
742.322
754.247
756.447
745.979
751.313
761.234
755.595
753.964
751.866
762.332
766.634
764.346
762.496
765.070
758.757
765.592
769.001
763.235
773.002
761.910
773.226
763.492
765.047
775.504
769.157
769.225
777.946
774.841
769.928
782.469
779.834
772.606
777.920
772.683
774.179
788.294
786.383
783.226
790.071
777.709
786.450
792.739
792.193
788.412
784.884
782.010
788.241
789.987
788.992
791.305
787.415
798.605
793.206
804.665
793.349
795.515
802.770
795.742
802.924
802.691
801.240
801.858
802.617
807.021
801.006
806.219
812.677
813.007
812.002
815.090
817.228
806.260
820.623
821.053
812.529
818.541
812.173
823.720
821.162
818.737
815.754
818.656
827.905
822.196
819.691
828.188
827.390
834.546
832.397
823.744
832.448
831.953
825.040
830.409
837.089
839.497
828.659
840.084
843.052
831.105
839.586
846.093
835.466
840.452
847.370
848.685
838.246
844.063
847.423
849.565
848.422
841.231
855.220
857.314
847.029
851.007
851.813
854.574
860.416
856.688
857.455
850.244
861.087
857.118
856.538
864.607
856.213
862.131
859.238
857.779
854.610
851.182
864.422
859.720
857.434
861.025
863.518
856.574
850.884
861.451
858.886
849.782
854.549
847.590
855.846
857.327
850.704
855.403
844.797
855.442
850.887
854.455
843.857
843.687
843.288
853.798
857.482
855.034
842.784
847.033
844.772
847.783
853.624
843.254
840.209
844.031
845.591
843.839
850.911
846.715
844.177
849.528
844.330
840.984
843.892
846.008
836.321
840.424
843.443
843.569
839.265
840.500
848.593
843.653
834.599
836.736
842.327
846.971
835.966
844.341
842.297
835.703
839.613
843.894
844.335
843.879
838.472
842.029
832.506
841.087
835.388
839.130
837.813
828.869
842.435
840.889
830.452
832.083
829.319
835.726
834.260
827.850
838.956
830.479
832.149
825.344
834.274
834.573
832.469
826.662
829.283
823.453
825.467
822.558
833.526
827.860
834.494
821.109
832.640
831.220
831.779
823.616
823.249
826.127
818.942
823.942
817.620
824.784
820.893
823.584
820.812
821.565
829.641
824.730
822.599
825.753
826.408
824.563
816.438
820.149
823.599
826.960
812.694
816.436
812.818
813.408
826.691
816.647
811.729
812.437
821.670
818.237
811.267
815.668
810.680
816.449
820.758
813.581
811.037
808.633
809.401
819.171
810.696
808.374
812.630
808.453
820.484
819.402
812.521
814.111
803.795
812.412
818.036
807.072
813.088
807.061
806.623
816.171
814.139
808.811
811.388
811.844
806.084
812.896
807.500
807.491
800.743
813.507
813.140
803.137
812.048
801.365
800.670
806.910
802.355
798.484
810.902
796.964
800.036
797.156
794.748
804.345
808.788
804.518
799.245
806.695
807.432
794.085
800.276
800.175
802.058
802.344
799.503
795.048
802.656
804.908
793.063
798.973
798.343
798.752
792.136
787.627
799.502
791.859
788.939
790.883
790.409
791.267
793.780
784.130
796.856
789.601
781.732
782.122
780.781
781.261
790.057
788.814
784.689
783.430
789.266
785.071
783.759
777.693
780.654
774.083
783.823
773.435
778.326
776.711
776.535
777.935
774.895
776.659
769.527
780.845
774.365
781.606
770.679
766.984
775.160
770.686
768.991
774.117
774.391
776.296
762.575
762.237
761.072
774.742
763.893
766.818
773.414
763.850
769.898
772.046
763.680
767.992
770.369
756.318
759.548
755.927
755.660
765.273
757.426
760.124
751.768
763.345
762.043
752.352
763.008
761.882
754.831
754.470
747.977
745.876
746.176
757.593
748.499
750.104
752.586
747.302
748.683
755.084
744.060
750.115
747.987
754.219
748.840
741.568
738.738
743.692
741.221
742.535
742.791
747.016
738.100
744.865
739.222
740.436
731.925
737.494
735.881
741.474
732.255
742.815
730.553
736.664
731.433
737.569
737.823
726.929
731.471
727.938
726.456
727.310
727.214
724.536
723.752
725.603
720.886
730.089
719.621
723.382
730.093
728.473
722.710
719.071
724.902
723.725
723.313
715.512
714.226
716.121
728.524
720.922
727.080
724.079
723.156
714.940
723.317
717.154
722.960
718.491
712.669
710.175
712.280
718.699
708.948
718.247
707.291
708.574
717.675
713.457
713.262
711.336
712.840
715.230
700.802
706.053
707.307
709.812
710.647
700.845
710.176
708.928
700.749
702.341
707.880
693.949
702.973
698.502
702.732
692.619
698.917
698.564
702.603
702.800
692.293
699.593
698.127
689.438
702.556
689.557
696.577
685.165
685.281
695.937
689.729
697.544
690.726
684.322
686.835
686.539
693.039
696.787
687.635
690.049
685.881
684.462
693.618
692.976
700.364
698.074
698.036
690.454
691.828
692.689
702.545
702.699
704.254
709.528
697.661
699.407
699.384
710.376
714.708
699.768
701.094
703.169
707.918
710.401
718.990
715.549
709.112
716.932
721.187
709.942
712.498
717.496
726.379
723.227
714.674
728.945
717.705
728.801
725.535
730.098
718.953
724.472
720.589
731.501
723.690
733.404
736.475
738.395
732.046
731.801
733.880
736.750
732.864
736.701
744.026
744.468
739.732
739.541
734.510
742.329
745.194
741.485
741.743
744.572
750.497
742.436
746.024
752.949
752.826
756.052
755.986
758.964
756.996
758.734
751.821
751.030
749.120
750.321
763.269
764.539
758.008
767.612
754.289
758.864
760.389
764.819
765.499
761.318
771.436
773.749
761.363
770.536
775.558
769.324
778.788
767.214
779.179
773.542
769.226
771.546
774.430
774.536
780.486
774.798
782.954
773.981
788.997
788.292
785.545
777.754
784.690
792.122
783.350
791.077
782.247
781.523
785.677
784.339
792.834
793.565
792.029
801.129
791.130
802.943
800.487
799.440
797.632
805.156
800.404
808.913
799.221
799.654
804.804
799.091
801.773
804.670
803.052
812.607
813.355
816.071
815.846
818.731
809.571
811.067
813.601
811.823
812.809
811.295
810.403
815.654
819.811
814.383
818.229
824.554
819.905
826.739
819.800
817.600
822.992
830.956
827.574
831.559
832.562
825.478
831.770
837.142
832.594
835.251
829.761
836.360
830.220
840.064
831.383
836.389
836.291
838.905
833.348
843.671
844.838
850.676
842.790
842.598
845.584
839.317
841.604
854.660
844.839
857.497
845.458
849.449
851.674
860.918
847.914
853.365
860.022
862.359
855.205
858.673
848.874
859.877
850.616
845.428
848.660
845.551
842.968
849.302
848.056
848.365
833.945
835.720
843.714
831.839
829.626
836.832
830.101
824.135
827.478
831.415
827.329
822.205
830.628
817.547
823.767
813.104
817.211
815.438
817.168
819.986
809.319
804.762
803.323
812.328
808.062
808.745
800.375
806.032
804.581
792.436
795.146
801.174
796.761
788.365
790.161
788.095
783.715
786.782
779.216
786.129
786.419
774.134
788.427
786.519
781.855
774.920
775.415
779.338
772.700
764.116
768.160
763.583
769.290
763.363
763.379
769.034
758.861
765.151
750.763
748.304
755.747
745.763
753.674
752.946
751.090
743.473
742.659
750.644
739.324
746.578
740.809
746.808
739.717
733.696
729.516
735.137
734.479
736.828
723.719
728.863
721.031
727.387
721.589
714.530
728.046
726.581
722.617
711.345
710.288
710.385
706.136
704.336
707.235
707.510
711.725
696.783
698.809
697.735
693.134
697.148
697.693
697.036
693.344
686.116
688.334
697.834
687.347
689.601
678.190
683.338
690.179
683.411
673.691
684.019
670.158
677.725
671.703
674.243
677.953
672.752
670.746
668.548
668.480
663.063
657.533
667.959
657.889
658.074
657.121
648.863
651.517
655.958
645.816
646.019
641.766
645.006
640.233
650.931
648.928
642.947
639.505
632.244
642.976
630.673
628.279
638.555
635.590
637.446
628.867
632.310
622.533
620.401
628.616
618.157
616.567
622.839
620.280
622.334
618.030
612.973
611.048
602.434
607.518
609.130
612.334
597.427
605.995
598.648
600.361
601.182
594.585
592.090
592.157
593.487
586.298
592.292
592.007
590.124
586.043
583.334
579.225
580.048
581.722
575.615
575.626
568.485
567.218
573.865
564.601
566.630
573.313
565.341
577.477
574.747
570.131
568.549
568.113
570.132
576.586
567.368
565.002
572.181
578.868
567.154
580.093
565.560
573.117
580.185
573.330
569.400
574.991
571.336
570.805
572.250
569.502
570.477
571.509
567.213
579.806
581.258
578.575
577.732
574.036
567.654
582.041
576.916
573.312
583.473
580.062
583.229
572.356
575.069
568.910
573.210
572.220
575.415
579.911
573.369
573.131
569.453
578.286
585.386
570.464
572.421
578.643
581.855
576.216
582.057
577.273
573.500
572.359
579.715
574.877
584.670
580.968
573.646
582.676
584.765
582.748
585.274
586.933
585.721
581.826
580.419
582.015
575.106
573.949
587.791
573.761
585.363
589.227
576.094
573.714
574.665
579.337
578.068
574.665
576.313
579.146
580.878
576.169
575.415
580.564
590.295
589.970
588.513
588.312
588.427
585.921
576.663
583.822
582.905
578.931
578.160
586.479
584.668
579.275
587.731
580.712
585.966
585.158
583.579
581.987
593.094
592.350
584.378
586.676
580.884
584.740
585.512
593.924
583.677
589.101
581.815
582.206
590.808
582.896
593.231
590.688
586.339
587.083
583.889
582.792
586.973
594.319
595.060
583.762
595.397
596.459
583.610
582.323
586.312
583.074
590.755
593.574
586.882
593.848
590.820
594.167
585.542
585.059
597.975
588.506
593.309
589.363
588.949
594.322
594.705
588.763
598.513
590.821
597.040
593.986
593.651
597.734
587.291
591.628
595.850
599.036
585.529
599.446
590.703
598.154
600.242
591.367
588.969
597.444
590.849
588.116
601.591
594.399
596.225
600.746
589.366
601.948
586.982
587.503
595.525
587.600
589.917
600.676
592.763
600.439
591.430
593.444
594.064
596.251
602.477
596.736
600.597
595.829
582.280
587.235
592.896
584.734
585.157
576.831
571.796
576.012
566.726
571.045
569.323
563.141
570.604
558.765
558.573
561.685
548.570
556.900
556.881
548.640
544.017
544.426
547.843
543.598
544.602
544.696
536.139
537.481
534.979
523.667
533.353
525.753
516.634
528.264
524.875
516.572
519.161
506.034
513.508
508.199
513.214
499.330
499.271
492.665
490.362
488.977
495.138
489.871
482.064
488.793
489.487
488.639
479.155
479.304
471.866
468.651
478.347
467.772
466.297
464.362
458.086
461.657
456.634
462.890
450.033
455.823
454.731
451.655
454.193
439.148
447.850
442.511
430.829
436.565
427.009
436.663
423.867
422.019
425.590
428.605
427.765
424.393
414.690
420.534
411.696
407.921
403.533
399.439
401.874
398.478
406.832
394.505
391.514
400.162
388.364
393.177
389.140
385.459
381.528
380.657
383.822
370.980
373.464
375.515
376.093
366.871
371.964
363.291
360.018
358.011
363.028
362.577
350.093
353.397
357.869
350.796
352.153
350.706
345.761
334.254
345.346
335.339
336.537
331.796
321.919
324.376
330.918
324.564
325.048
319.071
321.039
307.686
309.968
317.406
301.202
300.545
303.209
304.473
297.323
305.686
292.870
298.716
290.071
294.764
293.053
279.912
281.587
286.458
286.907
276.180
278.356
271.269
263.690
266.235
259.588
261.396
254.695
257.445
256.272
251.837
256.439
257.159
254.353
250.420
242.105
235.244
248.425
232.318
239.202
238.895
237.519
234.302
222.775
222.090
223.294
228.442
225.256
218.774
216.399
218.956
217.643
217.190
215.380
199.688
201.570
203.702
200.710
190.896
193.131
199.553
198.635
190.289
191.014
185.084
179.141
184.694
181.558
172.617
173.642
168.106
173.379
168.576
176.518
165.853
177.119
178.897
176.764
169.787
162.892
172.034
166.694
165.959
161.241
172.700
173.210
165.235
173.298
169.306
164.767
167.701
168.468
168.660
161.872
168.113
157.753
165.550
163.687
158.399
163.093
157.300
157.417
153.767
152.547
153.204
148.945
153.518
147.413
147.036
151.882
158.223
151.083
145.291
159.466
157.609
156.734
148.983
146.020
151.031
146.663
145.046
144.246
146.360
141.782
145.009
143.790
152.852
142.684
136.979
139.686
144.789
137.040
147.890
146.443
143.365
133.913
136.163
140.671
140.666
142.396
143.235
139.418
138.340
142.799
132.337
138.987
133.244
132.750
134.773
125.643
130.997
125.228
128.635
134.295
123.845
128.229
129.509
123.556
120.908
134.092
125.558
121.882
129.175
133.656
132.534
121.308
129.577
123.489
115.589
126.157
129.026
115.186
124.078
128.517
112.813
124.115
111.191
120.827
115.708
117.182
116.843
111.537
114.785
110.726
122.122
119.294
118.400
110.794
114.848
112.174
105.975
118.346
104.343
117.882
107.206
114.163
107.571
114.960
102.486
110.718
106.618
103.902
103.625
98.655
96.813
108.848
108.755
105.965
95.417
105.720
103.908
104.210
105.176
104.226
104.567
102.975
97.347
104.483
98.950
100.226
97.437
92.623
93.743
88.939
87.660
92.396
87.388
85.368
90.599
90.217
93.399
89.777
83.266
83.805
86.155
81.529
92.123
83.185
82.902
82.855
87.263
82.595
84.691
76.087
86.124
80.550
78.332
76.500
74.764
80.282
78.960
77.511
75.585
80.354
74.917
78.229
76.108
70.805
82.841
67.511
72.935
79.606
71.907
79.436
70.025
72.463
74.527
66.939
210.932
253.081
204.646
251.413
229.671
205.587
230.380
217.789
235.330
246.378
210.443
231.692
203.032
182.096
216.619
238.905
181.052
241.202
174.189
169.747
190.826
210.990
215.480
209.418
177.857
243.051
180.630
211.173
215.158
218.079
239.607
231.051
189.558
227.470
198.410
215.547
217.470
195.104
184.068
245.118
178.849
212.462
242.463
238.575
219.358
217.327
224.169
241.949
171.625
200.649
215.429
210.898
189.868
246.490
212.995
222.151
223.408
222.190
190.369
197.553
233.417
188.132
226.875
215.302
241.538
192.318
229.079
167.155
243.087
171.734
233.684
168.190
177.878
174.163
229.786
208.348
234.487
173.438
203.010
210.093
179.671
193.262
168.932
179.106
196.493
178.640
210.033
218.299
217.355
214.179
213.511
198.217
161.975
234.680
242.875
233.312
236.765
226.060
190.220
184.143
134.101
128.745
89.679
125.110
107.644
129.812
120.663
125.282
92.759
96.039
99.730
125.765
92.625
119.004
105.593
123.951
109.616
128.584
125.852
120.788
89.671
119.521
120.120
101.206
116.832
112.353
93.250
104.284
131.674
124.553
119.937
131.763
123.865
133.249
112.959
108.776
93.807
127.511
87.798
123.897
104.160
