875.417
871.865
872.192
876.934
865.536
862.354
859.323
865.370
870.761
861.088
863.029
865.015
864.344
862.906
855.181
853.362
847.120
855.556
845.112
846.546
847.809
849.171
841.565
834.461
841.235
843.242
832.447
835.491
838.526
839.818
836.920
831.332
825.005
830.088
819.659
825.584
816.264
818.725
815.399
816.019
822.995
820.135
809.598
808.032
812.321
815.446
810.611
802.206
811.360
809.467
803.197
800.571
805.944
789.661
789.926
788.630
798.995
793.760
788.773
795.035
791.736
789.116
786.369
788.970
776.531
775.332
776.440
774.490
778.864
780.034
766.183
767.730
764.917
772.145
765.934
764.665
764.523
756.661
754.963
764.554
762.001
760.331
756.403
750.746
748.817
748.318
753.946
740.811
740.289
749.037
741.735
741.693
736.321
732.591
740.167
741.287
742.431
732.322
738.921
728.120
721.322
720.496
722.823
723.849
725.918
715.317
713.197
718.256
711.813
711.754
712.512
711.763
710.939
703.005
709.149
711.365
705.674
701.224
700.856
703.638
692.271
691.519
693.299
689.014
699.578
696.713
695.044
693.916
681.810
680.439
681.544
684.414
678.368
683.653
682.769
674.285
675.964
675.971
670.658
673.933
682.523
670.239
674.306
679.287
672.498
680.225
680.967
681.210
679.152
690.952
682.929
686.911
684.578
685.019
682.071
686.702
693.666
694.706
693.953
691.512
685.253
690.010
700.669
702.473
693.342
698.925
701.209
703.659
697.029
695.185
704.407
694.149
700.796
710.817
707.358
710.347
702.266
712.386
708.596
702.921
712.320
703.272
705.722
712.165
714.384
719.913
708.087
717.869
710.671
713.112
716.001
719.421
712.000
712.743
722.266
720.959
717.222
730.073
716.690
728.579
722.297
728.903
734.989
733.131
730.595
733.242
735.563
724.193
729.808
739.396
738.627
737.295
739.772
731.025
730.035
742.547
732.353
740.084
740.762
743.469
740.755
750.602
736.725
745.911
747.579
743.339
751.715
746.276
748.236
742.190
748.404
744.388
744.266
749.945
754.227
754.318
753.687
750.839
763.753
753.778
752.139
752.798
759.850
753.677
762.264
768.256
766.632
770.688
762.417
765.071
769.766
768.873
771.095
773.461
764.122
762.271
765.781
765.460
778.543
766.624
782.250
778.068
778.655
776.712
776.087
770.492
776.833
774.019
786.801
784.253
780.721
782.663
782.513
777.607
781.468
786.986
786.018
789.315
790.586
782.908
795.326
789.113
789.621
790.736
797.778
789.051
789.363
790.502
794.982
798.538
799.081
795.831
799.458
796.909
796.255
804.200
801.367
800.299
810.120
808.752
802.280
811.939
805.753
815.360
806.354
817.616
810.330
805.797
810.987
809.289
809.746
814.732
823.097
813.597
818.915
819.478
827.715
822.738
824.529
824.392
828.029
824.814
828.127
822.909
827.654
832.756
829.230
825.421
834.173
829.647
824.846
824.068
832.705
834.586
838.572
838.665
834.639
830.380
844.134
840.668
838.522
834.550
832.390
841.975
847.704
834.147
838.246
848.053
833.971
846.560
847.408
835.009
847.183
836.857
850.017
841.556
839.876
851.497
842.482
851.793
854.306
842.306
845.111
849.744
843.813
849.154
849.367
850.021
846.611
850.471
843.032
857.457
844.060
853.167
852.149
858.738
856.359
849.336
857.599
852.184
857.370
848.736
852.727
864.490
849.863
853.715
862.807
864.131
862.012
857.641
857.255
867.166
860.381
855.080
857.807
855.263
856.029
856.906
869.435
856.486
857.890
858.547
858.720
865.139
859.685
865.085
860.860
864.797
863.477
863.660
871.026
874.026
866.587
872.194
874.120
867.591
871.140
863.432
870.908
877.297
876.571
876.585
865.740
878.413
871.822
869.142
878.746
879.662
873.087
879.016
876.930
870.545
873.181
881.024
877.221
878.307
882.446
874.335
882.626
876.935
879.695
879.238
877.942
879.730
882.416
879.736
883.173
886.111
884.454
882.709
890.976
892.177
880.789
891.132
879.237
887.171
885.392
892.831
882.363
884.459
896.431
896.050
888.535
893.794
891.223
895.783
898.836
895.748
896.596
887.694
901.048
896.013
893.815
896.074
888.953
897.240
903.936
894.410
892.754
897.184
891.139
893.831
902.595
901.564
907.073
908.211
907.154
899.024
907.312
898.528
894.577
902.620
903.160
897.916
906.262
911.568
906.683
900.959
903.350
908.632
911.576
909.274
915.066
914.879
905.935
915.037
910.386
905.281
903.711
917.002
913.708
915.565
919.429
914.432
905.095
912.675
914.880
917.280
916.505
914.413
923.211
910.923
915.911
919.999
910.754
911.361
923.319
917.948
915.185
917.594
916.406
927.130
924.185
921.555
924.042
924.985
926.376
928.279
917.306
922.156
930.551
918.693
927.885
925.452
930.928
935.430
923.863
934.829
933.727
936.725
934.293
939.865
938.227
932.273
936.124
927.459
928.403
937.770
939.001
932.087
938.021
944.333
939.960
943.904
936.238
945.905
944.580
945.053
937.604
944.494
939.629
953.121
944.555
954.010
946.193
950.912
948.786
948.214
956.915
945.226
948.341
947.093
947.661
962.433
950.589
963.249
949.753
951.632
955.286
951.798
958.091
964.451
965.844
965.574
959.904
960.109
960.701
970.823
967.750
961.410
963.784
971.801
963.349
972.164
976.383
964.112
965.758
967.951
977.987
972.762
981.828
973.630
967.917
971.122
969.299
971.479
980.755
986.530
972.740
975.182
975.925
986.237
984.381
983.651
986.445
980.895
986.209
987.158
983.401
995.408
993.239
991.851
993.677
987.760
989.170
996.735
991.580
987.537
995.027
998.591
1000.099
1003.339
997.223
989.390
991.387
993.146
1001.960
1003.951
997.365
1005.444
1000.849
1005.016
1008.870
1001.046
1002.548
1007.191
1002.050
1002.269
1004.411
1007.385
1003.851
1009.330
1002.981
1018.673
1016.009
1017.881
1008.589
1014.490
1017.752
1022.925
1013.303
1014.386
1016.632
1012.783
1018.502
1012.750
1028.197
1016.832
1028.701
1028.693
1028.907
1016.152
1020.121
1023.317
1019.211
1030.094
1033.238
1027.863
1033.192
1023.186
1033.574
1038.333
1037.551
1032.672
1036.291
1040.410
1028.865
1040.676
1038.681
1036.553
1040.217
1037.901
1031.947
1032.835
1046.833
1048.815
1042.153
1037.952
1045.107
1043.106
1041.924
1039.685
1051.557
1048.217
1053.691
1054.067
1047.635
1050.241
1057.195
1058.419
1054.251
1051.332
1046.807
1060.500
1059.590
1056.537
1052.822
1050.528
1050.757
1064.656
1064.871
1058.582
1058.659
1061.517
1066.377
1069.775
1062.091
1064.390
1060.813
1062.938
1063.123
1064.382
1059.013
1057.314
1051.669
1057.890
1056.602
1049.109
1050.157
1037.545
1051.096
1038.522
1042.093
1032.145
1040.629
1039.580
1030.463
1037.836
1039.525
1032.358
1026.626
1027.843
1032.738
1024.788
1018.765
1014.676
1023.320
1016.895
1014.074
1021.476
1015.900
1015.341
1013.116
1010.305
1013.578
1004.138
1012.741
1001.280
1007.641
1007.399
1001.782
991.475
996.306
996.624
1000.683
984.295
986.785
995.448
992.915
982.495
980.373
985.440
977.518
976.915
980.150
972.384
978.433
979.104
970.601
965.185
970.078
969.146
960.890
966.741
959.137
962.667
962.624
963.994
960.202
950.666
954.158
944.969
944.460
944.035
940.575
945.839
951.008
939.275
945.832
941.364
933.822
943.066
940.284
937.805
938.388
927.245
935.378
926.862
920.425
931.721
918.981
915.452
918.504
919.408
910.343
924.005
908.381
911.683
917.738
914.719
908.806
905.395
911.104
898.600
906.768
905.717
892.053
895.933
897.713
899.234
899.568
895.347
886.670
890.434
887.386
891.792
891.945
885.287
873.704
878.898
880.571
872.862
875.550
868.309
868.504
877.182
873.729
866.874
870.757
859.248
865.590
861.197
867.697
857.294
862.252
852.722
857.535
859.885
849.930
857.549
853.049
845.516
841.355
843.071
842.785
845.483
842.420
835.289
841.409
826.834
839.372
827.581
837.430
833.536
828.887
819.506
822.237
817.399
815.880
825.732
824.564
812.197
812.839
811.278
808.749
815.641
814.011
814.062
809.669
808.167
799.415
806.571
793.926
793.729
801.122
793.772
790.646
798.610
789.641
788.258
782.680
785.001
782.497
778.710
776.898
787.509
782.266
784.072
769.614
776.396
777.547
770.817
762.071
768.752
761.660
769.421
771.480
769.015
766.605
755.176
753.192
753.616
752.522
753.929
753.548
756.081
754.522
753.167
757.412
758.484
755.430
755.802
754.586
747.700
744.415
747.317
755.560
743.409
749.778
743.894
744.167
749.192
745.918
738.040
743.442
735.149
739.238
744.739
741.017
733.493
742.904
736.382
744.337
743.636
731.791
736.390
731.201
735.693
730.520
731.279
734.547
732.176
729.645
736.992
726.742
724.443
735.205
735.438
730.397
725.420
731.889
720.118
725.417
728.883
724.123
727.238
722.233
725.544
713.702
718.117
713.163
722.492
715.132
711.654
709.207
710.770
707.349
710.522
709.246
704.906
703.871
717.206
717.400
711.861
715.414
700.893
712.545
710.215
702.597
704.331
707.549
711.158
705.929
697.285
696.690
698.063
702.665
698.030
704.175
700.550
694.733
700.868
700.520
701.138
701.043
690.599
689.426
688.325
693.051
697.928
697.839
685.401
688.251
685.273
693.185
683.147
688.331
679.553
682.631
688.223
684.573
676.706
684.540
680.364
680.047
676.392
684.306
676.807
674.688
679.503
671.431
671.648
683.487
669.357
673.100
668.647
671.578
667.441
668.003
664.583
662.281
665.202
671.265
673.792
667.145
661.648
661.311
661.984
664.198
665.493
662.819
668.727
663.623
657.012
663.863
656.182
663.091
662.706
661.010
649.397
657.921
648.432
655.525
654.887
660.622
657.978
648.843
653.382
658.071
655.667
655.225
642.305
646.524
644.872
647.880
644.136
646.098
645.634
648.243
641.033
640.090
635.091
633.106
644.578
644.694
643.526
640.363
635.346
636.161
633.120
643.210
626.941
628.110
634.372
636.206
625.828
633.316
633.230
635.618
636.244
631.009
625.125
633.607
629.127
624.424
621.463
631.931
623.548
619.427
631.188
634.042
620.316
636.607
622.275
623.452
633.026
636.424
634.931
640.066
634.332
637.050
645.338
640.476
640.206
643.549
635.893
639.346
650.060
642.234
646.715
650.380
645.304
656.296
656.901
647.727
660.710
656.393
653.710
661.897
663.597
661.176
659.436
663.449
666.843
662.489
661.442
663.970
673.824
671.299
661.846
667.732
667.036
677.673
677.363
671.754
672.791
674.192
682.486
672.261
672.677
687.536
676.403
690.238
686.147
678.437
682.817
682.201
689.379
686.124
698.102
688.458
687.093
695.157
700.122
691.407
702.879
703.614
701.267
706.711
704.684
703.339
709.559
707.799
699.628
712.882
712.970
712.428
717.252
706.025
721.388
709.276
711.442
720.723
717.569
713.443
725.065
721.378
720.528
722.465
718.923
721.688
723.014
725.256
725.757
725.457
726.909
735.484
734.667
731.559
736.622
736.076
736.788
740.913
735.256
738.677
739.779
742.656
740.525
738.587
753.367
753.581
752.930
755.354
750.827
757.371
747.686
749.857
761.810
750.958
760.995
760.193
761.455
755.299
757.631
759.868
769.680
772.126
761.401
760.479
776.022
766.241
768.005
771.808
767.373
772.502
774.047
776.161
772.944
781.147
778.060
787.369
780.333
775.508
782.905
790.003
788.175
782.371
792.516
784.437
789.115
789.933
797.838
793.631
795.669
788.913
791.804
793.769
804.375
804.971
795.965
806.239
804.320
796.418
808.437
813.343
807.909
808.594
811.322
813.170
808.647
819.633
812.292
809.754
816.067
815.492
820.214
814.067
826.541
822.581
827.187
821.971
832.233
833.781
830.994
824.051
823.553
828.071
832.059
834.689
841.674
838.177
839.656
831.258
839.331
842.512
843.826
840.390
838.542
848.258
838.072
851.385
843.907
854.578
853.238
851.569
843.733
856.048
855.923
857.906
852.621
863.373
861.726
854.142
864.405
859.686
858.852
856.395
870.566
858.518
865.253
872.878
868.403
862.694
862.090
864.875
873.844
876.116
874.927
877.467
875.799
875.656
875.504
876.411
886.689
880.032
880.979
889.204
882.794
892.811
880.681
889.476
887.816
882.993
884.668
896.567
886.957
890.975
898.518
901.903
900.141
902.538
902.715
901.875
908.741
897.172
904.891
907.190
905.589
903.585
913.736
907.794
902.060
914.240
915.079
914.992
905.730
920.871
912.452
918.471
915.083
912.298
914.301
927.452
929.690
930.772
917.966
930.157
932.404
929.921
923.635
921.419
930.798
926.922
934.863
933.669
933.772
936.414
937.871
935.067
942.048
936.394
935.449
937.301
935.654
950.469
943.792
938.314
952.917
951.344
941.320
956.943
949.029
944.433
959.796
957.079
960.242
957.312
955.110
961.752
959.344
959.600
960.865
961.840
971.416
959.138
971.492
969.910
974.097
967.036
970.002
969.406
980.095
972.684
976.541
974.497
980.808
976.922
976.698
978.450
975.479
976.676
984.803
987.012
991.914
992.211
994.719
989.858
985.737
996.587
996.070
990.543
992.322
999.482
991.202
996.470
1002.686
995.950
991.538
1000.067
997.064
996.455
1002.077
1011.937
1012.248
1014.586
1002.353
1011.338
1003.316
1017.337
1004.152
1015.595
1008.424
1008.669
1016.759
1020.973
1016.298
1026.073
1028.278
1018.874
1023.512
1021.038
1022.867
1018.722
1029.824
1022.159
1031.496
1025.754
1024.448
1025.447
1026.799
1041.914
1038.379
1028.812
1032.938
1038.882
1041.056
1042.374
1041.439
1043.394
1039.926
1051.825
1045.702
1052.349
1041.012
1053.611
1043.609
1057.087
1048.382
1045.136
1055.627
1048.938
1048.231
1050.807
1045.755
1042.388
1039.341
1043.551
1039.537
1044.845
1037.886
1037.278
1033.114
1034.101
1038.760
1033.376
1030.835
1029.658
1038.110
1029.387
1027.273
1026.054
1023.635
1031.936
1023.234
1024.552
1027.402
1026.449
1016.335
1018.586
1027.696
1014.797
1017.499
1010.536
1014.002
1020.908
1019.879
1015.859
1014.583
1006.016
1014.698
1006.173
1009.854
1011.911
998.979
1004.625
1004.038
1003.047
995.306
993.413
997.812
994.544
993.073
998.456
1001.301
991.274
998.995
996.409
999.905
984.437
986.939
983.674
983.246
980.451
978.912
979.734
979.634
987.059
978.347
985.452
981.334
983.238
978.391
975.816
980.356
972.367
972.164
971.896
975.469
973.239
964.209
972.321
971.668
963.428
964.396
966.359
970.020
960.441
969.395
968.285
953.944
951.125
959.221
961.637
961.160
956.632
946.299
945.433
946.595
954.417
957.491
949.142
947.079
950.136
941.385
946.459
949.406
945.440
941.929
941.947
937.503
938.750
931.011
937.603
930.318
932.000
926.985
930.853
929.315
936.300
929.592
927.353
931.649
922.097
928.254
932.137
918.233
919.318
926.865
914.465
918.270
922.407
919.720
910.332
910.843
909.775
918.028
914.719
904.931
917.264
909.517
901.749
904.837
914.691
910.772
904.726
904.960
905.019
897.130
899.984
895.375
906.588
904.444
901.719
892.649
889.139
901.036
895.131
893.874
894.521
886.295
894.682
890.291
880.587
892.137
890.830
885.569
881.929
876.150
881.250
873.754
879.653
872.785
873.439
870.742
872.406
866.828
871.589
866.944
877.847
866.415
876.459
860.978
860.204
874.302
865.400
859.394
855.443
869.240
858.666
866.911
855.262
852.473
853.225
851.052
858.382
846.405
852.664
70.813
80.044
65.094
78.138
72.885
81.785
69.062
80.022
74.277
81.919
68.637
66.408
64.932
68.929
77.157
60.410
76.777
75.708
74.985
78.787
81.536
57.914
59.911
68.927
68.414
58.025
84.760
84.318
63.599
83.295
57.893
77.563
70.914
83.822
71.291
83.546
74.829
60.988
82.682
58.669
72.447
82.331
62.862
58.073
63.144
78.234
69.579
203.034
223.357
271.378
196.890
259.243
190.411
244.953
226.287
241.969
200.664
240.033
270.190
256.623
209.634
203.645
221.526
193.208
219.827
215.819
261.237
188.798
186.227
220.399
232.257
228.627
193.660
251.179
241.937
245.060
269.495
240.052
274.415
259.715
223.924
257.388
217.918
270.164
216.955
259.154
204.637
224.186
261.002
235.089
205.666
255.067
220.194
214.765
259.387
201.380
224.941
213.176
243.774
251.040
151.160
141.452
126.500
120.078
103.694
143.476
110.131
107.702
134.715
108.406
149.501
131.865
102.969
107.991
152.305
149.218
137.879
126.029
153.027
130.482
127.061
139.197
120.787
147.181
147.339
147.048
118.956
136.239
138.747
136.264
149.883
138.838
141.284
145.665
150.401
104.062
115.303
115.634
149.990
106.535
131.350
109.333
130.629
104.254
131.225
135.441
142.556
101.728
120.500
114.126
146.494
138.389
147.259
140.380
104.371
144.698
107.574
150.872
117.616
124.116
110.094
142.399
137.788
113.179
129.821
147.971
115.784
134.133
107.252
134.752
141.545
104.551
150.363
128.375
142.502
147.139
144.913
127.134
133.486
127.478
149.922
144.142
103.297
118.811
114.284
147.833
142.586
139.537
138.946
146.838
146.708
105.990
145.047
144.419
135.926
127.118
140.159
133.294
150.697
138.956
142.921
139.245
112.895
147.634
116.360
117.927
141.422
123.476
119.330
128.013
125.430
134.739
115.836
140.930
106.856
115.463
148.719
143.755
134.010
124.527
135.954
142.977
130.354
133.000
138.711
115.590
128.494
118.613
149.480
119.231
118.567
143.788
139.290
101.632
128.980
125.882
115.951
124.897
119.427
122.107
140.444
133.868
116.897
120.927
144.785
137.874
149.354
109.375
130.995
148.777
150.879
150.784
101.912
139.907
131.885
126.053
139.530
148.541
143.634
106.447
129.710
148.418
118.454
