620.601
622.668
613.754
614.590
619.578
625.074
627.638
626.749
614.041
616.086
625.874
614.303
615.060
616.274
613.752
622.894
623.337
626.855
625.847
617.839
614.547
613.789
625.310
621.401
625.417
616.435
626.310
613.803
612.100
624.219
626.539
616.943
618.666
614.661
611.039
624.421
622.514
617.294
621.592
616.286
618.199
611.949
616.734
621.173
623.719
622.526
630.970
625.770
632.341
626.357
621.820
626.502
637.021
638.305
639.974
630.662
634.834
644.134
645.773
634.003
636.277
639.305
647.945
651.570
654.010
642.405
656.827
651.493
656.024
647.457
647.365
653.120
662.791
663.605
658.689
660.673
660.376
667.662
671.381
668.346
661.785
670.217
674.558
674.311
678.659
681.663
679.026
681.730
675.917
681.245
681.206
682.257
684.612
692.463
690.356
682.917
683.853
684.857
693.761
696.470
700.619
698.588
698.209
703.616
706.026
693.528
694.798
696.053
706.270
711.055
708.538
712.841
717.298
718.134
706.923
718.374
713.388
718.434
719.929
726.653
715.978
714.415
724.559
720.575
729.761
731.262
725.551
723.488
725.166
734.018
739.066
733.404
740.770
738.238
732.857
734.261
741.171
737.676
749.965
751.808
749.808
750.164
749.867
742.286
747.807
755.583
746.982
752.721
753.076
752.955
753.154
763.853
756.306
764.553
762.726
765.038
769.845
761.819
772.186
763.956
768.555
769.960
777.039
776.552
781.082
782.895
772.352
778.771
786.273
788.561
784.089
790.263
787.665
786.732
793.857
792.936
786.821
801.066
795.154
795.882
793.095
801.476
803.433
807.048
805.202
808.493
806.918
815.699
814.633
804.038
804.980
810.568
813.752
808.600
817.496
817.308
813.583
815.018
822.869
819.114
819.679
832.507
834.992
832.624
827.133
824.536
824.974
832.777
832.526
830.637
830.914
846.782
836.347
839.529
841.695
852.366
848.919
849.265
850.751
844.354
857.983
852.655
846.289
862.379
856.813
864.551
865.565
859.663
864.244
869.407
865.578
870.452
861.877
875.094
863.419
867.343
873.585
878.502
872.480
868.175
869.174
881.481
882.607
881.287
870.917
882.245
880.555
874.356
877.922
873.043
871.981
880.018
874.129
871.318
863.533
873.485
874.365
873.280
858.690
865.014
871.735
859.280
866.061
861.342
857.054
860.170
856.392
857.375
851.996
857.795
859.214
858.263
846.868
848.305
845.110
846.991
858.197
857.850
854.720
849.893
851.370
847.039
841.060
845.253
839.323
849.258
838.156
845.155
846.269
846.337
843.403
830.328
838.415
843.605
841.047
830.620
828.688
840.188
839.299
839.045
824.958
826.254
834.984
822.808
831.643
819.514
828.316
832.314
820.811
826.320
828.557
828.556
825.466
819.232
817.659
814.663
817.111
815.377
818.835
807.170
819.089
818.744
804.961
817.563
809.054
816.440
807.389
801.325
807.956
800.752
810.253
803.224
799.407
797.363
800.167
805.124
797.389
799.365
801.258
795.669
795.213
790.184
786.941
786.611
792.158
790.799
788.074
782.596
791.021
789.736
790.549
792.728
783.173
791.958
787.563
790.253
781.806
776.100
776.094
779.974
778.217
772.031
773.282
779.056
771.363
774.506
776.600
771.328
769.151
771.112
770.146
774.160
774.563
761.410
766.369
773.419
763.439
766.344
771.607
770.433
760.859
755.388
765.934
766.525
757.356
750.411
757.226
757.390
748.753
760.620
758.974
745.311
744.734
754.568
757.440
745.736
755.617
751.680
741.705
751.140
741.677
743.165
742.643
744.924
737.568
736.142
744.086
739.942
738.330
739.924
740.000
735.521
740.707
730.607
739.958
728.078
724.782
735.415
731.988
730.962
733.077
733.094
724.152
726.059
717.775
731.517
720.188
723.003
726.269
721.227
723.096
725.917
725.766
725.006
717.578
715.901
714.302
718.498
707.871
716.485
715.835
715.569
709.574
709.808
705.056
709.612
710.233
709.115
703.556
710.425
703.661
706.310
707.081
706.499
707.479
711.078
703.228
703.136
696.342
710.113
703.400
709.124
701.919
708.721
692.767
705.619
698.598
700.550
697.579
693.630
692.486
705.756
698.034
702.192
693.152
700.241
701.111
701.757
698.615
699.390
690.592
690.374
691.923
695.867
694.492
688.819
694.053
699.201
697.497
683.329
691.356
686.921
689.555
694.351
690.770
693.593
690.076
686.170
684.817
683.779
680.199
681.796
692.886
682.915
690.592
678.087
691.264
687.136
678.091
678.037
676.969
677.593
684.617
672.783
682.595
675.682
682.313
684.661
674.554
677.846
671.161
671.354
670.785
673.221
670.800
683.437
675.564
680.922
673.448
677.478
679.236
676.805
665.778
672.319
674.176
668.020
672.302
665.909
663.403
675.492
677.065
663.215
667.130
663.574
670.305
662.598
670.504
662.738
671.989
667.016
667.410
669.062
668.368
659.207
658.089
668.095
664.212
669.535
666.717
660.033
668.877
659.683
660.429
666.408
661.394
657.498
664.918
652.689
665.648
653.060
654.872
663.485
657.061
659.637
657.984
652.824
658.291
660.963
659.206
660.889
656.563
655.802
644.652
653.261
643.899
658.426
652.267
651.692
654.235
651.714
649.660
652.696
648.597
652.962
639.323
653.835
643.997
638.415
649.599
646.661
639.516
647.830
637.487
642.398
648.615
644.660
636.669
636.730
635.905
644.623
638.778
644.554
638.637
639.017
641.710
636.479
643.160
642.241
641.007
641.639
642.732
638.148
631.917
639.293
629.414
627.028
637.628
628.862
626.186
635.725
633.133
637.160
633.560
624.269
634.494
625.089
633.750
634.163
634.102
629.156
620.727
624.638
56.262
52.821
66.701
80.455
64.275
77.274
74.720
55.908
57.986
64.365
60.234
80.655
78.302
76.447
78.832
56.367
74.378
74.891
64.919
60.132
69.540
76.257
62.765
67.651
59.880
60.061
64.089
61.162
56.727
54.465
53.510
67.821
72.461
63.278
55.080
63.510
55.689
72.296
62.992
60.356
74.369
73.735
63.517
64.988
62.225
73.561
67.434
247.287
258.947
179.575
182.449
193.064
241.614
198.594
203.919
241.292
229.717
231.700
227.732
252.532
247.498
228.314
197.456
243.918
216.691
223.648
202.193
174.781
189.447
258.137
242.035
263.217
194.044
224.330
205.980
231.475
196.819
256.952
171.917
196.618
217.839
192.761
242.733
242.431
209.912
235.915
172.673
194.354
187.306
208.560
249.652
172.626
240.341
201.541
180.715
213.838
256.683
218.802
180.033
213.815
114.422
95.338
119.089
139.074
141.712
141.128
124.836
100.947
102.719
99.156
144.871
103.115
128.079
96.771
145.543
126.909
143.124
131.174
128.081
116.654
101.552
128.478
97.698
95.948
107.005
107.798
146.508
103.663
129.154
116.829
112.503
133.574
107.873
107.527
115.921
95.918
97.557
137.378
126.786
110.832
138.587
108.703
127.811
107.778
95.432
127.520
118.295
142.872
108.496
132.795
142.899
125.329
134.560
146.719
114.067
131.425
134.389
120.946
136.324
143.313
117.108
115.903
125.829
140.248
128.115
140.682
146.355
104.256
127.805
119.014
143.101
139.180
100.795
96.902
136.632
143.547
94.864
141.199
107.791
137.161
137.642
108.587
123.313
137.164
96.398
129.625
121.709
97.490
139.291
123.549
117.465
102.836
117.102
144.910
129.731
110.219
111.913
112.140
106.022
99.828
115.022
138.890
141.909
103.729
105.030
141.331
145.909
96.189
121.056
120.469
131.432
101.849
145.126
101.105
140.522
138.826
136.265
130.973
139.976
109.984
101.333
114.043
129.775
99.191
117.850
110.682
103.184
130.598
101.427
112.133
116.559
101.241
140.997
134.340
146.395
138.050
97.736
117.962
96.988
122.703
139.295
146.236
141.447
125.064
134.225
140.241
142.471
142.252
106.708
112.702
137.817
110.028
131.522
113.003
129.635
96.519
115.794
136.035
115.625
127.962
97.776
136.869
94.996
131.760
124.375
102.276
113.177
111.731
100.619
146.709
134.980
136.708
110.489
110.677
118.175
126.245
136.701
130.786
132.114
98.521
120.528
134.060
102.140
139.151
127.824
146.525
105.109
99.452
96.299
100.660
113.407
127.436
105.631
115.736
135.393
99.015
112.290
100.402
117.585
95.961
127.945
95.055
102.276
112.000
105.476
134.753
111.154
124.198
126.140
104.197
102.995
143.380
106.681
122.028
99.208
116.665
102.274
137.612
110.386
113.395
95.810
99.130
121.729
95.993
134.278
107.274
112.888
128.324
96.015
119.093
110.760
118.853
112.540
134.308
136.222
113.590
132.726
111.140
130.379
103.293
96.802
110.843
134.792
107.804
114.736
108.787
104.559
138.281
105.890
146.706
102.925
138.101
114.687
105.182
139.338
105.618
127.154
130.342
129.483
110.062
145.045
115.775
106.850
118.925
135.526
135.159
102.675
119.879
96.733
144.643
126.547
127.602
99.432
124.649
96.713
134.512
144.311
97.490
97.683
109.039
121.456
142.534
144.368
137.748
118.750
130.097
130.224
137.094
113.901
122.820
128.033
95.598
120.093
124.098
110.379
102.101
128.499
125.269
112.129
118.633
142.954
135.091
116.807
127.130
137.372
126.434
118.568
95.965
143.990
146.246
100.413
97.068
134.353
99.319
114.163
136.522
135.479
127.095
126.694
107.165
125.885
138.322
124.143
131.986
125.014
109.690
109.232
129.170
109.049
112.223
131.761
120.982
109.215
122.389
124.394
114.464
120.209
110.047
110.148
119.953
95.324
136.144
139.961
113.864
143.255
125.359
101.224
122.179
118.142
99.679
119.739
133.322
115.097
137.875
127.838
103.319
100.943
142.260
110.956
112.692
146.051
110.722
126.974
102.679
138.001
136.403
130.942
113.233
111.193
95.834
112.685
140.774
105.156
127.526
139.800
106.442
99.409
104.713
99.883
128.020
125.881
126.907
99.065
106.584
134.467
107.173
125.647
103.831
136.925
145.573
119.902
125.838
98.775
121.479
143.623
95.289
99.334
95.769
122.179
106.323
109.694
99.617
145.806
103.911
146.279
142.907
136.384
143.193
109.478
135.660
104.368
103.185
138.744
131.716
146.436
119.815
128.083
113.839
132.615
120.012
95.935
107.881
109.361
106.504
122.240
105.336
97.763
114.008
100.329
117.171
112.650
114.112
136.875
122.233
137.320
124.604
120.516
109.896
114.759
144.374
143.829
113.807
95.965
118.883
144.372
143.772
132.451
125.989
122.221
131.314
124.600
114.170
139.098
140.374
111.459
137.215
95.757
127.396
100.516
143.873
124.398
128.153
136.072
110.501
129.255
96.473
109.343
120.988
95.393
100.705
140.566
99.843
125.735
102.514
108.957
113.262
123.836
117.018
95.958
130.722
129.138
125.712
127.920
140.396
128.738
126.385
134.528
116.641
142.485
102.156
104.447
112.528
143.371
139.848
125.607
124.227
100.676
127.787
131.113
95.669
128.715
123.292
123.707
142.449
142.139
144.169
99.933
127.396
108.339
121.204
109.646
118.851
96.525
124.369
142.640
97.374
133.724
134.244
96.234
113.256
110.303
105.820
99.010
143.561
123.047
123.322
101.905
138.379
142.248
126.962
143.148
134.458
119.390
109.303
98.043
119.333
116.309
130.552
110.090
130.966
134.284
104.716
125.652
107.553
142.714
119.557
104.640
128.555
112.500
137.284
145.578
111.339
121.772
146.719
119.185
135.702
95.746
128.252
126.436
122.259
139.756
139.337
123.109
132.186
130.120
99.777
97.489
144.170
97.993
105.544
104.504
121.174
121.980
98.254
132.491
107.117
119.936
98.293
119.583
123.663
131.029
122.773
117.713
146.088
108.704
145.983
125.863
100.262
137.423
144.915
141.837
98.993
134.348
115.224
142.902
96.834
130.615
139.289
115.962
135.276
133.936
122.955
99.847
134.200
95.055
115.901
135.555
109.771
130.475
130.491
127.641
101.046
114.786
109.684
126.298
106.295
112.426
108.491
120.599
99.112
97.243
143.418
110.550
142.325
109.795
105.860
126.079
100.181
142.137
143.971
145.968
143.191
123.580
101.700
145.267
107.590
109.006
95.614
140.204
103.942
132.248
104.539
125.991
102.682
105.616
141.341
121.316
112.767
140.157
99.352
110.525
146.083
114.049
143.206
112.542
135.041
114.237
98.985
105.344
99.388
132.063
112.252
145.723
144.529
142.706
106.038
139.034
146.023
115.900
144.712
145.018
108.926
95.745
123.277
114.626
127.783
104.303
115.900
127.354
99.250
137.030
124.529
125.544
103.272
105.309
125.511
96.334
102.723
120.460
117.171
128.249
109.296
141.937
131.135
131.805
129.411
136.964
120.888
107.297
133.128
117.466
97.134
141.886
104.657
135.497
113.488
135.909
137.250
110.563
127.345
122.059
98.420
126.542
98.531
116.546
96.221
142.174
98.199
138.554
140.150
138.677
105.004
128.644
142.159
131.139
100.769
144.357
124.285
139.781
98.264
115.804
143.583
123.813
118.946
120.975
136.747
140.831
108.989
99.526
124.898
117.306
100.230
120.431
138.917
127.919
95.621
102.762
131.501
133.488
118.542
102.083
103.861
111.310
102.630
130.744
118.225
144.723
130.316
111.742
136.225
124.654
105.503
133.295
134.368
103.483
122.691
97.567
113.937
98.720
119.189
146.256
134.517
131.783
95.782
122.575
118.097
139.024
111.022
122.130
116.559
99.005
109.934
109.249
106.873
146.347
136.980
133.583
101.484
118.233
109.317
110.636
95.451
138.147
95.572
145.409
107.983
131.416
130.241
103.760
132.843
123.544
103.440
133.940
136.102
100.968
112.047
109.350
145.604
122.535
106.539
130.397
102.767
99.934
98.387
104.188
100.276
111.863
125.724
120.179
142.029
130.671
135.880
123.158
121.406
132.838
109.061
126.813
142.899
142.160
118.391
134.835
123.757
103.602
109.152
141.841
98.462
96.545
119.150
110.558
101.664
132.480
129.575
140.499
106.160
114.806
129.176
104.862
97.696
107.897
125.635
135.778
98.457
105.345
97.084
135.597
145.621
97.574
104.193
137.138
97.444
140.971
100.062
117.218
95.190
118.460
103.054
125.281
111.657
143.968
123.012
116.235
108.987
110.825
108.003
139.627
104.714
139.586
117.634
137.246
116.102
115.025
103.468
113.172
99.362
139.307
119.135
109.373
112.828
96.550
119.323
145.318
113.279
97.408
117.275
104.796
137.495
126.183
102.726
98.069
100.585
124.282
143.210
120.055
136.516
141.265
105.501
126.533
143.609
120.914
106.560
95.363
128.645
127.616
99.661
94.874
118.381
122.784
97.193
110.930
139.434
102.273
107.942
136.678
100.006
96.033
125.944
132.270
95.533
144.204
101.839
125.118
145.678
125.626
133.477
110.685
111.135
129.845
145.961
146.501
143.688
125.498
136.910
119.663
118.059
96.515
97.908
116.985
120.345
139.068
120.429
127.375
119.368
114.844
143.113
122.875
119.098
116.973
135.851
120.619
110.113
135.766
118.947
135.299
143.282
131.122
116.935
105.576
146.039
110.998
141.214
97.247
132.872
113.678
119.259
124.553
125.162
115.272
133.220
145.845
95.085
97.686
105.252
111.063
108.732
140.587
137.454
122.504
106.841
139.535
128.871
110.930
133.650
107.511
124.751
107.840
110.557
122.883
102.470
120.895
100.008
135.898
137.045
110.357
111.946
129.270
100.567
132.830
117.666
105.084
137.028
140.648
110.411
108.595
124.726
120.078
121.380
121.530
133.366
119.230
143.315
115.462
98.617
124.322
102.315
125.519
119.675
118.998
95.946
114.913
143.999
102.862
122.990
109.074
103.489
119.393
141.588
126.774
122.697
97.606
116.753
112.625
127.362
125.456
107.634
115.004
113.075
111.334
121.545
141.748
141.738
100.554
107.579
107.252
117.777
101.635
97.189
140.968
140.314
117.315
106.011
121.943
100.401
100.084
105.153
101.197
116.707
133.564
115.798
146.298
129.590
118.031
131.796
133.764
131.391
127.495
138.638
110.914
129.386
144.360
111.358
126.065
134.796
105.503
99.565
115.743
120.913
139.821
144.722
135.533
122.931
137.905
98.732
96.661
113.609
104.357
132.942
145.949
102.740
120.144
123.749
124.187
107.733
141.190
143.583
120.403
106.826
100.050
105.261
136.052
112.503
132.500
139.775
96.243
140.200
128.817
125.215
141.514
128.438
123.305
98.914
99.293
127.244
106.376
124.357
113.730
108.605
123.254
116.988
110.473
109.720
105.669
115.550
101.225
102.419
122.742
119.991
119.434
137.524
124.328
137.631
110.863
129.756
119.583
146.247
96.694
101.001
98.733
117.700
106.555
135.260
124.524
97.512
126.881
94.818
130.382
107.487
128.623
97.634
100.054
96.449
115.597
118.994
124.431
136.142
98.132
104.867
131.849
105.100
123.772
134.899
146.044
107.327
110.764
102.022
122.833
116.826
128.689
107.217
118.259
138.978
96.396
124.103
130.458
106.738
136.204
126.739
106.599
129.786
96.668
124.033
99.635
113.484
133.698
96.565
115.756
96.115
125.244
140.436
110.216
144.586
123.253
115.032
122.079
117.696
126.469
145.477
133.395
100.534
119.166
114.049
118.684
115.826
113.762
127.533
126.840
121.376
142.003
111.054
129.490
133.820
102.869
126.420
102.315
118.712
110.327
120.845
115.954
135.017
117.182
132.565
140.459
114.026
145.568
117.562
97.769
132.432
125.501
130.888
129.039
105.688
121.698
112.492
146.489
102.842
119.099
135.930
108.673
116.482
141.566
109.266
137.429
129.560
96.365
99.262
134.912
141.337
122.946
115.163
