704.790
700.064
702.566
698.304
693.340
697.967
703.947
692.830
701.222
703.912
692.989
699.574
702.381
692.283
694.066
697.647
699.619
703.197
698.888
704.854
689.613
693.515
695.905
702.342
691.052
691.353
694.553
696.043
688.686
691.335
695.746
689.165
687.652
689.806
688.640
689.201
698.620
701.122
700.899
697.890
692.867
691.755
693.836
696.929
693.256
700.146
693.732
688.792
686.480
694.302
686.511
690.841
700.665
687.368
698.242
687.871
699.840
690.267
692.058
697.034
688.538
685.017
686.054
699.647
688.249
692.270
691.212
690.693
696.476
695.913
684.271
695.964
685.267
690.566
692.873
689.064
690.971
688.454
687.323
689.571
688.330
695.451
692.508
692.845
690.819
687.736
682.924
696.059
689.291
695.523
693.185
697.102
696.196
695.260
696.711
695.699
681.415
695.322
683.929
686.982
688.936
694.173
683.900
693.436
684.793
691.560
692.640
696.174
682.619
685.112
692.024
690.142
685.376
693.606
686.249
679.853
693.130
690.766
691.206
679.116
684.080
692.815
693.387
692.749
684.087
679.167
687.333
690.317
690.775
688.032
686.537
680.371
690.115
689.232
691.928
679.390
677.861
690.509
677.285
683.752
692.477
687.083
681.220
679.216
677.754
690.996
684.174
691.823
682.818
677.806
690.534
677.188
677.915
676.337
685.266
688.426
689.760
682.616
683.405
675.547
686.404
687.982
681.162
688.943
674.832
682.041
675.453
684.201
688.580
684.890
682.104
676.998
688.647
682.318
680.009
681.081
689.397
689.137
691.080
685.427
688.173
687.934
692.343
701.248
701.742
698.605
705.730
706.902
694.611
706.406
695.032
697.677
698.880
701.590
707.864
700.267
700.861
701.812
710.727
704.537
713.410
713.367
706.023
716.012
707.597
716.461
708.293
714.662
717.611
714.934
727.492
718.073
720.440
722.606
715.325
717.858
727.868
732.364
732.379
727.628
727.775
733.020
732.070
728.975
738.534
730.265
726.709
737.757
736.143
741.433
743.915
739.599
741.981
735.021
737.251
740.841
745.999
750.439
745.929
737.642
745.885
740.812
743.032
754.810
749.050
744.941
743.800
757.796
755.513
748.782
748.063
759.764
761.264
765.166
755.695
767.649
768.169
767.909
766.375
767.046
764.104
767.242
771.028
768.495
764.901
760.792
776.930
772.002
775.935
771.221
779.358
776.110
767.633
779.186
777.407
775.413
770.938
786.591
786.358
788.760
774.498
776.539
780.007
778.276
790.540
791.918
788.980
793.088
783.784
796.459
788.097
799.398
792.887
794.228
802.143
799.388
790.132
798.776
800.929
793.755
797.272
803.800
805.526
806.196
803.332
802.150
800.966
806.757
811.168
805.994
808.831
805.735
814.322
814.062
804.527
809.256
813.757
810.402
820.641
813.160
812.475
824.381
815.058
821.205
824.126
828.971
823.255
825.043
821.585
820.664
829.810
822.299
825.437
825.256
836.039
828.065
829.120
833.153
838.653
839.952
830.244
842.844
833.647
831.680
840.495
831.838
839.131
839.443
849.243
842.377
847.761
849.872
841.546
850.123
842.712
856.472
849.384
852.448
850.829
846.582
859.416
850.327
847.900
857.398
858.861
860.620
860.263
864.117
858.113
866.988
863.504
867.243
865.776
863.262
857.844
863.555
851.767
852.231
862.997
859.230
851.726
854.036
860.742
858.117
860.092
855.466
853.145
852.520
851.265
847.079
851.389
860.852
857.379
845.885
859.884
859.387
845.249
855.525
842.968
857.191
846.076
852.482
848.399
853.732
850.166
845.198
845.368
848.383
851.352
846.000
849.085
847.221
843.472
853.010
838.229
850.193
843.256
838.057
839.148
847.527
837.348
845.654
845.394
845.341
840.118
837.203
849.414
847.918
837.617
834.453
833.702
837.975
843.138
835.890
844.222
845.053
844.665
842.211
834.213
842.726
844.384
843.437
836.848
843.997
832.600
844.029
832.077
828.221
834.988
838.740
827.792
834.795
838.764
829.959
833.199
831.922
838.541
824.750
835.396
830.256
836.912
830.585
823.875
832.580
829.778
827.861
832.237
825.578
823.398
824.413
831.189
824.349
825.240
824.780
831.438
823.005
818.507
830.952
819.485
833.261
828.832
829.182
818.380
825.811
820.683
816.268
822.875
815.233
827.353
823.686
825.037
823.716
817.129
821.912
813.188
813.249
812.793
826.587
815.961
813.591
825.079
811.203
823.366
818.559
813.471
821.628
811.348
823.953
824.272
816.654
812.649
809.709
811.002
810.534
808.312
815.611
811.329
809.050
807.628
819.542
805.319
806.623
813.080
817.830
819.356
803.741
814.778
814.168
806.864
813.122
814.882
802.203
806.723
814.243
801.190
804.822
799.755
800.698
811.613
801.393
813.309
800.169
803.138
804.542
801.443
805.389
806.529
811.128
807.776
803.796
801.020
809.915
809.098
801.916
806.051
797.914
802.085
800.109
803.732
800.941
798.339
807.013
799.805
799.214
797.551
804.701
804.281
803.370
792.406
790.098
796.087
797.133
789.041
789.016
795.454
787.552
792.417
785.284
796.312
795.750
791.521
787.173
796.348
796.693
793.471
782.154
787.020
791.343
784.193
792.331
787.815
782.447
782.981
791.560
789.274
783.103
783.864
776.167
775.367
787.227
774.865
781.105
782.481
778.827
785.483
779.780
771.105
770.223
782.362
779.551
767.879
780.074
769.409
767.985
769.845
767.997
779.214
770.077
777.441
772.702
775.751
761.700
761.334
770.628
769.282
758.601
760.396
767.169
771.403
771.415
770.656
759.652
761.441
761.783
759.388
753.577
757.827
760.709
758.419
759.963
759.651
751.517
760.435
754.062
752.937
749.433
746.963
756.212
761.274
753.087
748.490
753.532
750.326
753.386
748.366
753.219
745.688
741.733
746.948
754.359
744.846
750.515
741.543
739.067
751.486
738.197
750.930
745.661
735.736
739.374
747.200
739.487
745.825
737.724
735.544
737.223
738.536
741.207
730.019
738.518
731.535
739.089
742.724
732.197
731.806
732.627
731.751
736.023
729.298
731.024
735.012
732.600
734.778
733.366
721.266
720.366
727.151
727.024
728.593
724.538
725.454
727.990
722.970
722.332
717.213
718.853
724.577
718.224
720.575
721.960
724.820
722.654
725.101
718.120
725.034
724.446
716.548
720.617
717.305
708.872
706.985
715.782
706.387
718.174
705.535
706.505
709.160
711.112
707.546
712.575
711.467
703.932
703.344
699.733
713.189
712.097
698.235
710.621
707.590
699.879
705.109
696.268
701.187
701.958
702.821
703.349
703.901
701.534
698.242
691.663
699.038
690.741
701.276
692.679
694.356
692.006
697.418
700.669
685.753
690.847
688.956
697.030
694.247
685.018
683.172
689.631
688.278
694.897
692.838
695.611
684.664
696.989
685.736
692.862
691.720
701.843
701.434
699.973
702.444
700.094
698.953
697.657
702.291
697.355
695.343
699.669
704.365
704.613
701.001
700.441
708.417
700.805
707.477
713.407
713.301
706.952
706.066
718.651
713.621
719.771
719.441
718.558
712.824
722.475
717.894
724.074
727.802
725.188
716.137
716.309
718.530
723.798
728.063
720.040
731.693
726.013
724.974
722.850
723.094
737.979
734.498
726.808
726.198
730.523
732.455
736.227
731.407
740.588
743.399
747.001
748.025
741.099
745.519
744.179
739.628
740.504
740.531
746.537
752.075
747.285
754.978
744.096
750.751
745.731
753.434
754.804
758.268
756.502
759.263
764.335
751.458
763.395
758.323
757.097
763.112
767.875
761.727
760.344
762.801
761.775
766.324
772.133
765.086
771.111
771.989
770.074
771.339
771.943
772.928
776.117
771.195
781.775
776.870
772.311
777.524
773.664
785.690
775.714
777.566
788.862
778.100
778.585
782.184
782.438
782.777
785.668
793.159
789.469
797.645
791.878
793.365
788.745
795.071
800.175
791.465
790.463
792.336
791.548
796.549
791.991
803.851
808.278
809.045
800.890
802.570
810.826
806.299
813.504
804.101
804.997
806.818
807.952
818.154
807.683
811.163
820.845
807.871
813.555
815.118
813.578
820.461
823.801
824.551
822.426
821.615
823.749
824.740
829.751
825.796
822.629
827.869
822.520
831.271
828.901
824.661
822.801
836.188
825.509
836.974
834.226
834.816
839.708
828.636
832.221
834.349
837.706
837.692
835.953
839.203
849.303
842.870
837.392
837.046
839.336
840.167
847.339
845.514
856.179
854.691
852.341
850.998
854.475
860.436
848.751
855.364
860.697
854.811
863.020
863.800
857.879
855.341
854.413
850.757
859.070
848.149
850.730
839.095
839.352
847.723
845.996
836.663
844.371
843.879
840.775
838.429
826.330
828.173
829.861
828.061
829.642
822.147
828.037
822.950
819.837
820.840
821.374
820.522
815.538
809.824
808.400
818.685
817.414
802.595
815.572
804.972
800.758
798.440
796.803
801.296
801.042
793.579
803.052
799.547
792.349
788.837
792.470
782.311
788.441
784.725
785.824
782.484
779.117
783.380
782.115
775.432
773.588
775.646
768.251
778.359
774.003
763.902
760.290
773.776
765.128
755.773
766.854
757.293
760.822
749.924
748.580
755.859
750.173
757.417
754.958
749.976
744.529
739.442
749.291
739.445
735.157
742.218
734.602
736.607
734.071
730.563
739.408
729.718
734.725
734.559
732.951
721.958
727.592
730.587
714.028
713.648
714.212
713.914
719.301
719.307
715.301
713.269
714.364
702.108
702.855
698.467
702.577
701.100
698.118
705.557
694.589
693.616
688.769
692.675
696.068
697.141
697.592
687.163
682.601
689.730
676.941
681.573
677.364
675.896
671.754
681.893
683.065
679.475
679.782
677.651
675.972
670.225
667.596
664.447
668.500
667.606
664.338
665.478
660.888
650.839
650.003
655.149
659.354
643.656
653.392
652.462
649.619
652.515
641.094
635.550
642.889
645.327
645.202
644.073
630.444
639.694
630.192
630.577
628.693
631.422
628.769
632.100
628.835
629.099
613.878
625.180
622.338
613.735
612.050
609.675
611.975
616.125
606.861
612.837
606.792
606.212
608.874
600.123
607.149
602.490
593.113
602.499
601.023
586.258
590.024
597.886
591.141
590.832
582.164
579.980
583.533
585.669
578.061
579.649
570.788
581.215
574.645
579.567
570.946
569.897
565.488
574.139
570.600
573.043
578.176
569.867
576.765
571.620
575.458
567.933
573.799
573.710
568.058
571.781
572.779
565.489
575.775
571.620
571.309
568.205
568.593
576.674
567.537
578.900
575.332
566.184
572.027
566.875
578.752
572.102
567.164
570.589
578.785
582.400
574.108
570.229
572.979
568.909
573.764
572.653
578.445
574.514
570.333
577.607
584.075
576.791
569.579
572.420
573.933
579.633
584.632
584.735
570.732
581.604
574.789
570.264
570.967
572.328
575.128
584.677
580.009
572.820
581.577
573.165
574.043
577.826
577.063
580.245
583.854
586.474
584.050
584.870
582.557
576.801
583.342
573.742
578.623
577.581
574.783
583.618
580.103
576.062
583.354
585.334
586.130
587.809
573.950
577.216
575.591
589.628
578.437
581.033
587.525
590.383
590.366
586.465
585.474
585.684
577.820
577.951
589.601
588.602
582.942
581.026
589.058
588.899
578.332
591.559
581.371
587.687
590.966
580.924
586.658
591.253
591.842
582.862
587.326
586.104
588.681
582.498
587.131
578.407
589.199
579.761
586.328
581.147
592.855
589.002
583.892
592.056
593.126
581.320
580.979
587.514
590.886
590.432
580.439
582.676
592.718
583.076
593.924
593.019
583.365
581.422
588.787
596.803
596.149
583.261
592.394
589.687
587.499
586.986
587.408
582.653
597.860
590.677
589.996
597.198
587.308
585.376
593.456
592.287
598.037
594.054
585.435
589.260
592.461
592.249
597.415
593.684
590.628
590.355
589.819
593.975
595.743
593.367
589.709
589.434
590.873
591.377
597.536
589.329
589.698
588.244
596.628
599.688
587.261
601.361
601.130
600.254
593.847
598.863
602.194
599.818
595.312
590.526
591.195
591.149
601.185
601.483
596.683
584.347
593.873
594.865
580.838
582.069
575.668
583.778
574.278
575.293
565.184
577.832
575.871
568.491
565.426
556.783
561.006
557.760
555.383
549.201
556.130
545.163
543.005
538.712
544.402
538.147
535.517
541.009
539.192
539.300
527.191
522.407
527.059
525.095
522.535
519.504
520.345
514.515
511.150
506.883
508.040
500.111
502.144
499.636
494.748
500.684
489.842
496.476
494.813
492.469
490.877
488.204
477.773
489.976
486.781
470.721
478.096
471.001
468.022
463.487
472.001
470.667
470.987
460.658
452.338
455.895
455.626
448.753
455.027
452.891
455.041
452.434
437.397
446.306
436.832
444.334
432.084
429.148
428.662
434.920
420.886
426.217
424.412
413.802
409.748
409.690
409.545
418.068
404.987
414.372
400.598
406.456
395.511
400.005
400.480
395.551
384.576
384.555
390.581
381.498
389.655
385.286
373.136
379.463
369.205
374.650
376.026
366.373
364.740
367.478
362.197
366.288
356.246
356.395
347.584
358.519
343.138
348.351
352.872
351.391
349.019
344.060
344.567
335.354
326.393
327.770
335.092
319.612
327.240
330.282
319.667
323.393
309.244
319.509
318.485
309.314
314.909
304.400
302.691
306.428
304.751
300.619
290.012
295.243
298.035
286.211
281.263
286.908
290.423
284.293
281.094
280.449
274.866
266.393
274.470
263.189
259.960
257.866
254.759
267.648
259.569
250.804
261.192
244.685
244.593
240.157
252.019
235.523
238.728
232.573
231.029
227.363
232.019
237.691
222.110
228.984
226.644
219.339
222.617
224.263
221.315
219.567
212.694
204.746
214.442
211.218
205.651
194.225
200.293
202.856
193.764
193.032
186.079
180.958
183.428
177.774
179.035
184.797
171.808
175.100
173.957
182.051
172.504
181.076
165.938
180.156
170.729
165.951
167.576
171.509
171.781
175.129
172.323
163.382
160.051
162.894
174.351
171.163
158.905
160.403
161.737
163.969
171.552
162.375
158.334
158.774
167.443
158.762
167.974
165.501
165.852
163.250
159.476
151.785
157.038
156.281
161.506
161.779
150.286
162.318
158.249
152.174
153.698
160.687
153.900
150.269
156.480
149.265
150.802
150.290
146.876
155.568
140.308
143.733
146.341
142.130
144.233
145.120
142.376
142.748
139.136
135.846
134.719
140.764
146.563
138.722
139.490
138.902
133.843
136.496
141.527
145.745
140.219
140.504
136.664
136.388
131.940
139.651
139.303
135.393
131.271
125.835
124.273
124.920
126.562
126.142
123.066
132.214
129.080
129.644
129.004
123.584
134.623
390.472
385.157
417.789
386.718
414.817
389.052
422.835
379.808
390.438
412.675
380.799
392.562
380.332
403.526
390.710
400.164
389.672
374.379
393.722
394.783
387.845
393.257
397.529
347.443
368.728
361.960
355.235
358.610
345.195
360.571
358.839
369.542
359.640
357.327
359.754
346.776
329.825
348.342
332.833
318.336
326.280
314.585
326.491
323.525
340.425
315.217
323.103
339.789
326.840
332.729
342.195
338.016
344.970
328.447
317.485
293.267
291.848
290.532
324.172
322.047
285.778
285.295
314.182
294.866
296.663
284.143
293.891
286.326
298.238
280.500
313.690
268.826
263.401
297.121
264.997
276.596
284.694
303.173
295.211
259.788
262.553
280.176
275.405
256.646
267.075
252.836
266.830
244.938
269.765
269.790
278.555
262.690
233.096
237.596
227.373
222.436
258.298
253.002
253.130
260.989
220.135
256.069
238.960
230.739
250.736
220.487
144.202
145.673
143.268
125.014
128.461
133.120
139.859
124.378
150.199
150.507
158.246
119.719
112.565
134.838
124.554
138.090
110.981
152.471
113.257
141.388
142.576
121.574
150.047
130.253
113.073
151.593
156.964
126.802
150.143
136.620
140.349
138.605
150.720
108.953
123.590
155.076
116.468
148.051
138.891
155.194
131.063
110.662
149.431
140.489
113.861
153.751
141.944
120.256
132.032
112.309
137.242
121.760
124.525
118.714
125.003
126.404
144.967
140.436
152.403
108.552
131.242
155.015
131.695
130.424
122.256
127.539
142.520
128.490
135.887
124.283
143.479
119.602
128.855
106.361
121.680
132.324
120.495
123.151
120.616
110.685
145.741
136.706
110.782
152.872
114.704
135.333
151.728
118.393
103.031
141.162
126.628
104.530
118.965
134.074
113.801
130.427
141.600
149.238
110.225
142.693
108.119
111.677
125.357
135.432
151.465
141.456
116.540
145.669
138.647
129.891
103.306
103.325
135.261
140.856
113.894
126.054
149.405
112.281
112.339
140.187
115.185
99.780
121.187
149.162
103.400
127.698
141.927
110.261
107.085
142.166
107.693
100.041
124.042
108.279
113.678
134.247
129.273
103.066
130.900
138.897
138.136
121.111
106.216
99.756
120.351
118.444
115.484
100.599
139.548
125.578
132.324
133.649
122.792
101.200
128.742
103.946
104.235
138.627
140.229
100.430
114.753
108.575
119.476
131.076
139.286
106.841
124.124
130.236
143.675
142.008
122.765
142.270
132.913
123.331
106.697
144.659
106.473
132.897
129.779
114.107
140.030
130.862
113.276
127.972
101.274
123.234
117.101
117.572
145.156
126.774
137.226
111.094
113.860
108.077
140.267
106.426
134.865
125.828
132.110
100.462
99.071
128.978
104.971
116.081
106.295
105.027
100.295
107.552
108.401
105.741
118.969
134.681
136.045
140.925
144.771
104.224
143.965
125.784
114.264
127.983
107.714
112.648
96.503
130.819
143.408
104.409
111.360
122.554
103.334
142.838
143.410
128.102
