814.078
801.358
810.740
808.427
807.479
810.137
811.592
811.449
826.343
819.395
817.436
817.400
834.268
826.589
829.390
838.657
836.285
833.061
839.169
845.104
831.404
846.935
846.036
848.833
846.079
853.965
853.099
853.360
858.164
855.428
855.031
860.296
856.897
858.456
857.094
858.419
861.275
872.514
867.918
863.805
868.562
879.835
877.297
880.145
870.396
879.813
880.974
883.214
885.643
891.936
886.200
894.753
887.850
898.293
886.869
890.610
889.053
899.546
900.670
901.277
898.715
901.221
913.529
913.900
912.551
905.716
917.397
910.351
916.827
917.948
918.176
915.697
925.844
925.137
918.398
921.518
933.347
937.192
935.236
935.180
930.904
935.294
931.620
945.624
944.025
939.142
947.082
946.371
948.237
949.393
953.073
947.018
957.489
960.265
961.424
955.845
956.262
964.261
956.055
960.578
965.619
971.511
961.691
975.075
966.470
976.715
974.685
969.813
986.410
972.663
987.671
979.893
991.627
990.724
987.052
984.053
987.332
996.389
987.287
990.310
1005.415
998.607
992.951
1005.312
1005.991
1000.689
1011.015
1006.245
1006.569
1005.001
1016.822
1008.889
1009.834
1019.062
1012.382
1016.611
1029.644
1018.829
1025.803
1029.116
1030.537
1027.505
1036.498
1035.908
1040.877
1032.371
1037.440
1041.642
1034.358
1036.077
1044.899
1043.344
1056.055
1051.461
1044.662
1045.650
1051.129
1062.563
1060.450
1064.168
1063.298
1062.232
1049.938
1061.304
1058.527
1050.441
1056.750
1055.125
1052.504
1050.579
1059.579
1064.123
1054.318
1064.649
1060.912
1058.390
1062.402
1059.965
1056.132
1057.115
1056.397
1051.310
1063.548
1064.876
1067.033
1059.783
1052.082
1065.542
1061.014
1056.161
1058.230
1064.304
1062.927
1057.045
1054.435
1059.133
1065.310
1057.437
1055.284
1063.660
1061.694
1064.119
1062.943
1061.680
1067.402
1054.895
1056.492
1056.908
1054.859
1063.210
1067.661
1053.198
1065.324
1068.411
1067.494
1057.742
1060.339
1064.586
1067.823
1068.173
1057.797
1063.468
1059.569
1058.071
1056.747
1069.055
1065.196
1057.820
1060.663
1059.477
1067.433
1062.179
1066.261
1065.009
1059.899
1065.106
1055.442
1066.182
1062.879
1054.476
1069.456
1060.949
1055.223
1067.389
1058.638
1062.998
1057.353
1069.913
1070.448
1068.259
1067.097
1064.104
1061.737
1067.697
1070.078
1056.316
1055.580
1066.813
1058.866
1069.650
1066.902
1066.907
1060.726
1067.201
1065.999
1057.116
1061.465
1056.123
1069.411
1058.488
1063.265
1056.958
1060.286
1066.164
1063.158
1067.882
1069.541
1062.752
1066.820
1072.754
1063.718
1060.826
1061.140
1072.800
1064.172
1067.500
1063.206
1062.160
1060.363
1058.436
1063.719
1061.357
1064.619
1072.130
1065.544
1060.378
1060.985
1073.498
1060.987
1072.086
1062.745
1059.748
1067.000
1059.825
1065.717
1059.940
1072.717
1063.713
1072.651
1064.718
1065.242
1072.295
1069.267
1072.605
1070.095
1070.780
1072.414
1069.598
1067.192
1062.406
1061.140
1060.478
1069.383
1060.074
1072.527
1072.566
1067.759
1068.708
1061.292
1065.747
1062.630
1075.758
1061.254
1068.637
1075.873
1066.841
1062.936
1074.380
1069.913
1067.914
1069.109
1060.533
1060.501
1062.656
1066.212
1069.550
1067.174
1062.377
1075.513
1069.923
1073.895
1074.782
1076.162
1063.579
1064.939
1070.183
1064.626
1070.152
1077.175
1061.120
1067.650
1063.537
1065.078
1071.544
1070.482
1066.676
1065.658
1064.357
1055.369
1064.128
1050.442
1048.140
1055.946
1045.152
1058.853
1050.692
1043.138
1041.030
1041.106
1053.002
1046.734
1041.189
1045.134
1041.494
1048.543
1037.422
1031.132
1036.514
1032.425
1032.509
1028.352
1030.449
1037.720
1039.392
1037.525
1030.163
1020.512
1027.352
1021.542
1028.064
1018.552
1027.550
1024.099
1028.391
1015.150
1018.451
1015.878
1020.160
1011.203
1017.218
1017.409
1008.362
1013.121
1009.842
1004.908
1011.064
1002.213
998.705
1006.339
1008.622
995.120
994.777
1004.311
998.386
1005.627
991.031
1001.872
997.393
988.219
999.705
994.379
994.004
982.147
986.804
986.466
983.672
978.752
979.583
983.128
986.089
985.402
984.743
980.486
969.667
974.077
977.531
980.313
969.265
974.620
968.825
968.284
972.565
965.993
972.508
958.496
957.638
964.341
960.646
953.416
960.209
960.151
953.656
956.270
956.451
957.534
958.714
951.482
949.853
947.416
955.768
940.575
942.465
939.248
949.685
939.918
949.419
941.623
938.062
935.835
931.788
944.347
928.255
936.055
931.985
933.710
938.746
935.010
932.770
925.744
922.001
921.468
921.643
926.565
916.949
921.784
926.439
925.543
920.012
921.687
913.643
917.328
912.223
914.728
912.497
912.493
914.989
909.122
901.960
913.927
909.167
910.706
898.166
896.684
903.387
895.847
900.119
901.692
893.775
899.265
896.674
897.286
900.318
883.857
889.255
896.967
885.321
892.428
882.781
887.641
887.657
890.635
885.618
880.921
876.934
871.653
871.051
871.658
881.573
869.551
866.254
867.217
877.894
864.425
870.906
874.214
860.138
865.298
862.248
860.110
854.985
861.865
863.599
865.750
862.010
861.545
856.768
854.936
858.193
857.871
859.242
857.347
854.757
856.229
859.840
858.053
860.987
857.000
853.799
856.928
860.881
860.643
858.334
865.459
864.028
861.843
856.652
862.774
856.356
857.979
861.162
863.215
856.751
854.809
865.868
859.491
855.039
863.055
862.185
855.592
857.161
859.217
870.244
858.102
871.128
871.771
861.234
860.642
862.858
868.209
861.078
872.057
865.345
871.524
864.125
865.925
868.475
873.087
875.831
871.286
868.795
876.937
865.740
876.793
875.490
870.390
874.620
866.208
874.288
872.299
871.423
871.191
880.957
877.081
877.163
868.967
869.735
871.373
878.488
878.714
878.850
879.101
879.179
876.832
877.205
881.742
872.644
875.879
886.072
882.139
873.830
878.544
889.661
886.002
877.723
880.218
883.143
881.519
882.269
880.463
891.894
880.188
878.768
885.215
883.943
881.300
889.760
889.546
889.978
882.052
896.340
883.044
897.218
884.043
888.682
885.577
883.718
890.313
891.133
888.572
887.086
894.243
891.820
893.888
893.853
890.697
892.764
890.778
890.003
902.109
901.164
891.003
898.023
896.573
902.083
901.719
901.801
900.514
902.234
903.951
900.728
894.061
902.272
897.768
908.564
896.354
904.272
907.337
906.671
905.326
905.204
903.069
902.501
906.504
903.690
906.832
909.192
905.650
900.909
909.229
901.793
911.906
907.282
908.915
908.093
902.248
907.541
905.216
911.514
910.279
914.677
914.833
903.555
909.521
906.396
906.990
920.577
918.990
913.577
910.603
906.699
909.719
918.954
911.900
909.664
914.543
922.243
914.266
914.434
913.688
912.169
915.557
915.576
913.137
924.722
921.652
925.953
915.251
926.697
915.188
915.637
920.731
927.187
915.580
922.587
920.261
918.852
926.904
922.141
928.987
927.694
924.825
931.163
927.100
924.320
927.695
917.525
924.892
915.190
912.215
920.295
922.307
916.044
920.388
916.430
914.654
911.676
921.039
921.032
916.053
910.091
910.021
919.446
908.174
915.718
914.366
917.563
903.308
915.847
914.830
911.325
905.386
914.151
907.540
901.125
903.371
900.526
898.351
906.896
902.761
896.834
910.994
901.547
903.755
899.690
904.348
897.308
895.427
900.089
902.278
894.019
904.584
900.147
898.912
903.727
890.852
902.830
896.288
893.688
893.909
892.745
888.967
900.064
898.111
889.849
899.604
885.272
899.179
893.559
894.213
883.403
881.964
887.565
891.113
885.456
894.332
885.572
888.684
879.179
891.673
879.516
877.008
886.493
877.877
881.989
889.483
874.493
881.020
874.208
873.257
881.243
874.035
873.013
874.849
871.924
881.933
883.770
878.595
873.292
871.415
868.159
871.644
868.992
872.758
868.496
877.621
872.913
875.444
876.689
875.130
872.658
866.257
861.716
870.510
861.673
875.328
862.640
870.236
864.848
865.064
866.385
870.101
862.416
865.426
871.122
869.349
857.638
870.064
856.768
859.330
856.007
860.893
859.050
857.897
855.286
856.916
850.163
858.390
849.958
849.284
849.184
854.498
857.960
850.943
850.520
855.346
859.765
859.223
850.414
851.250
845.243
848.245
853.206
856.846
852.518
850.777
855.013
841.438
847.203
842.055
840.714
851.650
845.109
838.384
850.426
849.715
849.230
841.814
847.623
839.104
847.166
842.637
833.334
833.586
840.948
839.196
836.314
830.977
843.817
841.474
833.596
830.352
839.757
829.074
838.905
837.060
839.281
829.886
833.521
828.873
824.223
832.165
837.655
834.406
830.008
829.905
826.112
828.250
828.560
823.674
834.796
823.252
820.216
827.592
833.885
826.651
821.832
825.032
821.451
827.982
835.478
835.741
825.911
824.897
830.655
828.162
826.285
829.605
838.125
840.362
833.882
835.061
835.202
839.134
830.227
832.101
837.078
829.734
832.845
827.911
831.323
838.325
840.764
841.350
835.363
840.653
841.843
844.348
830.968
832.554
841.759
838.293
834.433
846.233
840.890
840.805
841.310
834.867
846.600
837.895
844.895
844.464
845.318
843.926
837.460
844.859
843.572
847.896
846.511
839.875
848.432
848.495
849.972
849.263
845.870
838.085
847.977
839.697
837.868
848.287
852.519
846.749
844.650
852.281
852.938
847.202
854.007
845.861
850.520
846.312
856.105
856.504
849.896
850.930
851.998
845.584
853.765
855.605
854.017
857.296
847.631
848.873
856.016
858.135
859.744
853.676
846.605
853.620
859.102
854.995
848.745
861.266
857.867
854.786
848.932
854.484
851.822
849.028
861.206
861.454
855.351
851.474
857.592
860.351
851.460
850.908
864.528
858.317
865.804
854.876
859.471
861.657
856.412
854.053
860.234
863.877
856.816
856.262
857.445
870.516
864.688
859.556
864.003
859.478
856.403
859.975
858.402
860.457
868.053
863.061
871.439
873.612
868.096
858.765
861.473
867.049
863.175
862.612
870.445
875.024
873.606
864.256
875.160
874.741
876.925
875.126
871.275
863.789
875.952
876.388
873.402
876.862
871.389
873.696
876.903
872.112
871.514
875.998
866.912
865.604
866.649
868.020
876.613
874.600
867.049
882.669
873.071
878.458
882.751
877.919
878.339
871.570
883.202
871.504
877.960
877.975
885.566
884.072
883.424
876.855
884.065
878.646
878.059
880.437
885.498
888.301
878.654
878.266
885.414
879.865
874.364
888.245
878.215
884.642
890.656
885.375
890.534
892.024
883.926
893.915
881.262
892.147
887.544
882.656
883.901
897.759
897.659
891.309
893.762
889.493
898.123
888.475
897.806
892.760
897.058
893.221
892.991
901.068
901.777
904.183
902.079
897.916
894.244
904.835
893.584
904.151
894.926
900.668
896.921
894.109
895.978
908.397
895.708
909.854
911.406
898.395
909.442
904.769
899.297
904.976
904.927
909.423
904.883
912.131
914.982
912.238
910.987
915.066
912.959
912.887
912.600
914.664
917.234
908.032
917.908
919.172
912.222
910.827
914.927
920.580
923.667
925.261
926.379
923.007
926.846
916.674
926.484
916.563
924.174
915.989
918.066
922.064
929.960
930.899
931.596
921.589
933.147
930.626
927.071
931.202
927.029
936.183
921.132
928.531
927.240
927.026
925.896
930.244
930.928
932.207
938.752
928.772
939.616
937.874
940.424
932.974
933.730
939.561
940.573
943.205
938.758
932.091
933.833
947.544
936.571
933.933
939.497
946.110
936.059
947.315
947.876
937.785
950.583
937.585
943.294
940.187
952.969
939.443
944.584
953.967
943.707
950.529
941.839
955.253
943.423
948.057
952.010
945.353
955.687
959.123
950.394
949.818
961.585
962.297
959.466
953.476
958.212
959.329
952.003
955.140
959.570
962.554
962.512
965.028
957.589
966.292
953.566
958.524
959.549
961.527
968.115
964.277
958.171
970.401
959.765
973.549
974.039
974.537
962.552
961.127
962.030
966.544
977.106
977.888
968.157
966.853
969.112
966.273
972.488
969.956
969.232
972.835
977.211
972.274
969.409
976.160
979.472
977.248
977.893
975.281
985.164
981.243
974.037
979.242
974.019
978.867
984.052
982.119
989.613
990.767
981.202
980.795
988.393
975.409
983.714
975.590
984.329
974.315
976.499
988.354
976.784
975.247
971.989
982.055
978.758
983.352
971.333
982.800
984.576
975.689
977.887
977.278
981.732
969.870
968.306
972.850
973.259
968.284
976.873
971.972
973.305
970.709
974.100
966.757
976.999
975.901
972.421
975.704
967.291
978.714
973.182
970.482
970.793
967.844
977.533
974.868
971.800
970.202
974.128
962.220
974.482
972.148
975.054
966.029
961.577
970.708
968.406
972.706
965.473
961.475
972.097
969.750
968.214
971.901
958.566
970.470
960.339
960.672
965.164
963.568
960.194
958.805
961.236
964.007
957.980
957.450
954.361
963.702
960.156
964.279
962.168
964.431
966.169
957.703
963.810
963.125
951.136
958.543
953.213
952.304
963.755
960.299
953.135
954.112
955.710
948.544
956.433
951.292
949.702
955.982
955.995
952.096
959.305
955.143
949.106
949.367
951.202
958.163
958.197
946.135
953.651
956.805
945.557
947.144
956.217
946.524
947.615
955.624
943.844
949.144
953.620
947.957
942.501
941.831
940.812
940.693
940.583
951.806
949.484
940.130
939.989
948.151
936.578
939.540
944.379
937.124
944.652
948.435
946.524
950.154
938.992
936.165
943.713
945.632
936.263
941.190
943.363
932.636
945.814
940.832
932.726
941.719
933.725
938.911
941.868
934.655
936.234
932.799
941.261
931.027
931.770
932.961
930.226
928.859
941.325
942.597
934.396
935.519
936.751
941.167
932.930
932.822
933.300
935.481
935.923
933.528
932.631
936.769
937.906
930.413
924.714
922.202
930.051
927.806
926.493
924.090
932.500
933.834
926.574
927.744
923.801
933.108
922.347
921.602
919.125
925.648
922.546
923.019
926.502
922.999
924.654
927.685
921.951
918.492
920.747
919.702
921.168
915.110
921.681
911.798
914.311
913.222
913.664
902.100
912.856
909.931
907.706
897.658
900.730
904.153
895.041
892.498
893.104
902.421
897.450
896.098
888.682
884.249
895.510
887.371
882.023
880.961
886.510
878.654
879.391
881.253
873.545
881.351
880.176
870.683
874.754
878.508
873.968
872.626
874.234
867.907
874.769
863.200
873.527
869.766
859.796
870.726
863.085
867.439
861.415
862.269
855.124
858.500
862.877
857.172
846.339
853.813
843.421
841.580
844.887
848.496
844.060
849.281
842.408
834.949
845.611
845.474
838.885
843.667
843.276
826.933
832.043
836.697
828.469
825.505
822.435
821.241
834.294
820.063
821.712
817.206
821.681
824.189
816.503
821.555
814.655
808.775
809.225
817.411
817.302
804.952
809.121
811.496
802.026
809.679
811.891
808.102
799.054
806.305
799.709
800.377
796.309
798.313
793.758
797.714
792.817
794.710
786.947
784.491
788.449
787.000
790.564
783.428
782.419
777.243
780.101
775.912
771.242
779.867
779.876
780.528
769.462
777.899
765.447
774.674
769.284
761.711
770.135
771.509
765.902
766.748
756.382
762.154
762.270
758.181
764.327
754.016
755.302
759.921
747.478
752.228
749.242
742.335
742.024
749.366
745.425
738.615
743.211
736.053
735.317
736.273
732.150
738.805
734.250
737.909
736.655
732.357
729.944
726.608
725.983
732.723
734.936
725.548
723.248
721.862
722.938
713.409
715.797
712.565
714.728
710.808
717.517
720.854
720.311
710.071
708.087
716.475
701.433
713.090
710.137
699.639
710.077
699.418
701.382
696.526
691.022
702.169
692.348
698.451
687.418
691.424
685.342
694.321
687.662
178.909
253.317
197.346
244.787
246.810
229.526
206.881
186.849
234.608
205.186
220.786
172.811
239.858
198.154
193.780
226.475
233.469
197.306
182.178
183.200
207.173
189.264
231.080
179.622
215.776
202.886
238.660
177.092
222.366
189.179
239.351
205.809
189.622
202.256
237.106
189.986
237.802
230.190
187.981
196.971
246.992
204.420
195.071
167.036
247.621
184.868
168.909
223.705
212.166
210.847
244.910
194.405
246.769
190.929
166.782
194.293
214.443
197.898
242.996
244.003
207.455
198.090
182.028
185.197
197.814
195.721
192.263
244.399
239.031
182.297
190.696
200.511
204.256
222.833
217.140
224.226
176.524
204.153
211.232
178.449
229.916
242.007
208.225
210.977
225.548
195.191
183.654
214.149
203.405
173.131
201.614
226.405
180.640
182.238
173.664
234.945
163.742
179.149
223.737
227.892
100.533
131.917
111.990
121.624
118.833
112.734
108.894
114.320
115.597
106.242
122.915
124.395
117.378
99.021
128.414
100.958
123.983
94.161
118.126
107.614
104.725
110.824
108.016
100.408
108.862
112.741
95.309
127.297
99.112
108.620
125.800
98.343
105.746
100.357
89.454
93.635
110.461
109.548
89.812
130.172
88.111
115.231
114.774
116.173
108.614
98.457
131.646
87.188
123.988
123.209
116.281
111.195
128.223
120.844
99.743
92.997
128.048
126.100
107.017
117.535
90.064
120.825
86.270
107.073
113.122
116.896
95.794
126.511
89.413
104.584
115.972
121.537
106.117
130.321
112.821
125.857
114.427
109.545
92.580
118.114
127.270
109.994
123.492
117.884
121.547
109.648
110.866
87.416
109.790
91.248
121.087
92.358
120.832
91.982
114.813
113.165
109.166
105.231
127.436
87.135
110.951
114.553
121.591
115.887
97.641
125.652
115.429
107.192
92.293
122.345
113.750
128.567
111.461
99.713
101.053
91.649
91.392
88.964
95.001
121.212
104.165
127.866
121.540
116.937
119.356
101.782
90.926
112.823
90.214
125.190
100.537
118.530
118.737
99.343
101.865
121.512
100.377
102.526
103.894
117.170
117.600
91.978
