689.376
697.811
691.758
692.799
692.057
693.335
692.059
692.893
699.824
704.468
703.366
696.173
699.256
709.458
698.480
702.066
701.801
702.365
705.889
713.027
711.412
718.349
705.837
707.668
707.998
716.885
712.883
711.928
719.019
725.212
719.139
712.208
718.130
719.818
714.505
720.406
720.937
731.398
732.248
731.489
726.055
735.358
727.165
722.864
728.105
734.583
736.470
733.239
738.289
740.467
734.039
742.105
740.211
745.859
738.664
736.488
748.353
737.786
736.547
739.365
745.355
743.754
756.476
757.726
751.025
759.967
764.198
753.372
757.298
755.464
761.778
758.388
759.596
766.227
768.942
766.791
766.246
772.362
769.060
774.921
786.531
777.021
778.570
776.515
792.322
787.761
790.207
784.457
787.643
788.194
795.110
799.162
796.914
797.644
799.252
807.059
808.832
806.555
814.336
816.485
808.966
816.464
808.610
809.979
812.261
815.621
825.264
828.529
818.792
824.411
821.184
822.061
836.978
827.649
840.670
834.748
838.167
841.698
842.021
841.127
846.007
837.751
852.758
843.141
854.931
856.533
854.156
846.301
847.726
854.606
865.023
853.879
856.724
866.495
870.134
868.147
861.652
866.964
873.645
868.065
873.493
871.841
872.638
883.036
880.361
884.037
884.909
889.039
891.259
881.687
886.503
895.364
888.582
899.701
890.861
902.342
898.008
894.971
906.484
897.665
909.112
911.261
910.179
913.674
911.507
905.576
910.820
923.729
916.538
923.488
925.980
921.872
917.148
931.223
932.036
929.102
935.849
933.477
928.395
942.375
939.649
939.484
943.924
934.873
940.127
947.949
949.931
955.133
948.925
949.545
947.987
954.072
953.404
950.754
966.077
959.970
955.129
957.678
972.142
974.151
974.963
972.749
974.853
971.378
981.135
978.339
981.957
987.898
978.543
977.196
989.274
981.466
988.402
981.652
995.886
985.095
989.502
998.213
1004.369
993.577
996.493
998.991
996.806
998.652
1004.024
1009.002
1011.261
1006.794
1019.438
1008.063
1018.152
1015.488
1019.645
1023.289
1021.059
1022.670
1028.183
1033.076
1024.743
1022.841
1040.074
1028.931
1038.643
1033.986
1031.516
1034.366
1037.460
1042.438
1048.690
1051.020
1049.108
1046.980
1044.092
1047.293
1052.807
1058.187
1064.548
1061.428
1062.496
1060.240
1052.299
1052.854
1052.020
1056.009
1057.271
1063.288
1054.485
1065.226
1056.217
1051.565
1051.462
1066.348
1056.841
1056.365
1065.017
1066.122
1058.085
1051.101
1065.836
1053.020
1063.542
1052.680
1065.114
1057.780
1066.886
1062.049
1060.034
1058.010
1057.945
1065.928
1062.818
1056.034
1061.248
1060.856
1056.928
1053.360
1066.981
1064.789
1059.507
1057.686
1065.677
1060.493
1060.681
1061.513
1060.795
1065.046
1066.934
1063.184
1067.088
1054.639
1065.499
1061.180
1065.989
1063.639
1053.906
1053.141
1065.061
1065.312
1065.273
1065.018
1066.593
1054.237
1068.830
1069.597
1068.167
1060.590
1060.177
1056.021
1067.272
1063.617
1066.226
1065.471
1061.782
1064.602
1054.522
1070.245
1060.851
1056.075
1062.572
1066.189
1065.704
1065.389
1055.308
1066.433
1065.743
1064.672
1064.521
1057.206
1064.892
1056.812
1069.041
1065.703
1056.254
1055.548
1059.766
1055.771
1062.299
1068.282
1056.390
1066.446
1064.131
1063.323
1068.911
1062.518
1056.372
1059.435
1057.807
1066.782
1059.336
1071.766
1066.785
1056.487
1058.557
1059.224
1072.424
1072.343
1069.129
1071.589
1071.850
1059.388
1068.112
1062.013
1070.841
1059.198
1060.007
1058.871
1066.922
1059.322
1067.163
1066.170
1072.952
1058.444
1062.213
1060.062
1068.993
1062.883
1062.435
1060.365
1070.833
1065.971
1062.795
1066.378
1065.363
1072.136
1072.113
1064.082
1068.362
1060.134
1067.281
1065.565
1064.372
1070.726
1062.023
1066.596
1067.322
1060.862
1063.154
1065.663
1072.815
1072.649
1067.950
1064.351
1069.277
1067.726
1068.249
1061.012
1065.309
1068.075
1069.853
1064.607
1073.589
1067.174
1072.437
1063.645
1072.738
1073.392
1064.925
1060.498
1066.280
1061.831
1073.043
1075.386
1063.156
1064.638
1062.644
1061.610
1070.064
1076.511
1068.187
1062.193
1072.722
1066.443
1065.797
1069.355
1063.174
1076.176
1064.539
1070.721
1071.991
1069.032
1072.642
1058.252
1068.849
1063.928
1062.006
1059.179
1061.843
1051.829
1049.577
1062.902
1052.307
1053.317
1051.282
1051.814
1051.629
1042.361
1051.391
1052.039
1045.468
1037.809
1036.447
1050.119
1045.239
1040.898
1031.626
1034.208
1031.737
1029.704
1027.125
1030.047
1038.369
1028.436
1025.425
1029.991
1021.030
1034.687
1028.178
1023.929
1022.796
1017.981
1023.420
1026.157
1014.216
1022.959
1017.185
1009.980
1009.181
1013.352
1011.549
1008.265
1017.082
1013.706
1005.844
1012.990
1003.951
1003.234
1011.991
1009.654
1007.337
1002.902
1002.215
993.037
997.446
994.339
1002.495
1001.968
990.209
985.101
995.916
995.089
990.711
994.266
984.721
982.892
981.155
977.719
975.586
984.431
983.157
971.801
978.819
976.134
975.969
968.229
969.986
974.173
966.401
967.678
976.954
973.998
964.544
959.712
964.955
961.960
959.806
969.658
963.213
952.297
960.868
962.184
952.358
962.933
956.670
945.575
954.175
951.016
954.871
944.668
950.863
946.253
946.514
945.450
947.494
938.792
940.710
935.145
934.563
945.100
931.770
937.667
940.715
937.954
924.907
936.692
932.566
930.606
926.389
931.981
918.483
927.081
925.550
919.257
922.544
923.928
925.506
924.562
911.220
909.853
913.599
912.879
908.807
912.665
915.533
906.309
908.767
909.635
902.008
898.349
899.646
907.032
900.879
906.924
897.336
894.932
894.733
899.706
903.089
899.908
890.568
892.827
893.542
894.584
888.985
895.138
889.005
878.966
887.062
877.057
888.198
878.790
879.290
885.739
878.838
870.495
879.627
879.116
880.580
868.971
876.227
867.884
873.708
876.619
875.422
862.154
857.595
863.212
867.238
857.940
867.411
867.530
857.345
851.943
860.512
854.028
853.117
850.784
845.863
846.497
855.583
854.291
857.518
849.020
851.147
862.576
853.277
854.332
856.932
861.525
855.430
852.806
856.275
859.072
861.992
853.294
854.430
865.484
852.231
866.975
861.250
864.554
868.076
858.759
869.612
856.243
864.777
856.838
859.256
859.918
864.484
867.015
872.668
868.062
870.212
862.113
866.111
864.793
864.366
868.434
866.375
869.040
872.650
869.215
864.365
868.174
877.670
863.919
876.246
875.932
878.181
879.385
879.781
878.728
878.698
865.545
879.941
867.746
880.450
882.256
873.095
877.955
882.513
868.856
870.084
877.547
877.702
884.724
875.718
870.625
874.346
877.773
881.745
886.022
872.624
885.410
886.091
882.853
879.053
883.036
876.798
884.375
877.698
887.034
878.041
875.916
885.196
890.258
885.841
882.395
881.634
878.465
885.514
879.024
894.865
891.108
884.228
883.639
895.751
893.670
894.449
891.903
888.649
882.733
891.356
885.715
883.568
897.546
896.886
886.388
895.029
887.263
892.503
886.873
902.139
897.670
887.973
895.273
901.356
893.006
892.397
900.503
895.876
899.827
893.233
905.116
899.900
903.698
895.139
895.703
906.093
900.573
905.407
893.918
900.385
903.667
904.066
903.278
908.520
903.498
898.461
911.682
911.125
904.785
900.491
913.238
906.536
901.083
901.709
901.518
915.331
906.141
904.492
914.568
913.978
906.071
905.939
905.002
911.494
903.699
914.696
915.548
905.614
916.935
904.654
906.877
917.072
921.452
920.885
914.872
919.421
919.936
920.516
912.843
913.964
912.731
915.034
918.111
911.136
915.590
911.892
922.859
921.419
924.111
924.563
924.167
925.854
921.477
918.104
914.725
920.377
924.646
926.383
924.659
924.253
923.723
925.677
931.694
921.606
922.526
918.392
921.435
929.603
920.241
915.075
926.028
921.402
924.136
913.132
926.356
920.613
913.665
910.041
911.536
919.366
917.480
909.277
921.904
913.591
917.771
906.314
921.292
908.013
915.465
916.322
909.039
910.994
906.459
914.720
915.867
906.622
915.622
912.457
900.866
907.732
900.781
911.333
910.420
911.542
911.373
900.569
906.124
901.675
908.963
905.063
896.617
896.720
897.962
897.800
895.370
902.540
897.270
894.697
897.738
901.928
900.570
894.011
893.209
895.703
893.862
891.578
892.120
886.189
893.044
889.170
898.832
889.382
896.700
885.885
882.170
888.851
887.433
895.058
886.081
892.608
892.054
890.739
888.989
888.771
886.871
891.199
881.257
882.720
881.365
879.891
880.770
878.574
883.735
878.407
874.895
873.828
874.968
876.409
875.760
884.823
869.744
873.710
881.269
879.168
881.290
876.897
873.583
868.373
868.145
871.346
871.448
870.076
865.661
869.024
863.439
877.831
862.282
870.020
863.721
874.310
866.000
873.142
871.944
868.288
869.947
862.736
864.014
867.944
855.661
864.673
860.212
856.434
863.492
862.595
857.780
865.815
861.514
856.127
861.355
864.887
857.514
855.706
853.178
859.986
854.535
854.317
858.825
849.142
847.580
850.942
854.849
846.422
856.505
857.628
844.743
854.871
846.913
853.025
846.810
848.826
843.983
844.153
842.774
850.505
853.193
842.842
839.175
848.755
851.777
846.081
838.896
844.257
836.743
841.398
834.615
845.751
834.001
834.729
839.883
845.888
831.490
839.549
841.269
842.170
839.275
836.808
836.368
831.559
832.068
839.966
835.634
838.409
839.195
832.718
824.572
830.229
836.191
832.101
823.018
830.389
824.326
824.918
824.538
819.717
827.298
834.173
820.226
824.453
826.930
835.115
829.717
831.600
829.442
825.193
836.091
832.801
837.600
824.712
836.043
826.006
826.530
837.645
832.426
831.580
833.435
836.588
831.586
835.243
834.021
829.897
828.874
839.020
841.503
827.422
830.005
831.782
838.225
840.498
844.253
842.589
835.757
844.848
840.418
831.685
836.143
846.031
831.324
839.216
841.744
838.790
843.087
837.335
837.270
841.573
847.686
840.854
848.879
849.482
837.625
835.895
844.170
843.434
843.473
837.947
846.026
844.596
845.079
837.324
839.146
847.105
853.144
842.116
839.455
853.168
847.874
854.134
847.985
843.430
839.704
845.234
849.640
847.458
847.173
842.883
841.936
849.911
842.812
857.887
842.652
842.924
847.707
846.002
854.751
845.112
858.041
855.264
855.170
857.315
847.794
856.876
849.233
855.581
852.890
852.317
861.481
851.714
847.354
850.353
860.498
862.702
855.295
855.843
855.858
857.862
852.328
863.485
862.654
861.642
857.959
859.264
864.907
864.807
859.048
854.474
862.605
858.923
855.725
859.322
866.153
862.117
857.599
868.584
859.821
864.315
859.364
864.613
863.509
864.661
858.906
856.421
871.063
862.051
861.031
867.780
863.020
873.748
872.731
868.660
868.913
872.520
867.512
873.272
864.260
871.205
873.151
869.568
876.258
876.371
873.723
864.940
870.016
864.166
872.779
876.571
866.446
872.977
865.752
876.329
879.803
875.619
871.401
871.175
867.279
869.050
874.289
877.664
878.849
875.429
882.088
869.466
879.453
874.951
871.331
874.528
875.804
881.050
879.845
870.469
872.655
884.669
879.041
880.893
871.954
871.560
873.075
872.294
873.612
875.610
880.051
873.326
874.290
885.295
877.241
889.711
881.553
881.061
878.967
885.778
885.434
892.019
891.405
879.157
891.584
891.132
892.379
884.059
887.196
891.091
886.168
886.740
889.739
892.465
891.128
897.041
897.859
892.148
891.946
893.934
890.161
890.625
902.560
902.336
890.557
900.021
892.626
899.630
895.364
901.740
893.316
904.192
896.149
900.244
894.311
897.211
896.151
908.237
903.482
906.081
910.300
907.446
898.690
903.682
911.231
914.017
905.584
900.170
913.987
910.411
905.632
911.915
914.377
907.497
914.774
918.680
915.003
913.255
916.149
913.035
922.610
912.843
914.231
911.666
924.382
910.783
917.085
925.687
918.489
923.681
913.236
920.657
920.452
928.632
918.908
922.920
918.806
921.446
923.044
916.513
928.205
917.889
918.010
924.522
924.221
930.631
923.394
931.333
933.481
931.045
929.842
935.905
927.990
934.493
926.423
939.126
939.143
930.468
938.033
936.757
933.304
935.715
931.002
934.081
932.272
945.354
944.801
946.365
937.585
940.038
943.648
940.599
933.511
943.514
938.943
941.442
950.073
947.810
941.339
949.073
939.947
953.258
953.780
946.856
948.069
954.034
951.376
944.862
952.547
945.952
957.773
953.445
946.080
953.569
950.476
954.958
957.720
958.861
960.567
947.778
957.443
957.367
962.809
962.253
962.516
952.732
959.650
958.902
963.455
966.160
955.520
959.906
967.237
966.487
966.026
967.610
963.093
971.176
960.002
957.187
973.279
973.692
962.871
966.962
975.615
963.982
974.700
968.258
962.146
966.156
969.130
964.854
977.462
970.152
978.095
971.846
971.279
978.043
971.460
968.570
968.570
973.551
972.191
970.222
978.855
973.570
984.225
984.446
974.825
978.390
980.958
976.174
982.166
978.206
982.047
976.156
979.719
984.137
977.296
978.537
982.661
981.362
980.720
974.710
984.144
975.803
986.691
982.853
978.678
972.574
982.863
980.275
973.116
980.332
970.379
979.676
982.047
977.312
968.702
982.015
976.442
974.327
978.915
979.540
969.710
973.987
980.148
968.974
978.554
968.224
972.880
971.358
971.756
976.349
965.537
973.395
974.410
969.909
977.704
977.668
970.785
963.997
971.980
964.738
973.827
968.784
962.612
973.609
970.401
960.337
968.510
965.631
968.245
960.820
972.700
964.541
963.196
960.695
959.168
963.929
968.448
965.749
959.538
956.431
956.423
960.572
960.637
963.317
969.031
955.800
961.099
958.186
966.057
960.197
960.557
967.237
956.809
955.561
951.395
961.575
954.478
950.655
959.761
964.519
958.573
950.100
950.088
957.667
957.005
950.359
951.823
962.538
956.139
957.337
948.474
960.980
952.318
949.705
952.079
954.838
959.064
952.481
946.162
959.202
952.235
945.202
956.997
952.948
945.333
952.623
955.996
954.716
953.195
953.503
951.653
952.218
952.447
943.536
942.443
954.717
949.470
951.458
952.587
950.198
941.095
943.773
946.869
940.483
950.269
947.229
950.777
936.936
945.945
937.523
950.546
937.975
937.099
944.399
948.181
933.347
937.497
934.087
932.853
937.807
944.059
933.382
946.208
930.804
938.832
932.105
932.054
940.709
931.108
936.135
936.910
937.985
938.298
936.311
930.476
929.438
931.691
934.679
938.344
938.547
925.913
939.092
940.912
937.947
925.273
933.230
925.888
937.458
925.116
938.538
928.323
935.885
938.218
935.359
930.299
927.535
934.254
925.384
931.693
923.751
924.823
924.990
930.156
919.334
922.533
925.808
924.490
918.432
919.724
919.091
917.559
64.429
59.372
80.974
68.630
55.289
70.019
53.093
70.884
66.727
54.942
74.208
64.374
62.176
55.551
65.014
65.469
80.822
77.583
69.478
61.787
59.114
60.396
74.407
55.808
75.364
73.651
62.898
78.342
65.528
61.067
70.381
67.076
67.375
63.679
56.085
78.552
63.263
71.336
78.872
70.017
62.181
71.361
57.908
78.432
67.771
52.543
59.269
76.226
212.632
259.527
239.235
246.136
205.336
190.133
186.307
182.039
199.427
171.115
220.599
186.270
187.246
204.247
241.102
184.160
242.674
204.708
216.080
173.146
235.894
195.061
260.890
226.630
217.084
230.774
185.308
221.070
232.002
262.249
209.164
233.807
195.546
257.866
220.588
201.202
210.182
216.930
263.880
218.882
228.465
224.228
233.307
204.312
187.074
216.450
199.632
184.232
224.883
234.243
183.783
217.376
111.255
115.529
140.184
104.435
142.313
132.057
97.270
125.245
116.397
116.469
103.754
130.356
109.929
108.768
110.948
111.100
136.276
119.010
112.443
127.674
129.979
129.754
125.570
139.840
116.512
106.033
108.841
146.373
111.869
111.818
116.898
138.432
113.416
135.489
140.862
97.215
108.930
116.908
116.204
114.164
140.191
118.115
101.044
129.401
136.048
120.376
141.804
105.552
124.319
136.972
123.358
108.712
101.465
103.955
114.499
108.945
102.673
98.586
110.600
142.373
104.675
126.031
137.338
106.534
112.528
113.804
136.059
106.421
140.633
116.525
96.863
115.700
99.741
116.427
125.301
116.510
103.541
124.479
97.428
141.633
104.233
140.686
118.521
113.986
131.348
115.658
115.362
106.596
141.147
116.140
138.939
108.208
124.170
127.930
111.766
138.282
99.509
99.984
114.187
111.939
111.032
104.588
126.063
124.838
104.761
104.066
136.419
117.007
102.522
145.191
107.979
101.231
124.760
127.741
126.068
105.654
97.137
122.988
126.357
126.068
106.605
125.541
126.475
124.424
126.659
97.653
128.793
114.958
123.838
121.346
122.737
118.712
119.799
141.750
133.102
137.663
136.204
119.220
98.343
123.920
143.273
122.294
120.372
117.928
107.466
127.316
135.888
96.454
95.656
138.601
103.675
99.752
122.731
142.376
130.920
132.727
103.360
146.154
118.539
121.523
98.173
99.775
112.344
140.261
113.760
134.425
124.733
139.904
134.007
121.556
116.331
133.678
101.049
141.696
123.204
137.725
104.129
125.900
128.345
117.968
116.551
103.469
96.259
115.012
122.103
143.668
128.039
139.993
115.898
99.075
137.244
146.298
141.074
102.307
98.955
128.444
146.380
133.678
109.555
109.657
112.695
143.654
104.438
145.839
136.142
132.489
121.514
113.194
110.872
125.127
128.864
129.903
118.376
100.093
144.386
139.953
118.966
100.639
116.185
123.602
110.044
116.334
143.333
119.682
145.333
143.345
141.050
139.058
103.859
122.740
145.912
116.079
136.001
144.243
101.842
98.719
116.330
131.874
136.647
112.378
143.315
95.528
140.637
97.594
