815.917
814.739
815.554
822.002
818.980
815.277
817.505
823.003
824.772
833.425
828.394
828.204
825.085
829.210
835.284
835.407
835.245
824.349
826.677
837.048
831.841
827.963
840.394
828.534
841.093
840.300
833.726
840.638
838.113
844.494
832.287
839.772
839.912
848.083
845.735
840.479
840.323
842.314
837.821
842.048
843.114
844.088
843.322
853.783
853.141
845.924
842.436
844.563
846.805
858.350
857.622
851.244
860.052
851.627
856.121
858.522
849.676
863.575
861.500
860.063
858.667
864.998
860.373
855.192
852.685
865.507
854.753
861.344
870.724
857.441
862.530
868.876
870.194
858.338
874.588
874.623
869.860
867.168
875.792
876.301
866.311
868.521
874.113
876.985
872.419
875.479
879.214
875.174
871.907
874.007
870.535
872.434
875.519
884.022
878.076
872.788
884.666
883.852
880.064
887.390
876.378
890.484
878.847
879.219
892.871
889.938
890.107
892.580
884.784
883.885
890.702
898.053
886.176
896.479
885.543
900.214
888.108
897.282
893.226
901.766
895.381
892.567
901.108
890.685
892.619
900.686
897.611
906.006
893.589
904.109
898.054
899.342
901.470
903.070
909.283
909.452
911.045
899.335
903.858
902.710
911.467
917.178
908.157
913.894
904.754
905.866
910.090
917.378
915.523
919.978
916.637
910.642
920.280
910.408
918.765
922.750
915.206
913.634
927.394
913.796
927.034
917.096
917.248
924.341
931.132
923.319
931.860
921.260
921.490
932.044
933.606
930.572
930.683
937.023
934.787
932.021
933.294
927.072
928.290
938.610
932.821
932.561
938.926
943.020
942.531
940.565
944.615
932.576
945.192
945.510
941.786
938.211
935.204
950.304
945.518
951.104
940.565
948.048
948.580
947.277
939.722
942.755
951.252
953.419
944.430
957.762
945.970
953.729
955.986
950.667
948.786
939.878
950.574
936.750
944.033
949.122
939.035
939.003
945.158
941.804
942.360
943.659
938.401
932.199
929.939
938.657
930.529
932.094
938.983
934.970
930.044
936.130
929.264
926.574
929.941
929.648
930.389
920.621
921.817
920.752
926.571
928.127
925.446
919.738
929.525
927.580
925.727
914.895
919.889
911.673
915.010
920.779
914.896
919.664
909.531
913.067
910.341
906.700
913.443
916.244
913.107
915.787
912.550
913.173
905.836
914.650
904.354
905.234
899.899
902.482
908.390
905.516
899.223
895.160
897.242
901.844
904.328
894.965
907.167
898.764
905.631
895.858
896.988
892.257
891.018
891.638
890.056
891.433
899.702
890.333
883.683
888.567
896.566
892.876
890.591
889.101
879.066
886.998
887.087
892.318
886.390
882.421
886.489
880.933
874.176
874.745
876.041
878.432
876.593
881.955
879.600
883.024
871.428
880.914
869.725
877.490
878.983
874.848
869.475
863.034
871.906
863.912
867.149
872.289
859.681
864.175
869.107
857.657
858.223
861.839
859.691
864.206
866.528
866.415
858.422
855.176
852.268
864.845
863.524
858.980
863.808
854.529
851.948
848.776
847.287
846.153
847.015
851.767
856.581
852.773
841.578
854.445
848.558
843.510
847.866
838.659
840.193
851.775
841.491
836.041
835.249
837.270
846.431
848.088
835.044
832.028
833.765
844.485
841.963
837.220
832.415
827.624
828.008
833.914
837.167
831.607
831.160
830.162
834.487
831.670
831.155
827.286
832.756
820.345
830.270
822.692
816.838
828.707
826.518
821.487
824.652
816.257
814.769
823.996
818.893
816.968
820.081
811.643
812.621
810.723
811.350
809.504
817.845
807.199
805.783
811.580
815.033
810.928
820.059
816.852
817.068
828.585
815.016
829.248
818.243
831.262
833.406
825.828
830.401
830.871
836.912
829.167
835.184
843.695
840.939
849.320
844.391
851.905
844.942
848.938
855.754
851.232
855.333
847.732
859.668
852.758
864.068
867.759
859.640
871.303
861.690
864.546
871.236
877.158
867.615
877.782
880.498
880.438
879.219
877.230
882.759
877.999
885.403
889.502
893.501
893.308
890.803
899.859
897.118
897.613
904.636
891.783
897.278
898.376
906.531
908.313
912.544
905.815
913.920
904.739
907.429
921.445
913.371
922.654
923.866
921.804
929.051
925.582
928.615
932.882
924.121
933.034
932.447
934.159
930.456
928.232
936.364
935.851
938.456
937.023
940.427
945.857
950.093
942.604
955.022
957.782
946.317
959.509
950.449
955.973
962.758
958.251
962.973
958.926
960.445
962.947
970.553
965.332
979.287
974.370
975.613
975.444
972.671
985.483
981.438
984.527
990.891
978.963
987.594
984.106
985.509
994.776
1000.747
987.263
994.645
992.753
1000.106
996.584
1002.767
1010.362
1010.172
1000.713
1001.510
1016.200
1013.455
1021.391
1007.913
1013.859
1021.958
1016.893
1014.202
1030.364
1028.484
1023.458
1026.862
1035.056
1030.620
1036.865
1027.296
1029.108
1029.020
1035.710
1036.854
1049.089
1050.375
1048.594
1040.493
1053.386
1052.771
1058.694
1056.459
1046.800
1060.799
1049.371
1063.844
1061.473
1067.359
1067.467
1057.967
1066.771
1062.851
1068.973
1063.972
1069.950
1071.511
1080.417
1077.352
1085.245
1079.840
1086.980
1086.084
1082.333
1086.069
1082.107
1088.886
1098.910
1088.313
1091.422
1093.203
1096.846
1099.644
1098.587
1095.229
1105.259
1102.871
1113.920
1113.892
1115.900
1109.802
1114.958
1112.855
1108.965
1110.490
1115.315
1114.442
1120.794
1120.459
1113.600
1124.107
1118.224
1112.075
1112.026
1116.505
1110.654
1116.940
1115.352
1117.414
1110.004
1108.752
1113.019
1113.070
1118.321
1105.172
1114.272
1104.812
1113.413
1108.487
1104.625
1105.339
1109.457
1103.714
1107.670
1112.472
1102.969
1110.758
1101.734
1105.508
1104.844
1107.217
1099.226
1107.300
1105.438
1092.792
1107.504
1100.780
1099.366
1102.991
1103.248
1099.028
1095.164
1094.179
1093.817
1086.944
1091.744
1097.326
1091.057
1090.057
1085.808
1082.766
1094.179
1090.483
1090.274
1092.461
1086.349
1091.131
1091.064
1087.627
1083.152
1092.194
1086.665
1078.162
1081.217
1085.824
1074.183
1084.212
1083.246
1076.262
1080.817
1084.558
1085.220
1073.893
1072.355
1079.035
1082.322
1080.588
1070.141
1079.726
1075.778
1070.471
1077.114
1076.906
1073.781
1074.688
1071.843
1065.552
1066.160
1067.523
1068.610
1073.718
1072.391
1070.785
1070.258
1070.411
1061.970
1067.147
1065.892
1057.744
1053.740
1056.994
1056.591
1066.223
1059.619
1057.643
1056.291
1061.055
1061.376
1062.591
1049.258
1047.810
1054.762
1055.669
1060.350
1048.136
1046.124
1052.986
1055.075
1054.698
1050.453
1055.927
1049.537
1046.296
1048.113
1044.370
1044.713
1046.356
1052.616
1041.363
1043.256
1039.516
1045.356
1049.172
1042.964
1043.063
1037.749
1036.105
1032.672
1031.532
1030.392
1029.597
1034.803
1035.039
1033.725
1032.069
1032.254
1032.367
1028.926
1024.277
1031.564
1034.788
1034.283
1037.704
1026.419
1025.505
1031.603
1028.192
1031.844
1020.916
1020.279
1030.176
1017.578
1015.829
1025.927
1022.750
1019.625
1015.060
1016.234
1018.779
1024.182
1025.510
1013.543
1010.268
1012.499
1019.443
1013.598
1013.758
1008.824
1018.497
1011.354
1011.667
1018.259
1007.114
1018.229
1002.803
1005.237
1013.399
1014.077
1013.333
1006.455
1014.574
1010.366
999.899
1010.297
1004.465
1003.701
1001.816
997.230
1001.125
995.571
1000.601
995.306
992.299
994.979
1001.504
990.016
991.897
997.865
988.557
982.213
996.060
980.444
985.010
983.079
986.896
986.332
986.975
983.823
980.516
975.713
971.284
979.671
969.789
968.802
974.873
970.156
966.300
975.920
974.708
961.839
958.752
968.894
970.198
965.500
958.775
965.056
962.943
957.903
956.227
958.836
950.921
952.301
951.258
956.693
942.630
945.535
942.763
951.304
947.833
938.681
946.622
936.162
934.559
932.512
944.663
944.057
935.012
937.486
927.301
931.845
938.857
933.573
925.739
936.297
919.962
929.522
920.132
918.078
920.984
926.716
923.605
915.320
912.938
923.759
917.313
910.199
918.087
917.833
907.980
916.890
908.013
910.619
900.634
909.648
904.165
899.182
897.561
909.325
903.480
897.921
893.681
892.250
895.629
890.927
901.273
890.179
890.021
895.872
881.637
889.250
885.737
889.792
891.317
890.471
880.645
874.950
885.088
886.566
875.107
869.117
875.208
880.938
875.107
864.711
867.950
873.952
873.289
872.164
867.620
861.888
861.596
867.198
862.192
854.178
860.746
865.342
855.650
856.727
862.344
857.018
848.319
849.179
850.913
846.147
845.271
843.510
850.454
848.862
845.579
844.369
846.220
839.751
845.703
843.114
840.930
839.239
835.475
838.757
836.532
824.224
826.469
832.657
832.146
830.854
823.879
828.828
823.839
819.874
816.291
822.091
815.363
820.328
815.312
823.500
821.002
815.882
808.394
806.111
803.757
805.896
807.085
811.305
810.389
809.599
810.716
801.247
801.119
806.586
794.470
790.502
804.244
793.144
794.720
798.548
789.809
791.494
786.648
787.989
788.537
792.519
793.123
784.893
780.588
774.637
784.105
779.603
782.983
783.041
781.470
775.841
768.742
766.540
772.292
769.511
765.538
752.998
756.005
751.056
752.484
756.121
755.605
740.952
749.031
750.158
742.673
742.926
731.169
741.912
733.388
726.568
725.701
732.862
715.957
719.022
726.231
710.783
721.298
704.883
716.928
710.216
699.530
704.455
695.170
703.766
704.313
689.727
696.415
682.671
693.183
692.328
681.400
685.791
675.461
684.926
674.341
672.765
675.171
669.409
667.490
658.704
663.510
666.812
658.470
661.648
651.680
657.355
642.078
640.676
645.976
636.303
644.138
634.181
629.525
633.737
625.870
628.373
628.621
626.899
627.341
621.481
621.817
622.390
609.043
612.709
616.512
611.947
601.859
595.072
592.863
603.093
601.054
586.525
593.577
582.389
583.904
587.758
588.059
587.425
574.130
576.246
580.680
568.644
573.694
560.103
560.187
569.360
555.047
565.539
559.442
546.401
553.977
556.247
544.226
539.352
540.379
537.961
538.292
534.480
540.997
524.725
535.263
519.600
522.481
526.268
516.735
514.589
521.320
506.788
518.337
504.415
500.666
506.125
497.872
500.794
502.426
498.640
500.379
485.140
497.824
487.579
491.925
476.434
483.416
484.098
472.164
470.216
472.881
475.523
471.144
460.688
471.109
454.210
458.717
460.446
447.408
450.787
456.150
447.746
451.922
449.535
446.062
444.970
443.227
436.617
436.774
432.167
431.952
424.646
427.927
426.591
421.140
422.159
419.211
406.728
409.736
402.887
407.116
410.570
398.496
406.094
403.899
394.932
397.507
383.913
382.472
382.081
384.478
375.204
374.477
372.333
374.681
377.213
377.314
370.633
372.207
369.279
366.798
365.187
356.598
354.286
348.360
351.737
342.617
353.505
340.922
348.846
334.623
224.112
224.758
208.640
210.259
225.907
172.015
231.966
189.780
152.830
165.704
163.669
218.015
177.316
231.238
222.398
218.171
175.063
199.213
198.564
154.246
216.588
154.306
233.338
154.982
193.812
226.582
226.109
204.309
166.078
168.586
162.535
157.977
166.944
210.442
154.154
159.989
153.481
153.087
167.241
158.777
229.317
157.562
160.002
204.509
225.447
218.006
159.368
221.958
151.514
228.319
158.049
163.716
184.677
194.660
218.432
169.659
216.141
179.450
211.022
163.324
197.311
205.953
163.462
167.612
172.648
211.004
221.585
203.878
226.364
181.122
222.036
202.123
208.482
231.865
208.551
183.046
203.685
188.034
162.299
222.055
189.740
228.573
200.201
193.317
151.244
194.636
203.374
163.673
199.710
181.070
226.247
185.770
151.758
212.649
201.954
220.997
220.990
162.323
194.574
212.328
128.305
112.711
99.370
107.489
104.047
110.865
98.446
113.193
100.329
128.535
103.313
108.738
128.714
115.601
93.617
129.479
93.900
122.527
117.730
97.729
111.643
88.961
118.568
104.358
129.210
105.834
125.732
122.816
115.134
101.041
122.603
89.715
84.972
124.401
110.215
117.251
120.389
115.081
97.659
118.652
124.078
115.440
94.202
126.809
97.347
113.329
117.872
110.921
87.650
122.338
121.642
113.570
118.795
90.352
119.357
93.919
126.145
125.110
125.040
103.345
110.977
85.871
103.172
125.983
121.133
105.852
115.114
125.625
88.614
110.007
125.094
95.594
84.779
112.290
92.601
121.905
124.027
105.965
113.839
103.016
91.258
128.319
95.370
105.608
127.894
108.387
91.243
111.899
101.433
98.798
112.241
124.179
89.946
128.195
120.056
113.269
96.023
108.792
98.336
109.485
96.962
98.736
95.625
120.217
113.328
84.587
124.482
109.100
98.680
117.400
88.559
96.370
92.985
111.608
111.038
118.797
101.274
88.604
91.880
102.018
87.104
121.372
120.644
110.318
92.691
107.564
101.707
96.447
104.456
112.055
120.721
112.180
119.268
115.097
120.141
119.050
115.045
104.759
127.020
86.379
125.630
129.623
110.233
94.866
106.139
101.979
96.938
119.777
108.259
85.727
122.506
99.642
102.750
111.460
92.508
95.718
115.435
97.658
117.047
90.716
129.811
101.981
115.765
92.515
121.674
111.939
110.664
93.230
115.958
114.296
122.968
103.634
90.345
126.672
100.324
119.250
94.684
96.501
115.258
108.368
90.306
90.339
114.452
91.225
104.376
97.721
115.991
119.542
91.496
94.410
95.948
94.749
105.874
93.761
118.874
104.311
101.493
94.092
110.285
97.162
99.004
87.297
114.203
112.763
104.801
107.511
100.711
108.957
96.527
123.880
87.354
103.698
123.025
121.133
110.550
94.942
93.816
97.879
106.403
99.526
113.778
94.952
121.629
125.903
128.265
112.856
87.620
110.011
106.647
127.869
91.307
116.807
102.032
86.164
112.132
99.101
122.091
125.141
89.683
128.101
93.500
88.335
96.517
93.151
100.286
122.434
104.687
90.843
93.007
94.590
102.523
105.159
93.871
115.645
86.324
88.608
120.014
109.139
128.733
125.361
117.721
127.517
119.979
119.257
113.815
102.519
102.566
106.902
125.138
94.517
117.593
117.935
113.133
107.213
105.206
119.694
96.560
120.926
121.309
124.301
99.754
107.665
106.259
121.281
102.903
106.725
102.937
107.310
89.089
89.764
127.149
129.243
117.411
105.445
86.734
85.210
115.353
103.659
105.536
122.401
88.141
90.474
92.933
128.986
106.173
110.152
116.013
104.205
117.330
107.190
118.487
115.435
117.399
85.815
119.886
113.529
98.582
109.477
84.738
100.160
86.327
117.800
87.179
107.617
99.308
129.068
125.938
109.931
111.088
105.605
117.984
126.994
84.047
90.978
126.722
113.751
129.001
103.067
123.726
119.587
90.679
90.780
87.498
90.931
113.842
97.224
127.168
116.591
86.527
110.487
104.879
92.992
122.963
85.323
120.352
86.514
98.853
108.225
118.618
87.171
105.472
125.698
90.797
97.198
111.936
105.956
108.283
95.930
126.323
97.300
95.702
124.509
117.393
127.938
92.924
99.399
114.204
114.620
103.135
124.579
86.059
123.870
93.001
106.059
103.502
127.653
122.916
94.247
85.988
126.791
115.423
129.020
117.929
102.711
91.605
125.631
113.317
119.415
107.242
85.547
86.981
105.030
110.339
122.010
116.997
84.193
107.170
93.450
105.335
87.473
91.053
115.407
114.929
89.589
84.303
88.007
88.197
93.119
100.019
107.345
118.721
129.574
92.695
101.798
129.251
92.704
114.711
97.650
113.552
127.931
114.479
105.546
109.858
88.595
87.612
123.313
107.622
123.849
120.246
120.766
114.056
112.481
95.555
96.668
110.548
114.428
86.351
94.044
123.871
91.423
89.004
126.512
127.931
101.092
88.033
89.567
119.229
110.431
109.251
99.136
115.476
118.799
91.886
118.343
88.809
102.929
109.832
98.027
98.888
106.332
124.142
121.687
119.200
84.798
112.634
89.153
113.042
101.028
90.189
124.885
120.607
103.186
94.646
99.740
86.556
123.494
111.360
106.678
105.481
87.622
104.403
119.325
116.154
100.479
116.214
100.827
88.852
90.455
123.220
113.337
101.399
83.916
109.866
107.859
105.455
111.759
100.918
112.392
127.441
95.782
125.743
85.003
103.220
87.241
85.282
108.389
89.107
98.782
108.121
86.133
117.709
122.376
97.786
101.204
99.859
104.688
129.009
115.690
104.879
121.041
92.536
124.656
101.588
88.126
101.330
99.373
105.294
90.051
90.266
126.948
87.669
92.834
127.015
128.565
107.446
128.370
111.483
117.657
103.442
105.753
112.023
113.179
96.073
108.992
107.098
101.411
91.397
86.061
116.100
102.084
107.879
99.891
111.739
108.969
86.160
115.310
106.466
87.530
116.881
96.927
89.606
102.952
94.840
128.553
113.476
107.572
124.534
118.848
121.773
98.606
125.425
109.540
120.750
101.104
90.936
84.226
98.354
126.517
90.339
102.222
116.220
104.934
124.153
118.939
121.647
123.957
98.486
109.973
92.981
109.048
92.247
120.509
105.275
89.450
125.928
90.662
109.566
90.546
128.034
100.107
117.203
89.812
108.568
113.184
109.646
108.425
125.149
127.603
116.139
96.972
107.288
93.188
120.120
97.998
107.277
96.711
99.039
94.265
101.736
95.513
113.357
98.650
128.775
93.385
123.590
96.657
116.225
98.328
102.555
98.030
106.829
128.308
90.209
105.849
128.161
121.199
126.756
110.037
115.686
95.300
114.568
118.034
99.167
127.419
99.757
96.241
86.751
111.826
93.864
88.732
117.377
90.651
87.236
125.699
88.503
107.353
102.437
87.945
102.762
87.183
121.805
103.592
128.903
126.542
99.574
105.305
84.193
93.904
120.825
113.500
101.576
124.804
126.150
120.021
107.652
92.087
90.251
103.200
122.517
122.911
91.998
84.971
118.066
125.687
118.333
