2067.714
2065.979
2064.243
2062.508
2060.772
2059.037
2057.301
2055.566
2053.830
2052.095
2050.359
2048.624
2046.888
2045.153
2043.417
2041.682
2039.946
2038.211
2036.475
2034.740
2033.004
2031.269
2029.533
2027.798
2026.062
2024.327
2022.591
2020.856
2019.120
2017.385
2021.271
2025.157
2029.043
2032.929
2036.815
2040.701
2044.587
2048.473
2052.359
2056.245
2060.131
2064.017
2067.903
2071.789
2075.675
2079.561
2083.447
2087.333
2091.219
2095.105
2098.991
2102.877
2106.763
2110.649
2114.535
2118.421
2122.307
2126.193
2130.079
2133.965
2137.851
2141.737
2145.623
2149.509
2153.395
2157.281
2161.167
2165.053
2168.939
2172.825
2176.711
2180.597
2184.483
2188.369
2192.255
2196.141
2200.027
2203.913
2207.799
2211.685
2215.571
2219.457
2223.343
2227.229
2231.115
2235.001
2238.887
2242.773
2246.659
2250.545
2254.431
2258.317
2262.203
2266.089
2269.975
2273.861
2277.747
2281.633
2285.519
2289.405
2293.291
2297.177
2301.063
2304.949
2308.835
2312.721
2316.607
2320.493
2324.379
2328.265
2332.151
2336.037
2339.923
2343.809
2347.695
2351.581
2355.467
2359.353
2363.239
2367.125
2371.011
2374.897
2378.783
2382.669
2386.555
2390.441
2394.327
2398.213
2402.099
2405.985
2409.871
2413.757
2417.643
2421.529
2425.415
2429.301
2433.187
2437.073
2440.959
2444.845
2448.731
2452.617
2456.503
2460.389
2464.275
2468.161
2472.047
2475.933
2479.819
2483.705
2487.591
2491.477
2495.363
2499.249
2503.135
2507.021
2510.907
2514.793
2518.679
2522.565
2526.451
2530.337
2534.223
2538.109
2541.995
2545.881
2549.767
2553.653
2557.539
2561.425
2565.311
2569.197
2573.083
2576.969
2580.855
2584.741
2588.627
2592.513
2596.399
2600.285
2604.171
2608.057
2611.943
2615.829
2619.715
2623.601
2627.487
2631.373
2635.259
2639.145
2643.031
2646.917
2650.803
2654.689
2658.575
2662.461
2666.347
2670.233
2674.119
2678.005
2681.891
2685.777
2689.663
2693.549
2697.435
2701.321
2705.207
2709.093
2712.979
2716.865
2720.751
2724.637
2728.523
2732.409
2736.295
2740.181
2744.067
2747.953
2751.839
2755.725
2759.611
2763.497
2767.383
2771.269
2775.155
2779.041
2782.927
2786.813
2790.699
2794.585
2793.094
2791.603
2790.112
2788.621
2787.130
2785.639
2784.148
2782.657
2781.166
2779.675
2778.184
2776.693
2775.202
2773.711
2772.220
2770.729
2769.238
2767.747
2766.256
2764.765
2763.274
2761.783
2760.292
2758.801
2757.310
2755.819
2754.328
2752.837
2751.346
2749.855
2748.364
2746.873
2745.382
2743.891
2742.400
2740.909
2739.418
2737.927
2736.436
2734.945
2733.454
2731.963
2730.472
2728.981
2727.490
2725.999
2724.508
2723.017
2721.526
2720.035
2718.544
2717.053
2715.562
2714.071
2712.580
2711.089
2709.598
2708.107
2706.616
2705.125
2703.634
2702.143
2700.652
2699.161
2697.670
2696.179
2694.688
2693.197
2691.706
2690.215
2688.724
2687.233
2685.742
2684.251
2682.760
2681.269
2679.778
2678.287
2676.796
2675.305
2673.814
2672.323
2670.832
2669.341
2667.850
2666.359
2664.868
2663.377
2661.886
2660.395
2658.904
2657.413
2655.922
2654.431
2652.940
2651.449
2649.958
2648.467
2646.976
2645.485
2643.994
2642.503
2641.012
2639.521
2638.030
2636.539
2635.048
2633.557
2632.066
2630.575
2629.084
2627.593
2626.102
2624.611
2623.120
2621.629
2620.138
2618.647
2617.156
2615.665
2614.174
2612.683
2611.192
2609.701
2608.210
2606.719
2605.228
2603.737
2602.246
2600.755
2599.264
2597.773
2596.282
2594.791
2593.300
2591.809
2590.318
2588.827
2587.336
2585.845
2584.354
2582.863
2581.372
2579.881
2578.390
2576.899
2575.408
2573.917
2572.426
2570.935
2569.444
2567.953
2566.462
2564.971
2563.480
2561.989
2560.498
2559.007
2557.516
2556.025
2554.534
2553.043
2551.552
2550.061
2548.570
2547.079
2545.588
2544.097
2542.606
2541.115
2539.624
2538.133
2536.642
2535.151
2533.660
2532.169
2530.678
2529.187
2527.696
2526.205
2524.714
2523.223
2521.732
2520.241
2518.750
2517.259
2515.768
2514.277
2512.786
2511.295
2509.804
2508.313
2506.822
2505.331
2503.840
2502.349
2500.858
2499.367
2497.876
2496.385
2493.575
2490.765
2487.955
2485.145
2482.335
2479.525
2476.715
2473.905
2471.095
2468.285
2465.475
2462.665
2459.855
2457.045
2454.235
2451.425
2448.615
2445.805
2442.995
2440.185
2437.375
2434.565
2431.755
2428.945
2426.135
2423.325
2420.515
2417.705
2414.895
2412.085
2409.275
2406.465
2403.655
2400.845
2398.035
2395.225
2392.415
2389.605
2386.795
2383.985
2381.175
2378.365
2375.555
2372.745
2369.935
2367.125
2364.315
2361.505
2358.695
2355.885
2353.075
2350.265
2347.455
2344.645
2341.835
2339.025
2336.215
2333.405
2330.595
2327.785
2324.975
2322.165
2319.355
2316.545
2313.735
2310.925
2308.115
2305.305
2302.495
2299.685
2296.875
2294.065
2291.255
2288.445
2285.635
2282.825
2280.015
2277.205
2274.395
2271.585
2268.775
2265.965
2263.155
2260.345
2257.535
2254.725
2251.915
2249.105
2246.295
2243.485
2240.675
2237.865
2235.055
2232.245
2229.435
2226.625
2223.815
2221.005
2218.195
2215.385
2212.575
2209.765
2206.955
2204.145
2201.335
2198.525
2195.715
2192.905
2190.095
2187.285
2184.475
2181.665
2178.855
2176.045
2173.235
2170.425
2167.615
2164.805
2161.995
2159.185
2156.375
2153.565
2150.755
2147.945
2145.135
2142.325
2139.515
2136.705
2133.895
2131.085
2128.275
2125.465
2122.655
2119.845
2117.035
2114.225
2111.415
2108.605
2105.795
2102.985
2100.175
2097.365
2094.555
2091.745
2088.935
2086.125
2083.315
2080.505
2077.695
2074.885
2072.075
2069.265
2066.455
2063.645
2060.835
2058.025
2055.215
2052.405
2049.595
2046.785
2043.975
2041.165
2038.355
2035.545
2032.735
2029.925
2027.115
2024.305
2021.495
2018.685
2015.875
2013.065
2010.255
2007.445
2004.635
2001.825
1999.015
1996.205
1993.395
1990.585
1987.775
1984.965
1982.155
1979.345
1976.535
1973.725
1970.915
1968.105
1965.295
1962.485
1959.675
1956.865
1954.055
1951.245
1948.435
1945.625
1942.815
1940.005
1937.195
81.985
81.985
81.985
81.985
81.985
81.985
81.985
81.985
81.985
81.985
81.985
81.985
81.985
81.985
81.985
81.985
81.985
81.985
81.985
81.985
81.985
81.985
81.985
81.985
81.985
81.985
81.985
81.985
81.985
81.985
81.985
81.985
81.985
81.985
81.985
81.985
81.985
81.985
81.985
81.985
81.985
81.985
81.985
81.985
81.985
81.985
81.985
81.985
81.985
81.985
81.985
81.985
81.985
81.985
81.985
81.985
81.985
81.985
81.985
81.985
81.985
81.985
81.985
81.985
81.985
81.985
81.985
81.985
81.985
81.985
81.985
81.985
81.985
81.985
81.985
81.985
81.985
81.985
81.985
81.985
81.985
81.985
81.985
81.985
81.985
81.985
81.985
81.985
81.985
81.985
81.985
81.985
81.985
81.985
81.985
81.985
81.985
81.985
81.985
81.985
81.985
81.985
81.985
81.985
81.985
81.985
81.985
81.985
81.985
81.985
81.985
81.985
81.985
81.985
81.985
81.985
81.985
81.985
81.985
81.985
81.985
81.985
81.985
81.985
81.985
81.985
81.985
81.985
81.985
81.985
81.985
81.985
81.985
81.985
81.985
81.985
81.985
81.985
81.985
81.985
81.985
81.985
81.985
81.985
81.985
81.985
81.985
81.985
81.985
81.985
81.985
81.985
81.985
81.985
81.985
81.985
81.985
81.985
81.985
81.985
81.985
81.985
81.985
81.985
81.985
81.985
81.985
81.985
81.985
81.985
81.985
81.985
81.985
81.985
81.985
81.985
81.985
81.985
81.985
81.985
81.985
81.985
81.985
81.985
81.985
81.985
81.985
81.985
81.985
81.985
81.985
81.985
81.985
81.985
81.985
81.985
81.985
81.985
81.985
81.985
81.985
81.960
81.936
81.911
81.887
81.862
81.838
81.813
81.789
81.764
81.740
81.715
81.691
81.666
81.642
81.617
81.593
81.568
81.544
81.519
81.495
81.470
81.446
81.421
81.397
81.372
81.348
81.323
81.299
81.274
81.250
81.225
81.201
81.176
81.152
81.127
81.103
81.078
81.054
81.029
81.005
80.980
80.956
80.931
80.907
80.882
80.858
80.833
80.809
80.784
80.760
80.735
80.711
80.686
80.662
80.637
80.613
80.588
80.564
80.539
80.515
80.490
80.466
80.441
80.417
80.392
80.368
80.343
80.319
80.294
80.270
80.245
80.221
80.196
80.172
80.147
80.123
80.098
80.074
80.049
80.025
80.000
79.976
79.951
79.927
79.902
79.878
79.853
79.829
79.804
79.780
79.755
79.731
79.706
79.682
79.657
79.633
79.608
79.584
79.559
79.535
79.510
79.486
79.461
79.437
79.412
79.388
79.363
79.339
79.314
79.290
79.265
79.241
79.216
79.192
79.167
79.143
79.118
79.094
79.069
79.045
79.020
78.996
78.971
78.947
78.922
78.898
78.873
78.849
78.824
78.800
78.775
78.751
78.726
78.702
78.677
78.653
78.628
78.604
78.579
78.555
78.530
78.506
78.481
78.457
78.432
78.408
78.383
78.359
78.334
78.310
78.285
78.261
78.236
78.212
78.187
78.163
78.138
78.114
78.089
78.065
78.040
78.016
77.991
77.967
77.942
77.918
77.893
77.869
77.844
77.820
77.795
77.771
77.746
77.722
77.697
77.673
77.648
77.624
77.599
77.575
77.550
77.526
77.501
77.477
77.452
77.428
77.403
77.379
77.354
77.330
77.305
77.281
77.256
77.232
77.207
77.183
77.158
77.134
77.109
77.085
77.085
77.085
77.085
77.085
77.085
77.085
77.085
77.085
77.085
77.085
77.085
77.085
77.085
77.085
77.085
77.085
77.085
77.085
77.085
77.085
77.085
77.085
77.085
77.085
77.085
77.085
77.085
77.085
77.085
77.085
77.085
77.085
77.085
77.085
77.085
77.085
77.085
77.085
77.085
77.085
77.085
77.085
77.085
77.085
77.085
77.085
77.085
77.085
77.085
77.085
77.085
77.085
77.085
77.085
77.085
77.085
77.085
77.085
77.085
77.085
77.085
77.085
77.085
77.085
77.085
77.085
77.085
77.085
77.085
77.085
77.085
77.085
77.085
77.085
77.085
77.085
77.085
77.085
77.085
77.085
77.085
77.085
77.085
77.085
77.085
77.085
77.085
77.085
77.085
77.085
77.085
77.085
77.085
77.085
77.085
77.085
77.085
77.085
77.085
77.085
77.085
77.085
77.085
77.085
77.085
77.085
77.085
77.085
77.085
77.085
77.085
77.085
77.085
77.085
77.085
77.085
77.085
77.085
77.085
77.085
77.085
77.085
77.085
77.085
77.085
77.085
77.085
77.085
77.085
77.085
77.085
77.085
77.085
77.085
77.085
77.085
77.085
77.085
77.085
77.085
77.085
77.085
77.085
77.085
77.085
77.085
77.085
77.085
77.085
77.085
77.085
77.085
77.085
77.085
77.085
77.085
77.085
77.085
77.085
77.085
77.085
77.085
77.085
77.085
77.085
77.085
77.085
77.085
77.085
77.085
77.085
77.085
77.085
77.085
77.085
77.085
77.085
77.085
77.085
77.085
77.085
77.085
77.085
77.085
77.085
77.085
77.085
77.085
77.085
77.085
77.085
77.085
77.085
77.085
77.085
77.085
77.085
77.085
77.085
77.085
77.109
77.134
77.158
77.183
77.207
77.232
77.256
77.281
77.305
77.330
77.354
77.379
77.403
77.428
77.452
77.477
77.501
77.526
77.550
77.575
77.599
77.624
77.648
77.673
77.697
77.722
77.746
77.771
77.795
77.820
77.844
77.869
77.893
77.918
77.942
77.967
77.991
78.016
78.040
78.065
78.089
78.114
78.138
78.163
78.187
78.212
78.236
78.261
78.285
78.310
78.334
78.359
78.383
78.408
78.432
78.457
78.481
78.506
78.530
78.555
78.579
78.604
78.628
78.653
78.677
78.702
78.726
78.751
78.775
78.800
78.824
78.849
78.873
78.898
78.922
78.947
78.971
78.996
79.020
79.045
79.069
79.094
79.118
79.143
79.167
79.192
79.216
79.241
79.265
79.290
79.314
79.339
79.363
79.388
79.412
79.437
79.461
79.486
79.510
79.535
79.559
79.584
79.608
79.633
79.657
79.682
79.706
79.731
79.755
79.780
79.804
79.829
79.853
79.878
79.902
79.927
79.951
79.976
80.000
80.025
80.049
80.074
80.098
80.123
80.147
80.172
80.196
80.221
80.245
80.270
80.294
80.319
80.343
80.368
80.392
80.417
80.441
80.466
80.490
80.515
80.539
80.564
80.588
80.613
80.637
80.662
80.686
80.711
80.735
80.760
80.784
80.809
80.833
80.858
80.882
80.907
80.931
80.956
80.980
81.005
81.029
81.054
81.078
81.103
81.127
81.152
81.176
81.201
81.225
81.250
81.274
81.299
81.323
81.348
81.372
81.397
81.421
81.446
81.470
81.495
81.519
81.544
81.568
81.593
81.617
81.642
81.666
81.691
81.715
81.740
81.764
81.789
81.813
81.838
81.862
81.887
81.911
81.936
81.960
81.985
81.960
81.936
81.911
81.887
81.862
81.838
81.813
81.789
81.764
81.740
81.715
81.691
81.666
81.642
81.617
81.593
81.568
81.544
81.519
81.495
81.470
81.446
81.421
81.397
81.372
81.348
81.323
81.299
81.274
81.250
81.225
81.201
81.176
81.152
81.127
81.103
81.078
81.054
81.029
81.005
80.980
80.956
80.931
80.907
80.882
80.858
80.833
80.809
80.784
80.760
80.735
80.711
80.686
80.662
80.637
80.613
80.588
80.564
80.539
80.515
80.490
80.466
80.441
80.417
80.392
80.368
80.343
80.319
80.294
80.270
80.245
80.221
80.196
80.172
80.147
80.123
80.098
80.074
80.049
80.025
80.000
79.976
79.951
79.927
79.902
79.878
79.853
79.829
79.804
79.780
79.755
79.731
79.706
79.682
79.657
79.633
79.608
79.584
79.559
79.535
79.510
79.486
79.461
79.437
79.412
79.388
79.363
79.339
79.314
79.290
79.265
79.241
79.216
79.192
79.167
79.143
79.118
79.094
79.069
79.045
79.020
78.996
78.971
78.947
78.922
78.898
78.873
78.849
78.824
78.800
78.775
78.751
78.726
78.702
78.677
78.653
78.628
78.604
78.579
78.555
78.530
78.506
78.481
78.457
78.432
78.408
78.383
78.359
78.334
78.310
78.285
78.261
78.236
78.212
78.187
78.163
78.138
78.114
78.089
78.065
78.040
78.016
77.991
77.967
77.942
77.918
77.893
77.869
77.844
77.820
77.795
77.771
77.746
77.722
77.697
77.673
77.648
77.624
77.599
77.575
77.550
77.526
77.501
77.477
77.452
77.428
77.403
77.379
77.354
77.330
77.305
77.281
77.256
77.232
77.207
77.183
77.158
77.134
77.109
77.085
77.109
77.134
77.158
77.183
77.207
77.232
77.256
77.281
77.305
77.330
77.354
77.379
77.403
77.428
77.452
77.477
77.501
77.526
77.550
77.575
77.599
77.624
77.648
77.673
77.697
77.722
77.746
77.771
77.795
77.820
77.844
77.869
77.893
77.918
77.942
77.967
77.991
78.016
78.040
78.065
78.089
78.114
78.138
78.163
78.187
78.212
78.236
78.261
78.285
78.310
78.334
78.359
78.383
78.408
78.432
78.457
78.481
78.506
78.530
78.555
78.579
78.604
78.628
78.653
78.677
78.702
78.726
78.751
78.775
78.800
78.824
78.849
78.873
78.898
78.922
78.947
78.971
78.996
79.020
79.045
79.069
79.094
79.118
79.143
79.167
79.192
79.216
79.241
79.265
79.290
79.314
79.339
79.363
79.388
79.412
79.437
79.461
79.486
79.510
79.535
79.559
79.584
79.608
79.633
79.657
79.682
79.706
79.731
79.755
79.780
79.804
79.829
79.853
79.878
79.902
79.927
79.951
79.976
80.000
80.025
80.049
80.074
80.098
80.123
80.147
80.172
80.196
80.221
80.245
80.270
80.294
80.319
80.343
80.368
80.392
80.417
80.441
80.466
80.490
80.515
80.539
80.564
80.588
80.613
80.637
80.662
80.686
80.711
80.735
80.760
80.784
80.809
80.833
80.858
80.882
80.907
80.931
80.956
80.980
81.005
81.029
81.054
81.078
81.103
81.127
81.152
81.176
81.201
81.225
81.250
81.274
81.299
81.323
81.348
81.372
81.397
81.421
81.446
81.470
81.495
81.519
81.544
81.568
81.593
81.617
81.642
81.666
81.691
81.715
81.740
81.764
81.789
81.813
81.838
81.862
81.887
81.911
81.936
81.960
81.985
81.985
81.985
81.985
81.985
81.985
81.985
81.985
81.985
81.985
81.985
81.985
81.985
81.985
81.985
81.985
81.985
81.985
81.985
81.985
81.985
81.985
81.985
81.985
81.985
81.985
81.985
81.985
81.985
81.985
81.985
81.985
81.985
81.985
81.985
81.985
81.985
81.985
81.985
81.985
81.985
81.985
81.985
81.985
81.985
81.985
81.985
81.985
81.985
81.985
81.985
81.985
81.985
81.985
81.985
81.985
81.985
81.985
81.985
81.985
81.985
81.985
81.985
81.985
81.985
81.985
81.985
81.985
81.985
81.985
81.985
81.985
81.985
81.985
81.985
81.985
81.985
81.985
81.985
81.985
81.985
81.985
81.985
81.985
81.985
81.985
81.985
81.985
81.985
81.985
81.985
81.985
81.985
81.985
81.985
81.985
81.985
81.985
81.985
81.985
81.985
81.985
81.985
81.985
81.985
81.985
81.985
81.985
81.985
81.985
81.985
81.985
81.985
81.985
81.985
81.985
81.985
81.985
81.985
81.985
81.985
81.985
81.985
81.985
81.985
81.985
81.985
81.985
81.985
81.985
81.985
81.985
81.985
81.985
81.985
81.985
81.985
81.985
81.985
81.985
81.985
81.985
81.985
81.985
81.985
81.985
81.985
81.985
81.985
81.985
81.985
81.985
81.985
81.985
81.985
81.985
81.985
81.985
81.985
81.985
81.985
81.985
81.985
81.985
81.985
81.985
81.985
81.985
81.985
81.985
81.985
