2434.180
2431.711
2429.243
2426.774
2424.306
2421.837
2419.369
2416.900
2414.432
2411.963
2409.495
2407.026
2404.558
2402.089
2399.621
2397.152
2394.684
2392.215
2389.747
2387.278
2384.810
2382.341
2379.873
2377.404
2374.936
2372.467
2369.999
2367.530
2365.062
2362.593
2360.125
2357.656
2355.188
2352.719
2350.251
2347.782
2345.314
2342.845
2340.377
2337.908
2335.440
2332.971
2330.503
2328.034
2325.566
2323.097
2320.629
2318.160
2315.692
2313.223
2310.755
2308.286
2305.818
2303.349
2300.881
2298.412
2295.944
2293.475
2291.007
2288.538
2286.070
2283.601
2281.133
2278.664
2276.196
2273.727
2271.259
2268.790
2266.322
2263.853
2261.385
2258.916
2256.448
2253.979
2251.511
2249.042
2246.574
2244.105
2241.637
2239.168
2236.700
2234.231
2231.763
2229.294
2226.826
2224.357
2221.889
2219.420
2216.952
2214.483
2212.015
2209.546
2207.078
2204.609
2202.141
2199.672
2197.204
2194.735
2192.267
2189.798
2187.330
2184.861
2182.393
2179.924
2177.456
2174.987
2172.519
2170.050
2167.582
2165.113
2162.645
2160.176
2157.708
2155.239
2152.771
2150.302
2147.834
2145.365
2142.897
2140.428
2137.960
2135.491
2133.023
2130.554
2128.086
2125.617
2123.149
2120.680
2118.212
2115.743
2113.275
2110.806
2108.338
2105.869
2103.401
2100.932
2098.464
2095.995
2093.527
2091.058
2088.590
2086.121
2083.653
2081.184
2078.716
2076.247
2073.779
2071.310
2068.842
2066.373
2063.905
2061.436
2058.968
2056.499
2054.031
2051.562
2049.094
2046.625
2044.157
2041.688
2039.220
2036.751
2034.283
2031.814
2029.346
2026.877
2024.409
2021.940
2019.472
2017.003
2014.535
2012.066
2009.598
2007.129
2004.661
2002.192
1999.724
1997.255
1994.787
1992.318
1989.850
1987.381
1984.913
1982.444
1979.976
1977.507
1975.039
1972.570
1970.102
1967.633
1965.165
1962.696
1960.228
1957.759
1955.291
1952.822
1950.354
1947.885
1945.417
1942.948
1940.480
1939.307
1938.134
1936.961
1935.788
1934.615
1933.442
1932.269
1931.096
1929.923
1928.750
1927.577
1926.404
1925.231
1924.058
1922.885
1921.712
1920.539
1919.366
1918.193
1917.020
1915.847
1914.674
1913.501
1912.328
1911.155
1909.982
1908.809
1907.636
1906.463
1905.290
1904.117
1902.944
1901.771
1900.598
1899.425
1898.252
1897.079
1895.906
1894.733
1893.560
1892.387
1891.214
1890.041
1888.868
1887.695
1886.522
1885.349
1884.176
1883.003
1881.830
1880.657
1879.484
1878.311
1877.138
1875.965
1874.792
1873.619
1872.446
1871.273
1870.100
1868.927
1867.754
1866.581
1865.408
1864.235
1863.062
1861.889
1860.716
1859.543
1858.370
1857.197
1856.024
1854.851
1853.678
1852.505
1851.332
1850.159
1848.986
1847.813
1846.640
1845.467
1844.294
1843.121
1841.948
1840.775
1839.602
1838.429
1837.256
1836.083
1834.910
1833.737
1832.564
1831.391
1830.218
1829.045
1827.872
1826.699
1825.526
1824.353
1823.180
1822.007
1820.834
1819.661
1818.488
1817.315
1816.142
1814.969
1813.796
1812.623
1811.450
1810.277
1809.104
1807.931
1806.758
1805.585
1804.412
1803.239
1802.066
1800.893
1799.720
1798.547
1797.374
1796.201
1795.028
1793.855
1792.682
1791.509
1790.336
1789.163
1787.990
1786.817
1785.644
1784.471
1783.298
1782.125
1780.952
1779.779
1778.606
1777.433
1776.260
1775.087
1773.914
1772.741
1771.568
1770.395
1769.222
1768.049
1766.876
1765.703
1764.530
1763.357
1762.184
1761.011
1759.838
1758.665
1757.492
1756.319
1755.146
1753.973
1752.800
1751.627
1750.454
1749.281
1748.108
1746.935
1745.762
1744.589
1743.416
1742.243
1741.070
1739.897
1738.724
1737.551
1736.378
1735.205
1734.032
1732.859
1731.686
1730.513
1729.340
1728.167
1726.994
1725.821
1724.648
1723.475
1722.302
1721.129
1719.956
1718.783
1717.610
1716.437
1715.264
1714.091
1712.918
1711.745
1710.572
1709.399
1708.226
1707.053
1705.880
1702.825
1699.771
1696.716
1693.662
1690.607
1687.553
1684.498
1681.444
1678.389
1675.335
1672.280
1669.226
1666.171
1663.117
1660.062
1657.008
1653.953
1650.899
1647.844
1644.790
1641.735
1638.681
1635.626
1632.572
1629.517
1626.463
1623.408
1620.354
1617.299
1614.245
1611.190
1608.136
1605.081
1602.027
1598.972
1595.918
1592.863
1589.809
1586.754
1583.700
1580.645
1577.591
1574.536
1571.482
1568.427
1565.373
1562.318
1559.264
1556.209
1553.155
1550.100
1547.046
1543.991
1540.937
1537.882
1534.828
1531.773
1528.719
1525.664
1522.610
1519.555
1516.501
1513.446
1510.392
1507.337
1504.283
1501.228
1498.174
1495.119
1492.065
1489.010
1485.956
1482.901
1479.847
1476.792
1473.738
1470.683
1467.629
1464.574
1461.520
1458.465
1455.411
1452.356
1449.302
1446.247
1443.193
1440.138
1437.084
1434.029
1430.975
1427.920
1424.866
1421.811
1418.757
1415.702
1412.648
1409.593
1406.539
1403.484
1400.430
1397.375
1394.321
1391.266
1388.212
1385.157
1382.103
1379.048
1375.994
1372.939
1369.885
1366.830
1363.776
1360.721
1357.667
1354.612
1351.558
1348.503
1345.449
1342.394
1339.340
1336.285
1333.231
1330.176
1327.122
1324.067
1321.013
1317.958
1314.904
1311.849
1308.795
1305.740
1302.686
1299.631
1296.577
1293.522
1290.468
1287.413
1284.359
1281.304
1278.250
1275.195
1272.141
1269.086
1266.032
1262.977
1259.923
1256.868
1253.814
1250.759
1247.705
1244.650
1241.596
1238.541
1235.487
1232.432
1229.378
1226.323
1223.269
1220.214
1217.160
1214.105
1211.051
1207.996
1204.942
1201.887
1198.833
1195.778
1192.724
1189.669
1186.615
1183.560
1180.506
1177.451
1174.397
1171.342
1168.288
1165.233
1162.179
1159.124
1156.070
1153.015
1149.961
1146.906
1143.852
1140.797
1137.743
1134.688
1131.634
1128.579
1125.525
1122.470
1119.416
1116.361
1113.307
1110.252
1107.198
1104.143
1101.089
1098.034
1094.980
1098.450
1101.920
1105.390
1108.860
1112.330
1115.800
1119.270
1122.740
1126.210
1129.680
1133.150
1136.620
1140.090
1143.560
1147.030
1150.500
1153.970
1157.440
1160.910
1164.380
1167.850
1171.320
1174.790
1178.260
1181.730
1185.200
1188.670
1192.140
1195.610
1199.080
1202.550
1206.020
1209.490
1212.960
1216.430
1219.900
1223.370
1226.840
1230.310
1233.780
1237.250
1240.720
1244.190
1247.660
1251.130
1254.600
1258.070
1261.540
1265.010
1268.480
1271.950
1275.420
1278.890
1282.360
1285.830
1289.300
1292.770
1296.240
1299.710
1303.180
1306.650
1310.120
1313.590
1317.060
1320.530
1324.000
1327.470
1330.940
1334.410
1337.880
1341.350
1344.820
1348.290
1351.760
1355.230
1358.700
1362.170
1365.640
1369.110
1372.580
1376.050
1379.520
1382.990
1386.460
1389.930
1393.400
1396.870
1400.340
1403.810
1407.280
1410.750
1414.220
1417.690
1421.160
1424.630
1428.100
1431.570
1435.040
1438.510
1441.980
1445.450
1448.920
1452.390
1455.860
1459.330
1462.800
1466.270
1469.740
1473.210
1476.680
1480.150
1483.620
1487.090
1490.560
1494.030
1497.500
1500.970
1504.440
1507.910
1511.380
1514.850
1518.320
1521.790
1525.260
1528.730
1532.200
1535.670
1539.140
1542.610
1546.080
1549.550
1553.020
1556.490
1559.960
1563.430
1566.900
1570.370
1573.840
1577.310
1580.780
1584.250
1587.720
1591.190
1594.660
1598.130
1601.600
1605.070
1608.540
1612.010
1615.480
1618.950
1622.420
1625.890
1629.360
1632.830
1636.300
1639.770
1643.240
1646.710
1650.180
1653.650
1657.120
1660.590
1664.060
1667.530
1671.000
1674.470
1677.940
1681.410
1684.880
1688.350
1691.820
1695.290
1698.760
1702.230
1705.700
1709.170
1712.640
1716.110
1719.580
1723.050
1726.520
1729.990
1733.460
1736.930
1740.400
1743.870
1747.340
1750.810
1754.280
1757.750
1761.220
1764.690
1768.160
1771.630
1775.100
1778.570
1782.040
1785.510
1788.980
1782.088
1775.197
1768.305
1761.414
1754.522
1747.631
1740.739
1733.848
1726.956
1720.065
1713.173
1706.282
1699.390
1692.499
1685.607
1678.716
1671.824
1664.933
1658.041
1651.150
1644.258
1637.367
1630.475
1623.584
1616.692
1609.801
1602.909
1596.018
1589.126
1582.235
1575.343
1568.452
1561.560
1554.669
1547.777
1540.886
1533.994
1527.103
1520.211
1513.320
1506.428
1499.537
1492.645
1485.754
1478.862
1471.971
1465.079
1458.188
1451.296
1444.405
1437.513
1430.622
1423.730
1416.839
1409.947
1403.056
1396.164
1389.273
1382.381
1375.490
1368.598
1361.707
1354.815
1347.924
1341.032
1334.141
1327.249
1320.358
1313.466
1306.575
1299.683
1292.792
1285.900
1279.009
1272.117
1265.226
1258.334
1251.443
1244.551
1237.660
1230.768
1223.877
1216.985
1210.094
1203.202
1196.311
1189.419
1182.528
1175.636
1168.745
1161.853
1154.962
1148.070
1141.179
1134.287
1127.396
1120.504
1113.613
1106.721
1099.830
1092.938
1086.047
1079.155
1072.264
1065.372
1058.481
1051.589
1044.698
1037.806
1030.915
1024.023
1017.132
1010.240
1003.349
996.457
989.566
982.674
975.783
968.891
962.000
955.108
948.217
941.325
934.434
927.542
920.651
913.759
906.868
899.976
893.085
886.193
879.302
872.410
865.519
858.627
851.736
844.844
837.953
831.061
824.170
817.278
810.387
803.495
796.604
789.712
782.821
775.929
769.038
762.146
755.255
748.363
741.472
734.580
727.689
720.797
713.906
707.014
700.123
693.231
686.340
679.448
672.557
665.665
658.774
651.882
644.991
638.099
631.208
624.316
617.425
610.533
603.642
596.750
589.859
582.967
576.076
569.184
562.293
555.401
548.510
541.618
534.727
527.835
520.944
514.052
507.161
500.269
493.378
486.486
479.595
472.703
465.812
458.920
452.029
445.137
438.246
431.354
424.463
417.571
410.680
409.531
408.383
407.234
406.086
404.937
403.789
402.640
401.492
400.343
399.195
398.046
396.898
395.749
394.601
393.452
392.304
391.155
390.007
388.858
387.710
386.561
385.413
384.264
383.116
381.967
380.819
379.670
378.522
377.373
376.225
375.076
373.928
372.779
371.631
370.482
369.334
368.185
367.037
365.888
364.740
363.591
362.443
361.294
360.146
358.997
357.849
356.700
355.552
354.403
353.255
352.106
350.958
349.809
348.661
347.512
346.364
345.215
344.067
342.918
341.770
340.621
339.473
338.324
337.176
336.027
334.879
333.730
332.582
331.433
330.285
329.136
327.988
326.839
325.691
324.542
323.394
322.245
321.097
319.948
318.800
317.651
316.503
315.354
314.206
313.057
311.909
310.760
309.612
308.463
307.315
306.166
305.018
303.869
302.721
301.572
300.424
299.275
298.127
296.978
295.830
294.681
293.533
292.384
291.236
290.087
288.939
287.790
286.642
285.493
284.345
283.196
282.048
280.899
279.751
278.602
277.454
276.305
275.157
274.008
272.860
271.711
270.563
269.414
268.266
267.117
265.969
264.820
263.672
262.523
261.375
260.226
259.078
257.929
256.781
255.632
254.484
253.335
252.187
251.038
249.890
248.741
247.593
246.444
245.296
244.147
242.999
241.850
240.702
239.553
238.405
237.256
236.108
234.959
233.811
232.662
231.514
230.365
229.217
228.068
226.920
225.771
224.623
223.474
222.326
221.177
220.029
218.880
217.732
216.583
215.435
214.286
213.138
211.989
210.841
209.692
208.544
207.395
206.247
205.098
203.950
202.801
201.653
200.504
199.356
198.207
197.059
195.910
194.762
193.613
192.465
191.316
190.168
189.019
187.871
186.722
185.574
184.425
183.277
182.128
107.680
107.680
107.680
107.680
107.680
107.680
107.680
107.680
107.680
107.680
107.680
107.680
107.680
107.680
107.680
107.680
107.680
107.680
107.680
107.680
107.680
107.680
107.680
107.680
107.680
107.680
107.680
107.680
107.680
107.680
107.680
107.680
107.680
107.680
107.680
107.680
107.680
107.680
107.680
107.680
107.680
107.680
107.680
107.680
107.680
107.680
107.680
107.680
107.680
107.680
107.680
107.680
107.680
107.680
107.680
107.680
107.680
107.680
107.680
107.680
107.680
107.680
107.680
107.680
107.680
107.680
107.680
107.680
107.680
107.680
107.680
107.680
107.680
107.680
107.680
107.680
107.680
107.680
107.680
107.680
107.680
107.680
107.680
107.680
107.680
107.680
107.680
107.680
107.680
107.680
107.680
107.680
107.680
107.680
107.680
107.680
107.680
107.680
107.680
107.680
107.680
107.680
107.680
107.680
107.680
107.680
107.680
107.680
107.680
107.680
107.680
107.680
107.680
107.680
107.680
107.680
107.680
107.680
107.680
107.680
107.680
107.680
107.680
107.680
107.680
107.680
107.680
107.680
107.680
107.680
107.680
107.680
107.680
107.680
107.680
107.680
107.680
107.680
107.680
107.680
107.680
107.680
107.680
107.680
107.680
107.680
107.680
107.680
107.680
107.680
107.680
107.680
107.680
107.680
107.680
107.680
107.680
107.680
107.680
107.680
107.680
107.680
107.680
107.680
107.680
107.680
107.680
107.680
107.680
107.680
107.680
107.680
107.680
107.680
107.680
107.680
107.680
107.680
107.680
107.680
107.680
107.680
107.680
107.680
107.680
107.680
107.680
107.680
107.680
107.680
107.680
107.680
107.680
107.680
107.680
107.680
107.680
107.680
107.680
107.680
107.680
107.655
107.631
107.606
107.582
107.557
107.533
107.508
107.484
107.459
107.435
107.410
107.386
107.361
107.337
107.312
107.288
107.263
107.239
107.214
107.190
107.165
107.141
107.116
107.092
107.067
107.043
107.018
106.994
106.969
106.945
106.920
106.896
106.871
106.847
106.822
106.798
106.773
106.749
106.724
106.700
106.675
106.651
106.626
106.602
106.577
106.553
106.528
106.504
106.479
106.455
106.430
106.406
106.381
106.357
106.332
106.308
106.283
106.259
106.234
106.210
106.185
106.161
106.136
106.112
106.087
106.063
106.038
106.014
105.989
105.965
105.940
105.916
105.891
105.867
105.842
105.818
105.793
105.769
105.744
105.720
105.695
105.671
105.646
105.622
105.597
105.573
105.548
105.524
105.499
105.475
105.450
105.426
105.401
105.377
105.352
105.328
105.303
105.279
105.254
105.230
105.205
105.181
105.156
105.132
105.107
105.083
105.058
105.034
105.009
104.985
104.960
104.936
104.911
104.887
104.862
104.838
104.813
104.789
104.764
104.740
104.715
104.691
104.666
104.642
104.617
104.593
104.568
104.544
104.519
104.495
104.470
104.446
104.421
104.397
104.372
104.348
104.323
104.299
104.274
104.250
104.225
104.201
104.176
104.152
104.127
104.103
104.078
104.054
104.029
104.005
103.980
103.956
103.931
103.907
103.882
103.858
103.833
103.809
103.784
103.760
103.735
103.711
103.686
103.662
103.637
103.613
103.588
103.564
103.539
103.515
103.490
103.466
103.441
103.417
103.392
103.368
103.343
103.319
103.294
103.270
103.245
103.221
103.196
103.172
103.147
103.123
103.098
103.074
103.049
103.025
103.000
102.976
102.951
102.927
102.902
102.878
102.853
102.829
102.804
102.780
102.804
102.829
102.853
102.878
102.902
102.927
102.951
102.976
103.000
103.025
103.049
103.074
103.098
103.123
103.147
103.172
103.196
103.221
103.245
103.270
103.294
103.319
103.343
103.368
103.392
103.417
103.441
103.466
103.490
103.515
103.539
103.564
103.588
103.613
103.637
103.662
103.686
103.711
103.735
103.760
103.784
103.809
103.833
103.858
103.882
103.907
103.931
103.956
103.980
104.005
104.029
104.054
104.078
104.103
104.127
104.152
104.176
104.201
104.225
104.250
104.274
104.299
104.323
104.348
104.372
104.397
104.421
104.446
104.470
104.495
104.519
104.544
104.568
104.593
104.617
104.642
104.666
104.691
104.715
104.740
104.764
104.789
104.813
104.838
104.862
104.887
104.911
104.936
104.960
104.985
105.009
105.034
105.058
105.083
105.107
105.132
105.156
105.181
105.205
105.230
105.254
105.279
105.303
105.328
105.352
105.377
105.401
105.426
105.450
105.475
105.499
105.524
105.548
105.573
105.597
105.622
105.646
105.671
105.695
105.720
105.744
105.769
105.793
105.818
105.842
105.867
105.891
105.916
105.940
105.965
105.989
106.014
106.038
106.063
106.087
106.112
106.136
106.161
106.185
106.210
106.234
106.259
106.283
106.308
106.332
106.357
106.381
106.406
106.430
106.455
106.479
106.504
106.528
106.553
106.577
106.602
106.626
106.651
106.675
106.700
106.724
106.749
106.773
106.798
106.822
106.847
106.871
106.896
106.920
106.945
106.969
106.994
107.018
107.043
107.067
107.092
107.116
107.141
107.165
107.190
107.214
107.239
107.263
107.288
107.312
107.337
107.361
107.386
107.410
107.435
107.459
107.484
107.508
107.533
107.557
107.582
107.606
107.631
107.655
107.680
107.680
107.680
107.680
107.680
107.680
107.680
107.680
107.680
107.680
107.680
107.680
107.680
107.680
107.680
107.680
107.680
107.680
107.680
107.680
107.680
107.680
107.680
107.680
107.680
107.680
107.680
107.680
107.680
107.680
107.680
107.680
107.680
107.680
107.680
107.680
107.680
107.680
107.680
107.680
107.680
107.680
107.680
107.680
107.680
107.680
107.680
107.680
107.680
107.680
107.680
107.680
107.680
107.680
107.680
107.680
107.680
107.680
107.680
107.680
107.680
107.680
107.680
107.680
107.680
107.680
107.680
107.680
107.680
107.680
107.680
107.680
107.680
107.680
107.680
107.680
107.680
107.680
107.680
107.680
107.680
107.680
107.680
107.680
107.680
107.680
107.680
107.680
107.680
107.680
107.680
107.680
107.680
107.680
107.680
107.680
107.680
107.680
107.680
107.680
107.680
107.680
107.680
107.680
107.680
107.680
107.680
107.680
107.680
107.680
107.680
107.680
107.680
107.680
107.680
107.680
107.680
107.680
107.680
107.680
107.680
107.680
107.680
107.680
107.680
107.680
107.680
107.680
107.680
107.680
107.680
107.680
107.680
107.680
107.680
107.680
107.680
107.680
107.680
107.680
107.680
107.680
107.680
107.680
107.680
107.680
107.680
107.680
107.680
107.680
107.680
107.680
107.680
107.680
107.680
107.680
107.680
107.680
107.680
107.680
107.680
107.680
107.680
107.680
107.680
107.680
107.680
107.680
107.680
107.680
107.680
107.680
107.680
107.680
107.680
107.680
107.680
107.680
107.680
107.680
107.680
107.680
107.680
107.680
107.680
107.680
107.680
107.680
107.680
107.680
107.680
107.680
107.680
107.680
107.680
107.680
107.680
107.680
107.680
107.680
