2201.395
2195.652
2189.909
2184.166
2178.423
2172.680
2166.937
2161.194
2155.451
2149.708
2143.965
2138.222
2132.479
2126.736
2120.993
2115.250
2109.507
2103.764
2098.021
2092.278
2086.535
2080.792
2075.049
2069.306
2063.563
2057.820
2052.077
2046.334
2040.591
2034.848
2029.105
2023.362
2017.619
2011.876
2006.133
2000.390
1994.647
1988.904
1983.161
1977.418
1971.675
1965.932
1960.189
1954.446
1948.703
1942.960
1937.217
1931.474
1925.731
1919.988
1914.245
1908.502
1902.759
1897.016
1891.273
1885.530
1879.787
1874.044
1868.301
1862.558
1856.815
1851.072
1845.329
1839.586
1833.843
1828.100
1822.357
1816.614
1810.871
1805.128
1799.385
1793.642
1787.899
1782.156
1776.413
1770.670
1764.927
1759.184
1753.441
1747.698
1741.955
1736.212
1730.469
1724.726
1718.983
1713.240
1707.497
1701.754
1696.011
1690.268
1684.525
1678.782
1673.039
1667.296
1661.553
1655.810
1650.067
1644.324
1638.581
1632.838
1627.095
1621.352
1615.609
1609.866
1604.123
1598.380
1592.637
1586.894
1581.151
1575.408
1569.665
1563.922
1558.179
1552.436
1546.693
1549.308
1551.923
1554.538
1557.153
1559.768
1562.383
1564.998
1567.613
1570.228
1572.843
1575.458
1578.073
1580.688
1583.303
1585.918
1588.533
1591.148
1593.763
1596.378
1598.993
1601.608
1604.223
1606.838
1609.453
1612.068
1614.683
1617.298
1619.913
1622.528
1625.143
1627.758
1630.373
1632.988
1635.603
1638.218
1640.833
1643.448
1646.063
1648.678
1651.293
1653.908
1656.523
1659.138
1661.753
1664.368
1666.983
1669.598
1672.213
1674.828
1677.443
1680.058
1682.673
1685.288
1687.903
1690.518
1693.133
1695.748
1698.363
1700.978
1703.593
1706.208
1708.823
1711.438
1714.053
1716.668
1719.283
1721.898
1724.513
1727.128
1729.743
1732.358
1734.973
1737.588
1740.203
1742.818
1745.433
1748.048
1750.663
1753.278
1755.893
1758.508
1761.123
1763.738
1766.353
1768.968
1771.583
1774.198
1776.813
1779.428
1782.043
1784.658
1787.273
1789.888
1792.503
1795.118
1797.733
1800.348
1802.963
1805.578
1808.193
1810.808
1813.423
1816.038
1818.653
1821.268
1823.883
1826.498
1829.113
1831.728
1834.343
1836.958
1839.573
1842.188
1844.803
1847.418
1850.033
1852.648
1855.263
1857.878
1860.493
1863.108
1865.723
1868.338
1870.953
1873.568
1876.183
1878.798
1881.413
1884.028
1886.643
1889.258
1891.873
1894.488
1897.103
1899.718
1902.333
1904.948
1907.563
1910.178
1912.793
1915.408
1918.023
1920.638
1923.253
1925.868
1928.483
1931.098
1933.713
1936.328
1938.943
1941.558
1944.173
1946.788
1949.403
1952.018
1954.633
1957.248
1959.863
1962.478
1965.093
1967.708
1970.323
1972.938
1975.553
1978.168
1980.783
1983.398
1986.013
1988.628
1991.243
1993.858
1996.473
1999.088
2001.703
2004.318
2006.933
2009.548
2012.163
2014.778
2017.393
2020.008
2022.623
2025.238
2027.853
2030.468
2033.083
2035.698
2038.313
2040.928
2043.543
2046.158
2048.773
2051.388
2054.003
2056.618
2059.233
2061.848
2064.463
2067.078
2069.693
2071.282
2072.870
2074.459
2076.047
2077.636
2079.224
2080.813
2082.401
2083.990
2085.578
2087.167
2088.755
2090.344
2091.932
2093.521
2095.109
2096.698
2098.286
2099.875
2101.463
2103.052
2104.640
2106.229
2107.817
2109.406
2110.994
2112.583
2114.171
2115.760
2117.348
2118.937
2120.525
2122.114
2123.702
2125.291
2126.879
2128.468
2130.056
2131.645
2133.233
2134.822
2136.410
2137.999
2139.587
2141.176
2142.764
2144.353
2145.941
2147.530
2149.118
2150.707
2152.295
2153.884
2155.472
2157.061
2158.649
2160.238
2161.826
2163.415
2165.003
2166.592
2168.180
2169.769
2171.357
2172.946
2174.534
2176.123
2177.711
2179.300
2180.888
2182.477
2184.065
2185.654
2187.242
2188.831
2190.419
2192.008
2193.596
2195.185
2196.773
2198.362
2199.950
2201.539
2203.127
2204.716
2206.304
2207.893
2209.481
2211.070
2212.658
2214.247
2215.835
2217.424
2219.012
2220.601
2222.189
2223.778
2225.366
2226.955
2228.543
2230.132
2231.720
2233.309
2234.897
2236.486
2238.074
2239.663
2241.251
2242.840
2244.428
2246.017
2247.605
2249.194
2250.782
2252.371
2253.959
2255.548
2257.136
2258.725
2260.313
2261.902
2263.490
2265.079
2266.667
2268.256
2269.844
2271.433
2273.021
2274.610
2276.198
2277.787
2279.375
2280.964
2282.552
2284.141
2285.729
2287.318
2288.906
2290.495
2292.083
2293.672
2295.260
2296.849
2298.437
2300.026
2301.614
2303.203
2304.791
2306.380
2307.968
2309.557
2311.145
2312.734
2314.322
2315.911
2317.499
2319.088
2320.676
2322.265
2323.853
2325.442
2327.030
2328.619
2330.207
2331.796
2333.384
2334.973
2336.561
2338.150
2339.738
2341.327
2342.915
2344.504
2346.092
2347.681
2349.269
2350.858
2352.446
2354.035
2355.623
2357.212
2358.800
2360.389
2361.977
2363.566
2365.154
2366.743
2368.331
2369.920
2371.508
2373.097
2374.685
2376.274
2377.862
2379.451
2381.039
2382.628
2384.216
2385.805
2387.393
2385.658
2383.922
2382.187
2380.451
2378.716
2376.980
2375.245
2373.509
2371.774
2370.038
2368.303
2366.567
2364.832
2363.096
2361.361
2359.625
2357.890
2356.154
2354.419
2352.683
2350.948
2349.212
2347.477
2345.741
2344.006
2342.270
2340.535
2338.799
2337.064
2335.328
2333.593
2331.857
2330.122
2328.386
2326.651
2324.915
2323.180
2321.444
2319.709
2317.973
2316.238
2314.502
2312.767
2311.031
2309.296
2307.560
2305.825
2304.089
2302.354
2300.618
2298.883
2297.147
2295.412
2293.676
2291.941
2290.205
2288.470
2286.734
2284.999
2283.263
2281.528
2279.792
2278.057
2276.321
2274.586
2272.850
2271.115
2269.379
2267.644
2265.908
2264.173
2262.437
2260.702
2258.966
2257.231
2255.495
2253.760
2252.024
2250.289
2248.553
2246.818
2245.082
2243.347
2241.611
2239.876
2238.140
2236.405
2234.669
2232.934
2231.198
2229.463
2227.727
2225.992
2224.256
2222.521
2220.785
2219.050
2217.314
2215.579
2213.843
2212.108
2210.372
2208.637
2206.901
2205.166
2203.430
2201.695
2199.959
2198.224
2196.488
2194.753
2193.017
2191.282
2189.546
2187.811
2186.075
2184.340
2182.604
2180.869
2179.133
2177.398
2175.662
2173.927
2172.191
2170.456
2168.720
2166.985
2165.249
2163.514
2161.778
2160.043
2158.307
2156.572
2154.836
2153.101
2151.365
2149.630
2147.894
2146.159
2144.423
2142.688
2140.952
2139.217
2137.481
2135.746
2134.010
2132.275
2130.539
2128.804
2127.068
2125.333
2123.597
2121.862
2120.126
2118.391
2116.655
2114.920
2113.184
2111.449
2109.713
2107.978
2106.242
2104.507
2102.771
2101.036
2099.300
2097.565
2095.829
2094.094
2092.358
2090.623
2088.887
2087.152
2085.416
2083.681
2081.945
2080.210
2078.474
2076.739
2075.003
2073.268
2071.532
2069.797
2068.061
2066.326
2064.590
2062.855
2061.119
2059.384
2057.648
2055.913
2054.177
2052.442
2050.706
2048.971
2047.235
2045.500
2043.764
2042.029
2040.293
2044.179
2048.065
2051.951
2055.837
2059.723
2063.609
2067.495
2071.381
2075.267
2079.153
2083.039
2086.925
2090.811
2094.697
2098.583
2102.469
2106.355
2110.241
2114.127
2118.013
2121.899
2125.785
2129.671
2133.557
2137.443
2141.329
2145.215
2149.101
2152.987
2156.873
2160.759
2164.645
2168.531
2172.417
2176.303
2180.189
2184.075
2187.961
2191.847
2195.733
2199.619
2203.505
2207.391
2211.277
2215.163
2219.049
2222.935
2226.821
2230.707
2234.593
2238.479
2242.365
2246.251
2250.137
2254.023
2257.909
2261.795
2265.681
2269.567
2273.453
2277.339
2281.225
2285.111
2288.997
2292.883
2296.769
2300.655
2304.541
2308.427
2312.313
2316.199
2320.085
2323.971
2327.857
2331.743
2335.629
2339.515
2343.401
2347.287
2351.173
2355.059
2358.945
2362.831
2366.717
2370.603
2374.489
2378.375
2382.261
2386.147
2390.033
2393.919
2397.805
2401.691
2405.577
2409.463
2413.349
2417.235
2421.121
2425.007
2428.893
2432.779
2436.665
2440.551
2444.437
2448.323
2452.209
2456.095
2459.981
2463.867
2467.753
2471.639
2475.525
2479.411
2483.297
2487.183
2491.069
2494.955
2498.841
2502.727
2506.613
2510.499
2514.385
2518.271
2522.157
2526.043
2529.929
2533.815
2537.701
2541.587
2545.473
2549.359
2553.245
2557.131
2561.017
2564.903
2568.789
2572.675
2576.561
2580.447
2584.333
2588.219
2592.105
2595.991
2599.877
2603.763
2607.649
2611.535
2615.421
2619.307
2623.193
2627.079
2630.965
2634.851
2638.737
2642.623
2646.509
2650.395
2654.281
2658.167
2662.053
2665.939
2669.825
2673.711
2677.597
2681.483
2685.369
2689.255
2693.141
2697.027
2700.913
2704.799
2708.685
2712.571
2716.457
2720.343
2724.229
2728.115
2732.001
2735.887
2739.773
2743.659
2747.545
2751.431
2755.317
2759.203
2763.089
2766.975
2770.861
2774.747
2778.633
2782.519
2786.405
2790.291
2794.177
2798.063
2801.949
2805.835
2809.721
2813.607
2817.493
2816.002
2814.511
2813.020
2811.529
2810.038
2808.547
2807.056
2805.565
2804.074
2802.583
2801.092
2799.601
2798.110
2796.619
2795.128
2793.637
2792.146
2790.655
2789.164
2787.673
2786.182
2784.691
2783.200
2781.709
2780.218
2778.727
2777.236
2775.745
2774.254
2772.763
2771.272
2769.781
2768.290
2766.799
2765.308
2763.817
2762.326
2760.835
2759.344
2757.853
2756.362
2754.871
2753.380
2751.889
2750.398
2748.907
2747.416
2745.925
2744.434
2742.943
2741.452
2739.961
2738.470
2736.979
2735.488
2733.997
2732.506
2731.015
2729.524
2728.033
2726.542
2725.051
2723.560
2722.069
2720.578
2719.087
2717.596
2716.105
2714.614
2713.123
2711.632
2710.141
2708.650
2707.159
2705.668
2704.177
2702.686
2701.195
2699.704
2698.213
2696.722
2695.231
2693.740
2692.249
2690.758
2689.267
2687.776
2686.285
2684.794
2683.303
2681.812
2680.321
2678.830
2677.339
2675.848
2674.357
2672.866
2671.375
2669.884
2668.393
2666.902
2665.411
2663.920
2662.429
2660.938
2659.447
2657.956
2656.465
2654.974
2653.483
2651.992
2650.501
2649.010
2647.519
2646.028
2644.537
2643.046
2641.555
2640.064
2638.573
2637.082
2635.591
2634.100
2632.609
2631.118
2629.627
2628.136
2626.645
2625.154
2623.663
2622.172
2620.681
2619.190
2617.699
2616.208
2614.717
2613.226
2611.735
2610.244
2608.753
2607.262
2605.771
2604.280
2602.789
2601.298
2599.807
2598.316
2596.825
2595.334
2593.843
2592.352
2590.861
2589.370
2587.879
2586.388
2584.897
2583.406
2581.915
2580.424
2578.933
2577.442
2575.951
2574.460
2572.969
2571.478
2569.987
2568.496
2567.005
2565.514
2564.023
2562.532
2561.041
2559.550
2558.059
2556.568
2555.077
2553.586
2552.095
2550.604
2549.113
2547.622
2546.131
2544.640
2543.149
2541.658
2540.167
2538.676
2537.185
2535.694
2534.203
2532.712
2531.221
2529.730
2528.239
2526.748
2525.257
2523.766
2522.275
2520.784
2519.293
2516.483
2513.673
2510.863
2508.053
2505.243
2502.433
2499.623
2496.813
2494.003
2491.193
2488.383
2485.573
2482.763
2479.953
2477.143
2474.333
2471.523
2468.713
2465.903
2463.093
2460.283
2457.473
2454.663
2451.853
2449.043
2446.233
2443.423
2440.613
2437.803
2434.993
2432.183
2429.373
2426.563
2423.753
2420.943
2418.133
2415.323
2412.513
2409.703
2406.893
2404.083
2401.273
2398.463
2395.653
2392.843
2390.033
2387.223
2384.413
2381.603
2378.793
2375.983
2373.173
2370.363
2367.553
2364.743
2361.933
2359.123
2356.313
2353.503
2350.693
2347.883
2345.073
2342.263
2339.453
2336.643
2333.833
2331.023
2328.213
2325.403
2322.593
2319.783
2316.973
2314.163
2311.353
2308.543
2305.733
2302.923
2300.113
2297.303
2294.493
2291.683
2288.873
2286.063
2283.253
2280.443
2277.633
2274.823
2272.013
2269.203
2266.393
2263.583
2260.773
2257.963
2255.153
2252.343
2249.533
2246.723
2243.913
2241.103
2238.293
2235.483
2232.673
2229.863
2227.053
2224.243
2221.433
2218.623
2215.813
2213.003
2210.193
2207.383
2204.573
2201.763
2198.953
2196.143
2193.333
2190.523
2187.713
2184.903
2182.093
2179.283
2176.473
2173.663
2170.853
2168.043
2165.233
2162.423
2159.613
2156.803
2153.993
2151.183
2148.373
2145.563
2142.753
2139.943
2137.133
2134.323
2131.513
2128.703
2125.893
2123.083
2120.273
2117.463
2114.653
2111.843
2109.033
2106.223
2103.413
2100.603
2097.793
2094.983
2092.173
2089.363
2086.553
2083.743
2080.933
2078.123
2075.313
2072.503
2069.693
2066.883
2064.073
2061.263
2058.453
2055.643
2052.833
2050.023
2047.213
2044.403
2041.593
2038.783
2035.973
2033.163
2030.353
2027.543
2024.733
2021.923
2019.113
2016.303
2013.493
2010.683
2007.873
2005.063
2002.253
1999.443
1996.633
1993.823
1991.013
1988.203
1985.393
1982.583
1979.773
1976.963
1974.153
1971.343
1968.533
1965.723
1962.913
1960.103
104.893
104.893
104.893
104.893
104.893
104.893
104.893
104.893
104.893
104.893
104.893
104.893
104.893
104.893
104.893
104.893
104.893
104.893
104.893
104.893
104.893
104.893
104.893
104.893
104.893
104.893
104.893
104.893
104.893
104.893
104.893
104.893
104.893
104.893
104.893
104.893
104.893
104.893
104.893
104.893
104.893
104.893
104.893
104.893
104.893
104.893
104.893
104.893
104.893
104.893
104.893
104.893
104.893
104.893
104.893
104.893
104.893
104.893
104.893
104.893
104.893
104.893
104.893
104.893
104.893
104.893
104.893
104.893
104.893
104.893
104.893
104.893
104.893
104.893
104.893
104.893
104.893
104.893
104.893
104.893
104.893
104.893
104.893
104.893
104.893
104.893
104.893
104.893
104.893
104.893
104.893
104.893
104.893
104.893
104.893
104.893
104.893
104.893
104.893
104.893
104.893
104.893
104.893
104.893
104.893
104.893
104.893
104.893
104.893
104.893
104.893
104.893
104.893
104.893
104.893
104.893
104.893
104.893
104.893
104.893
104.893
104.893
104.893
104.893
104.893
104.893
104.893
104.893
104.893
104.893
104.893
104.893
104.893
104.893
104.893
104.893
104.893
104.893
104.893
104.893
104.893
104.893
104.893
104.893
104.893
104.893
104.893
104.893
104.893
104.893
104.893
104.893
104.893
104.893
104.893
104.893
104.893
104.893
104.893
104.893
104.893
104.893
104.893
104.893
104.893
104.893
104.893
104.893
104.893
104.893
104.893
104.893
104.893
104.893
104.893
104.893
104.893
104.893
104.893
104.893
104.893
104.893
104.893
104.893
104.893
104.893
104.893
104.893
104.893
104.893
104.893
104.893
104.893
104.893
104.893
104.893
104.893
104.893
104.893
104.893
104.893
104.893
104.893
104.893
104.893
104.893
104.893
104.893
104.893
104.893
104.893
104.893
104.893
104.893
104.893
104.893
104.893
104.893
104.893
104.893
104.893
104.893
104.893
104.893
104.893
104.893
104.893
104.893
104.893
104.893
104.893
104.893
104.893
104.893
104.893
104.893
104.893
104.893
104.893
104.893
104.893
104.893
104.893
104.893
104.893
104.893
104.893
104.893
104.893
104.893
104.893
104.893
104.893
104.893
104.893
104.893
104.893
104.893
104.893
104.893
104.893
104.893
104.893
104.893
104.893
104.893
104.893
104.893
104.893
104.893
104.893
104.893
104.893
104.893
104.893
104.893
104.893
104.893
104.893
104.893
104.893
104.893
104.893
104.893
104.893
104.893
104.893
104.893
104.893
104.893
104.893
104.893
104.893
104.893
104.893
104.893
104.893
104.893
104.893
104.893
104.893
104.893
104.893
104.893
104.893
104.893
104.893
104.893
104.893
104.893
104.893
104.893
104.893
104.893
104.893
104.893
104.893
104.893
104.893
104.893
104.893
104.893
104.893
104.893
104.893
104.893
104.893
104.893
104.893
104.893
104.893
104.893
104.893
104.893
104.893
104.893
104.893
104.893
104.893
104.893
104.893
104.893
104.893
104.893
104.893
104.893
104.893
104.893
104.893
104.893
104.893
104.893
104.893
104.893
104.893
104.893
104.893
104.893
104.893
104.893
104.893
104.893
104.893
104.893
104.893
104.893
104.893
104.893
104.893
104.893
104.893
104.893
104.893
104.893
104.893
104.893
104.893
104.893
104.893
104.893
104.893
104.893
104.893
104.893
104.893
104.893
104.893
104.893
104.893
104.893
104.893
104.893
104.893
104.893
104.893
104.893
104.893
104.893
104.893
104.893
104.893
104.893
104.893
104.893
104.893
104.893
104.893
104.893
104.893
104.893
104.893
104.893
104.893
104.893
104.893
104.893
104.893
104.893
104.893
104.893
104.893
104.893
104.893
104.893
104.893
104.893
104.893
104.893
104.893
104.893
104.893
104.893
104.893
104.893
104.893
104.893
104.893
104.893
104.893
104.893
104.893
104.893
104.893
104.893
104.893
104.893
104.893
104.893
104.893
104.893
104.893
104.893
104.893
104.893
104.893
104.893
104.893
104.893
104.893
104.893
104.893
104.893
104.893
104.893
104.893
104.893
104.893
104.893
104.893
104.893
104.893
104.893
104.893
104.893
104.893
104.893
104.893
104.893
104.893
104.893
104.893
104.893
104.893
104.893
104.893
104.893
104.893
104.893
104.893
104.893
104.893
104.893
104.893
104.893
104.893
104.893
104.893
104.893
104.893
104.893
104.893
104.893
104.893
104.893
104.893
104.893
104.893
104.893
104.893
104.893
104.893
104.893
104.893
104.893
104.893
104.893
104.893
104.893
104.893
104.893
104.893
104.893
104.893
104.893
104.893
104.893
104.893
104.893
104.893
104.893
104.893
104.893
104.893
104.893
104.893
104.893
104.893
104.893
104.893
104.893
104.893
104.893
104.893
104.893
104.893
104.893
104.893
104.893
104.893
104.893
104.893
104.893
104.893
104.893
104.893
104.893
104.893
104.893
104.893
104.893
104.893
104.893
104.893
104.893
104.893
104.893
104.893
104.893
104.893
104.893
104.893
104.893
104.893
104.893
104.893
104.893
104.893
104.893
104.893
104.893
104.893
104.893
104.893
104.893
104.893
104.893
104.893
104.893
104.893
104.893
104.893
104.893
104.893
104.893
104.893
104.893
104.893
104.893
104.893
104.893
104.893
104.893
104.893
104.893
104.893
104.893
104.893
104.893
104.893
104.893
104.893
104.893
104.893
104.893
104.893
104.893
104.893
104.893
104.893
104.893
104.893
104.893
104.893
104.893
104.893
104.893
104.893
104.893
104.893
104.893
104.893
104.893
104.893
104.893
104.893
104.893
104.893
104.893
104.893
104.893
104.893
104.893
104.893
104.893
104.893
104.893
104.893
104.893
104.893
104.893
104.893
104.893
104.893
104.893
104.893
104.893
104.893
104.893
104.893
104.893
104.893
104.893
104.893
104.893
104.893
104.893
104.893
104.893
104.893
104.893
104.893
104.893
104.893
104.893
104.893
104.893
104.893
104.893
104.893
104.893
104.893
104.893
104.893
104.893
104.893
104.893
