1781.541
1781.272
1781.003
1780.734
1780.465
1780.196
1779.927
1779.658
1779.389
1779.120
1778.851
1778.582
1778.313
1778.044
1777.775
1777.506
1777.237
1776.968
1776.699
1776.430
1776.161
1775.892
1775.623
1775.354
1775.085
1774.816
1774.547
1774.278
1774.009
1773.740
1773.471
1773.202
1772.933
1772.664
1772.395
1772.126
1771.857
1771.588
1771.319
1771.050
1770.781
1770.512
1770.243
1769.974
1769.705
1769.436
1769.167
1768.898
1768.629
1768.360
1768.091
1767.822
1767.553
1767.284
1767.015
1766.746
1766.477
1766.208
1765.939
1765.670
1765.401
1765.132
1764.863
1764.594
1764.325
1764.056
1763.787
1763.518
1763.249
1762.980
1762.711
1762.442
1762.173
1761.904
1761.635
1761.366
1761.097
1760.828
1760.559
1760.290
1760.021
1759.752
1759.483
1759.214
1758.945
1758.676
1758.407
1758.138
1757.869
1757.600
1757.331
1757.062
1756.793
1756.524
1756.255
1755.986
1755.717
1755.448
1755.179
1754.910
1754.641
1754.372
1754.103
1753.834
1753.565
1753.296
1753.027
1752.758
1752.489
1752.220
1751.951
1751.682
1751.413
1751.144
1750.875
1750.606
1750.337
1750.068
1749.799
1749.530
1749.261
1748.992
1748.723
1748.454
1748.185
1747.916
1747.647
1747.378
1747.109
1746.840
1746.571
1746.302
1746.033
1745.764
1745.495
1745.251
1745.007
1744.763
1744.519
1744.275
1744.031
1743.787
1743.543
1743.299
1743.055
1742.811
1742.567
1742.323
1742.079
1741.835
1741.591
1741.347
1741.103
1740.859
1740.615
1740.371
1740.127
1739.883
1739.639
1739.395
1739.151
1738.907
1738.663
1738.419
1738.175
1737.931
1737.687
1737.443
1737.199
1736.955
1736.711
1736.467
1736.223
1735.979
1735.735
1735.491
1735.247
1735.003
1734.759
1734.515
1734.271
1734.027
1733.783
1733.539
1733.295
1733.051
1732.807
1732.563
1732.319
1732.075
1731.831
1731.587
1731.343
1731.099
1730.855
1730.611
1730.367
1730.123
1729.879
1729.635
1729.391
1729.147
1728.903
1728.659
1728.415
1728.171
1727.927
1727.683
1727.439
1727.195
1726.951
1726.707
1726.463
1726.219
1725.975
1725.731
1725.487
1725.243
1724.999
1724.755
1724.511
1724.267
1724.023
1723.779
1723.535
1723.291
1723.047
1722.803
1722.559
1722.315
1722.071
1721.827
1721.583
1721.339
1721.095
1720.851
1720.607
1720.363
1720.119
1719.875
1719.631
1719.387
1719.143
1718.899
1718.655
1718.411
1718.167
1717.923
1717.679
1717.435
1717.191
1716.947
1716.703
1716.459
1716.215
1715.971
1715.727
1715.483
1715.239
1714.995
1714.751
1714.507
1714.263
1714.019
1713.775
1713.531
1713.287
1713.043
1712.799
1712.555
1712.311
1712.067
1711.823
1711.579
1711.335
1711.091
1710.847
1710.603
1710.359
1710.115
1709.871
1709.627
1709.383
1709.139
1708.895
1708.651
1708.407
1708.163
1707.919
1707.675
1707.431
1707.187
1706.943
1706.699
1706.455
1706.211
1705.967
1705.723
1705.479
1705.235
1704.991
1704.747
1704.503
1704.259
1704.015
1703.771
1703.527
1703.283
1703.039
1702.795
1702.551
1702.307
1702.063
1701.819
1701.575
1701.331
1701.087
1700.843
1700.599
1700.355
1700.111
1699.867
1699.623
1699.379
1699.135
1698.891
1698.647
1698.403
1698.159
1697.915
1697.671
1697.427
1697.183
1696.939
1696.695
1698.919
1701.142
1703.366
1705.589
1707.813
1710.036
1712.260
1714.483
1716.707
1718.930
1721.154
1723.377
1725.601
1727.824
1730.048
1732.271
1734.495
1736.718
1738.942
1741.165
1743.389
1745.612
1747.836
1750.059
1752.283
1754.506
1756.730
1758.953
1761.177
1763.400
1765.624
1767.847
1770.071
1772.294
1774.518
1776.741
1778.965
1781.188
1783.412
1785.635
1787.859
1790.082
1792.306
1794.529
1796.753
1798.976
1801.200
1803.423
1805.647
1807.870
1810.094
1812.317
1814.541
1816.764
1818.988
1821.211
1823.435
1825.658
1827.882
1830.105
1832.329
1834.552
1836.776
1838.999
1841.223
1843.446
1845.670
1847.893
1850.117
1852.340
1854.564
1856.787
1859.011
1861.234
1863.458
1865.681
1867.905
1870.128
1872.352
1874.575
1876.799
1879.022
1881.246
1883.469
1885.693
1887.916
1890.140
1892.363
1894.587
1896.810
1899.034
1901.257
1903.481
1905.704
1907.928
1910.151
1912.375
1914.598
1916.822
1919.045
1921.269
1923.492
1925.716
1927.939
1930.163
1932.386
1934.610
1936.833
1939.057
1941.280
1943.504
1945.727
1947.951
1950.174
1952.398
1954.621
1956.845
1959.068
1961.292
1963.515
1965.739
1967.962
1970.186
1972.409
1974.633
1976.856
1979.080
1981.303
1983.527
1985.750
1987.974
1990.197
1992.421
1994.644
1996.868
1999.091
2001.315
2003.538
2005.762
2007.985
2010.209
2012.432
2014.656
2016.879
2019.103
2021.326
2023.550
2025.773
2027.997
2030.220
2032.444
2034.667
2036.891
2039.114
2041.338
2043.561
2045.785
2048.008
2050.232
2052.455
2054.679
2056.902
2059.126
2061.349
2063.573
2065.796
2068.020
2070.243
2072.467
2074.690
2076.914
2079.137
2081.361
2083.584
2085.808
2088.031
2090.255
2092.478
2094.702
2096.925
2099.149
2101.372
2103.596
2105.819
2108.043
2110.266
2112.490
2114.713
2116.937
2119.160
2121.384
2123.607
2125.831
2128.054
2130.278
2132.501
2134.725
2136.948
2139.172
2141.395
2140.613
2139.831
2139.049
2138.267
2137.485
2136.703
2135.921
2135.139
2134.357
2133.575
2132.793
2132.011
2131.229
2130.447
2129.665
2128.883
2128.101
2127.319
2126.537
2125.755
2124.973
2124.191
2123.409
2122.627
2121.845
2121.063
2120.281
2119.499
2118.717
2117.935
2117.153
2116.371
2115.589
2114.807
2114.025
2113.243
2112.461
2111.679
2110.897
2110.115
2109.333
2108.551
2107.769
2106.987
2106.205
2105.423
2104.641
2103.859
2103.077
2102.295
2101.513
2100.731
2099.949
2099.167
2098.385
2097.603
2096.821
2096.039
2095.257
2094.475
2093.693
2092.911
2092.129
2091.347
2090.565
2089.783
2089.001
2088.219
2087.437
2086.655
2085.873
2085.091
2084.309
2083.527
2082.745
2081.963
2081.181
2080.399
2079.617
2078.835
2078.053
2077.271
2076.489
2075.707
2074.925
2074.143
2073.361
2072.579
2071.797
2071.015
2070.233
2069.451
2068.669
2067.887
2067.105
2066.323
2065.541
2064.759
2063.977
2063.195
2062.413
2061.631
2060.849
2060.067
2059.285
2058.503
2057.721
2056.939
2056.157
2055.375
2054.593
2053.811
2053.029
2052.247
2051.465
2050.683
2049.901
2049.119
2048.337
2047.555
2046.773
2045.991
2045.209
2044.427
2043.645
2042.863
2042.081
2041.299
2040.517
2039.735
2038.953
2038.171
2037.389
2036.607
2035.825
2035.043
2034.261
2033.479
2032.697
2031.915
2031.133
2030.351
2029.569
2028.787
2028.005
2027.223
2026.441
2025.659
2024.877
2024.095
2023.313
2022.531
2021.749
2020.967
2020.185
2019.403
2018.621
2017.839
2017.057
2016.275
2015.493
2014.711
2013.929
2013.147
2012.365
2011.583
2010.801
2010.019
2009.237
2008.455
2007.673
2006.891
2006.109
2005.327
2004.545
2003.763
2002.981
2002.199
2001.417
2000.635
1999.853
1999.071
1998.289
1997.507
1996.725
1995.943
1995.161
1994.379
1993.597
1992.815
1992.033
1991.251
1990.469
1989.687
1988.905
1988.123
1987.341
1986.559
1985.777
1984.995
1983.627
1982.258
1980.890
1979.521
1978.153
1976.784
1975.416
1974.047
1972.679
1971.310
1969.942
1968.573
1967.205
1965.836
1964.468
1963.099
1961.731
1960.362
1958.994
1957.625
1956.257
1954.888
1953.520
1952.151
1950.783
1949.414
1948.046
1946.677
1945.309
1943.940
1942.572
1941.203
1939.835
1938.466
1937.098
1935.729
1934.361
1932.992
1931.624
1930.255
1928.887
1927.518
1926.150
1924.781
1923.413
1922.044
1920.676
1919.307
1917.939
1916.570
1915.202
1913.833
1912.465
1911.096
1909.728
1908.359
1906.991
1905.622
1904.254
1902.885
1901.517
1900.148
1898.780
1897.411
1896.043
1894.674
1893.306
1891.937
1890.569
1889.200
1887.832
1886.463
1885.095
1883.726
1882.358
1880.989
1879.621
1878.252
1876.884
1875.515
1874.147
1872.778
1871.410
1870.041
1868.673
1867.304
1865.936
1864.567
1863.199
1861.830
1860.462
1859.093
1857.725
1856.356
1854.988
1853.619
1852.251
1850.882
1849.514
1848.145
1846.777
1845.408
1844.040
1842.671
1841.303
1839.934
1838.566
1837.197
1835.829
1834.460
1833.092
1831.723
1830.355
1828.986
1827.618
1826.249
1824.881
1823.512
1822.144
1820.775
1819.407
1818.038
1816.670
1815.301
1813.933
1812.564
1811.196
1809.827
1808.459
1807.090
1805.722
1804.353
1802.985
1801.616
1800.248
1798.879
1797.511
1796.142
1794.774
1793.405
1792.037
1790.668
1789.300
1787.931
1786.563
1785.194
1783.826
1782.457
1781.089
1779.720
1778.352
1776.983
1775.615
1774.246
1772.878
1771.509
1770.141
1768.772
1767.404
1766.035
1764.667
1763.298
1761.930
1760.561
1759.193
1757.824
1756.456
1755.087
1753.719
1752.350
1750.982
1749.613
1748.245
1746.876
1745.508
1744.139
1742.771
1741.402
1740.034
1738.665
1737.297
1735.928
1734.560
1733.191
1731.823
1730.454
1729.086
1727.717
1726.349
1724.980
1723.612
1722.243
1720.875
1719.506
1718.138
1716.769
1715.401
1714.032
1712.664
1711.295
1713.422
1715.548
1717.675
1719.801
1721.928
1724.054
1726.181
1728.307
1730.434
1732.560
1734.687
1736.813
1738.940
1741.066
1743.193
1745.319
1747.446
1749.572
1751.699
1753.825
1755.952
1758.078
1760.205
1762.331
1764.458
1766.584
1768.711
1770.837
1772.964
1775.090
1777.217
1779.343
1781.470
1783.596
1785.723
1787.849
1789.976
1792.102
1794.229
1796.355
1798.482
1800.608
1802.735
1804.861
1806.988
1809.114
1811.241
1813.367
1815.494
1817.620
1819.747
1821.873
1824.000
1826.126
1828.253
1830.379
1832.506
1834.632
1836.759
1838.885
1841.012
1843.138
1845.265
1847.391
1849.518
1851.644
1853.771
1855.897
1858.024
1860.150
1862.277
1864.403
1866.530
1868.656
1870.783
1872.909
1875.036
1877.162
1879.289
1881.415
1883.542
1885.668
1887.795
1889.921
1892.048
1894.174
1896.301
1898.427
1900.554
1902.680
1904.807
1906.933
1909.060
1911.186
1913.313
1915.439
1917.566
1919.692
1921.819
1923.945
1926.072
1928.198
1930.325
1932.451
1934.578
1936.704
1938.831
1940.957
1943.084
1945.210
1947.337
1949.463
1951.590
1953.716
1955.843
1957.969
1960.096
1962.222
1964.349
1966.475
1968.602
1970.728
1972.855
1974.981
1977.108
1979.234
1981.361
1983.487
1985.614
1987.740
1989.867
1991.993
1994.120
1996.246
1998.373
2000.499
2002.626
2004.752
2006.879
2009.005
2011.132
2013.258
2015.385
2017.511
2019.638
2021.764
2023.891
2026.017
2028.144
2030.270
2032.397
2034.523
2036.650
2038.776
2040.903
2043.029
2045.156
2047.282
2049.409
2051.535
2053.662
2055.788
2057.915
2060.041
2062.168
2064.294
2066.421
2068.547
2070.674
2072.800
2074.927
2077.053
2079.180
2081.306
2083.433
2085.559
2087.686
2089.812
2091.939
2094.065
2096.192
2098.318
2100.445
2102.571
2104.698
2106.824
2108.951
2111.077
2113.204
2115.330
2117.457
2119.583
2121.710
2123.836
2125.963
2128.089
2130.216
2132.342
2134.469
2136.595
2133.003
2129.410
2125.818
2122.225
2118.633
2115.040
2111.448
2107.855
2104.263
2100.670
2097.078
2093.485
2089.893
2086.300
2082.708
2079.115
2075.523
2071.930
2068.338
2064.745
2061.153
2057.560
2053.968
2050.375
2046.783
2043.190
2039.598
2036.005
2032.413
2028.820
2025.228
2021.635
2018.043
2014.450
2010.858
2007.265
2003.673
2000.080
1996.488
1992.895
1989.303
1985.710
1982.118
1978.525
1974.933
1971.340
1967.748
1964.155
1960.563
1956.970
1953.378
1949.785
1946.193
1942.600
1939.008
1935.415
1931.823
1928.230
1924.638
1921.045
1917.453
1913.860
1910.268
1906.675
1903.083
1899.490
1895.898
1892.305
1888.713
1885.120
1881.528
1877.935
1874.343
1870.750
1867.158
1863.565
1859.973
1856.380
1852.788
1849.195
1845.603
1842.010
1838.418
1834.825
1831.233
1827.640
1824.048
1820.455
1816.863
1813.270
1809.678
1806.085
1802.493
1798.900
1795.308
1791.715
1788.123
1784.530
1780.938
1777.345
1773.753
1770.160
1766.568
1762.975
1759.383
1755.790
1752.198
1748.605
1745.013
1741.420
1737.828
1734.235
1730.643
1727.050
1723.458
1719.865
1716.273
1712.680
1709.088
1705.495
1701.903
1698.310
1694.718
1691.125
1687.533
1683.940
1680.348
1676.755
1673.163
1669.570
1665.978
1662.385
1658.793
1655.200
1651.608
1648.015
1644.423
1640.830
1637.238
1633.645
1630.053
1626.460
1622.868
1619.275
1615.683
1612.090
1608.498
1604.905
1601.313
1597.720
1594.128
1590.535
1586.943
1583.350
1579.758
1576.165
1572.573
1568.980
1565.388
1561.795
1558.203
1554.610
1551.018
1547.425
1543.833
1540.240
1536.648
1533.055
1529.463
1525.870
1522.278
1518.685
1515.093
1511.500
1507.908
1504.315
1500.723
1497.130
1493.538
1489.945
1486.353
1482.760
1479.168
1475.575
1471.983
1468.390
1464.798
1461.205
1457.613
1454.020
1450.428
1446.835
1443.243
1439.650
1436.058
1432.465
1428.873
1425.280
1421.688
1418.095
1418.413
1418.730
1419.048
1419.365
1419.683
1420.000
1420.318
1420.635
1420.953
1421.270
1421.588
1421.905
1422.223
1422.540
1422.858
1423.175
1423.493
1423.810
1424.128
1424.445
1424.763
1425.080
1425.398
1425.715
1426.033
1426.350
1426.668
1426.985
1427.303
1427.620
1427.938
1428.255
1428.573
1428.890
1429.208
1429.525
1429.843
1430.160
1430.478
1430.795
1431.113
1431.430
1431.748
1432.065
1432.383
1432.700
1433.018
1433.335
1433.653
1433.970
1434.288
1434.605
1434.923
1435.240
1435.558
1435.875
1436.193
1436.510
1436.828
1437.145
1437.463
1437.780
1438.098
1438.415
1438.733
1439.050
1439.368
1439.685
1440.003
1440.320
1440.638
1440.955
1441.273
1441.590
1441.908
1442.225
1442.543
1442.860
1443.178
1443.495
1443.813
1444.130
1444.448
1444.765
1445.083
1445.400
1445.718
1446.035
1446.353
1446.670
1446.988
1447.305
1447.623
1447.940
1448.258
1448.575
1448.893
1449.210
1449.528
1449.845
1450.163
1450.480
1450.798
1451.115
1451.433
1451.750
1452.068
1452.385
1452.703
1453.020
1453.338
1453.655
1453.973
1454.290
1454.608
1454.925
1455.243
1455.560
1455.878
1456.195
1456.513
1456.830
1457.148
1457.465
1457.783
1458.100
1458.418
1458.735
1459.053
1459.370
1459.688
1460.005
1460.323
1460.640
1460.958
1461.275
1461.593
1461.910
1462.228
1462.545
1462.863
1463.180
1463.498
1463.815
1464.133
1464.450
1464.768
1465.085
1465.403
1465.720
1466.038
1466.355
1466.673
1466.990
1467.308
1467.625
1467.943
1468.260
1468.578
1468.895
1469.213
1469.530
1469.848
1470.165
1470.483
1470.800
1471.118
1471.435
1471.753
1472.070
1472.388
1472.705
1473.023
1473.340
1473.658
1473.975
1474.293
1474.610
1474.928
1475.245
1475.563
1475.880
1476.198
1476.515
1476.833
1477.150
1477.468
1477.785
1478.103
1478.420
1478.738
1479.055
1479.373
1479.690
1480.008
1480.325
1480.643
1480.960
1481.278
1481.595
1476.341
1471.087
1465.833
1460.579
1455.325
1450.071
1444.817
1439.563
1434.309
1429.055
1423.801
1418.547
1413.293
1408.039
1402.785
1397.531
1392.277
1387.023
1381.769
1376.515
1371.261
1366.007
1360.753
1355.499
1350.245
1344.991
1339.737
1334.483
1329.229
1323.975
1318.721
1313.467
1308.213
1302.959
1297.705
1292.451
1287.197
1281.943
1276.689
1271.435
1266.181
1260.927
1255.673
1250.419
1245.165
1239.911
1234.657
1229.403
1224.149
1218.895
1213.641
1208.387
1203.133
1197.879
1192.625
1187.371
1182.117
1176.863
1171.609
1166.355
1161.101
1155.847
1150.593
1145.339
1140.085
1134.831
1129.577
1124.323
1119.069
1113.815
1108.561
1103.307
1098.053
1092.799
1087.545
1082.291
1077.037
1071.783
1066.529
1061.275
1056.021
1050.767
1045.513
1040.259
1035.005
1029.751
1024.497
1019.243
1013.989
1008.735
1003.481
998.227
992.973
987.719
982.465
977.211
971.957
966.703
961.449
956.195
950.941
945.687
940.433
935.179
929.925
924.671
919.417
914.163
908.909
903.655
898.401
893.147
887.893
882.639
877.385
872.131
866.877
861.623
856.369
851.115
845.861
840.607
835.353
830.099
824.845
819.591
814.337
809.083
803.829
798.575
793.321
788.067
782.813
777.559
772.305
767.051
761.797
756.543
751.289
746.035
740.781
735.527
730.273
725.019
719.765
714.511
709.257
704.003
698.749
693.495
688.241
682.987
677.733
672.479
667.225
661.971
656.717
651.463
646.209
640.955
635.701
630.447
625.193
619.939
614.685
609.431
604.177
598.923
593.669
588.415
583.161
577.907
572.653
567.399
562.145
556.891
551.637
546.383
541.129
535.875
530.621
525.367
520.113
514.859
509.605
504.351
499.097
493.843
488.589
483.335
478.081
472.827
467.573
462.319
457.065
451.811
446.557
441.303
436.049
430.795
429.476
428.156
426.837
425.517
424.198
422.878
421.559
420.239
418.920
417.600
416.281
414.961
413.642
412.322
411.003
409.683
408.364
407.044
405.725
404.405
403.086
401.766
400.447
399.127
397.808
396.488
395.169
393.849
392.530
391.210
389.891
388.571
387.252
385.932
384.613
383.293
381.974
380.654
379.335
378.015
376.696
375.376
374.057
372.737
371.418
370.098
368.779
367.459
366.140
364.820
363.501
362.181
360.862
359.542
358.223
356.903
355.584
354.264
352.945
351.625
350.306
348.986
347.667
346.347
345.028
343.708
342.389
341.069
339.750
338.430
337.111
335.791
334.472
333.152
331.833
330.513
329.194
327.874
326.555
325.235
323.916
322.596
321.277
319.957
318.638
317.318
315.999
314.679
313.360
312.040
310.721
309.401
308.082
306.762
305.443
304.123
302.804
301.484
300.165
298.845
297.526
296.206
294.887
293.567
292.248
290.928
289.609
288.289
286.970
285.650
284.331
283.011
281.692
280.372
279.053
277.733
276.414
275.094
273.775
272.455
271.136
269.816
268.497
267.177
265.858
264.538
263.219
261.899
260.580
259.260
257.941
256.621
255.302
253.982
252.663
251.343
250.024
248.704
247.385
246.065
244.746
243.426
242.107
240.787
239.468
238.148
236.829
235.509
234.190
232.870
231.551
230.231
228.912
227.592
226.273
224.953
223.634
222.314
220.995
219.675
218.356
217.036
215.717
214.397
213.078
211.758
210.439
209.119
207.800
206.480
205.161
203.841
202.522
201.202
199.883
198.563
197.244
195.924
194.605
193.285
191.966
190.646
189.327
188.007
186.688
185.368
184.049
182.729
181.410
180.090
178.771
177.451
176.132
174.812
173.493
172.173
170.854
169.534
168.215
83.795
83.795
83.795
83.795
83.795
83.795
83.795
83.795
83.795
83.795
83.795
83.795
83.795
83.795
83.795
83.795
83.795
83.795
83.795
83.795
83.795
83.795
83.795
83.795
83.795
83.795
83.795
83.795
83.795
83.795
83.795
83.795
83.795
83.795
83.795
83.795
83.795
83.795
83.795
83.795
83.795
83.795
83.795
83.795
83.795
83.795
83.795
83.795
83.795
83.795
83.795
83.795
83.795
83.795
83.795
83.795
83.795
83.795
83.795
83.795
83.795
83.795
83.795
83.795
83.795
83.795
