1937.683
1940.958
1944.232
1947.507
1950.781
1954.056
1957.330
1960.605
1963.879
1967.154
1970.428
1973.703
1976.977
1980.252
1983.526
1986.801
1990.075
1993.350
1996.624
1999.899
2003.173
2006.448
2009.722
2012.997
2016.271
2019.546
2022.820
2026.095
2029.369
2032.644
2035.918
2039.193
2042.467
2045.742
2049.016
2052.291
2055.565
2058.840
2062.114
2065.389
2068.663
2071.938
2075.212
2078.487
2081.761
2085.036
2088.310
2091.585
2094.859
2098.134
2101.408
2104.683
2107.957
2111.232
2114.506
2117.781
2121.055
2124.330
2127.604
2130.879
2134.153
2137.428
2140.702
2143.977
2147.251
2150.526
2153.800
2157.075
2160.349
2163.624
2166.898
2170.173
2173.447
2176.722
2179.996
2183.271
2186.545
2189.820
2193.094
2190.968
2188.842
2186.716
2184.590
2182.464
2180.338
2178.212
2176.086
2173.960
2171.834
2169.708
2167.582
2165.456
2163.330
2161.204
2159.078
2156.952
2154.826
2152.700
2150.574
2148.448
2146.322
2144.196
2142.070
2139.944
2137.818
2135.692
2133.566
2131.440
2129.314
2127.188
2125.062
2122.936
2120.810
2118.684
2116.558
2114.432
2112.306
2110.180
2108.054
2105.928
2103.802
2101.676
2099.550
2097.424
2095.298
2093.172
2091.046
2088.920
2086.794
2084.668
2082.542
2080.416
2078.290
2076.164
2074.038
2071.912
2069.786
2067.660
2065.534
2063.408
2061.282
2059.156
2057.030
2054.904
2052.778
2050.652
2048.526
2046.400
2044.274
2042.148
2040.022
2037.896
2035.770
2033.644
2031.518
2029.392
2027.266
2025.140
2023.014
2020.888
2018.762
2016.636
2014.510
2012.384
2010.258
2008.132
2006.006
2003.880
2001.754
1999.628
1997.502
1995.376
1993.250
1991.124
1988.998
1986.872
1984.746
1982.620
1980.494
1978.368
1976.242
1974.116
1971.990
1969.864
1967.738
1965.612
1963.486
1961.360
1959.234
1957.108
1954.982
1952.856
1950.730
1948.604
1946.478
1944.352
1942.226
1940.100
1937.974
1935.848
1933.722
1931.596
1929.470
1927.344
1925.218
1923.092
1920.966
1918.840
1916.714
1914.588
1912.462
1910.336
1908.210
1906.084
1903.958
1901.832
1899.706
1897.580
1895.454
1893.328
1891.202
1889.076
1886.950
1884.824
1882.698
1880.572
1878.446
1876.320
1874.194
1872.068
1869.942
1867.816
1865.690
1863.564
1861.438
1859.312
1857.186
1855.060
1852.934
1850.808
1848.682
1846.556
1844.430
1842.304
1840.178
1838.052
1835.926
1833.800
1831.674
1829.548
1827.422
1825.296
1823.170
1821.044
1818.918
1816.792
1814.666
1812.540
1810.414
1808.288
1806.162
1804.036
1801.910
1799.784
1797.658
1795.532
1793.406
1791.280
1789.154
1787.028
1784.902
1782.776
1780.650
1778.524
1776.398
1774.272
1772.146
1770.020
1767.894
1766.868
1765.841
1764.815
1763.788
1762.762
1761.735
1760.709
1759.682
1758.656
1757.629
1756.603
1755.576
1754.550
1753.523
1752.497
1751.470
1750.444
1749.417
1748.391
1747.364
1746.338
1745.311
1744.285
1743.258
1742.232
1741.205
1740.179
1739.152
1738.126
1737.099
1736.073
1735.046
1734.020
1732.993
1731.967
1730.940
1729.914
1728.887
1727.861
1726.834
1725.808
1724.781
1723.755
1722.728
1721.702
1720.675
1719.649
1718.622
1717.596
1716.569
1715.543
1714.516
1713.490
1712.463
1711.437
1710.410
1709.384
1708.357
1707.331
1706.304
1705.278
1704.251
1703.225
1702.198
1701.172
1700.145
1699.119
1698.092
1697.066
1696.039
1695.013
1693.986
1692.960
1691.933
1690.907
1689.880
1688.854
1687.827
1686.801
1685.774
1684.748
1683.721
1682.695
1681.668
1680.642
1679.615
1678.589
1677.562
1676.536
1675.509
1674.483
1673.456
1672.430
1671.403
1670.377
1669.350
1668.324
1667.297
1666.271
1665.244
1664.218
1663.191
1662.165
1661.138
1660.112
1659.085
1658.059
1657.032
1656.006
1654.979
1653.953
1652.926
1651.900
1650.873
1649.847
1648.820
1647.794
1646.767
1645.741
1644.714
1643.688
1642.661
1641.635
1640.608
1639.582
1638.555
1637.529
1636.502
1635.476
1634.449
1633.423
1632.396
1631.370
1630.343
1629.317
1628.290
1627.264
1626.237
1625.211
1624.184
1623.158
1622.131
1621.105
1620.078
1619.052
1618.025
1616.999
1615.972
1614.946
1613.919
1612.893
1611.866
1610.840
1609.813
1608.787
1607.760
1606.734
1605.707
1604.681
1603.654
1602.628
1601.601
1600.575
1599.548
1598.522
1597.495
1596.469
1595.442
1594.416
1593.389
1592.363
1591.336
1590.310
1589.283
1588.257
1587.230
1586.204
1585.177
1584.151
1583.124
1582.098
1581.071
1580.045
1579.018
1577.992
1576.965
1575.939
1574.912
1573.886
1572.859
1571.833
1570.806
1569.780
1568.753
1567.727
1566.700
1565.674
1564.647
1563.621
91.494
91.470
91.445
91.421
91.396
91.372
91.347
91.323
91.298
91.274
91.249
91.225
91.200
91.176
91.151
91.127
91.102
91.078
91.053
91.029
91.004
90.980
90.955
90.931
90.906
90.882
90.857
90.833
90.808
90.784
90.759
90.735
90.710
90.686
90.661
90.637
90.612
90.588
90.563
90.539
90.514
90.490
90.465
90.441
90.416
90.392
90.367
90.343
90.318
90.294
90.269
90.245
90.220
90.196
90.171
90.147
90.122
90.098
90.073
90.049
90.024
90.000
89.975
89.951
89.926
89.902
89.877
89.853
89.828
89.804
89.779
89.755
89.730
89.706
89.681
89.657
89.632
89.608
89.583
89.559
89.534
89.510
89.485
89.461
89.436
89.412
89.387
89.363
89.338
89.314
89.289
89.265
89.240
89.216
89.191
89.167
89.142
89.118
89.093
89.069
89.044
89.020
88.995
88.971
88.946
88.922
88.897
88.873
88.848
88.824
88.799
88.775
88.750
88.726
88.701
88.677
88.652
88.628
88.603
88.579
88.554
88.530
88.505
88.481
88.456
88.432
88.407
88.383
88.358
88.334
88.309
88.285
88.260
88.236
88.211
88.187
88.162
88.138
88.113
88.089
88.064
88.040
88.015
87.991
87.966
87.942
87.917
87.893
87.868
87.844
87.819
87.795
87.770
87.746
87.721
87.697
87.672
87.648
87.623
87.599
87.574
87.550
87.525
87.501
87.476
87.452
87.427
87.403
87.378
87.354
87.329
87.305
87.280
87.256
87.231
87.207
87.182
87.158
87.133
87.109
87.084
87.060
87.035
87.011
86.986
86.962
86.937
86.913
86.888
86.864
86.839
86.815
86.790
86.766
86.741
86.717
86.692
86.668
86.643
86.619
86.594
86.594
86.594
86.594
86.594
86.594
86.594
86.594
86.594
86.594
86.594
86.594
86.594
86.594
86.594
86.594
86.594
86.594
86.594
86.594
86.594
86.594
86.594
86.594
86.594
86.594
86.594
86.594
86.594
86.594
86.594
86.594
86.594
86.594
86.594
86.594
86.594
86.594
86.594
86.594
86.594
86.594
86.594
86.594
86.594
86.594
86.594
86.594
86.594
86.594
86.594
86.594
86.594
86.594
86.594
86.594
86.594
86.594
86.594
86.594
86.594
86.594
86.594
86.594
86.594
86.594
86.594
86.594
86.594
86.594
86.594
86.594
86.594
86.594
86.594
86.594
86.594
86.594
86.594
86.594
86.594
86.594
86.594
86.594
86.594
86.594
86.594
86.594
86.594
86.594
86.594
86.594
86.594
86.594
86.594
86.594
86.594
86.594
86.594
86.594
86.594
86.594
86.594
86.594
86.594
86.594
86.594
86.594
86.594
86.594
86.594
86.594
86.594
86.594
86.594
86.594
86.594
86.594
86.594
86.594
86.594
86.594
86.594
86.594
86.594
86.594
86.594
86.594
86.594
86.594
86.594
86.594
86.594
86.594
86.594
86.594
86.594
86.594
86.594
86.594
86.594
86.594
86.594
86.594
86.594
86.594
86.594
86.594
86.594
86.594
86.594
86.594
86.594
86.594
86.594
86.594
86.594
86.594
86.594
86.594
86.594
86.594
86.594
86.594
86.594
86.594
86.594
86.594
86.594
86.594
86.594
86.594
86.594
86.594
86.594
86.594
86.594
86.594
86.594
86.594
86.594
86.594
86.594
86.594
86.594
86.594
86.594
86.594
86.594
86.594
86.594
86.594
86.594
86.594
86.594
86.594
86.594
86.594
86.594
86.594
86.594
86.594
86.594
86.594
86.594
86.594
86.594
86.594
86.594
86.594
86.594
86.594
86.594
86.594
86.594
86.594
86.594
86.594
86.594
86.594
86.594
86.594
86.594
86.594
86.594
86.594
86.594
86.594
86.594
86.594
86.594
86.594
86.594
86.594
86.594
86.594
86.594
86.594
86.594
86.594
86.594
86.594
86.594
86.594
86.594
86.594
86.594
86.594
86.594
86.594
86.594
86.594
86.594
86.594
86.594
86.594
86.594
86.594
86.594
86.594
86.594
86.594
86.594
86.594
86.594
86.594
86.594
86.594
86.594
86.594
86.594
86.594
86.594
86.594
86.594
86.594
86.594
86.594
86.594
86.594
86.594
86.594
86.594
86.594
86.594
86.594
86.594
86.594
86.594
86.594
86.594
86.594
86.594
86.594
86.594
86.594
86.594
86.594
86.594
86.594
86.594
86.594
86.594
86.594
86.594
86.594
86.594
86.594
86.594
86.594
86.594
86.594
86.594
86.594
86.594
86.594
86.594
86.594
86.594
86.594
86.594
86.594
86.594
86.594
86.594
86.594
86.594
86.594
86.594
86.594
86.594
86.594
86.594
86.594
86.594
86.594
86.594
86.594
86.594
86.594
86.594
86.594
86.594
86.594
86.594
86.594
86.594
86.594
86.594
86.594
86.594
86.594
86.594
86.594
86.594
86.594
86.594
86.594
86.594
86.594
86.594
86.594
86.594
86.594
86.594
86.594
86.594
86.594
86.594
86.594
86.594
86.594
86.594
86.594
86.594
86.594
86.594
86.594
86.594
86.594
86.594
86.594
86.594
86.594
86.594
86.594
86.594
86.594
86.594
86.594
86.594
86.594
86.594
86.594
86.594
86.594
86.594
86.594
86.594
86.594
86.594
86.594
86.594
86.594
86.594
86.594
86.594
86.594
86.594
86.594
86.594
86.594
86.594
86.594
86.594
86.594
86.594
86.594
86.594
86.594
86.594
86.594
86.594
86.594
86.594
86.594
86.594
86.594
86.594
86.594
86.594
86.594
86.594
86.594
86.594
86.594
86.594
86.594
86.594
86.594
86.594
86.594
86.594
86.594
86.594
86.594
86.594
86.594
86.594
86.594
86.594
86.594
86.594
86.594
86.594
86.594
86.594
86.594
86.594
86.594
86.594
86.594
86.594
86.594
86.594
86.594
86.594
86.594
86.594
86.594
86.594
86.594
86.594
86.594
86.594
86.594
86.594
86.594
86.594
86.594
86.594
86.594
86.594
86.594
86.594
86.594
86.594
86.594
86.594
86.594
86.594
86.594
86.594
86.594
86.594
86.594
86.594
86.594
86.594
86.594
86.594
86.594
86.594
86.594
86.594
86.594
86.594
86.594
86.594
86.594
86.594
86.594
86.594
86.594
86.594
86.594
86.594
86.594
86.594
86.594
86.594
86.594
86.594
86.594
86.594
86.594
86.594
86.594
86.594
86.594
86.594
86.594
86.594
86.594
86.594
86.594
86.594
86.594
86.594
86.594
86.594
86.594
86.594
86.594
86.594
86.594
86.594
86.594
86.594
86.594
86.594
86.594
86.594
86.594
86.594
86.594
86.594
86.594
86.594
86.594
86.594
86.594
86.594
86.594
86.594
86.594
86.594
86.594
86.594
86.594
86.594
86.594
86.594
86.594
86.594
86.594
86.594
86.594
86.594
86.594
86.594
86.594
86.594
86.594
86.594
86.594
86.594
86.594
86.594
86.594
86.594
86.594
86.594
86.594
86.594
86.594
86.594
86.594
86.594
86.594
86.594
86.594
86.594
86.594
86.594
86.594
86.594
86.594
86.594
86.594
86.594
86.594
86.594
86.594
86.594
86.594
86.594
86.594
86.594
86.594
86.594
86.594
86.594
86.594
86.594
86.594
86.594
86.594
86.594
86.594
86.594
86.594
86.594
86.594
86.594
86.594
86.594
86.594
86.594
86.594
86.594
86.594
86.594
86.594
86.594
86.594
86.594
86.594
86.594
86.594
86.594
86.594
86.594
86.594
86.594
86.594
86.594
86.594
86.594
86.594
86.594
86.594
86.594
86.594
86.594
86.594
86.594
86.594
86.594
86.594
86.594
86.594
86.594
86.594
86.594
86.594
86.594
86.594
86.594
86.594
86.594
86.594
86.594
86.594
86.594
86.594
86.594
86.594
86.594
86.594
86.594
86.594
86.594
86.594
86.594
86.594
86.594
86.594
86.594
86.594
86.594
86.594
86.594
86.594
86.594
86.594
86.594
86.594
86.594
86.594
86.594
86.594
86.594
86.594
86.594
86.594
86.594
86.594
86.594
86.594
86.594
86.594
86.594
86.594
86.594
86.594
86.594
86.594
86.594
86.594
86.594
86.594
86.594
86.594
86.594
86.594
86.594
86.594
86.594
86.594
86.594
86.594
86.594
86.594
86.594
86.594
86.594
86.594
86.594
86.594
86.594
86.594
86.594
86.594
86.594
86.594
86.594
86.594
86.594
86.594
86.594
86.594
86.594
86.594
86.594
86.594
86.594
86.594
86.594
86.594
86.594
86.594
86.594
86.594
86.594
86.594
86.594
86.594
86.594
86.594
86.594
86.594
86.594
86.594
86.594
86.594
86.594
86.594
86.594
86.594
86.594
86.594
86.594
86.594
86.594
86.594
86.594
86.594
86.594
86.594
86.594
86.594
86.594
86.594
86.594
86.594
86.594
86.594
86.594
86.594
86.594
86.594
86.594
86.594
86.594
86.594
86.594
86.594
86.594
86.594
86.594
86.594
86.594
86.594
86.594
86.594
86.594
86.594
86.594
86.594
86.594
86.594
86.594
86.594
86.594
86.594
86.594
86.594
86.594
86.594
86.594
86.594
86.594
86.594
86.594
86.594
86.594
86.594
86.594
86.594
86.594
86.594
86.594
86.594
86.594
86.594
86.594
86.594
86.594
86.594
86.594
86.594
86.594
86.594
86.594
86.594
86.594
86.594
86.594
86.594
86.594
86.594
86.594
86.594
86.594
86.594
86.594
86.594
86.594
86.594
86.594
86.594
86.594
86.594
86.594
86.594
86.594
86.594
86.594
86.594
86.594
86.594
86.594
86.594
86.594
86.594
86.594
86.594
86.594
86.594
86.594
86.594
86.594
86.594
86.594
86.594
86.594
86.594
86.594
86.594
86.594
86.594
86.594
86.594
86.594
86.594
86.594
86.594
86.594
86.594
86.594
86.594
86.594
86.594
86.594
86.594
86.594
86.594
86.594
86.594
86.594
86.594
86.594
86.594
86.594
86.594
86.594
86.594
86.594
86.594
86.594
86.594
86.594
86.594
86.594
86.594
86.594
86.594
86.594
86.594
86.594
86.594
86.594
86.594
86.594
86.594
86.594
86.594
86.594
86.594
86.594
86.594
86.594
86.594
86.594
86.594
86.594
86.594
86.594
86.594
86.594
86.594
86.594
86.594
86.594
86.594
86.594
86.594
86.594
86.594
86.594
86.594
86.594
86.594
86.594
86.594
86.594
86.594
86.594
86.594
86.594
86.594
86.594
86.594
86.594
86.594
86.594
86.594
86.594
86.594
86.594
86.570
86.545
86.521
86.496
86.472
86.447
86.423
86.398
86.374
86.349
86.325
86.300
86.276
86.251
86.227
86.202
86.178
86.153
86.129
86.104
86.080
86.055
86.031
86.006
85.982
85.957
85.933
85.908
85.884
85.859
85.835
85.810
85.786
85.761
85.737
85.712
85.688
85.663
85.639
85.614
85.590
85.565
85.541
85.516
85.492
85.467
85.443
85.418
85.394
85.369
85.345
85.320
85.296
85.271
85.247
85.222
85.198
85.173
85.149
85.124
85.100
85.075
85.051
85.026
85.002
84.977
84.953
84.928
84.904
84.879
84.855
84.830
84.806
84.781
84.757
84.732
84.708
84.683
84.659
84.634
84.610
84.585
84.561
84.536
84.512
84.487
84.463
84.438
84.414
84.389
84.365
84.340
84.316
84.291
84.267
84.242
84.218
84.193
84.169
84.144
84.120
84.095
84.071
84.046
84.022
83.997
83.973
83.948
83.924
83.899
83.875
83.850
83.826
83.801
83.777
83.752
83.728
83.703
83.679
83.654
83.630
83.605
83.581
83.556
83.532
83.507
83.483
83.458
83.434
83.409
83.385
83.360
83.336
83.311
83.287
83.262
83.238
83.213
83.189
83.164
83.140
83.115
83.091
83.066
83.042
83.017
82.993
82.968
82.944
82.919
82.895
82.870
82.846
82.821
82.797
82.772
82.748
82.723
82.699
82.674
82.650
82.625
82.601
82.576
82.552
82.527
82.503
82.478
82.454
82.429
82.405
82.380
82.356
82.331
82.307
82.282
82.258
82.233
82.209
82.184
82.160
82.135
82.111
82.086
82.062
82.037
82.013
81.988
81.964
81.939
81.915
81.890
81.866
81.841
81.817
81.792
81.768
81.743
81.719
81.694
81.767
81.840
81.913
81.986
82.059
82.132
82.205
82.278
82.351
82.424
82.497
82.570
82.643
82.716
82.789
82.862
82.935
83.008
83.081
83.154
83.227
83.300
83.373
83.446
83.519
83.592
83.665
83.738
83.811
83.884
83.957
84.030
84.103
84.176
84.249
84.322
84.395
84.468
84.541
84.614
84.687
84.760
84.833
84.906
84.979
85.052
85.125
85.198
85.271
85.344
85.417
85.490
85.563
85.636
85.709
85.782
85.855
85.928
86.001
86.074
86.147
86.220
86.293
86.366
86.439
86.512
86.585
86.658
86.731
86.804
86.877
86.950
87.023
87.096
87.169
87.242
87.315
87.388
87.461
87.534
87.607
87.680
87.753
87.826
87.899
87.972
88.045
88.118
88.191
88.264
88.337
88.410
88.483
88.556
88.629
88.702
88.775
88.848
88.921
88.994
89.067
89.140
89.213
89.286
89.359
89.432
89.505
89.578
89.651
89.724
89.797
89.870
89.943
90.016
90.089
90.162
90.235
90.308
90.381
90.454
90.527
