2132.670
2133.745
2134.820
2135.895
2136.970
2138.045
2139.120
2140.195
2141.270
2142.345
2143.420
2144.495
2145.570
2146.645
2147.720
2148.795
2149.870
2150.945
2152.020
2153.095
2154.170
2155.245
2156.320
2157.395
2158.470
2159.545
2160.620
2161.695
2162.770
2163.845
2164.920
2165.995
2167.070
2168.145
2169.220
2170.295
2171.370
2172.445
2173.520
2174.595
2175.670
2176.745
2177.820
2178.895
2179.970
2181.045
2182.120
2183.195
2184.270
2185.345
2186.420
2187.495
2188.570
2189.645
2190.720
2191.795
2192.870
2193.945
2195.020
2196.095
2197.170
2198.245
2199.320
2200.395
2201.470
2202.545
2203.620
2204.695
2205.770
2206.845
2207.920
2208.995
2208.604
2208.213
2207.822
2207.431
2207.040
2206.649
2206.258
2205.867
2205.476
2205.085
2204.694
2204.303
2203.912
2203.521
2203.130
2202.739
2202.348
2201.957
2201.566
2201.175
2200.784
2200.393
2200.002
2199.611
2199.220
2198.829
2198.438
2198.047
2197.656
2197.265
2196.874
2196.483
2196.092
2195.701
2195.310
2194.919
2194.528
2194.137
2193.746
2193.355
2192.964
2192.573
2192.182
2191.791
2191.400
2191.009
2190.618
2190.227
2189.836
2189.445
2189.054
2188.663
2188.272
2187.881
2187.490
2187.099
2186.708
2186.317
2185.926
2185.535
2185.144
2184.753
2184.362
2183.971
2183.580
2183.189
2182.798
2182.407
2182.016
2181.625
2181.234
2180.843
2180.452
2180.061
2179.670
2179.279
2178.888
2178.497
2178.106
2177.715
2177.324
2176.933
2176.542
2176.151
2175.760
2175.369
2174.978
2174.587
2174.196
2173.805
2173.414
2173.023
2172.632
2172.241
2171.850
2171.459
2171.068
2170.677
2170.286
2169.895
2169.504
2169.113
2168.722
2168.331
2167.940
2167.549
2167.158
2166.767
2166.376
2165.985
2165.594
2165.203
2164.812
2164.421
2164.030
2163.639
2163.248
2162.857
2162.466
2162.075
2161.684
2161.293
2160.902
2160.511
2160.120
2159.729
2159.338
2158.947
2158.556
2158.165
2157.774
2157.383
2156.992
2156.601
2156.210
2155.819
2155.428
2155.037
2154.646
2154.255
2153.864
2153.473
2153.082
2152.691
2152.300
2151.909
2151.518
2151.127
2150.736
2150.345
2149.954
2149.563
2149.172
2148.781
2148.390
2147.999
2147.608
2147.217
2146.826
2146.435
2146.044
2145.653
2145.262
2144.871
2144.480
2144.089
2143.698
2143.307
2142.916
2142.525
2142.134
2141.743
2141.352
2140.961
2140.570
2140.179
2139.788
2139.397
2139.006
2138.615
2138.224
2137.833
2137.442
2137.051
2136.660
2136.269
2135.878
2135.487
2135.096
2134.705
2134.314
2133.923
2133.532
2133.141
2132.750
2132.359
2131.968
2131.577
2131.186
2130.795
2130.062
2129.329
2128.596
2127.863
2127.130
2126.397
2125.664
2124.931
2124.198
2123.465
2122.732
2121.999
2121.266
2120.533
2119.800
2119.067
2118.334
2117.601
2116.868
2116.135
2115.402
2114.669
2113.936
2113.203
2112.470
2111.737
2111.004
2110.271
2109.538
2108.805
2108.072
2107.339
2106.606
2105.873
2105.140
2104.407
2103.674
2102.941
2102.208
2101.475
2100.742
2100.009
2099.276
2098.543
2097.810
2097.077
2096.344
2095.611
2094.878
2094.145
2093.412
2092.679
2091.946
2091.213
2090.480
2089.747
2089.014
2088.281
2087.548
2086.815
2086.082
2085.349
2084.616
2083.883
2083.150
2082.417
2081.684
2080.951
2080.218
2079.485
2078.752
2078.019
2077.286
2076.553
2075.820
2075.087
2074.354
2073.621
2072.888
2072.155
2071.422
2070.689
2069.956
2069.223
2068.490
2067.757
2067.024
2066.291
2065.558
2064.825
2064.092
2063.359
2062.626
2061.893
2061.160
2060.427
2059.694
2058.961
2058.228
2057.495
2056.762
2056.029
2055.296
2054.563
2053.830
2053.097
2052.364
2051.631
2050.898
2050.165
2049.432
2048.699
2047.966
2047.233
2046.500
2045.767
2045.034
2044.301
2043.568
2042.835
2042.102
2041.369
2040.636
2039.903
2039.170
2038.437
2037.704
2036.971
2036.238
2035.505
2034.772
2034.039
2033.306
2032.573
2031.840
2031.107
2030.374
2029.641
2028.908
2028.175
2027.442
2026.709
2025.976
2025.243
2024.510
2023.777
2023.044
2022.311
2021.578
2020.845
2020.112
2019.379
2018.646
2017.913
2017.180
2016.447
2015.714
2014.981
2014.248
2013.515
2012.782
2012.049
2011.316
2010.583
2009.850
2009.117
2008.384
2007.651
2006.918
2006.185
2005.452
2004.719
2003.986
2003.253
2002.520
2001.787
2001.054
2000.321
1999.588
1998.855
1998.122
1997.389
1996.656
1995.923
1995.190
1994.457
1993.724
1992.991
1992.258
1991.525
1990.792
1990.059
1989.326
1988.593
1987.860
1987.127
1986.394
1985.661
1984.928
1984.195
1982.289
1980.383
1978.477
1976.571
1974.665
1972.759
1970.853
1968.947
1967.041
1965.135
1963.229
1961.323
1959.417
1957.511
1955.605
1953.699
1951.793
1949.887
1947.981
1946.075
1944.169
1942.263
1940.357
1938.451
1936.545
1934.639
1932.733
1930.827
1928.921
1927.015
1925.109
1923.203
1921.297
1919.391
1917.485
1915.579
1913.673
1911.767
1909.861
1907.955
1906.049
1904.143
1902.237
1900.331
1898.425
1896.519
1894.613
1892.707
1890.801
1888.895
1886.989
1885.083
1883.177
1881.271
1879.365
1877.459
1875.553
1873.647
1871.741
1869.835
1867.929
1866.023
1864.117
1862.211
1860.305
1858.399
1856.493
1854.587
1852.681
1850.775
1848.869
1846.963
1845.057
1843.151
1841.245
1839.339
1837.433
1835.527
1833.621
1831.715
1829.809
1827.903
1825.997
1824.091
1822.185
1820.279
1818.373
1816.467
1814.561
1812.655
1810.749
1808.843
1806.937
1805.031
1803.125
1801.219
1799.313
1797.407
1795.501
1793.595
1791.689
1789.783
1787.877
1785.971
1784.065
1782.159
1780.253
1778.347
1776.441
1774.535
1772.629
1770.723
1768.817
1766.911
1765.005
1763.099
1761.193
1759.287
1757.381
1755.475
1753.569
1751.663
1749.757
1747.851
1745.945
1744.039
1742.133
1740.227
1738.321
1736.415
1734.509
1732.603
1730.697
1728.791
1726.885
1724.979
1723.073
1721.167
1719.261
1717.355
1715.449
1713.543
1711.637
1709.731
1707.825
1705.919
1704.013
1702.107
1700.201
1698.295
1696.389
1694.483
1692.577
1690.671
1688.765
1686.859
1684.953
1683.047
1681.141
1679.235
1677.329
1675.423
1673.517
1671.611
1669.705
1667.799
1665.893
1663.987
1662.081
1660.175
1658.269
1656.363
1654.457
1652.551
1650.645
1648.739
1646.833
1644.927
1643.021
1641.115
1639.209
1637.303
1635.397
1633.491
1631.585
1629.679
1627.773
1625.867
1623.961
1622.055
1620.149
1618.243
1616.337
1614.431
1612.525
1610.619
1608.713
1606.807
1604.901
1602.995
1602.775
1602.555
1602.335
1602.115
1601.895
1601.675
1601.455
1601.235
1601.015
1600.795
1600.575
1600.355
1600.135
1599.915
1599.695
1599.475
1599.255
1599.035
1598.815
1598.595
1598.375
1598.155
1597.935
1597.715
1597.495
1597.275
1597.055
1596.835
1596.615
1596.395
1596.175
1595.955
1595.735
1595.515
1595.295
1595.075
1594.855
1594.635
1594.415
1594.195
1593.975
1593.755
1593.535
1593.315
1593.095
1592.875
1592.655
1592.435
1592.215
1591.995
1591.775
1591.555
1591.335
1591.115
1590.895
1590.675
1590.455
1590.235
1590.015
1589.795
1589.575
1589.355
1589.135
1588.915
1588.695
1588.475
1588.255
1588.035
1587.815
1587.595
1587.375
1587.155
1586.935
1586.715
1586.495
1586.275
1586.055
1585.835
1585.615
1585.395
1585.175
1584.955
1584.735
1584.515
1584.295
1584.075
1583.855
1583.635
1583.415
1583.195
1582.975
1582.755
1582.535
1582.315
1582.095
1581.875
1581.655
1581.435
1581.215
1580.995
1580.775
1580.555
1580.335
1580.115
1579.895
1579.675
1579.455
1579.235
1579.015
1578.795
1578.575
1578.355
1578.135
1577.915
1577.695
1577.475
1577.255
1577.035
1576.815
1576.595
1576.375
1576.155
1575.935
1575.715
1575.495
1575.275
1575.055
1574.835
1574.615
1574.395
1574.175
1573.955
1573.735
1573.515
1573.295
1573.075
1572.855
1572.635
1572.415
1572.195
1571.975
1571.755
1571.535
1571.315
1571.095
1570.875
1570.655
1570.435
1570.215
1569.995
1569.775
1569.555
1569.335
1569.115
1568.895
1568.675
1568.455
1568.235
1568.015
1567.795
1567.575
1567.355
1567.135
1566.915
1566.695
1566.475
1566.255
1566.035
1565.815
1565.595
1565.375
1565.155
1564.935
1564.715
1564.495
1564.275
1564.055
1563.835
1563.615
1563.395
1563.175
1562.955
1562.735
1562.515
1562.295
1562.075
1561.855
1561.635
1561.415
1561.195
1560.975
1560.755
1560.535
1560.315
1560.095
1559.875
1559.655
1559.435
1559.215
1558.995
1562.270
1565.544
1568.819
1572.093
1575.368
1578.642
1581.917
1585.191
1588.466
1591.740
1595.015
1598.289
1601.564
1604.838
1608.113
1611.387
1614.662
1617.936
1621.211
1624.485
1627.760
1631.034
1634.309
1637.583
1640.858
1644.132
1647.407
1650.681
1653.956
1657.230
1660.505
1663.779
1667.054
1670.328
1673.603
1676.877
1680.152
1683.426
1686.701
1689.975
1693.250
1696.524
1699.799
1703.073
1706.348
1709.622
1712.897
1716.171
1719.446
1722.720
1725.995
1729.269
1732.544
1735.818
1739.093
1742.367
1745.642
1748.916
1752.191
1755.465
1758.740
1762.014
1765.289
1768.563
1771.838
1775.112
1778.387
1781.661
1784.936
1788.210
1791.485
1794.759
1798.034
1801.308
1804.583
1807.857
1811.132
1814.406
1817.681
1820.955
1824.230
1827.504
1830.779
1834.053
1837.328
1840.602
1843.877
1847.151
1850.426
1853.700
1856.975
1860.249
1863.524
1866.798
1870.073
1873.347
1876.622
1879.896
1883.171
1886.445
1889.720
1892.994
1896.269
1899.543
1902.818
1906.092
1909.367
1912.641
1915.916
1919.190
1922.465
1925.739
1929.014
1932.288
1935.563
1938.837
1942.112
1945.386
1948.661
1951.935
1955.210
1958.484
1961.759
1965.033
1968.308
1971.582
1974.857
1978.131
1981.406
1984.680
1987.955
1991.229
1994.504
1997.778
2001.053
2004.327
2007.602
2010.876
2014.151
2017.425
2020.700
2023.974
2027.249
2030.523
2033.798
2037.072
2040.347
2043.621
2046.896
2050.170
2053.445
2056.719
2059.994
2063.268
2066.543
2069.817
2073.092
2076.366
2079.641
2082.915
2086.190
2089.464
2092.739
2096.013
2099.288
2102.562
2105.837
2109.111
2112.386
2115.660
2118.935
2122.209
2125.484
2128.758
2132.033
2135.307
2138.582
2141.856
2145.131
2148.405
2151.680
2154.954
2158.229
2161.503
2164.778
2168.052
2171.327
2174.601
2177.876
2181.150
2184.425
2187.699
2190.974
2194.248
2197.523
2200.797
2204.072
2207.346
2210.621
2213.895
2211.769
2209.643
2207.517
2205.391
2203.265
2201.139
2199.013
2196.887
2194.761
2192.635
2190.509
2188.383
2186.257
2184.131
2182.005
2179.879
2177.753
2175.627
2173.501
2171.375
2169.249
2167.123
2164.997
2162.871
2160.745
2158.619
2156.493
2154.367
2152.241
2150.115
2147.989
2145.863
2143.737
2141.611
2139.485
2137.359
2135.233
2133.107
2130.981
2128.855
2126.729
2124.603
2122.477
2120.351
2118.225
2116.099
2113.973
2111.847
2109.721
2107.595
2105.469
2103.343
2101.217
2099.091
2096.965
2094.839
2092.713
2090.587
2088.461
2086.335
2084.209
2082.083
2079.957
2077.831
2075.705
2073.579
2071.453
2069.327
2067.201
2065.075
2062.949
2060.823
2058.697
2056.571
2054.445
2052.319
2050.193
2048.067
2045.941
2043.815
2041.689
2039.563
2037.437
2035.311
2033.185
2031.059
2028.933
2026.807
2024.681
2022.555
2020.429
2018.303
2016.177
2014.051
2011.925
2009.799
2007.673
2005.547
2003.421
2001.295
1999.169
1997.043
1994.917
1992.791
1990.665
1988.539
1986.413
1984.287
1982.161
1980.035
1977.909
1975.783
1973.657
1971.531
1969.405
1967.279
1965.153
1963.027
1960.901
1958.775
1956.649
1954.523
1952.397
1950.271
1948.145
1946.019
1943.893
1941.767
1939.641
1937.515
1935.389
1933.263
1931.137
1929.011
1926.885
1924.759
1922.633
1920.507
1918.381
1916.255
1914.129
1912.003
1909.877
1907.751
1905.625
1903.499
1901.373
1899.247
1897.121
1894.995
1892.869
1890.743
1888.617
1886.491
1884.365
1882.239
1880.113
1877.987
1875.861
1873.735
1871.609
1869.483
1867.357
1865.231
1863.105
1860.979
1858.853
1856.727
1854.601
1852.475
1850.349
1848.223
1846.097
1843.971
1841.845
1839.719
1837.593
1835.467
1833.341
1831.215
1829.089
1826.963
1824.837
1822.711
1820.585
1818.459
1816.333
1814.207
1812.081
1809.955
1807.829
1805.703
1803.577
1801.451
1799.325
1797.199
1795.073
1792.947
1790.821
112.295
112.295
112.295
112.295
112.295
112.295
112.295
112.295
112.295
112.295
112.295
112.295
112.295
112.295
112.295
112.295
112.295
112.295
112.295
112.295
112.295
112.295
112.295
112.295
112.295
112.295
112.295
112.295
112.295
112.295
112.295
112.295
112.295
112.295
112.295
112.295
112.295
112.295
112.295
112.295
112.295
112.295
112.295
112.295
112.295
112.295
112.295
112.295
112.295
112.295
112.295
112.295
112.295
112.295
112.295
112.295
112.295
112.295
112.295
112.295
112.295
112.295
112.295
112.295
112.295
112.295
112.295
112.295
112.295
112.295
112.295
112.295
112.295
112.295
112.295
112.295
112.295
112.295
112.295
112.295
112.295
112.295
112.295
112.295
112.295
112.295
112.295
112.295
112.295
112.295
112.295
112.295
112.295
112.295
112.295
112.295
112.295
112.295
112.295
112.295
112.295
112.295
112.295
112.295
112.295
112.295
112.295
112.295
112.295
112.295
112.295
112.295
112.295
112.295
112.295
112.295
112.295
112.295
112.295
112.295
112.295
112.295
112.295
112.295
112.295
112.295
112.295
112.295
112.295
112.295
112.295
112.295
112.295
112.295
112.295
112.295
112.295
112.295
112.295
112.295
112.295
112.295
112.295
112.295
112.295
112.295
112.295
112.295
112.295
112.295
112.295
112.295
112.295
112.295
112.295
112.295
112.295
112.295
112.295
112.295
112.295
112.295
112.295
112.295
112.295
112.295
112.295
112.295
112.295
112.295
112.295
112.295
112.295
112.295
112.295
112.295
112.295
112.295
112.295
112.295
112.295
112.295
112.295
112.295
112.295
112.295
112.295
112.295
112.295
112.295
112.295
112.295
112.295
112.295
112.295
112.295
112.295
112.295
112.295
112.295
112.295
112.295
112.295
112.295
112.295
112.295
112.295
112.295
112.295
112.295
112.295
112.295
112.295
112.295
112.295
112.295
112.295
112.295
112.295
112.295
112.295
112.295
112.295
112.295
112.295
112.295
112.295
112.295
112.295
112.295
112.295
112.295
112.295
112.295
112.295
112.295
112.295
112.295
112.295
112.295
112.295
112.295
112.295
112.295
112.295
112.295
112.295
112.295
112.295
112.295
112.295
112.295
112.295
112.295
112.295
112.295
112.295
112.295
112.295
112.295
112.295
112.295
112.295
112.295
112.295
112.295
112.295
112.295
112.295
112.295
112.295
112.295
112.295
112.295
112.295
112.295
112.295
112.295
112.295
112.295
112.295
112.295
112.295
112.295
112.295
112.295
112.295
112.295
112.295
112.295
112.295
112.295
112.295
112.295
112.295
112.295
112.295
112.295
112.295
112.295
112.295
112.295
112.295
112.295
112.295
112.295
112.295
112.295
112.295
112.295
112.295
112.295
112.295
112.295
112.295
112.295
112.295
112.295
112.295
112.295
112.295
112.295
112.295
112.295
112.295
112.295
112.295
112.295
112.295
112.295
112.295
112.295
112.295
112.295
112.295
112.295
112.295
112.295
112.295
112.295
112.295
112.295
112.295
112.295
112.295
112.295
112.295
112.295
112.295
112.295
112.295
112.295
112.295
112.295
112.295
112.295
112.295
112.295
112.295
112.295
112.295
112.295
112.295
112.295
112.295
112.295
112.295
112.295
112.295
112.295
112.295
112.295
112.295
112.295
112.295
112.295
112.295
112.295
112.295
112.295
112.295
112.295
112.295
112.295
112.295
112.295
112.295
112.295
112.295
112.295
112.295
112.295
112.295
112.295
112.295
112.295
112.295
112.295
112.295
112.295
112.295
112.295
112.295
112.295
112.295
112.295
112.295
112.295
112.295
112.295
112.295
112.295
112.295
112.295
112.295
112.295
112.295
112.295
112.295
112.295
112.295
112.295
112.295
112.295
112.295
112.295
112.295
112.295
112.295
112.295
112.295
112.295
112.295
112.295
112.295
112.295
112.295
112.295
112.295
112.295
112.295
112.295
112.295
112.295
112.295
112.295
112.295
112.295
112.295
112.295
112.295
112.295
112.295
112.295
112.295
112.295
112.295
112.295
112.295
112.295
112.295
112.295
112.295
112.295
112.295
112.295
112.295
112.295
112.295
112.295
112.295
112.295
112.295
112.295
112.295
112.295
112.295
112.295
112.295
112.295
112.295
112.295
112.295
112.295
112.295
112.295
112.295
112.295
112.295
112.295
112.295
112.295
112.295
112.295
112.295
112.295
112.295
112.295
112.295
112.295
112.295
112.295
112.295
112.295
112.295
112.295
112.295
112.295
112.295
112.295
112.295
112.295
112.295
112.295
112.295
112.295
112.295
112.295
112.295
112.295
112.295
112.295
112.295
112.295
112.295
112.295
112.295
112.295
112.295
112.295
112.295
112.295
112.295
112.295
112.295
112.295
112.295
112.295
112.295
112.295
112.295
112.295
112.295
112.295
112.295
112.295
112.295
112.295
112.295
112.295
112.295
112.295
112.295
112.295
112.295
112.295
112.295
112.295
112.295
112.295
112.295
112.295
112.295
112.295
112.295
112.295
112.295
112.295
112.295
112.295
112.295
112.295
112.295
112.295
112.295
112.295
112.295
112.295
112.295
112.295
112.295
112.295
112.295
112.295
112.295
112.295
112.295
112.295
112.295
112.295
112.295
112.295
112.295
112.295
112.295
112.295
112.295
112.295
112.295
112.295
112.295
112.295
112.295
112.295
112.295
112.295
112.295
112.295
112.295
112.295
112.295
112.295
112.295
112.295
112.295
112.295
112.295
112.295
112.295
112.295
112.295
112.295
112.295
112.295
112.295
112.295
112.295
112.295
112.295
112.295
112.295
112.295
112.295
112.295
112.295
112.295
112.295
112.295
112.295
112.295
112.295
112.295
112.295
112.295
112.295
112.295
112.295
112.295
112.295
112.295
112.295
112.295
112.295
112.295
112.295
112.295
112.295
112.295
112.295
112.295
112.295
112.295
112.295
112.295
112.295
112.295
112.295
112.295
112.295
112.295
112.295
112.295
112.295
112.295
112.295
112.295
112.295
112.295
112.295
112.295
112.295
112.295
112.295
112.295
112.295
112.295
112.295
112.295
112.295
112.295
112.295
112.295
112.295
112.295
112.295
112.295
112.295
112.295
112.295
112.295
112.295
112.295
112.295
112.295
112.295
112.295
112.295
112.295
112.295
112.295
112.295
112.295
112.295
112.295
112.295
112.295
112.295
112.295
112.295
112.295
112.295
112.295
112.295
112.295
112.295
112.295
112.295
112.295
112.295
