1755.725
1753.501
1751.277
1749.053
1746.829
1744.605
1742.381
1740.157
1737.933
1735.709
1733.485
1731.261
1729.037
1726.813
1724.589
1722.365
1720.141
1717.917
1715.693
1713.469
1711.245
1709.021
1706.797
1704.573
1702.349
1700.125
1697.901
1695.677
1693.453
1691.229
1689.005
1686.781
1684.557
1686.878
1689.200
1691.521
1693.843
1696.164
1698.486
1700.807
1703.129
1705.450
1707.772
1710.093
1712.415
1714.736
1717.058
1719.379
1721.701
1724.022
1726.344
1728.665
1730.987
1733.308
1735.630
1737.951
1740.273
1742.594
1744.916
1747.237
1749.559
1751.880
1754.202
1756.523
1758.845
1761.166
1763.488
1765.809
1768.131
1770.452
1772.774
1775.095
1777.417
1779.738
1782.060
1784.381
1786.703
1789.024
1791.346
1793.667
1795.989
1798.310
1800.632
1802.953
1805.275
1807.596
1809.918
1812.239
1814.561
1816.882
1819.204
1821.525
1823.847
1826.168
1828.490
1830.811
1833.133
1835.454
1837.776
1840.097
1842.419
1844.740
1847.062
1849.383
1851.705
1854.026
1856.348
1858.669
1860.991
1863.312
1865.634
1867.955
1870.277
1872.598
1874.920
1877.241
1879.563
1881.884
1884.206
1886.527
1888.849
1891.170
1893.492
1895.813
1898.135
1900.456
1902.778
1905.099
1907.421
1909.742
1912.064
1914.385
1916.707
1919.028
1921.350
1923.671
1925.993
1928.314
1930.636
1932.957
1935.279
1937.600
1939.922
1942.243
1944.565
1946.886
1949.208
1951.529
1953.851
1956.172
1958.494
1960.815
1963.137
1965.458
1967.780
1970.101
1972.423
1974.744
1977.066
1979.387
1981.709
1984.030
1986.352
1988.673
1990.995
1993.316
1995.638
1997.959
2000.281
2002.602
2004.924
2007.245
2009.567
2011.888
2014.210
2016.531
2018.853
2021.174
2023.496
2025.817
2028.139
2030.460
2032.782
2035.103
2037.425
2039.746
2042.068
2044.389
2046.711
2049.032
2051.354
2053.675
2055.997
2058.318
2060.640
2062.961
2065.283
2067.604
2069.926
2072.247
2074.569
2076.890
2079.212
2081.533
2083.855
2086.176
2088.498
2090.819
2093.141
2095.462
2097.784
2100.105
2102.427
2104.748
2107.070
2109.391
2111.713
2114.034
2116.356
2118.677
2120.999
2123.320
2125.642
2127.963
2130.285
2132.606
2134.928
2137.249
2139.571
2141.892
2144.214
2146.535
2148.857
2152.278
2155.700
2159.121
2162.543
2165.964
2169.386
2172.807
2176.229
2179.650
2183.072
2186.493
2189.915
2193.336
2196.758
2200.179
2203.601
2207.022
2210.444
2213.865
2217.287
2220.708
2224.130
2227.551
2230.973
2234.394
2237.816
2241.237
2244.659
2248.080
2251.502
2254.923
2258.345
2261.766
2265.188
2268.609
2272.031
2275.452
2278.874
2282.295
2285.717
2289.138
2292.560
2295.981
2299.403
2302.824
2306.246
2309.667
2313.089
2316.510
2319.932
2323.353
2326.775
2330.196
2333.618
2337.039
2340.461
2343.882
2347.304
2350.725
2354.147
2357.568
2360.990
2364.411
2367.833
2371.254
2374.676
2378.097
2381.519
2384.940
2388.362
2391.783
2395.205
2398.626
2402.048
2405.469
2408.891
2412.312
2415.734
2419.155
2422.577
2425.998
2429.420
2432.841
2436.263
2439.684
2443.106
2446.527
2449.949
2453.370
2456.792
2460.213
2463.635
2467.056
2470.478
2473.899
2477.321
2480.742
2484.164
2487.585
2491.007
2494.428
2497.850
2501.271
2504.693
2508.114
2511.536
2514.957
2518.379
2521.800
2525.222
2528.643
2532.065
2535.486
2538.908
2542.329
2545.751
2549.172
2552.594
2556.015
2559.437
2562.858
2566.280
2569.701
2573.123
2576.544
2579.966
2583.387
2586.809
2590.230
2593.652
2597.073
2600.495
2603.916
2607.338
2610.759
2614.181
2617.602
2621.024
2624.445
2627.867
2631.288
2634.710
2638.131
2641.553
2644.974
2648.396
2651.817
2655.239
2658.660
2662.082
2665.503
2668.925
2672.346
2675.768
2679.189
2682.611
2686.032
2689.454
2692.875
2696.297
2699.718
2703.140
2706.561
2709.983
2713.404
2716.826
2720.247
2723.669
2727.090
2730.512
2733.933
2737.355
2740.776
2744.198
2747.619
2751.041
2754.462
2757.884
2761.305
2764.727
2768.148
2771.570
2774.991
2778.413
2781.834
2785.256
2788.677
2792.099
2795.520
2798.942
2802.363
2805.785
2809.206
2812.628
2816.049
2819.471
2822.892
2826.314
2829.735
2833.157
2830.444
2827.732
2825.019
2822.307
2819.594
2816.882
2814.169
2811.457
2808.744
2806.032
2803.319
2800.607
2797.894
2795.182
2792.469
2789.757
2787.044
2784.332
2781.619
2778.907
2776.194
2773.482
2770.769
2768.057
2765.344
2762.632
2759.919
2757.207
2754.494
2751.782
2749.069
2746.357
2743.644
2740.932
2738.219
2735.507
2732.794
2730.082
2727.369
2724.657
2721.944
2719.232
2716.519
2713.807
2711.094
2708.382
2705.669
2702.957
2700.244
2697.532
2694.819
2692.107
2689.394
2686.682
2683.969
2681.257
2678.544
2675.832
2673.119
2670.407
2667.694
2664.982
2662.269
2659.557
2656.844
2654.132
2651.419
2648.707
2645.994
2643.282
2640.569
2637.857
2635.144
2632.432
2629.719
2627.007
2624.294
2621.582
2618.869
2616.157
2613.444
2610.732
2608.019
2605.307
2602.594
2599.882
2597.169
2594.457
2591.744
2589.032
2586.319
2583.607
2580.894
2578.182
2575.469
2572.757
2570.044
2567.332
2564.619
2561.907
2559.194
2556.482
2553.769
2551.057
2548.344
2545.632
2542.919
2540.207
2537.494
2534.782
2532.069
2529.357
2526.644
2523.932
2521.219
2518.507
2515.794
2513.082
2510.369
2507.657
2504.944
2502.232
2499.519
2496.807
2494.094
2491.382
2488.669
2485.957
2483.244
2480.532
2477.819
2475.107
2472.394
2469.682
2466.969
2464.257
2461.544
2458.832
2456.119
2453.407
2450.694
2447.982
2445.269
2442.557
2439.844
2437.132
2434.419
2431.707
2428.994
2426.282
2423.569
2420.857
2418.144
2415.432
2412.719
2410.007
2407.294
2404.582
2401.869
2399.157
2396.444
2393.732
2391.019
2388.307
2385.594
2382.882
2380.169
2377.457
2374.744
2372.032
2369.319
2366.607
2363.894
2361.182
2358.469
2355.757
2353.044
2350.332
2347.619
2344.907
2342.194
2339.482
2336.769
2334.057
2331.344
2328.632
2325.919
2323.207
2320.494
2317.782
2315.069
2312.357
2309.644
2306.932
2304.219
2301.507
2298.794
2296.082
2293.369
86.357
86.332
86.308
86.283
86.259
86.234
86.210
86.185
86.161
86.136
86.112
86.087
86.063
86.038
86.014
85.989
85.965
85.940
85.916
85.891
85.867
85.842
85.818
85.793
85.769
85.744
85.720
85.695
85.671
85.646
85.622
85.597
85.573
85.548
85.524
85.499
85.475
85.450
85.426
85.401
85.377
85.352
85.328
85.303
85.279
85.254
85.230
85.205
85.181
85.156
85.132
85.107
85.083
85.058
85.034
85.009
84.985
84.960
84.936
84.911
84.887
84.862
84.838
84.813
84.789
84.764
84.740
84.715
84.691
84.666
84.642
84.617
84.593
84.568
84.544
84.519
84.495
84.470
84.446
84.421
84.397
84.372
84.348
84.323
84.299
84.274
84.250
84.225
84.201
84.176
84.152
84.127
84.103
84.078
84.054
84.029
84.005
83.980
83.956
83.931
83.907
83.882
83.858
83.833
83.809
83.784
83.760
83.735
83.711
83.686
83.662
83.637
83.613
83.588
83.564
83.539
83.515
83.490
83.466
83.441
83.417
83.392
83.368
83.343
83.319
83.294
83.270
83.245
83.221
83.196
83.172
83.147
83.123
83.098
83.074
83.049
83.025
83.000
82.976
82.951
82.927
82.902
82.878
82.853
82.829
82.804
82.780
82.755
82.731
82.706
82.682
82.657
82.633
82.608
82.584
82.559
82.535
82.510
82.486
82.461
82.437
82.412
82.388
82.363
82.339
82.314
82.290
82.265
82.241
82.216
82.192
82.167
82.143
82.118
82.094
82.069
82.045
82.020
81.996
81.971
81.947
81.922
81.898
81.873
81.849
81.824
81.800
81.775
81.751
81.726
81.702
81.677
81.653
81.628
81.604
81.579
81.555
81.530
81.506
81.481
81.457
81.457
81.457
81.457
81.457
81.457
81.457
81.457
81.457
81.457
81.457
81.457
81.457
81.457
81.457
81.457
81.457
81.457
81.457
81.457
81.457
81.457
81.457
81.457
81.457
81.457
81.457
81.457
81.457
81.457
81.457
81.457
81.457
81.457
81.457
81.457
81.457
81.457
81.457
81.457
81.457
81.457
81.457
81.457
81.457
81.457
81.457
81.457
81.457
81.457
81.457
81.457
81.457
81.457
81.457
81.457
81.457
81.457
81.457
81.457
81.457
81.457
81.457
81.457
81.457
81.457
81.457
81.457
81.457
81.457
81.457
81.457
81.457
81.457
81.457
81.457
81.457
81.457
81.457
81.457
81.457
81.457
81.457
81.457
81.457
81.457
81.457
81.457
81.457
81.457
81.457
81.457
81.457
81.457
81.457
81.457
81.457
81.457
81.457
81.457
81.457
81.457
81.457
81.457
81.457
81.457
81.457
81.457
81.457
81.457
81.457
81.457
81.457
81.457
81.457
81.457
81.457
81.457
81.457
81.457
81.457
81.457
81.457
81.457
81.457
81.457
81.457
81.457
81.457
81.457
81.457
81.457
81.457
81.457
81.457
81.457
81.457
81.457
81.457
81.457
81.457
81.457
81.457
81.457
81.457
81.457
81.457
81.457
81.457
81.457
81.457
81.457
81.457
81.457
81.457
81.457
81.457
81.457
81.457
81.457
81.457
81.457
81.457
81.457
81.457
81.457
81.457
81.457
81.457
81.457
81.457
81.457
81.457
81.457
81.457
81.457
81.457
81.457
81.457
81.457
81.457
81.457
81.457
81.457
81.457
81.457
81.457
81.457
81.457
81.457
81.457
81.457
81.457
81.457
81.457
81.457
81.457
81.457
81.457
81.457
81.457
81.457
81.457
81.457
81.457
81.457
81.457
81.457
81.457
81.457
81.457
81.457
81.457
81.457
81.457
81.457
81.457
81.457
81.457
81.457
81.457
81.457
81.457
81.457
81.457
81.457
81.457
81.457
81.457
81.457
81.457
81.457
81.457
81.457
81.457
81.457
81.457
81.457
81.457
81.457
81.457
81.457
81.457
81.457
81.457
81.457
81.457
81.457
81.457
81.457
81.457
81.457
81.457
81.457
81.457
81.457
81.457
81.457
81.457
81.457
81.457
81.457
81.457
81.457
81.457
81.457
81.457
81.457
81.457
81.457
81.457
81.457
81.457
81.457
81.457
81.457
81.457
81.457
81.457
81.457
81.457
81.457
81.457
81.457
81.457
81.457
81.457
81.457
81.457
81.457
81.457
81.457
81.457
81.457
81.457
81.457
81.457
81.457
81.457
81.457
81.457
81.457
81.457
81.457
81.457
81.457
81.457
81.457
81.457
81.457
81.457
81.457
81.457
81.457
81.457
81.457
81.457
81.457
81.457
81.457
81.457
81.457
81.457
81.457
81.457
81.457
81.457
81.457
81.457
81.457
81.457
81.457
81.457
81.457
81.457
81.457
81.457
81.457
81.457
81.457
81.457
81.457
81.457
81.457
81.457
81.457
81.457
81.457
81.457
81.457
81.457
81.457
81.457
81.457
81.457
81.457
81.457
81.457
81.457
81.457
81.457
81.457
81.457
81.457
81.457
81.457
81.457
81.457
81.457
81.457
81.457
81.457
81.457
81.457
81.457
81.457
81.457
81.457
81.457
81.457
81.457
81.457
81.457
81.457
81.457
81.457
81.457
81.457
81.457
81.457
81.457
81.457
81.457
81.457
81.457
81.457
81.457
81.457
81.457
81.457
81.457
81.481
81.506
81.530
81.555
81.579
81.604
81.628
81.653
81.677
81.702
81.726
81.751
81.775
81.800
81.824
81.849
81.873
81.898
81.922
81.947
81.971
81.996
82.020
82.045
82.069
82.094
82.118
82.143
82.167
82.192
82.216
82.241
82.265
82.290
82.314
82.339
82.363
82.388
82.412
82.437
82.461
82.486
82.510
82.535
82.559
82.584
82.608
82.633
82.657
82.682
82.706
82.731
82.755
82.780
82.804
82.829
82.853
82.878
82.902
82.927
82.951
82.976
83.000
83.025
83.049
83.074
83.098
83.123
83.147
83.172
83.196
83.221
83.245
83.270
83.294
83.319
83.343
83.368
83.392
83.417
83.441
83.466
83.490
83.515
83.539
83.564
83.588
83.613
83.637
83.662
83.686
83.711
83.735
83.760
83.784
83.809
83.833
83.858
83.882
83.907
83.931
83.956
83.980
84.005
84.029
84.054
84.078
84.103
84.127
84.152
84.176
84.201
84.225
84.250
84.274
84.299
84.323
84.348
84.372
84.397
84.421
84.446
84.470
84.495
84.519
84.544
84.568
84.593
84.617
84.642
84.666
84.691
84.715
84.740
84.764
84.789
84.813
84.838
84.862
84.887
84.911
84.936
84.960
84.985
85.009
85.034
85.058
85.083
85.107
85.132
85.156
85.181
85.205
85.230
85.254
85.279
85.303
85.328
85.352
85.377
85.401
85.426
85.450
85.475
85.499
85.524
85.548
85.573
85.597
85.622
85.646
85.671
85.695
85.720
85.744
85.769
85.793
85.818
85.842
85.867
85.891
85.916
85.940
85.965
85.989
86.014
86.038
86.063
86.087
86.112
86.136
86.161
86.185
86.210
86.234
86.259
86.283
86.308
86.332
86.357
86.332
86.308
86.283
86.259
86.234
86.210
86.185
86.161
86.136
86.112
86.087
86.063
86.038
86.014
85.989
85.965
85.940
85.916
85.891
85.867
85.842
85.818
85.793
85.769
85.744
85.720
85.695
85.671
85.646
85.622
85.597
85.573
85.548
85.524
85.499
85.475
85.450
85.426
85.401
85.377
85.352
85.328
85.303
85.279
85.254
85.230
85.205
85.181
85.156
85.132
85.107
85.083
85.058
85.034
85.009
84.985
84.960
84.936
84.911
84.887
84.862
84.838
84.813
84.789
84.764
84.740
84.715
84.691
84.666
84.642
84.617
84.593
84.568
84.544
84.519
84.495
84.470
84.446
84.421
84.397
84.372
84.348
84.323
84.299
84.274
84.250
84.225
84.201
84.176
84.152
84.127
84.103
84.078
84.054
84.029
84.005
83.980
83.956
83.931
83.907
83.882
83.858
83.833
83.809
83.784
83.760
83.735
83.711
83.686
83.662
83.637
83.613
83.588
83.564
83.539
83.515
83.490
83.466
83.441
83.417
83.392
83.368
83.343
83.319
83.294
83.270
83.245
83.221
83.196
83.172
83.147
83.123
83.098
83.074
83.049
83.025
83.000
82.976
82.951
82.927
82.902
82.878
82.853
82.829
82.804
82.780
82.755
82.731
82.706
82.682
82.657
82.633
82.608
82.584
82.559
82.535
82.510
82.486
82.461
82.437
82.412
82.388
82.363
82.339
82.314
82.290
82.265
82.241
82.216
82.192
82.167
82.143
82.118
82.094
82.069
82.045
82.020
81.996
81.971
81.947
81.922
81.898
81.873
81.849
81.824
81.800
81.775
81.751
81.726
81.702
81.677
81.653
81.628
81.604
81.579
81.555
81.530
81.506
81.481
81.457
81.457
81.457
81.457
81.457
81.457
81.457
81.457
81.457
81.457
81.457
81.457
81.457
81.457
81.457
81.457
81.457
81.457
81.457
81.457
81.457
81.457
81.457
81.457
81.457
81.457
81.457
81.457
81.457
81.457
81.457
81.457
81.457
81.457
81.457
81.457
81.457
81.457
81.457
81.457
81.457
81.457
81.457
81.457
81.457
81.457
81.457
81.457
81.457
81.457
81.457
81.457
81.457
81.457
81.457
81.457
81.457
81.457
81.457
81.457
81.457
81.457
81.457
81.457
81.457
81.457
81.457
81.457
81.457
81.457
81.457
81.457
81.457
81.457
81.457
81.457
81.457
81.457
81.457
81.457
81.457
81.457
81.457
81.457
81.457
81.457
81.457
81.457
81.457
81.457
81.457
81.457
81.457
81.457
81.457
81.457
81.457
81.457
81.457
81.457
81.457
81.457
81.457
81.457
81.457
81.457
81.457
81.457
81.457
81.457
81.457
81.457
81.457
81.457
81.457
81.457
81.457
81.457
81.457
81.457
81.457
81.457
81.457
81.457
81.457
81.457
81.457
81.457
81.457
81.457
81.457
81.457
81.457
81.457
81.457
81.457
81.457
81.457
81.457
81.457
81.457
81.457
81.457
81.457
81.457
81.457
81.457
81.457
81.457
81.457
81.457
81.457
81.457
81.457
81.457
81.457
81.457
81.457
81.457
81.457
81.457
81.457
81.457
81.457
81.457
81.457
81.457
81.457
81.457
81.457
81.457
81.457
81.457
81.457
81.457
81.457
81.457
81.457
81.457
81.457
81.457
81.457
81.457
81.457
81.457
81.457
81.457
81.457
81.457
81.457
81.457
81.457
81.457
81.457
81.457
81.457
81.457
81.457
81.457
81.457
81.457
81.457
81.457
81.457
81.457
81.457
81.457
81.457
81.457
81.457
81.457
81.457
81.457
81.457
81.457
81.457
81.457
81.457
81.457
81.457
81.457
81.457
81.457
81.457
81.457
81.457
81.457
81.457
81.457
81.457
81.457
81.457
81.457
81.457
81.457
81.457
81.457
81.457
81.457
81.457
81.457
81.457
81.457
81.457
81.457
81.457
81.457
81.457
81.457
81.457
81.457
81.457
81.457
81.457
81.457
81.457
81.457
81.457
81.457
81.457
81.457
81.457
81.457
81.457
81.457
81.457
81.457
81.457
81.457
81.457
81.457
81.457
81.457
81.457
81.457
81.457
81.457
81.457
81.457
81.457
81.457
81.457
81.457
81.457
81.457
81.457
81.457
81.457
81.457
81.457
81.457
81.457
81.457
81.457
81.457
81.457
81.457
81.457
81.457
81.457
81.457
81.457
81.457
81.457
81.457
81.457
81.457
81.457
81.457
81.457
81.457
81.457
81.457
81.457
81.457
81.457
81.457
81.457
81.457
81.457
81.457
81.457
81.457
81.457
81.457
81.457
81.457
81.457
81.457
81.457
81.457
81.457
81.457
81.457
81.457
81.457
81.457
81.457
81.457
81.457
81.457
81.457
81.457
81.457
81.457
81.457
81.457
81.457
81.457
81.457
81.457
81.457
81.457
81.457
81.457
81.457
81.457
81.457
81.457
81.457
81.457
81.457
81.457
81.457
81.457
81.457
81.457
81.457
