1739.580
1739.336
1739.092
1738.848
1738.604
1738.360
1738.116
1737.872
1737.628
1737.384
1737.140
1736.896
1736.652
1736.408
1736.164
1735.920
1735.676
1735.432
1735.188
1734.944
1734.700
1734.456
1734.212
1733.968
1733.724
1733.480
1733.236
1732.992
1732.748
1732.504
1732.260
1732.016
1731.772
1731.528
1731.284
1731.040
1730.796
1730.552
1730.308
1730.064
1729.820
1729.576
1729.332
1729.088
1728.844
1728.600
1728.356
1728.112
1727.868
1727.624
1727.380
1727.136
1726.892
1726.648
1726.404
1726.160
1725.916
1725.672
1725.428
1725.184
1724.940
1724.696
1724.452
1724.208
1723.964
1723.720
1723.476
1723.232
1722.988
1722.744
1722.500
1722.256
1722.012
1721.768
1721.524
1721.280
1721.036
1720.792
1720.548
1720.304
1720.060
1719.816
1719.572
1719.328
1719.084
1718.840
1718.596
1718.352
1718.108
1717.864
1717.620
1717.376
1717.132
1716.888
1716.644
1716.400
1716.156
1715.912
1715.668
1715.424
1715.180
1714.936
1714.692
1714.448
1714.204
1713.960
1713.716
1713.472
1713.228
1712.984
1712.740
1712.496
1712.252
1712.008
1711.764
1711.520
1711.276
1711.032
1710.788
1710.544
1710.300
1710.056
1709.812
1709.568
1709.324
1709.080
1708.836
1708.592
1708.348
1708.104
1707.860
1707.616
1707.372
1707.128
1706.884
1706.640
1706.396
1706.152
1705.908
1705.664
1705.420
1705.176
1704.932
1704.688
1704.444
1704.200
1703.956
1703.712
1703.468
1703.224
1702.980
1702.736
1702.492
1702.248
1702.004
1701.760
1701.516
1701.272
1701.028
1700.784
1700.540
1700.296
1700.052
1699.808
1699.564
1699.320
1699.076
1698.832
1698.588
1698.344
1698.100
1697.856
1697.612
1697.368
1697.124
1696.880
1696.636
1696.392
1696.148
1695.904
1695.660
1695.416
1695.172
1694.928
1694.684
1696.907
1699.131
1701.354
1703.578
1705.801
1708.025
1710.248
1712.472
1714.695
1716.919
1719.142
1721.366
1723.589
1725.813
1728.036
1730.260
1732.483
1734.707
1736.930
1739.154
1741.377
1743.601
1745.824
1748.048
1750.271
1752.495
1754.718
1756.942
1759.165
1761.389
1763.612
1765.836
1768.059
1770.283
1772.506
1774.730
1776.953
1779.177
1781.400
1783.624
1785.847
1788.071
1790.294
1792.518
1794.741
1796.965
1799.188
1801.412
1803.635
1805.859
1808.082
1810.306
1812.529
1814.753
1816.976
1819.200
1821.423
1823.647
1825.870
1828.094
1830.317
1832.541
1834.764
1836.988
1839.211
1841.435
1843.658
1845.882
1848.105
1850.329
1852.552
1854.776
1856.999
1859.223
1861.446
1863.670
1865.893
1868.117
1870.340
1872.564
1874.787
1877.011
1879.234
1881.458
1883.681
1885.905
1888.128
1890.352
1892.575
1894.799
1897.022
1899.246
1901.469
1903.693
1905.916
1908.140
1910.363
1912.587
1914.810
1917.034
1919.257
1921.481
1923.704
1925.928
1928.151
1930.375
1932.598
1934.822
1937.045
1939.269
1941.492
1943.716
1945.939
1948.163
1950.386
1952.610
1954.833
1957.057
1959.280
1961.504
1963.727
1965.951
1968.174
1970.398
1972.621
1974.845
1977.068
1979.292
1981.515
1983.739
1985.962
1988.186
1990.409
1992.633
1994.856
1997.080
1999.303
2001.527
2003.750
2005.974
2008.197
2010.421
2012.644
2014.868
2017.091
2019.315
2021.538
2023.762
2025.985
2028.209
2030.432
2032.656
2034.879
2037.103
2039.326
2041.550
2043.773
2045.997
2048.220
2050.444
2052.667
2054.891
2057.114
2059.338
2061.561
2063.785
2066.008
2068.232
2070.455
2072.679
2074.902
2077.126
2079.349
2081.573
2083.796
2086.020
2088.243
2090.467
2092.690
2094.914
2097.137
2099.361
2101.584
2103.808
2106.031
2108.255
2110.478
2112.702
2114.925
2117.149
2119.372
2121.596
2123.819
2126.043
2128.266
2130.490
2132.713
2134.937
2137.160
2139.384
2138.602
2137.820
2137.038
2136.256
2135.474
2134.692
2133.910
2133.128
2132.346
2131.564
2130.782
2130.000
2129.218
2128.436
2127.654
2126.872
2126.090
2125.308
2124.526
2123.744
2122.962
2122.180
2121.398
2120.616
2119.834
2119.052
2118.270
2117.488
2116.706
2115.924
2115.142
2114.360
2113.578
2112.796
2112.014
2111.232
2110.450
2109.668
2108.886
2108.104
2107.322
2106.540
2105.758
2104.976
2104.194
2103.412
2102.630
2101.848
2101.066
2100.284
2099.502
2098.720
2097.938
2097.156
2096.374
2095.592
2094.810
2094.028
2093.246
2092.464
2091.682
2090.900
2090.118
2089.336
2088.554
2087.772
2086.990
2086.208
2085.426
2084.644
2083.862
2083.080
2082.298
2081.516
2080.734
2079.952
2079.170
2078.388
2077.606
2076.824
2076.042
2075.260
2074.478
2073.696
2072.914
2072.132
2071.350
2070.568
2069.786
2069.004
2068.222
2067.440
2066.658
2065.876
2065.094
2064.312
2063.530
2062.748
2061.966
2061.184
2060.402
2059.620
2058.838
2058.056
2057.274
2056.492
2055.710
2054.928
2054.146
2053.364
2052.582
2051.800
2051.018
2050.236
2049.454
2048.672
2047.890
2047.108
2046.326
2045.544
2044.762
2043.980
2043.198
2042.416
2041.634
2040.852
2040.070
2039.288
2038.506
2037.724
2036.942
2036.160
2035.378
2034.596
2033.814
2033.032
2032.250
2031.468
2030.686
2029.904
2029.122
2028.340
2027.558
2026.776
2025.994
2025.212
2024.430
2023.648
2022.866
2022.084
2021.302
2020.520
2019.738
2018.956
2018.174
2017.392
2016.610
2015.828
2015.046
2014.264
2013.482
2012.700
2011.918
2011.136
2010.354
2009.572
2008.790
2008.008
2007.226
2006.444
2005.662
2004.880
2004.098
2003.316
2002.534
2001.752
2000.970
2000.188
1999.406
1998.624
1997.842
1997.060
1996.278
1995.496
1994.714
1993.932
1993.150
1992.368
1991.586
1990.804
1990.022
1989.240
1988.458
1987.676
1986.894
1986.112
1985.330
1984.548
1983.766
1982.984
1981.615
1980.247
1978.878
1977.510
1976.141
1974.773
1973.404
1972.036
1970.667
1969.299
1967.930
1966.562
1965.193
1963.825
1962.456
1961.088
1959.719
1958.351
1956.982
1955.614
1954.245
1952.877
1951.508
1950.140
1948.771
1947.403
1946.034
1944.666
1943.297
1941.929
1940.560
1939.192
1937.823
1936.455
1935.086
1933.718
1932.349
1930.981
1929.612
1928.244
1926.875
1925.507
1924.138
1922.770
1921.401
1920.033
1918.664
1917.296
1915.927
1914.559
1913.190
1911.822
1910.453
1909.085
1907.716
1906.348
1904.979
1903.611
1902.242
1900.874
1899.505
1898.137
1896.768
1895.400
1894.031
1892.663
1891.294
1889.926
1888.557
1887.189
1885.820
1884.452
1883.083
1881.715
1880.346
1878.978
1877.609
1876.241
1874.872
1873.504
1872.135
1870.767
1869.398
1868.030
1866.661
1865.293
1863.924
1862.556
1861.187
1859.819
1858.450
1857.082
1855.713
1854.345
1852.976
1851.608
1850.239
1848.871
1847.502
1846.134
1844.765
1843.397
1842.028
1840.660
1839.291
1837.923
1836.554
1835.186
1833.817
1832.449
1831.080
1829.712
1828.343
1826.975
1825.606
1824.238
1822.869
1821.501
1820.132
1818.764
1817.395
1816.027
1814.658
1813.290
1811.921
1810.553
1809.184
1807.816
1806.447
1805.079
1803.710
1802.342
1800.973
1799.605
1798.236
1796.868
1795.499
1794.131
1792.762
1791.394
1790.025
1788.657
1787.288
1785.920
1784.551
1783.183
1781.814
1780.446
1779.077
1777.709
1776.340
1774.972
1773.603
1772.235
1770.866
1769.498
1768.129
1766.761
1765.392
1764.024
1762.655
1761.287
1759.918
1758.550
1757.181
1755.813
1754.444
1753.076
1751.707
1750.339
1748.970
1747.602
1746.233
1744.865
1743.496
1742.128
1740.759
1739.391
1738.022
1736.654
1735.285
1733.917
1732.548
1731.180
1729.811
1728.443
1727.074
1725.706
1724.337
1722.969
1721.600
1720.232
1718.863
1717.495
1716.126
1714.758
1713.389
1712.021
1710.652
1709.284
1711.410
1713.537
1715.663
1717.790
1719.916
1722.043
1724.169
1726.296
1728.422
1730.549
1732.675
1734.802
1736.928
1739.055
1741.181
1743.308
1745.434
1747.561
1749.687
1751.814
1753.940
1756.067
1758.193
1760.320
1762.446
1764.573
1766.699
1768.826
1770.952
1773.079
1775.205
1777.332
1779.458
1781.585
1783.711
1785.838
1787.964
1790.091
1792.217
1794.344
1796.470
1798.597
1800.723
1802.850
1804.976
1807.103
1809.229
1811.356
1813.482
1815.609
1817.735
1819.862
1821.988
1824.115
1826.241
1828.368
1830.494
1832.621
1834.747
1836.874
1839.000
1841.127
1843.253
1845.380
1847.506
1849.633
1851.759
1853.886
1856.012
1858.139
1860.265
1862.392
1864.518
1866.645
1868.771
1870.898
1873.024
1875.151
1877.277
1879.404
1881.530
1883.657
1885.783
1887.910
1890.036
1892.163
1894.289
1896.416
1898.542
1900.669
1902.795
1904.922
1907.048
1909.175
1911.301
1913.428
1915.554
1917.681
1919.807
1921.934
1924.060
1926.187
1928.313
1930.440
1932.566
1934.693
1936.819
1938.946
1941.072
1943.199
1945.325
1947.452
1949.578
1951.705
1953.831
1955.958
1958.084
1960.211
1962.337
1964.464
1966.590
1968.717
1970.843
1972.970
1975.096
1977.223
1979.349
1981.476
1983.602
1985.729
1987.855
1989.982
1992.108
1994.235
1996.361
1998.488
2000.614
2002.741
2004.867
2006.994
2009.120
2011.247
2013.373
2015.500
2017.626
2019.753
2021.879
2024.006
2026.132
2028.259
2030.385
2032.512
2034.638
2036.765
2038.891
2041.018
2043.144
2045.271
2047.397
2049.524
2051.650
2053.777
2055.903
2058.030
2060.156
2062.283
2064.409
2066.536
2068.662
2070.789
2072.915
2075.042
2077.168
2079.295
2081.421
2083.548
2085.674
2087.801
2089.927
2092.054
2094.180
2096.307
2098.433
2100.560
2102.686
2104.813
2106.939
2109.066
2111.192
2113.319
2115.445
2117.572
2119.698
2121.825
2123.951
2126.078
2128.204
2130.331
2132.457
2134.584
2130.991
2127.399
2123.806
2120.214
2116.621
2113.029
2109.436
2105.844
2102.251
2098.659
2095.066
2091.474
2087.881
2084.289
2080.696
2077.104
2073.511
2069.919
2066.326
2062.734
2059.141
2055.549
2051.956
2048.364
2044.771
2041.179
2037.586
2033.994
2030.401
2026.809
2023.216
2019.624
2016.031
2012.439
2008.846
2005.254
2001.661
1998.069
1994.476
1990.884
1987.291
1983.699
1980.106
1976.514
1972.921
1969.329
1965.736
1962.144
1958.551
1954.959
1951.366
1947.774
1944.181
1940.589
1936.996
1933.404
1929.811
1926.219
1922.626
1919.034
1915.441
1911.849
1908.256
1904.664
1901.071
1897.479
1893.886
1890.294
1886.701
1883.109
1879.516
1875.924
1872.331
1868.739
1865.146
1861.554
1857.961
1854.369
1850.776
1847.184
1843.591
1839.999
1836.406
1832.814
1829.221
1825.629
1822.036
1818.444
1814.851
1811.259
1807.666
1804.074
1800.481
1796.889
1793.296
1789.704
1786.111
1782.519
1778.926
1775.334
1771.741
1768.149
1764.556
1760.964
1757.371
1753.779
1750.186
1746.594
1743.001
1739.409
1735.816
1732.224
1728.631
1725.039
1721.446
1717.854
1714.261
1710.669
1707.076
1703.484
1699.891
1696.299
1692.706
1689.114
1685.521
1681.929
1678.336
1674.744
1671.151
1667.559
1663.966
1660.374
1656.781
1653.189
1649.596
1646.004
1642.411
1638.819
1635.226
1631.634
1628.041
1624.449
1620.856
1617.264
1613.671
1610.079
1606.486
1602.894
1599.301
1595.709
1592.116
1588.524
1584.931
1581.339
1577.746
1574.154
1570.561
1566.969
1563.376
1559.784
1556.191
1552.599
1549.006
1545.414
1541.821
1538.229
1534.636
1531.044
1527.451
1523.859
1520.266
1516.674
1513.081
1509.489
1505.896
1502.304
1498.711
1495.119
1491.526
1487.934
1484.341
1480.749
1477.156
1473.564
1469.971
1466.379
1462.786
1459.194
1455.601
1452.009
1448.416
1444.824
1441.231
1437.639
1434.046
1430.454
1426.861
1423.269
1419.676
1416.084
1416.401
1416.719
1417.036
1417.354
1417.671
1417.989
1418.306
1418.624
1418.941
1419.259
1419.576
1419.894
1420.211
1420.529
1420.846
1421.164
1421.481
1421.799
1422.116
1422.434
1422.751
1423.069
1423.386
1423.704
1424.021
1424.339
1424.656
1424.974
1425.291
1425.609
1425.926
1426.244
1426.561
1426.879
1427.196
1427.514
1427.831
1428.149
1428.466
1428.784
1429.101
1429.419
1429.736
1430.054
1430.371
1430.689
1431.006
1431.324
1431.641
1431.959
1432.276
1432.594
1432.911
1433.229
1433.546
1433.864
1434.181
1434.499
1434.816
1435.134
1435.451
1435.769
1436.086
1436.404
1436.721
1437.039
1437.356
1437.674
1437.991
1438.309
1438.626
1438.944
1439.261
1439.579
1439.896
1440.214
1440.531
1440.849
1441.166
1441.484
1441.801
1442.119
1442.436
1442.754
1443.071
1443.389
1443.706
1444.024
1444.341
1444.659
1444.976
1445.294
1445.611
1445.929
1446.246
1446.564
1446.881
1447.199
1447.516
1447.834
1448.151
1448.469
1448.786
1449.104
1449.421
1449.739
1450.056
1450.374
1450.691
1451.009
1451.326
1451.644
1451.961
1452.279
1452.596
1452.914
1453.231
1453.549
1453.866
1454.184
1454.501
1454.819
1455.136
1455.454
1455.771
1456.089
1456.406
1456.724
1457.041
1457.359
1457.676
1457.994
1458.311
1458.629
1458.946
1459.264
1459.581
1459.899
1460.216
1460.534
1460.851
1461.169
1461.486
1461.804
1462.121
1462.439
1462.756
1463.074
1463.391
1463.709
1464.026
1464.344
1464.661
1464.979
1465.296
1465.614
1465.931
1466.249
1466.566
1466.884
1467.201
1467.519
1467.836
1468.154
1468.471
1468.789
1469.106
1469.424
1469.741
1470.059
1470.376
1470.694
1471.011
1471.329
1471.646
1471.964
1472.281
1472.599
1472.916
1473.234
1473.551
1473.869
1474.186
1474.504
1474.821
1475.139
1475.456
1475.774
1476.091
1476.409
1476.726
1477.044
1477.361
1477.679
1477.996
1478.314
1478.631
1478.949
1479.266
1479.584
1474.330
1469.076
1463.822
1458.568
1453.314
1448.060
1442.806
1437.552
1432.298
1427.044
1421.790
1416.536
1411.282
1406.028
1400.774
1395.520
1390.266
1385.012
1379.758
1374.504
1369.250
1363.996
1358.742
1353.488
1348.234
1342.980
1337.726
1332.472
1327.218
1321.964
1316.710
1311.456
1306.202
1300.948
1295.694
1290.440
1285.186
1279.932
1274.678
1269.424
1264.170
1258.916
1253.662
1248.408
1243.154
1237.900
1232.646
1227.392
1222.138
1216.884
1211.630
1206.376
1201.122
1195.868
1190.614
1185.360
1180.106
1174.852
1169.598
1164.344
1159.090
1153.836
1148.582
1143.328
1138.074
1132.820
1127.566
1122.312
1117.058
1111.804
1106.550
1101.296
1096.042
1090.788
1085.534
1080.280
1075.026
1069.772
1064.518
1059.264
1054.010
1048.756
1043.502
1038.248
1032.994
1027.740
1022.486
1017.232
1011.978
1006.724
1001.470
996.216
990.962
985.708
980.454
975.200
969.946
964.692
959.438
954.184
948.930
943.676
938.422
933.168
927.914
922.660
917.406
912.152
906.898
901.644
896.390
891.136
885.882
880.628
875.374
870.120
864.866
859.612
854.358
849.104
843.850
838.596
833.342
828.088
822.834
817.580
812.326
807.072
801.818
796.564
791.310
786.056
780.802
775.548
770.294
765.040
759.786
754.532
749.278
744.024
738.770
733.516
728.262
723.008
717.754
712.500
707.246
701.992
696.738
691.484
686.230
680.976
675.722
670.468
665.214
659.960
654.706
649.452
644.198
638.944
633.690
628.436
623.182
617.928
612.674
607.420
602.166
596.912
591.658
586.404
581.150
575.896
570.642
565.388
560.134
554.880
549.626
544.372
539.118
533.864
528.610
523.356
518.102
512.848
507.594
502.340
497.086
491.832
486.578
481.324
476.070
470.816
465.562
460.308
455.054
449.800
444.546
439.292
434.038
81.784
81.784
81.784
81.784
81.784
81.784
81.784
81.784
81.784
81.784
81.784
81.784
81.784
81.784
81.784
81.784
81.784
81.784
81.784
81.784
81.784
81.784
81.784
81.784
81.784
81.784
81.784
81.784
81.784
81.784
81.784
81.784
81.784
81.784
81.784
81.784
81.784
81.784
81.784
81.784
81.784
81.784
81.784
81.784
81.784
81.784
81.784
81.784
81.784
81.784
81.784
81.784
81.784
81.784
81.784
81.784
81.784
81.784
81.784
81.784
81.784
81.784
81.784
81.784
81.784
81.784
81.784
81.784
81.784
81.784
81.784
81.784
81.784
81.784
81.784
81.784
81.784
81.784
81.784
81.784
81.784
81.784
81.784
81.784
81.784
81.784
81.784
81.784
81.784
81.784
81.784
81.784
81.784
81.784
81.784
81.784
81.784
81.784
81.784
81.784
81.784
81.784
81.784
81.784
81.784
81.784
81.784
81.784
81.784
81.784
81.784
81.784
81.784
81.784
81.784
81.784
81.784
81.784
81.784
81.784
81.784
81.784
81.784
81.784
81.784
81.784
81.784
81.784
81.784
81.784
81.784
81.784
81.784
81.784
81.784
81.784
81.784
81.784
81.784
81.784
81.784
81.784
81.784
81.784
81.784
81.784
81.784
81.784
81.784
81.784
81.784
81.784
81.784
81.784
81.784
81.784
81.784
81.784
81.784
81.784
81.784
81.784
81.784
81.784
81.784
81.784
81.784
81.784
81.784
81.784
81.784
81.784
81.784
81.784
81.784
81.784
81.784
81.784
81.784
81.784
81.784
81.784
81.784
81.784
81.784
81.784
81.784
81.784
81.784
81.784
81.784
81.784
81.784
81.784
81.784
81.784
81.784
81.784
81.784
81.784
81.784
81.784
81.784
81.784
81.784
81.784
81.784
81.784
81.784
81.784
81.784
81.784
81.784
81.784
81.784
81.784
81.784
81.784
81.784
81.784
81.784
81.784
81.784
81.784
81.784
81.784
81.784
81.784
81.784
81.784
81.784
81.784
81.784
81.784
81.784
81.784
81.784
81.784
81.784
81.784
81.784
81.784
81.784
81.784
81.784
81.784
81.784
81.784
81.784
81.784
81.784
81.784
81.784
81.784
81.784
81.784
81.784
81.784
81.784
81.784
81.784
81.784
81.784
81.784
81.784
81.784
81.784
81.784
81.784
81.784
81.784
81.784
81.784
81.784
81.784
81.784
81.784
81.784
81.784
81.784
81.784
81.784
81.784
81.784
81.784
81.784
81.784
81.784
81.784
81.784
81.784
81.784
81.784
81.784
81.784
81.784
81.784
81.784
81.784
81.784
81.784
81.784
81.784
81.784
81.784
81.784
81.784
81.784
81.784
81.784
81.784
81.784
81.784
81.784
81.784
81.784
81.784
81.784
81.784
81.784
81.784
81.784
81.784
81.784
81.784
81.784
81.784
81.784
81.784
81.784
81.784
81.784
81.784
81.784
81.784
81.784
81.784
81.784
81.784
81.784
81.784
81.784
81.784
81.784
81.784
81.784
81.784
81.784
81.784
81.784
81.784
81.784
81.784
81.784
81.784
81.784
81.784
81.784
81.784
81.784
81.784
81.784
81.784
81.784
81.784
81.784
81.784
81.784
81.784
81.784
81.784
81.784
81.784
81.784
81.784
81.784
81.784
81.784
81.784
81.784
81.784
81.784
81.784
81.784
81.784
81.784
81.784
81.784
81.784
81.784
81.784
81.784
81.784
81.784
81.784
81.784
81.784
81.784
81.784
81.784
81.784
81.808
81.833
81.857
81.882
81.906
81.931
81.955
81.980
82.004
82.029
82.053
82.078
82.102
82.127
82.151
