2351.121
2352.392
2353.663
2354.934
2356.205
2357.476
2358.747
2360.018
2361.289
2362.560
2363.831
2365.102
2366.373
2367.644
2368.915
2370.186
2371.457
2372.728
2373.999
2375.270
2376.541
2377.812
2379.083
2380.354
2381.625
2382.896
2384.167
2385.438
2386.709
2387.980
2389.251
2390.522
2391.793
2393.064
2394.335
2395.606
2396.877
2398.148
2399.419
2400.690
2401.961
2403.232
2404.503
2405.774
2407.045
2408.316
2409.587
2410.858
2412.129
2413.400
2414.671
2415.942
2417.213
2418.484
2419.755
2421.026
2422.297
2423.568
2424.839
2426.110
2427.381
2428.652
2429.923
2431.194
2432.465
2433.736
2435.007
2436.278
2437.549
2438.820
2440.091
2441.362
2442.633
2443.904
2445.175
2446.446
2447.717
2448.988
2450.259
2451.530
2450.797
2450.063
2449.330
2448.596
2447.863
2447.129
2446.396
2445.662
2444.929
2444.195
2443.462
2442.728
2441.995
2441.261
2440.528
2439.794
2439.061
2438.327
2437.594
2436.860
2436.127
2435.393
2434.660
2433.926
2433.193
2432.459
2431.726
2430.992
2430.259
2429.525
2428.792
2428.058
2427.325
2426.591
2425.858
2425.124
2424.391
2423.657
2422.924
2422.190
2421.457
2420.723
2419.990
2419.256
2418.523
2417.789
2417.056
2416.322
2415.589
2414.855
2414.122
2413.388
2412.655
2411.921
2411.188
2410.454
2409.721
2408.987
2408.254
2407.520
2406.787
2406.053
2405.320
2404.586
2403.853
2403.119
2402.386
2401.652
2400.919
2400.185
2399.452
2398.718
2397.985
2397.251
2396.518
2395.784
2395.051
2394.317
2393.584
2392.850
2392.117
2391.383
2390.650
2389.916
2389.183
2388.449
2387.716
2386.982
2386.249
2385.515
2384.782
2384.048
2383.315
2382.581
2381.848
2381.114
2380.381
2379.647
2378.914
2378.180
2377.447
2376.713
2375.980
2375.246
2374.513
2373.779
2373.046
2372.312
2371.579
2370.845
2370.112
2369.378
2368.645
2367.911
2367.178
2366.444
2365.711
2364.977
2364.244
2363.510
2362.777
2362.043
2361.310
2360.576
2359.843
2359.109
2358.376
2357.642
2356.909
2356.175
2355.442
2354.708
2353.975
2353.241
2352.508
2351.774
2351.041
2350.307
2349.574
2348.840
2348.107
2347.373
2346.640
2345.906
2345.173
2344.439
2343.706
2342.972
2342.239
2341.505
2340.772
2340.038
2339.305
2338.571
2337.838
2337.104
2336.371
2335.637
2334.904
2334.170
2333.437
2332.703
2331.970
2331.236
2330.503
2329.769
2329.036
2328.302
2327.569
2326.835
2326.102
2325.368
2324.635
2323.901
2323.168
2322.434
2321.701
2320.967
2320.234
2319.500
2318.767
2318.033
2317.300
2316.566
2315.833
2315.099
2314.366
2313.632
2312.899
2312.165
2311.432
2310.698
2309.965
2309.231
2308.498
2307.764
2307.031
2306.297
2305.564
2304.830
2301.873
2298.916
2295.959
2293.002
2290.045
2287.088
2284.131
2281.174
2278.217
2275.260
2272.303
2269.346
2266.389
2263.432
2260.475
2257.518
2254.561
2251.604
2248.647
2245.690
2242.733
2239.776
2236.819
2233.862
2230.905
2227.948
2224.991
2222.034
2219.077
2216.120
2213.163
2210.206
2207.249
2204.292
2201.335
2198.378
2195.421
2192.464
2189.507
2186.550
2183.593
2180.636
2177.679
2174.722
2171.765
2168.808
2165.851
2162.894
2159.937
2156.980
2154.023
2151.066
2148.109
2145.152
2142.195
2139.238
2136.281
2133.324
2130.367
2127.410
2124.453
2121.496
2118.539
2115.582
2112.625
2109.668
2106.711
2103.754
2100.797
2097.840
2094.883
2091.926
2088.969
2086.012
2083.055
2080.098
2077.141
2074.184
2071.227
2068.270
2065.313
2062.356
2059.399
2056.442
2053.485
2050.528
2047.571
2044.614
2041.657
2038.700
2035.743
2032.786
2029.829
2026.872
2023.915
2020.958
2018.001
2015.044
2012.087
2009.130
2006.173
2003.216
2000.259
1997.302
1994.345
1991.388
1988.431
1985.474
1982.517
1979.560
1976.603
1973.646
1970.689
1967.732
1964.775
1961.818
1958.861
1955.904
1952.947
1949.990
1947.033
1944.076
1941.119
1938.162
1935.205
1932.248
1929.291
1926.334
1923.377
1920.420
1917.463
1914.506
1911.549
1908.592
1905.635
1902.678
1899.721
1896.764
1893.807
1890.850
1887.893
1884.936
1881.979
1879.022
1876.065
1873.108
1870.151
1867.194
1864.237
1861.280
1858.323
1855.366
1852.409
1849.452
1846.495
1843.538
1840.581
1837.624
1834.667
1831.710
1828.753
1825.796
1822.839
1819.882
1816.925
1813.968
1811.011
1808.054
1805.097
1802.140
1799.183
1796.226
1793.269
1790.312
1787.355
1784.398
1781.441
1778.484
1775.527
1772.570
1769.613
1766.656
1763.699
1760.742
1757.785
1754.828
1751.871
1748.914
1745.957
1743.000
1740.043
1737.086
1734.129
1731.172
1728.215
1725.258
1722.301
1719.344
1716.387
1713.430
1707.223
1701.016
1694.809
1688.602
1682.395
1676.188
1669.981
1663.774
1657.567
1651.360
1645.153
1638.946
1632.739
1626.532
1620.325
1614.118
1607.911
1601.704
1595.497
1589.290
1583.083
1576.876
1570.669
1564.462
1558.255
1552.048
1545.841
1539.634
1533.427
1527.220
1521.013
1514.806
1508.599
1502.392
1496.185
1489.978
1483.771
1477.564
1471.357
1465.150
1458.943
1452.736
1446.529
1440.322
1434.115
1427.908
1421.701
1415.494
1409.287
1403.080
1396.873
1390.666
1384.459
1378.252
1372.045
1365.838
1359.631
1353.424
1347.217
1341.010
1334.803
1328.596
1322.389
1316.182
1309.975
1303.768
1297.561
1291.354
1285.147
1278.940
1272.733
1266.526
1260.319
1254.112
1247.905
1241.698
1235.491
1229.284
1223.077
1216.870
1210.663
1204.456
1198.249
1192.042
1185.835
1179.628
1173.421
1167.214
1161.007
1154.800
1148.593
1142.386
1136.179
1129.972
1123.765
1117.558
1111.351
1105.144
1098.937
1092.730
1086.523
1080.316
1074.109
1067.902
1061.695
1055.488
1049.281
1043.074
1036.867
1030.660
1024.453
1018.246
1012.039
1005.832
999.625
993.418
987.211
981.004
974.797
968.590
962.383
956.176
949.969
943.762
937.555
931.348
925.141
918.934
912.727
906.520
900.313
894.106
887.899
881.692
875.485
869.278
863.071
856.864
850.657
844.450
838.243
832.036
825.829
819.622
813.415
807.208
801.001
794.794
788.587
782.380
776.173
769.966
763.759
757.552
751.345
745.138
738.931
732.724
726.517
720.310
714.103
707.896
701.689
695.482
689.275
683.068
676.861
670.654
664.447
658.240
652.033
645.826
639.619
633.412
627.205
620.998
614.791
608.584
602.377
596.170
589.963
583.756
577.549
571.342
565.135
558.928
552.721
546.514
540.307
534.100
527.893
521.686
515.479
509.272
503.065
496.858
490.651
484.444
478.237
85.930
85.930
85.930
85.930
85.930
85.930
85.930
85.930
85.930
85.930
85.930
85.930
85.930
85.930
85.930
85.930
85.930
85.930
85.930
85.930
85.930
85.930
85.930
85.930
85.930
85.930
85.930
85.930
85.930
85.930
85.930
85.930
85.930
85.930
85.930
85.930
85.930
85.930
85.930
85.930
85.930
85.930
85.930
85.930
85.930
85.930
85.930
85.930
85.930
85.930
85.930
85.930
85.930
85.930
85.930
85.930
85.930
85.930
85.930
85.930
85.930
85.930
85.930
85.930
85.930
85.930
85.930
85.930
85.930
85.930
85.930
85.930
85.930
85.930
85.930
85.930
85.930
85.930
85.930
85.930
85.930
85.930
85.930
85.930
85.930
85.930
85.930
85.930
85.930
85.930
85.930
85.930
85.930
85.930
85.930
85.930
85.930
85.930
85.930
85.930
85.930
85.930
85.930
85.930
85.930
85.930
85.930
85.930
85.930
85.930
85.930
85.930
85.930
85.930
85.930
85.930
85.930
85.930
85.930
85.930
85.930
85.930
85.930
85.930
85.930
85.930
85.930
85.930
85.930
85.930
85.930
85.930
85.930
85.930
85.930
85.930
85.930
85.930
85.930
85.930
85.930
85.930
85.930
85.930
85.930
85.930
85.930
85.930
85.930
85.930
85.930
85.930
85.930
85.930
85.930
85.930
85.930
85.930
85.930
85.930
85.930
85.930
85.930
85.930
85.930
85.930
85.930
85.930
85.930
85.930
85.930
85.930
85.930
85.930
85.930
85.930
85.930
85.930
85.930
85.930
85.930
85.930
85.930
85.930
85.930
85.930
85.930
85.930
85.930
85.930
85.930
85.930
85.930
85.930
85.930
85.930
85.930
85.930
85.930
85.930
85.930
85.930
85.930
85.930
85.930
85.930
85.930
85.930
85.930
85.930
85.930
85.930
85.930
85.930
85.930
85.930
85.930
85.930
85.930
85.930
85.930
85.930
85.930
85.930
85.930
85.930
85.930
85.930
85.930
85.930
85.930
85.930
85.930
85.930
85.930
85.930
85.930
85.930
85.930
85.930
85.930
85.930
85.930
85.930
85.930
85.930
85.930
85.930
85.930
85.930
85.930
85.930
85.930
85.930
85.930
85.930
85.930
85.930
85.930
85.930
85.930
85.930
85.930
85.930
85.930
85.930
85.930
85.930
85.930
85.930
85.930
85.930
85.930
85.930
85.930
85.930
85.930
85.930
85.930
85.930
85.930
85.930
85.930
85.930
85.930
85.930
85.930
85.930
85.930
85.930
85.930
85.930
85.930
85.930
85.930
85.930
85.930
85.930
85.930
85.930
85.930
85.930
85.930
85.930
85.930
85.930
85.930
85.930
85.930
85.930
85.930
85.930
85.930
85.930
85.930
85.930
85.930
85.930
85.930
85.930
85.930
85.930
85.930
85.930
85.930
85.930
85.930
85.930
85.930
85.930
85.930
85.930
85.930
85.930
85.930
85.930
85.930
85.930
85.930
85.930
85.930
85.930
85.930
85.930
85.930
85.930
85.930
85.930
85.930
85.930
85.930
85.930
85.930
85.930
85.930
85.930
85.930
85.930
85.930
85.930
85.930
85.930
85.930
85.930
85.930
85.930
85.930
85.930
85.930
85.930
85.930
85.930
85.930
85.930
85.930
85.930
85.930
85.930
85.930
85.930
85.930
85.930
85.930
85.930
85.930
85.930
85.930
85.930
85.930
85.930
85.930
85.930
85.930
85.930
85.930
85.930
85.930
85.930
85.930
85.930
85.930
85.930
85.930
85.930
85.930
85.930
85.930
85.930
85.930
85.930
85.930
85.930
85.930
85.930
85.930
85.930
85.930
85.930
85.930
85.930
85.930
85.930
85.930
85.930
85.930
85.930
85.930
85.930
85.930
85.930
85.930
85.930
85.930
85.930
85.930
85.930
85.930
85.930
85.930
85.930
85.930
85.930
85.930
85.930
85.930
85.930
85.930
85.930
85.930
85.930
85.930
85.930
85.930
85.930
85.930
85.930
85.930
85.930
85.930
85.930
85.930
85.930
85.930
85.930
85.930
85.930
85.930
85.930
85.930
85.930
85.930
85.930
85.930
85.930
85.930
85.930
85.930
85.930
85.930
85.930
85.930
85.930
85.930
85.930
85.930
85.930
85.930
85.930
85.930
85.930
85.930
85.930
85.930
85.930
85.930
85.930
85.930
85.930
85.930
85.930
85.930
85.930
85.930
85.930
85.930
85.930
85.930
85.930
85.930
85.930
85.930
85.930
85.930
85.930
85.930
85.930
85.930
85.930
85.930
85.930
85.930
85.930
85.930
85.930
85.930
85.930
85.930
85.930
85.930
85.930
85.930
85.930
85.930
85.930
85.930
85.930
85.930
85.930
85.930
85.930
85.930
85.930
85.930
85.930
85.930
85.930
85.930
85.930
85.930
85.930
85.930
85.930
85.930
85.930
85.930
85.930
85.930
85.930
85.930
85.930
85.930
85.930
85.930
85.930
85.930
85.930
85.930
85.930
85.930
85.930
85.930
85.930
85.930
85.930
85.930
85.930
85.930
85.930
85.930
85.930
85.930
85.930
85.930
85.930
85.930
85.930
85.930
85.930
85.930
85.930
85.930
85.930
85.930
85.930
85.930
85.930
85.930
85.930
85.930
85.930
85.930
85.930
85.930
85.930
85.930
85.930
85.930
85.930
85.930
85.930
85.930
85.930
85.930
85.930
85.930
85.930
85.930
85.930
85.930
85.930
85.930
85.930
85.930
85.930
85.930
85.930
85.930
85.930
85.930
85.930
85.930
85.930
85.930
85.930
85.930
85.930
85.930
85.930
85.930
85.930
85.930
85.930
85.930
85.930
85.930
85.930
85.930
85.930
85.930
85.930
85.930
85.930
85.930
85.930
85.930
85.930
85.930
85.930
85.930
85.930
85.930
85.930
85.930
85.930
85.930
85.930
85.930
85.930
85.930
85.930
85.930
85.930
85.930
85.930
85.930
85.930
85.930
85.930
85.930
85.930
85.930
85.930
85.930
85.930
85.930
85.930
85.930
85.930
85.930
85.930
85.930
85.930
85.930
85.930
85.930
85.930
85.930
85.930
85.930
85.930
85.930
85.930
85.930
85.930
85.930
85.930
85.930
85.930
85.930
85.930
85.930
85.930
85.930
85.930
85.930
85.930
85.930
85.930
85.930
85.930
85.930
85.930
85.930
85.930
85.930
85.930
85.930
85.930
85.930
85.930
85.930
85.930
85.930
85.930
85.930
85.930
85.930
85.930
85.930
85.930
85.930
85.930
85.930
85.930
85.930
85.930
85.930
85.930
85.930
85.930
85.930
85.930
85.930
85.930
85.930
85.930
85.930
85.930
85.930
85.930
85.930
85.930
85.930
85.930
85.930
85.930
85.930
85.930
85.930
85.930
85.930
85.930
85.930
85.930
85.930
85.930
85.930
85.930
85.930
85.930
85.930
85.930
85.930
85.930
85.930
85.930
85.930
85.930
85.930
85.930
85.930
85.930
85.930
85.930
85.930
85.930
85.930
85.930
85.930
85.930
85.930
85.930
85.930
85.930
85.930
85.930
85.930
85.930
85.930
85.930
85.930
85.930
85.930
85.930
85.930
85.930
85.930
85.930
85.930
85.930
85.930
85.930
85.930
85.930
85.930
85.930
85.930
85.930
85.930
85.930
85.930
85.930
85.930
85.930
85.930
85.930
85.930
85.930
85.930
85.930
85.930
85.930
85.930
85.930
85.930
85.930
85.930
85.930
85.930
85.930
85.930
85.930
85.930
85.930
85.930
85.930
85.930
85.930
85.930
85.930
85.930
85.930
85.930
85.930
85.930
85.930
85.930
85.930
85.930
85.930
85.930
85.930
85.930
85.930
85.930
85.930
85.930
85.930
85.930
85.930
85.930
85.930
85.930
85.930
85.930
85.930
85.930
85.930
85.930
85.930
85.930
85.930
85.930
85.930
85.930
85.930
85.930
85.930
85.930
85.930
85.930
85.930
85.930
85.930
85.930
85.930
85.930
85.930
85.930
85.930
85.930
85.930
85.930
85.930
85.930
85.930
85.930
85.930
85.930
85.930
85.930
85.930
85.930
85.930
85.930
85.930
85.930
85.930
85.930
85.930
85.930
85.930
85.930
85.930
85.930
85.930
85.930
85.930
85.930
85.930
85.930
85.930
85.930
85.930
85.930
85.930
85.930
85.930
85.930
85.930
85.930
85.930
85.930
85.930
85.930
85.930
85.930
85.930
85.930
85.930
85.930
85.930
85.930
85.930
85.930
85.930
85.930
85.930
85.930
85.930
85.930
85.930
85.930
85.930
85.930
85.930
85.930
85.930
85.930
85.930
85.930
85.930
85.930
85.930
85.930
85.930
85.930
85.930
85.930
85.930
85.930
85.930
85.930
85.930
85.930
85.930
85.930
85.930
85.930
85.930
85.930
85.930
85.930
85.930
85.930
85.930
85.930
85.930
85.930
85.930
85.930
85.930
85.930
85.930
85.930
85.930
85.930
85.930
85.930
85.930
85.930
85.930
85.930
85.930
85.930
85.930
85.930
85.930
85.930
85.930
85.930
85.930
85.930
85.930
85.930
85.930
85.930
85.930
85.930
85.930
85.930
85.930
85.930
85.930
85.930
85.930
85.930
85.930
85.930
85.930
85.930
85.930
85.930
85.930
85.930
85.930
85.930
85.930
85.930
85.930
85.930
85.930
85.930
85.930
85.930
85.930
85.930
85.930
85.930
85.930
85.930
85.930
85.930
85.930
85.930
85.930
85.930
85.930
85.930
85.930
85.930
85.930
85.930
85.930
85.930
85.930
85.930
85.930
85.930
85.930
85.930
85.930
85.930
85.930
85.930
85.930
85.930
85.930
85.930
85.930
85.930
85.930
85.930
85.930
85.930
85.930
85.930
85.930
85.930
85.930
85.930
85.930
85.930
85.930
85.930
85.930
85.930
85.930
85.930
85.930
85.930
85.930
85.930
85.930
85.930
85.930
85.930
85.930
85.930
85.930
85.930
85.930
85.930
85.930
85.930
85.930
85.930
85.930
85.930
85.930
85.930
85.930
85.930
85.930
85.930
85.930
85.930
85.930
85.930
85.930
85.930
85.930
85.930
85.930
85.930
85.930
85.930
85.930
85.930
85.930
85.930
85.930
85.930
85.930
85.930
85.930
85.930
85.930
85.930
85.930
85.930
85.930
85.930
85.930
85.930
85.930
85.930
85.930
85.930
85.930
85.930
85.930
85.930
85.930
85.930
85.930
85.930
85.930
85.930
85.930
85.930
85.930
85.930
85.930
85.930
85.930
85.930
85.930
85.930
85.930
85.930
85.930
85.930
85.930
85.930
85.930
85.930
85.930
85.930
85.930
85.930
85.930
85.930
85.930
85.930
85.930
85.930
85.930
85.930
85.930
85.930
85.930
85.930
85.930
85.930
85.930
85.930
85.930
85.930
85.930
85.930
85.930
85.930
85.930
85.930
85.930
85.930
85.930
85.930
85.930
85.930
85.930
85.930
85.930
85.930
85.930
85.930
85.930
85.930
85.930
85.930
85.930
85.930
85.930
85.930
85.930
85.930
85.930
85.930
85.930
85.930
85.930
85.930
85.930
85.930
85.930
85.930
85.930
85.930
85.930
85.930
85.930
85.930
85.930
85.930
85.930
85.930
85.930
85.930
85.930
85.930
85.930
85.930
85.930
85.930
85.930
85.930
85.930
85.930
85.930
85.930
85.930
85.930
85.930
85.930
85.930
85.930
85.930
85.930
85.930
85.930
85.930
85.930
85.930
85.930
85.930
85.930
85.930
85.930
85.930
85.930
85.930
85.930
85.930
85.930
85.930
85.930
85.930
85.930
85.930
85.930
