2251.931
2252.615
2253.299
2253.983
2254.667
2255.351
2256.035
2256.719
2257.403
2258.087
2258.771
2259.455
2260.139
2260.823
2261.507
2262.191
2262.875
2263.559
2264.243
2264.927
2265.611
2266.295
2266.979
2267.663
2268.347
2269.031
2269.715
2270.399
2271.083
2271.767
2272.451
2273.135
2273.819
2274.503
2275.187
2275.871
2276.555
2277.239
2277.923
2278.607
2279.291
2279.975
2280.659
2281.343
2282.027
2282.711
2283.395
2284.079
2284.763
2285.447
2286.131
2286.815
2287.499
2288.183
2288.867
2289.551
2290.235
2290.919
2291.603
2292.287
2292.971
2293.655
2294.339
2295.023
2295.707
2296.391
2297.075
2297.759
2298.443
2299.127
2299.811
2300.495
2301.179
2301.863
2302.547
2303.231
2303.915
2304.599
2305.283
2305.967
2306.651
2307.335
2308.019
2308.703
2309.387
2310.071
2310.755
2311.439
2312.123
2312.807
2313.491
2314.175
2314.859
2315.543
2316.227
2316.911
2317.595
2318.279
2318.963
2319.647
2320.331
2321.015
2321.699
2322.383
2323.067
2323.751
2324.435
2325.119
2325.803
2326.487
2327.171
2327.855
2328.539
2329.223
2329.907
2330.591
2331.275
2331.959
2332.643
2333.327
2334.011
2334.695
2335.379
2336.063
2336.747
2337.431
2338.115
2338.799
2339.483
2340.167
2340.851
2341.535
2342.219
2342.903
2343.587
2344.271
2344.955
2345.639
2346.323
2347.007
2347.691
2348.375
2349.059
2349.743
2350.427
2351.111
2351.795
2352.479
2353.163
2353.847
2354.531
2355.215
2355.899
2356.583
2357.267
2357.951
2358.635
2357.242
2355.849
2354.456
2353.063
2351.670
2350.277
2348.884
2347.491
2346.098
2344.705
2343.312
2341.919
2340.526
2339.133
2337.740
2336.347
2334.954
2333.561
2332.168
2330.775
2329.382
2327.989
2326.596
2325.203
2323.810
2322.417
2321.024
2319.631
2318.238
2316.845
2315.452
2314.059
2312.666
2311.273
2309.880
2308.487
2307.094
2305.701
2304.308
2302.915
2301.522
2300.129
2298.736
2297.343
2295.950
2294.557
2293.164
2291.771
2290.378
2288.985
2287.592
2286.199
2284.806
2283.413
2282.020
2280.627
2279.234
2277.841
2276.448
2275.055
2273.662
2272.269
2270.876
2269.483
2268.090
2266.697
2265.304
2263.911
2262.518
2261.125
2259.732
2258.339
2256.946
2255.553
2254.160
2252.767
2251.374
2249.981
2248.588
2247.195
2245.802
2244.409
2243.016
2241.623
2240.230
2238.837
2237.444
2236.051
2234.658
2233.265
2231.872
2230.479
2229.086
2227.693
2226.300
2224.907
2223.514
2222.121
2220.728
2219.335
2217.942
2216.549
2215.156
2213.763
2212.370
2210.977
2209.584
2208.191
2206.798
2205.405
2204.012
2202.619
2201.226
2199.833
2198.440
2197.047
2195.654
2194.261
2192.868
2191.475
2190.082
2188.689
2187.296
2185.903
2184.510
2183.117
2181.724
2180.331
2178.938
2177.545
2176.152
2174.759
2173.366
2171.973
2170.580
2169.187
2167.794
2166.401
2165.008
2163.615
2162.222
2160.829
2159.436
2158.043
2156.650
2155.257
2153.864
2152.471
2151.078
2149.685
2148.292
2146.899
2145.506
2144.113
2142.720
2141.327
2139.934
2138.541
2137.148
2135.755
2134.362
2132.969
2131.576
2130.183
2128.790
2127.397
2126.004
2124.611
2123.218
2121.825
2120.432
2119.039
2117.646
2116.253
2114.860
2113.467
2112.074
2110.681
2109.288
2107.895
2106.502
2105.109
2103.716
2102.323
2100.930
2099.537
2098.144
2096.751
2095.358
2093.965
2092.572
2091.179
2089.786
2088.393
2087.000
2085.607
2084.214
2082.821
2081.428
2080.035
2079.742
2079.449
2079.156
2078.863
2078.570
2078.277
2077.984
2077.691
2077.398
2077.105
2076.812
2076.519
2076.226
2075.933
2075.640
2075.347
2075.054
2074.761
2074.468
2074.175
2073.882
2073.589
2073.296
2073.003
2072.710
2072.417
2072.124
2071.831
2071.538
2071.245
2070.952
2070.659
2070.366
2070.073
2069.780
2069.487
2069.194
2068.901
2068.608
2068.315
2068.022
2067.729
2067.436
2067.143
2066.850
2066.557
2066.264
2065.971
2065.678
2065.385
2065.092
2064.799
2064.506
2064.213
2063.920
2063.627
2063.334
2063.041
2062.748
2062.455
2062.162
2061.869
2061.576
2061.283
2060.990
2060.697
2060.404
2060.111
2059.818
2059.525
2059.232
2058.939
2058.646
2058.353
2058.060
2057.767
2057.474
2057.181
2056.888
2056.595
2056.302
2056.009
2055.716
2055.423
2055.130
2054.837
2054.544
2054.251
2053.958
2053.665
2053.372
2053.079
2052.786
2052.493
2052.200
2051.907
2051.614
2051.321
2051.028
2050.735
2050.442
2050.149
2049.856
2049.563
2049.270
2048.977
2048.684
2048.391
2048.098
2047.805
2047.512
2047.219
2046.926
2046.633
2046.340
2046.047
2045.754
2045.461
2045.168
2044.875
2044.582
2044.289
2043.996
2043.703
2043.410
2043.117
2042.824
2042.531
2042.238
2041.945
2041.652
2041.359
2041.066
2040.773
2040.480
2040.187
2039.894
2039.601
2039.308
2039.015
2038.722
2038.429
2038.136
2037.843
2037.550
2037.257
2036.964
2036.671
2036.378
2036.085
2035.792
2035.499
2035.206
2034.913
2034.620
2034.327
2034.034
2033.741
2033.448
2033.155
2032.862
2032.569
2032.276
2031.983
2031.690
2031.397
2031.104
2030.811
2030.518
2030.225
2029.932
2029.639
2029.346
2029.053
2028.760
2028.467
2028.174
2027.881
2027.588
2027.295
2027.002
2026.709
2026.416
2026.123
2025.830
2025.537
2025.244
2024.951
2024.658
2024.365
2024.072
2023.779
2023.486
2023.193
2022.900
2022.607
2022.314
2022.021
2021.728
2021.435
2013.762
2006.088
1998.415
1990.741
1983.068
1975.394
1967.721
1960.047
1952.374
1944.700
1937.027
1929.353
1921.680
1914.006
1906.333
1898.659
1890.986
1883.312
1875.639
1867.965
1860.292
1852.618
1844.945
1837.271
1829.598
1821.924
1814.251
1806.577
1798.904
1791.230
1783.557
1775.883
1768.210
1760.536
1752.863
1745.189
1737.516
1729.842
1722.169
1714.495
1706.822
1699.148
1691.475
1683.801
1676.128
1668.454
1660.781
1653.107
1645.434
1637.760
1630.087
1622.413
1614.740
1607.066
1599.393
1591.719
1584.046
1576.372
1568.699
1561.025
1553.352
1545.678
1538.005
1530.331
1522.658
1514.984
1507.311
1499.637
1491.964
1484.290
1476.617
1468.943
1461.270
1453.596
1445.923
1438.249
1430.576
1422.902
1415.229
1407.555
1399.882
1392.208
1384.535
1376.861
1369.188
1361.514
1353.841
1346.167
1338.494
1330.820
1323.147
1315.473
1307.800
1300.126
1292.453
1284.779
1277.106
1269.432
1261.759
1254.085
1246.412
1238.738
1231.065
1223.391
1215.718
1208.044
1200.371
1192.697
1185.024
1177.350
1169.677
1162.003
1154.330
1146.656
1138.983
1131.309
1123.636
1115.962
1108.289
1100.615
1092.942
1085.268
1077.595
1069.921
1062.248
1054.574
1046.901
1039.227
1031.554
1023.880
1016.207
1008.533
1000.860
993.186
985.513
977.839
970.166
962.492
954.819
947.145
939.472
931.798
924.125
916.451
908.778
901.104
893.431
885.757
878.084
870.410
862.737
855.063
847.390
839.716
832.043
824.369
816.696
809.022
801.349
793.675
786.002
778.328
770.655
762.981
755.308
747.634
739.961
732.287
724.614
716.940
709.267
701.593
693.920
686.246
678.573
670.899
663.226
655.552
647.879
640.205
632.532
624.858
617.185
609.511
601.838
594.164
586.491
578.817
571.144
563.470
555.797
548.123
540.450
532.776
525.103
517.429
509.756
502.082
494.409
486.735
485.586
484.437
483.288
482.139
480.990
479.841
478.692
477.543
476.394
475.245
474.096
472.947
471.798
470.649
469.500
468.351
467.202
466.053
464.904
463.755
462.606
461.457
460.308
459.159
458.010
456.861
455.712
454.563
453.414
452.265
451.116
449.967
448.818
447.669
446.520
445.371
444.222
443.073
441.924
440.775
439.626
438.477
437.328
436.179
435.030
433.881
432.732
431.583
430.434
429.285
428.136
426.987
425.838
424.689
423.540
422.391
421.242
420.093
418.944
417.795
416.646
415.497
414.348
413.199
412.050
410.901
409.752
408.603
407.454
406.305
405.156
404.007
402.858
401.709
400.560
399.411
398.262
397.113
395.964
394.815
393.666
392.517
391.368
390.219
389.070
387.921
386.772
385.623
384.474
383.325
382.176
381.027
379.878
378.729
377.580
376.431
375.282
374.133
372.984
371.835
370.686
369.537
368.388
367.239
366.090
364.941
363.792
362.643
361.494
360.345
359.196
358.047
356.898
355.749
354.600
353.451
352.302
351.153
350.004
348.855
347.706
346.557
345.408
344.259
343.110
341.961
340.812
339.663
338.514
337.365
336.216
335.067
333.918
332.769
331.620
330.471
329.322
328.173
327.024
325.875
324.726
323.577
322.428
321.279
320.130
318.981
317.832
316.683
315.534
314.385
313.236
312.087
310.938
309.789
308.640
307.491
306.342
305.193
304.044
302.895
301.746
300.597
299.448
298.299
297.150
296.001
294.852
293.703
292.554
291.405
290.256
289.107
287.958
286.809
285.660
284.511
283.362
282.213
281.064
279.915
278.766
277.617
276.468
275.319
274.170
273.021
271.872
270.723
269.574
268.425
267.276
266.127
264.978
263.829
262.680
261.531
260.382
259.233
258.084
90.835
90.835
90.835
90.835
90.835
90.835
90.835
90.835
90.835
90.835
90.835
90.835
90.835
90.835
90.835
90.835
90.835
90.835
90.835
90.835
90.835
90.835
90.835
90.835
90.835
90.835
90.835
90.835
90.835
90.835
90.835
90.835
90.835
90.835
90.835
90.835
90.835
90.835
90.835
90.835
90.835
90.835
90.835
90.835
90.835
90.835
90.835
90.835
90.835
90.835
90.835
90.835
90.835
90.835
90.835
90.835
90.835
90.835
90.835
90.835
90.835
90.835
90.835
90.835
90.835
90.835
90.835
90.835
90.835
90.835
90.835
90.835
90.835
90.835
90.835
90.835
90.835
90.835
90.835
90.835
90.835
90.835
90.835
90.835
90.835
90.835
90.835
90.835
90.835
90.835
90.835
90.835
90.835
90.835
90.835
90.835
90.835
90.835
90.835
90.835
90.835
90.835
90.835
90.835
90.835
90.835
90.835
90.835
90.835
90.835
90.835
90.835
90.835
90.835
90.835
90.835
90.835
90.835
90.835
90.835
90.835
90.835
90.835
90.835
90.835
90.835
90.835
90.835
90.835
90.835
90.835
90.835
90.835
90.835
90.835
90.835
90.835
90.835
90.835
90.835
90.835
90.835
90.835
90.835
90.835
90.835
90.835
90.835
90.835
90.835
90.835
90.835
90.835
90.835
90.835
90.835
90.835
90.835
90.835
90.835
90.835
90.835
90.835
90.835
90.835
90.835
90.835
90.835
90.835
90.835
90.835
90.835
90.835
90.835
90.835
90.835
90.835
90.835
90.835
90.835
90.835
90.835
90.835
90.835
90.835
90.835
90.835
90.835
90.835
90.835
90.835
90.835
90.835
90.835
90.835
90.835
90.835
90.835
90.835
90.835
90.835
90.835
90.835
90.835
90.835
90.835
90.835
90.835
90.835
90.835
90.835
90.835
90.835
90.835
90.835
90.835
90.835
90.835
90.835
90.835
90.835
90.835
90.835
90.835
90.835
90.835
90.835
90.835
90.835
90.835
90.835
90.835
90.835
90.835
90.835
90.835
90.835
90.835
90.835
90.835
90.835
90.835
90.835
90.835
90.835
90.835
90.835
90.835
90.835
90.835
90.835
90.835
90.835
90.835
90.835
90.835
90.835
90.835
90.835
90.835
90.835
90.835
90.835
90.835
90.835
90.835
90.835
90.835
90.835
90.835
90.835
90.835
90.835
90.835
90.835
90.835
90.835
90.835
90.835
90.835
90.835
90.835
90.835
90.835
90.835
90.835
90.835
90.835
90.835
90.835
90.835
90.835
90.835
90.835
90.835
90.835
90.835
90.835
90.835
90.835
90.835
90.835
90.835
90.835
90.835
90.835
90.835
90.835
90.835
90.835
90.835
90.835
90.835
90.835
90.835
90.835
90.835
90.835
90.835
90.835
90.835
90.835
90.835
90.835
90.835
90.835
90.835
90.835
90.835
90.835
90.835
90.835
90.835
90.835
90.835
90.835
90.835
90.835
90.835
90.835
90.835
90.835
90.835
90.835
90.835
90.835
90.835
90.835
90.835
90.835
90.835
90.835
90.835
90.835
90.835
90.835
90.835
90.835
90.835
90.835
90.835
90.835
90.835
90.835
90.835
90.835
90.835
90.835
90.835
90.835
90.835
90.835
90.835
90.835
90.835
90.835
90.835
90.835
90.835
90.835
90.835
90.835
90.835
90.835
90.835
90.835
90.835
90.835
90.835
90.835
90.835
90.835
90.835
90.835
90.835
90.835
90.835
90.835
90.835
90.835
90.835
90.835
90.835
90.835
90.835
90.835
90.835
90.835
90.835
90.835
90.835
90.835
90.835
90.835
90.835
90.835
90.835
90.835
90.835
90.835
90.835
90.835
90.835
90.835
90.835
90.835
90.835
90.835
90.835
90.835
90.835
90.835
90.835
90.835
90.835
90.835
90.835
90.835
90.835
90.835
90.835
90.835
90.835
90.835
90.835
90.835
90.835
90.835
90.835
90.835
90.835
90.835
90.835
90.835
90.835
90.835
90.835
90.835
90.835
90.835
90.835
90.835
90.835
90.835
90.835
90.835
90.835
90.835
90.835
90.835
90.835
90.835
90.835
90.835
90.835
90.835
90.835
90.835
90.835
90.835
90.835
90.835
90.835
90.835
90.835
90.835
90.835
90.835
90.835
90.835
90.835
90.835
90.835
90.835
90.835
90.835
90.835
90.835
90.835
90.835
90.835
90.835
90.835
90.835
90.835
90.835
90.835
90.835
90.835
90.835
90.835
90.835
90.835
90.835
90.835
90.835
90.835
90.835
90.835
90.835
90.835
90.835
90.835
90.835
90.835
90.835
90.835
90.835
90.835
90.835
90.835
90.835
90.835
90.835
90.835
90.835
90.835
90.835
90.835
90.835
90.835
90.835
90.835
90.835
90.835
90.835
90.835
90.835
90.835
90.835
90.835
90.835
90.835
90.835
90.835
90.835
90.835
90.835
90.835
90.835
90.835
90.835
90.835
90.835
90.835
90.835
90.835
90.835
90.835
90.835
90.835
90.835
90.835
90.835
90.835
90.835
90.835
90.835
90.835
90.835
90.835
90.835
90.835
90.835
90.835
90.835
90.835
90.835
90.835
90.835
90.835
90.835
90.835
90.835
90.835
90.835
90.835
90.835
90.835
90.835
90.835
90.835
90.835
90.835
90.835
90.835
90.835
90.835
90.835
90.835
90.835
90.835
90.835
90.835
90.835
90.835
90.835
90.835
90.835
90.835
90.835
90.835
90.835
90.835
90.835
90.835
90.835
90.835
90.835
90.835
90.835
90.835
90.835
90.835
90.835
90.835
90.835
90.835
90.835
90.835
90.835
90.835
90.835
90.835
90.835
90.835
90.835
90.835
90.835
90.835
90.835
90.835
90.835
90.835
90.835
90.835
90.835
90.835
90.835
90.835
90.835
90.835
90.835
90.835
90.835
90.835
90.835
90.835
90.835
90.835
90.835
90.835
90.835
90.835
90.835
90.835
90.835
90.835
90.835
90.835
90.835
90.835
90.835
90.835
90.835
90.835
90.835
90.835
90.835
90.835
90.835
90.835
90.835
90.835
90.835
90.835
90.835
90.835
90.835
90.835
90.835
90.835
90.835
90.835
90.835
90.835
90.835
90.835
90.835
90.835
90.835
90.835
90.835
90.835
90.835
90.835
90.835
90.835
90.835
90.835
90.835
90.835
90.835
90.835
90.835
90.835
90.835
90.835
90.835
90.835
90.835
90.835
90.835
90.835
90.835
90.835
90.835
90.835
90.835
90.835
90.835
90.835
90.835
90.835
90.835
90.835
90.835
90.835
90.835
90.835
90.835
90.835
90.835
90.835
90.835
90.835
90.835
90.835
90.835
90.835
90.835
90.835
90.835
90.835
90.835
90.835
90.835
90.835
90.835
90.835
90.835
90.835
90.835
90.835
90.835
90.835
90.835
90.835
90.835
90.835
90.835
90.835
90.835
90.835
90.835
90.835
90.835
90.835
90.835
90.835
90.835
90.835
90.835
90.835
90.835
90.835
90.835
90.835
90.835
90.835
90.835
90.835
90.835
90.835
90.835
90.835
90.835
90.835
90.835
90.835
90.835
90.835
90.835
90.835
90.835
90.835
90.835
90.835
90.835
90.835
90.835
90.835
90.835
90.835
90.835
90.835
90.835
90.835
90.835
90.835
90.835
90.835
90.835
90.835
90.835
90.835
90.835
90.835
90.835
90.835
90.835
90.835
90.835
90.835
90.835
90.835
90.835
90.835
90.835
90.835
90.835
90.835
90.835
90.835
90.835
90.835
90.835
90.835
90.835
90.835
90.835
90.835
90.835
90.835
90.835
90.835
90.835
90.835
90.835
90.835
90.835
90.835
90.835
90.835
90.835
90.835
90.835
90.835
90.835
90.835
90.835
90.835
90.835
90.835
90.835
90.835
90.835
90.835
90.835
90.835
90.835
90.835
90.835
90.835
90.835
90.835
90.835
90.835
90.835
90.835
90.835
90.835
90.835
90.835
90.835
90.835
90.835
90.835
90.835
90.835
90.835
90.835
90.835
90.835
90.835
90.835
90.835
90.835
90.835
90.835
90.835
90.835
90.835
90.835
90.835
90.835
90.835
90.835
90.835
90.835
90.835
90.835
90.835
90.835
90.835
90.835
90.835
90.835
90.835
90.835
90.835
90.835
90.835
90.835
90.835
90.835
90.835
90.835
90.835
90.835
90.835
90.835
90.835
90.835
90.835
90.835
90.835
90.835
90.835
90.835
90.835
90.835
90.835
90.835
90.835
90.835
90.835
90.835
90.835
90.835
90.835
90.835
90.835
90.835
90.835
90.835
90.835
90.835
90.835
90.835
90.835
90.835
90.835
90.835
90.835
90.835
90.835
90.835
90.835
90.835
90.835
90.835
90.835
90.835
90.835
90.835
90.835
90.835
90.835
90.835
90.835
90.835
90.835
90.835
90.835
90.835
90.835
90.835
90.835
90.835
90.835
90.835
90.835
90.835
90.835
90.835
90.835
90.835
90.835
90.835
90.835
90.835
90.835
90.835
90.835
90.835
90.835
90.835
90.835
90.835
90.835
90.835
90.835
90.835
90.835
90.835
90.835
90.835
90.835
90.835
90.835
90.835
90.835
90.835
