1454.948
1457.050
1459.151
1461.253
1463.354
1465.456
1467.557
1469.659
1471.760
1473.862
1475.963
1478.065
1480.166
1482.268
1484.369
1486.471
1488.572
1490.674
1492.775
1494.877
1496.978
1499.080
1501.181
1503.283
1505.384
1507.486
1509.587
1511.689
1513.790
1515.892
1517.993
1520.095
1522.196
1524.298
1526.399
1528.501
1530.602
1532.704
1534.805
1536.907
1539.008
1541.110
1543.211
1545.313
1547.414
1549.516
1551.617
1553.719
1555.820
1557.922
1560.023
1562.125
1564.226
1566.328
1568.429
1570.531
1572.632
1574.734
1576.835
1578.937
1581.038
1583.140
1585.241
1587.343
1589.444
1591.546
1593.647
1595.749
1597.850
1599.952
1602.053
1604.155
1606.256
1608.358
1610.459
1612.561
1614.662
1616.764
1618.865
1620.967
1623.068
1625.170
1627.271
1629.373
1631.474
1633.576
1635.677
1637.779
1639.880
1641.982
1644.083
1646.185
1648.286
1650.388
1652.489
1654.591
1656.692
1658.794
1660.895
1662.997
1665.098
1667.200
1669.301
1671.403
1673.504
1675.606
1677.707
1679.809
1681.910
1684.012
1686.113
1688.215
1690.316
1692.418
1694.519
1696.621
1698.722
1700.824
1702.925
1705.027
1707.128
1709.230
1711.331
1713.433
1715.534
1717.636
1719.737
1721.839
1723.940
1726.042
1728.143
1730.245
1732.346
1734.448
1736.549
1738.651
1740.752
1742.854
1744.955
1747.057
1749.158
1751.260
1753.361
1755.463
1757.564
1759.666
1761.767
1763.869
1765.970
1768.072
1770.173
1772.275
1774.376
1776.478
1778.579
1780.681
1782.782
1784.884
1786.985
1789.087
1791.188
1793.290
1795.391
1797.493
1799.594
1801.696
1803.797
1805.899
1808.000
1810.102
1812.203
1814.305
1816.406
1818.508
1820.609
1822.711
1824.812
1826.914
1829.015
1831.117
1833.218
1835.320
1837.421
1839.523
1843.482
1847.441
1851.400
1855.359
1859.318
1863.277
1867.236
1871.195
1875.154
1879.113
1883.072
1887.031
1890.990
1894.949
1898.908
1902.867
1906.826
1910.785
1914.744
1918.703
1922.662
1926.621
1930.580
1934.539
1938.498
1942.457
1946.416
1950.375
1954.334
1958.293
1962.252
1966.211
1970.170
1974.129
1978.088
1982.047
1986.006
1989.965
1993.924
1997.883
2001.842
2005.801
2009.760
2013.719
2017.678
2021.637
2025.596
2029.555
2033.514
2037.473
2041.432
2045.391
2049.350
2053.309
2057.268
2061.227
2065.186
2069.145
2073.104
2077.063
2081.022
2084.981
2088.940
2092.899
2096.858
2100.817
2104.776
2108.735
2112.694
2116.653
2120.612
2124.571
2128.530
2132.489
2136.448
2140.407
2144.366
2148.325
2152.284
2156.243
2160.202
2164.161
2168.120
2172.079
2176.038
2179.997
2183.956
2187.915
2191.874
2195.833
2199.792
2203.751
2207.710
2211.669
2215.628
2219.587
2223.546
2227.505
2231.464
2235.423
2239.382
2243.341
2247.300
2251.259
2255.218
2259.177
2263.136
2267.095
2271.054
2275.013
2278.972
2282.931
2286.890
2290.849
2294.808
2298.767
2302.726
2306.685
2310.644
2314.603
2318.562
2322.521
2326.480
2330.439
2334.398
2338.357
2342.316
2346.275
2350.234
2354.193
2358.152
2362.111
2366.070
2370.029
2373.988
2377.947
2381.906
2385.865
2389.824
2393.783
2397.742
2401.701
2405.660
2409.619
2413.578
2417.537
2421.496
2425.455
2429.414
2433.373
2437.332
2441.291
2445.250
2449.209
2453.168
2457.127
2461.086
2465.045
2469.004
2472.963
2476.922
2480.881
2484.840
2488.799
2492.758
2496.717
2500.676
2504.635
2508.594
2512.553
2516.512
2520.471
2524.430
2528.389
2532.348
2536.307
2540.266
2544.225
2548.184
2552.143
2556.102
2560.061
2564.020
2567.979
2571.938
2575.897
2579.856
2583.815
2587.774
2591.733
2595.692
2599.651
2603.610
2607.569
2611.528
2615.487
2619.446
2623.405
2627.364
2631.323
2631.469
2631.616
2631.762
2631.909
2632.055
2632.202
2632.348
2632.495
2632.641
2632.788
2632.934
2633.081
2633.227
2633.374
2633.520
2633.667
2633.813
2633.960
2634.106
2634.253
2634.399
2634.546
2634.692
2634.839
2634.985
2635.132
2635.278
2635.425
2635.571
2635.718
2635.864
2636.011
2636.157
2636.304
2636.450
2636.597
2636.743
2636.890
2637.036
2637.183
2637.329
2637.476
2637.622
2637.769
2637.915
2638.062
2638.208
2638.355
2638.501
2638.648
2638.794
2638.941
2639.087
2639.234
2639.380
2639.527
2639.673
2639.820
2639.966
2640.113
2640.259
2640.406
2640.552
2640.699
2640.845
2640.992
2641.138
2641.285
2641.431
2641.578
2641.724
2641.871
2642.017
2642.164
2642.310
2642.457
2642.603
2642.750
2642.896
2643.043
2643.189
2643.336
2643.482
2643.629
2643.775
2643.922
2644.068
2644.215
2644.361
2644.508
2644.654
2644.801
2644.947
2645.094
2645.240
2645.387
2645.533
2645.680
2645.826
2645.973
2646.119
2646.266
2646.412
2646.559
2646.705
2646.852
2646.998
2647.145
2647.291
2647.438
2647.584
2647.731
2647.877
2648.024
2648.170
2648.317
2648.463
2648.610
2648.756
2648.903
2649.049
2649.196
2649.342
2649.489
2649.635
2649.782
2649.928
2650.075
2650.221
2650.368
2650.514
2650.661
2650.807
2650.954
2651.100
2651.247
2651.393
2651.540
2651.686
2651.833
2651.979
2652.126
2652.272
2652.419
2652.565
2652.712
2652.858
2653.005
2653.151
2653.298
2653.444
2653.591
2653.737
2653.884
2654.030
2654.177
2654.323
2654.470
2654.616
2654.763
2654.909
2655.056
2655.202
2655.349
2655.495
2655.642
2655.788
2655.935
2656.081
2656.228
2656.374
2656.521
2656.667
2656.814
2656.960
2657.107
2657.253
2657.400
2657.546
2657.693
2657.839
2657.986
2658.132
2658.279
2658.425
2658.572
2658.718
2658.865
2659.011
2659.158
2659.304
2659.451
2659.597
2659.744
2659.890
2660.037
2660.183
2660.330
2660.476
2660.623
2657.910
2655.198
2652.485
2649.773
2647.060
2644.348
2641.635
2638.923
2636.210
2633.498
2630.785
2628.073
2625.360
2622.648
2619.935
2617.223
2614.510
2611.798
2609.085
2606.373
2603.660
2600.948
2598.235
2595.523
2592.810
2590.098
2587.385
2584.673
2581.960
2579.248
2576.535
2573.823
2571.110
2568.398
2565.685
2562.973
2560.260
2557.548
2554.835
2552.123
2549.410
2546.698
2543.985
2541.273
2538.560
2535.848
2533.135
2530.423
2527.710
2524.998
2522.285
2519.573
2516.860
2514.148
2511.435
2508.723
2506.010
2503.298
2500.585
2497.873
2495.160
2492.448
2489.735
2487.023
2484.310
2481.598
2478.885
2476.173
2473.460
2470.748
2468.035
2465.323
2462.610
2459.898
2457.185
2454.473
2451.760
2449.048
2446.335
2443.623
2440.910
2438.198
2435.485
2432.773
2430.060
2427.348
2424.635
2421.923
2419.210
2416.498
2413.785
2411.073
2408.360
2405.648
2402.935
2400.223
2397.510
2394.798
2392.085
2389.373
2386.660
2383.948
2381.235
2378.523
2375.810
2373.098
2370.385
2367.673
2364.960
2362.248
2359.535
2356.823
2354.110
2351.398
2348.685
2345.973
2343.260
2340.548
2337.835
2335.123
2332.410
2329.698
2326.985
2324.273
2321.560
2318.848
2316.135
2313.423
2310.710
2307.998
2305.285
2302.573
2299.860
2297.148
2294.435
2291.723
2289.010
2286.298
2283.585
2280.873
2278.160
2275.448
2272.735
2270.023
2267.310
2264.598
2261.885
2259.173
2256.460
2253.748
2251.035
2248.323
2245.610
2242.898
2240.185
2237.473
2234.760
2232.048
2229.335
2226.623
2223.910
2221.198
2218.485
2215.773
2213.060
2210.348
2207.635
2204.923
2202.210
2199.498
2196.785
2194.073
2191.360
2188.648
2185.935
2183.223
2180.510
2177.798
2175.085
2172.373
2169.660
2166.948
2164.235
2161.523
2158.810
2156.098
2153.385
2150.673
2147.960
2145.248
2142.535
2139.823
2137.110
2134.398
2131.685
2128.973
2126.260
2123.548
2120.835
2118.123
2119.027
2119.931
2120.835
2121.739
2122.643
2123.547
2124.451
2125.355
2126.259
2127.163
2128.067
2128.971
2129.875
2130.779
2131.683
2132.587
2133.491
2134.395
2135.299
2136.203
2137.107
2138.011
2138.915
2139.819
2140.723
2141.627
2142.531
2143.435
2144.339
2145.243
2146.147
2147.051
2147.955
2148.859
2149.763
2150.667
2151.571
2152.475
2153.379
2154.283
2155.187
2156.091
2156.995
2157.899
2158.803
2159.707
2160.611
2161.515
2162.419
2163.323
2164.227
2165.131
2166.035
2166.939
2167.843
2168.747
2169.651
2170.555
2171.459
2172.363
2173.267
2174.171
2175.075
2175.979
2176.883
2177.787
2178.691
2179.595
2180.499
2181.403
2182.307
2183.211
2184.115
2185.019
2185.923
2186.827
2187.731
2188.635
2189.539
2190.443
2191.347
2192.251
2193.155
2194.059
2194.963
2195.867
2196.771
2197.675
2198.579
2199.483
2200.387
2201.291
2202.195
2203.099
2204.003
2204.907
2205.811
2206.715
2207.619
2208.523
2209.427
2210.331
2211.235
2212.139
2213.043
2213.947
2214.851
2215.755
2216.659
2217.563
2218.467
2219.371
2220.275
2221.179
2222.083
2222.987
2223.891
2224.795
2225.699
2226.603
2227.507
2228.411
2229.315
2230.219
2231.123
2232.027
2232.931
2233.835
2234.739
2235.643
2236.547
2237.451
2238.355
2239.259
2240.163
2241.067
2241.971
2242.875
2243.779
2244.683
2245.587
2246.491
2247.395
2248.299
2249.203
2250.107
2251.011
2251.915
2252.819
2253.723
2254.627
2255.531
2256.435
2257.339
2258.243
2259.147
2260.051
2260.955
2261.859
2262.763
2263.667
2264.571
2265.475
2266.379
2267.283
2268.187
2269.091
2269.995
2270.899
2271.803
2272.707
2273.611
2274.515
2275.419
2276.323
2277.227
2278.131
2279.035
2279.939
2280.843
2281.747
2282.651
2283.555
2284.459
2285.363
2286.267
2287.171
2288.075
2288.979
2289.883
2290.787
2291.691
2292.595
2293.499
2294.403
2295.307
2296.211
2297.115
2298.019
2298.923
2297.701
2296.479
2295.257
2294.035
2292.813
2291.591
2290.369
2289.147
2287.925
2286.703
2285.481
2284.259
2283.037
2281.815
2280.593
2279.371
2278.149
2276.927
2275.705
2274.483
2273.261
2272.039
2270.817
2269.595
2268.373
2267.151
2265.929
2264.707
2263.485
2262.263
2261.041
2259.819
2258.597
2257.375
2256.153
2254.931
2253.709
2252.487
2251.265
2250.043
2248.821
2247.599
2246.377
2245.155
2243.933
2242.711
2241.489
2240.267
2239.045
2237.823
2236.601
2235.379
2234.157
2232.935
2231.713
2230.491
2229.269
2228.047
2226.825
2225.603
2224.381
2223.159
2221.937
2220.715
2219.493
2218.271
2217.049
2215.827
2214.605
2213.383
2212.161
2210.939
2209.717
2208.495
2207.273
2206.051
2204.829
2203.607
2202.385
2201.163
2199.941
2198.719
2197.497
2196.275
2195.053
2193.831
2192.609
2191.387
2190.165
2188.943
2187.721
2186.499
2185.277
2184.055
2182.833
2181.611
2180.389
2179.167
2177.945
2176.723
2175.501
2174.279
2173.057
2171.835
2170.613
2169.391
2168.169
2166.947
2165.725
2164.503
2163.281
2162.059
2160.837
2159.615
2158.393
2157.171
2155.949
2154.727
2153.505
2152.283
2151.061
2149.839
2148.617
2147.395
2146.173
2144.951
2143.729
2142.507
2141.285
2140.063
2138.841
2137.619
2136.397
2135.175
2133.953
2132.731
2131.509
2130.287
2129.065
2127.843
2126.621
2125.399
2124.177
2122.955
2121.733
2120.511
2119.289
2118.067
2116.845
2115.623
2114.401
2113.179
2111.957
2110.735
2109.513
2108.291
2107.069
2105.847
2104.625
2103.403
2102.181
2100.959
2099.737
2098.515
2097.293
2096.071
2094.849
2093.627
2092.405
2091.183
2089.961
2088.739
2087.517
2086.295
2085.073
2083.851
2082.629
2081.407
2080.185
2078.963
2077.741
2076.519
2075.297
2074.075
2072.853
2071.631
2070.409
2069.187
2067.965
2066.743
2065.521
2064.299
2063.077
2061.855
2060.633
2059.411
2058.189
2056.967
2055.745
2054.523
2055.207
2055.892
2056.576
2057.261
2057.945
2058.630
2059.314
2059.999
2060.683
2061.368
2062.052
2062.737
2063.421
2064.106
2064.790
2065.475
2066.159
2066.844
2067.528
2068.213
2068.897
2069.582
2070.266
2070.951
2071.635
2072.320
2073.004
2073.689
2074.373
2075.058
2075.742
2076.427
2077.111
2077.796
2078.480
2079.165
2079.849
2080.534
2081.218
2081.903
2082.587
2083.272
2083.956
2084.641
2085.325
2086.010
2086.694
2087.379
2088.063
2088.748
2089.432
2090.117
2090.801
2091.486
2092.170
2092.855
2093.539
2094.224
2094.908
2095.593
2096.277
2096.962
2097.646
2098.331
2099.015
2099.700
2100.384
2101.069
2101.753
2102.438
2103.122
2103.807
2104.491
2105.176
2105.860
2106.545
2107.229
2107.914
2108.598
2109.283
2109.967
2110.652
2111.336
2112.021
2112.705
2113.390
2114.074
2114.759
2115.443
2116.128
2116.812
2117.497
2118.181
2118.866
2119.550
2120.235
2120.919
2121.604
2122.288
2122.973
2123.657
2124.342
2125.026
2125.711
2126.395
2127.080
2127.764
2128.449
2129.133
2129.818
2130.502
2131.187
2131.871
2132.556
2133.240
2133.925
2134.609
2135.294
2135.978
2136.663
2137.347
2138.032
2138.716
2139.401
2140.085
2140.770
2141.454
2142.139
2142.823
2143.508
2144.192
2144.877
2145.561
2146.246
2146.930
2147.615
2148.299
2148.984
2149.668
2150.353
2151.037
2151.722
2152.406
2153.091
2153.775
2154.460
2155.144
2155.829
2156.513
2157.198
2157.882
2158.567
2159.251
2159.936
2160.620
2161.305
2161.989
2162.674
2163.358
2164.043
2164.727
2165.412
2166.096
2166.781
2167.465
2168.150
2168.834
2169.519
2170.203
2170.888
2171.572
2172.257
2172.941
2173.626
2174.310
2174.995
2175.679
2176.364
2177.048
2177.733
2178.417
2179.102
2179.786
2180.471
2181.155
2181.840
2182.524
2183.209
2183.893
2184.578
2185.262
2185.947
2186.631
2187.316
2188.000
2188.685
2189.369
2190.054
2190.738
2191.423
2192.694
2193.965
2195.236
2196.507
2197.778
2199.049
2200.320
2201.591
2202.862
2204.133
2205.404
2206.675
2207.946
2209.217
2210.488
2211.759
2213.030
2214.301
2215.572
2216.843
2218.114
2219.385
2220.656
2221.927
2223.198
2224.469
2225.740
2227.011
2228.282
2229.553
2230.824
2232.095
2233.366
2234.637
2235.908
2237.179
2238.450
2239.721
2240.992
2242.263
2243.534
2244.805
2246.076
2247.347
2248.618
2249.889
2251.160
2252.431
2253.702
2254.973
2256.244
2257.515
2258.786
2260.057
2261.328
2262.599
2263.870
2265.141
2266.412
2267.683
2268.954
2270.225
2271.496
2272.767
2274.038
2275.309
2276.580
2277.851
2279.122
2280.393
2281.664
2282.935
2284.206
2285.477
2286.748
2288.019
2289.290
2290.561
2291.832
2293.103
2294.374
2295.645
2296.916
2298.187
2299.458
2300.729
2302.000
2303.271
2304.542
2305.813
2307.084
2308.355
2309.626
2310.897
2312.168
2313.439
2314.710
2315.981
2317.252
2318.523
2319.794
2321.065
2322.336
2323.607
2324.878
2326.149
2327.420
2328.691
2329.962
2331.233
2332.504
2333.775
2335.046
2336.317
2337.588
2338.859
2340.130
2341.401
2342.672
2343.943
2345.214
2346.485
2347.756
2349.027
2350.298
2351.569
2352.840
2354.111
2355.382
2356.653
2357.924
2359.195
2360.466
2361.737
2363.008
2364.279
2365.550
2366.821
2368.092
2369.363
2370.634
2371.905
2373.176
2374.447
2375.718
2376.989
2378.260
2379.531
2380.802
2382.073
2383.344
2384.615
2385.886
2387.157
2388.428
2389.699
2390.970
2392.241
2393.512
2394.783
2396.054
2397.325
2398.596
2399.867
2401.138
2402.409
2403.680
2404.951
2406.222
2407.493
2408.764
2410.035
2411.306
2412.577
2413.848
2415.119
2416.390
2417.661
2418.932
2420.203
2421.474
2422.745
2424.016
2425.287
2426.558
2427.829
2429.100
2430.371
2431.642
2432.913
2434.184
2435.455
2436.726
2437.997
2439.268
2440.539
2441.810
2443.081
2444.352
2445.623
2444.889
2444.156
2443.422
2442.689
2441.955
2441.222
2440.488
2439.755
2439.021
2438.288
2437.554
2436.821
2436.087
2435.354
2434.620
2433.887
2433.153
2432.420
2431.686
2430.953
2430.219
2429.486
2428.752
2428.019
2427.285
2426.552
2425.818
2425.085
2424.351
2423.618
2422.884
2422.151
2421.417
2420.684
2419.950
2419.217
2418.483
2417.750
2417.016
2416.283
2415.549
2414.816
2414.082
2413.349
2412.615
2411.882
2411.148
2410.415
2409.681
2408.948
2408.214
2407.481
2406.747
2406.014
2405.280
2404.547
2403.813
2403.080
2402.346
2401.613
2400.879
2400.146
2399.412
2398.679
2397.945
2397.212
2396.478
2395.745
2395.011
2394.278
2393.544
2392.811
2392.077
2391.344
2390.610
2389.877
2389.143
2388.410
2387.676
2386.943
2386.209
2385.476
2384.742
2384.009
2383.275
2382.542
2381.808
2381.075
2380.341
2379.608
2378.874
2378.141
2377.407
2376.674
2375.940
2375.207
2374.473
2373.740
2373.006
2372.273
2371.539
2370.806
2370.072
2369.339
2368.605
2367.872
2367.138
2366.405
2365.671
2364.938
2364.204
2363.471
2362.737
2362.004
2361.270
2360.537
2359.803
2359.070
2358.336
2357.603
2356.869
2356.136
2355.402
2354.669
2353.935
2353.202
2352.468
2351.735
2351.001
2350.268
2349.534
2348.801
2348.067
2347.334
2346.600
2345.867
2345.133
2344.400
2343.666
2342.933
2342.199
2341.466
2340.732
2339.999
2339.265
2338.532
2337.798
2337.065
2336.331
2335.598
2334.864
2334.131
2333.397
2332.664
2331.930
2331.197
2330.463
2329.730
2328.996
2328.263
2327.529
2326.796
2326.062
2325.329
2324.595
2323.862
2323.128
2322.395
2321.661
2320.928
2320.194
2319.461
2318.727
2317.994
2317.260
2316.527
2315.793
2315.060
2314.326
2313.593
2312.859
2312.126
2311.392
2310.659
2309.925
2309.192
2308.458
2307.725
2306.991
2306.258
2305.524
2304.791
2304.057
2303.324
2302.590
2301.857
2301.123
2300.390
2299.656
2298.923
2295.966
2293.009
2290.052
2287.095
2284.138
2281.181
2278.224
2275.267
2272.310
2269.353
2266.396
2263.439
2260.482
2257.525
2254.568
2251.611
2248.654
2245.697
2242.740
2239.783
2236.826
2233.869
2230.912
2227.955
2224.998
2222.041
2219.084
2216.127
2213.170
2210.213
2207.256
2204.299
2201.342
2198.385
2195.428
2192.471
2189.514
2186.557
2183.600
2180.643
2177.686
2174.729
2171.772
2168.815
2165.858
2162.901
2159.944
2156.987
2154.030
2151.073
2148.116
2145.159
2142.202
2139.245
2136.288
2133.331
2130.374
2127.417
2124.460
2121.503
2118.546
2115.589
2112.632
2109.675
2106.718
2103.761
2100.804
2097.847
2094.890
2091.933
2088.976
2086.019
2083.062
2080.105
2077.148
2074.191
2071.234
2068.277
2065.320
2062.363
2059.406
2056.449
2053.492
2050.535
2047.578
2044.621
2041.664
2038.707
2035.750
2032.793
2029.836
2026.879
2023.922
2020.965
2018.008
2015.051
2012.094
2009.137
2006.180
2003.223
2000.266
1997.309
1994.352
1991.395
1988.438
1985.481
1982.524
1979.567
1976.610
1973.653
1970.696
1967.739
1964.782
1961.825
1958.868
1955.911
1952.954
1949.997
1947.040
1944.083
1941.126
1938.169
1935.212
1932.255
1929.298
1926.341
1923.384
1920.427
1917.470
1914.513
1911.556
1908.599
1905.642
1902.685
1899.728
1896.771
1893.814
1890.857
1887.900
1884.943
1881.986
1879.029
1876.072
1873.115
1870.158
1867.201
1864.244
1861.287
1858.330
1855.373
1852.416
1849.459
1846.502
1843.545
1840.588
1837.631
1834.674
1831.717
1828.760
1825.803
1822.846
1819.889
1816.932
1813.975
1811.018
1808.061
1805.104
1802.147
1799.190
1796.233
1793.276
1790.319
1787.362
1784.405
1781.448
1778.491
1775.534
1772.577
1769.620
1766.663
1763.706
1760.749
1757.792
1754.835
1751.878
1748.921
1745.964
1743.007
1740.050
1737.093
1734.136
1731.179
1728.222
1725.265
1722.308
1719.351
1716.394
1713.437
1710.480
80.023
79.998
79.974
79.949
79.925
79.900
79.876
79.851
79.827
79.802
79.778
79.753
79.729
79.704
79.680
79.655
79.631
