2328.652
2328.554
2328.457
2328.359
2328.262
2328.164
2328.067
2327.969
2327.872
2327.774
2327.677
2327.579
2327.482
2327.384
2327.287
2327.189
2327.092
2326.994
2326.897
2326.799
2326.702
2326.604
2326.507
2326.409
2326.312
2326.214
2326.117
2326.019
2325.922
2325.824
2325.727
2325.629
2325.532
2325.434
2325.337
2325.239
2325.142
2325.044
2324.947
2324.849
2324.752
2324.654
2324.557
2324.459
2324.362
2324.264
2324.167
2324.069
2323.972
2323.874
2323.777
2323.679
2323.582
2323.484
2323.387
2323.289
2323.192
2323.094
2322.997
2322.899
2322.802
2322.704
2322.607
2322.509
2322.412
2322.314
2322.217
2322.119
2322.022
2321.924
2321.827
2321.729
2321.632
2321.534
2321.437
2321.339
2321.242
2321.144
2321.047
2320.949
2320.852
2320.754
2320.657
2320.559
2320.462
2320.364
2320.267
2320.169
2320.072
2319.974
2319.877
2319.779
2319.682
2319.584
2319.487
2319.389
2319.292
2319.194
2319.097
2318.999
2318.902
2318.804
2318.707
2318.609
2318.512
2318.414
2318.317
2318.219
2318.122
2318.024
2317.927
2317.829
2317.732
2317.634
2317.537
2317.439
2317.342
2317.244
2317.147
2317.049
2316.952
2316.854
2316.757
2316.659
2316.562
2316.464
2316.367
2316.269
2316.172
2316.074
2315.977
2315.879
2315.782
2315.684
2315.587
2315.489
2315.392
2315.294
2315.197
2315.099
2315.002
2314.904
2314.807
2314.709
2314.612
2314.514
2314.417
2314.319
2314.222
2314.124
2314.027
2313.929
2313.832
2313.734
2313.637
2313.539
2313.442
2313.344
2313.247
2313.149
2313.052
2312.954
2312.857
2312.759
2312.662
2312.564
2312.467
2312.369
2312.272
2312.174
2312.077
2311.979
2311.882
2311.784
2311.687
2311.589
2311.492
2311.394
2311.297
2311.199
2311.102
2311.004
2307.412
2303.819
2300.227
2296.634
2293.042
2289.449
2285.857
2282.264
2278.672
2275.079
2271.487
2267.894
2264.302
2260.709
2257.117
2253.524
2249.932
2246.339
2242.747
2239.154
2235.562
2231.969
2228.377
2224.784
2221.192
2217.599
2214.007
2210.414
2206.822
2203.229
2199.637
2196.044
2192.452
2188.859
2185.267
2181.674
2178.082
2174.489
2170.897
2167.304
2163.712
2160.119
2156.527
2152.934
2149.342
2145.749
2142.157
2138.564
2134.972
2131.379
2127.787
2124.194
2120.602
2117.009
2113.417
2109.824
2106.232
2102.639
2099.047
2095.454
2091.862
2088.269
2084.677
2081.084
2077.492
2073.899
2070.307
2066.714
2063.122
2059.529
2055.937
2052.344
2048.752
2045.159
2041.567
2037.974
2034.382
2030.789
2027.197
2023.604
2020.012
2016.419
2012.827
2009.234
2005.642
2002.049
1998.457
1994.864
1991.272
1987.679
1984.087
1980.494
1976.902
1973.309
1969.717
1966.124
1962.532
1958.939
1955.347
1951.754
1948.162
1944.569
1940.977
1937.384
1933.792
1930.199
1926.607
1923.014
1919.422
1915.829
1912.237
1908.644
1905.052
1901.459
1897.867
1894.274
1890.682
1887.089
1883.497
1879.904
1876.312
1872.719
1869.127
1865.534
1861.942
1858.349
1854.757
1851.164
1847.572
1843.979
1840.387
1836.794
1833.202
1829.609
1826.017
1822.424
1818.832
1815.239
1811.647
1808.054
1804.462
1800.869
1797.277
1793.684
1790.092
1786.499
1782.907
1779.314
1775.722
1772.129
1768.537
1764.944
1761.352
1757.759
1754.167
1750.574
1746.982
1743.389
1739.797
1736.204
1732.612
1729.019
1725.427
1721.834
1718.242
1714.649
1711.057
1707.464
1703.872
1700.279
1696.687
1693.094
1689.502
1685.909
1682.317
1678.724
1675.132
1671.539
1667.947
1664.354
1660.762
1657.169
1653.577
1649.984
1646.392
1642.799
1639.207
1635.614
1632.022
1628.429
1624.837
1621.244
1617.652
1614.059
1610.467
1606.874
1603.282
1599.689
1596.097
1592.504
1594.264
1596.023
1597.783
1599.542
1601.302
1603.061
1604.821
1606.580
1608.340
1610.099
1611.859
1613.618
1615.378
1617.137
1618.897
1620.656
1622.416
1624.175
1625.935
1627.694
1629.454
1631.213
1632.973
1634.732
1636.492
1638.251
1640.011
1641.770
1643.530
1645.289
1647.049
1648.808
1650.568
1652.327
1654.087
1655.846
1657.606
1659.365
1661.125
1662.884
1664.644
1666.403
1668.163
1669.922
1671.682
1673.441
1675.201
1676.960
1678.720
1680.479
1682.239
1683.998
1685.758
1687.517
1689.277
1691.036
1692.796
1694.555
1696.315
1698.074
1699.834
1701.593
1703.353
1705.112
1706.872
1708.631
1710.391
1712.150
1713.910
1715.669
1717.429
1719.188
1720.948
1722.707
1724.467
1726.226
1727.986
1729.745
1731.505
1733.264
1735.024
1736.783
1738.543
1740.302
1742.062
1743.821
1745.581
1747.340
1749.100
1750.859
1752.619
1754.378
1756.138
1757.897
1759.657
1761.416
1763.176
1764.935
1766.695
1768.454
1770.214
1771.973
1773.733
1775.492
1777.252
1779.011
1780.771
1782.530
1784.290
1786.049
1787.809
1789.568
1791.328
1793.087
1794.847
1796.606
1798.366
1800.125
1801.885
1803.644
1805.404
1807.163
1808.923
1810.682
1812.442
1814.201
1815.961
1817.720
1819.480
1821.239
1822.999
1824.758
1826.518
1828.277
1830.037
1831.796
1833.556
1835.315
1837.075
1838.834
1840.594
1842.353
1844.113
1845.872
1847.632
1849.391
1851.151
1852.910
1854.670
1856.429
1858.189
1859.948
1861.708
1863.467
1865.227
1866.986
1868.746
1870.505
1872.265
1874.024
1875.784
1877.543
1879.303
1881.062
1882.822
1884.581
1886.341
1888.100
1889.860
1891.619
1893.379
1895.138
1896.898
1898.657
1900.417
1902.176
1903.936
1905.695
1907.455
1909.214
1910.974
1912.733
1914.493
1916.252
1918.012
1919.771
1921.531
1923.290
1925.050
1926.809
1928.569
1930.328
1932.088
1933.847
1935.607
1937.366
1939.126
1940.885
1942.645
1944.404
1940.885
1937.366
1933.847
1930.328
1926.809
1923.290
1919.771
1916.252
1912.733
1909.214
1905.695
1902.176
1898.657
1895.138
1891.619
1888.100
1884.581
1881.062
1877.543
1874.024
1870.505
1866.986
1863.467
1859.948
1856.429
1852.910
1849.391
1845.872
1842.353
1838.834
1835.315
1831.796
1828.277
1824.758
1821.239
1817.720
1814.201
1810.682
1807.163
1803.644
1800.125
1796.606
1793.087
1789.568
1786.049
1782.530
1779.011
1775.492
1771.973
1768.454
1764.935
1761.416
1757.897
1754.378
1750.859
1747.340
1743.821
1740.302
1736.783
1733.264
1729.745
1726.226
1722.707
1719.188
1715.669
1712.150
1708.631
1705.112
1701.593
1698.074
1694.555
1691.036
1687.517
1683.998
1680.479
1676.960
1673.441
1669.922
1666.403
1662.884
1659.365
1655.846
1652.327
1648.808
1645.289
1641.770
1638.251
1634.732
1631.213
1627.694
1624.175
1620.656
1617.137
1613.618
1610.099
1606.580
1603.061
1599.542
1596.023
1592.504
1588.985
1585.466
1581.947
1578.428
1574.909
1571.390
1567.871
1564.352
1560.833
1557.314
1553.795
1550.276
1546.757
1543.238
1539.719
1536.200
1532.681
1529.162
1525.643
1522.124
1518.605
1515.086
1511.567
1508.048
1504.529
1501.010
1497.491
1493.972
1490.453
1486.934
1483.415
1479.896
1476.377
1472.858
1469.339
1465.820
1462.301
1458.782
1455.263
1451.744
1448.225
1444.706
1441.187
1437.668
1434.149
1430.630
1427.111
1423.592
1420.073
1416.554
1413.035
1409.516
1405.997
1402.478
1398.959
1395.440
1391.921
1388.402
1384.883
1381.364
1377.845
1374.326
1370.807
1367.288
1363.769
1360.250
1356.731
1353.212
1349.693
1346.174
1342.655
1339.136
1335.617
1332.098
1328.579
1325.060
1321.541
1318.022
1314.503
1310.984
1307.465
1303.946
1300.427
1296.908
1293.389
1289.870
1286.351
1282.832
1279.313
1275.794
1272.275
1268.756
1265.237
1261.718
1258.199
1254.680
1251.161
1247.642
1244.123
1240.604
1235.765
1230.926
1226.087
1221.248
1216.409
1211.570
1206.731
1201.892
1197.053
1192.214
1187.375
1182.536
1177.697
1172.858
1168.019
1163.180
1158.341
1153.502
1148.663
1143.824
1138.985
1134.146
1129.307
1124.468
1119.629
1114.790
1109.951
1105.112
1100.273
1095.434
1090.595
1085.756
1080.917
1076.078
1071.239
1066.400
1061.561
1056.722
1051.883
1047.044
1042.205
1037.366
1032.527
1027.688
1022.849
1018.010
1013.171
1008.332
1003.493
998.654
993.815
988.976
984.137
979.298
974.459
969.620
964.781
959.942
955.103
950.264
945.425
940.586
935.747
930.908
926.069
921.230
916.391
911.552
906.713
901.874
897.035
892.196
887.357
882.518
877.679
872.840
868.001
863.162
858.323
853.484
848.645
843.806
838.967
834.128
829.289
824.450
819.611
814.772
809.933
805.094
800.255
795.416
790.577
785.738
780.899
776.060
771.221
766.382
761.543
756.704
751.865
747.026
742.187
737.348
732.509
727.670
722.831
717.992
713.153
708.314
703.475
698.636
693.797
688.958
684.119
679.280
674.441
669.602
664.763
659.924
655.085
650.246
645.407
640.568
635.729
630.890
626.051
621.212
616.373
611.534
606.695
601.856
597.017
592.178
587.339
582.500
577.661
572.822
567.983
563.144
558.305
553.466
548.627
543.788
538.949
534.110
529.271
524.432
519.593
514.754
509.915
505.076
500.237
495.398
490.559
485.720
480.881
476.042
471.203
466.364
461.525
456.686
451.847
447.008
442.169
437.330
432.491
427.652
422.813
417.974
413.135
408.296
403.457
398.618
393.779
388.940
384.101
379.262
374.423
369.584
364.745
359.906
355.067
350.228
345.389
340.550
335.711
330.872
326.033
321.194
316.355
311.516
306.677
301.838
296.999
292.160
287.321
282.482
277.643
106.704
106.704
106.704
106.704
106.704
106.704
106.704
106.704
106.704
106.704
106.704
106.704
106.704
106.704
106.704
106.704
106.704
106.704
106.704
106.704
106.704
106.704
106.704
106.704
106.704
106.704
106.704
106.704
106.704
106.704
106.704
106.704
106.704
106.704
106.704
106.704
106.704
106.704
106.704
106.704
106.704
106.704
106.704
106.704
106.704
106.704
106.704
106.704
106.704
106.704
106.704
106.704
106.704
106.704
106.704
106.704
106.704
106.704
106.704
106.704
106.704
106.704
106.704
106.704
106.704
106.704
106.704
106.704
106.704
106.704
106.704
106.704
106.704
106.704
106.704
106.704
106.704
106.704
106.704
106.704
106.704
106.704
106.704
106.704
106.704
106.704
106.704
106.704
106.704
106.704
106.704
106.704
106.704
106.704
106.704
106.704
106.704
106.704
106.704
106.704
106.704
106.704
106.704
106.704
106.704
106.704
106.704
106.704
106.704
106.704
106.704
106.704
106.704
106.704
106.704
106.704
106.704
106.704
106.704
106.704
106.704
106.704
106.704
106.704
106.704
106.704
106.704
106.704
106.704
106.704
106.704
106.704
106.704
106.704
106.704
106.704
106.704
106.704
106.704
106.704
106.704
106.704
106.704
106.704
106.704
106.704
106.704
106.704
106.704
106.704
106.704
106.704
106.704
106.704
106.704
106.704
106.704
106.704
106.704
106.704
106.704
106.704
106.704
106.704
106.704
106.704
106.704
106.704
106.704
106.704
106.704
106.704
106.704
106.704
106.704
106.704
106.704
106.704
106.704
106.704
106.704
106.704
106.704
106.704
106.704
106.704
106.704
106.704
106.704
106.704
106.704
106.704
106.704
106.704
106.704
106.704
106.704
106.704
106.704
106.704
106.704
106.704
106.704
106.704
106.704
106.704
106.704
106.704
106.704
106.704
106.704
106.704
106.704
106.704
106.704
106.704
106.704
106.704
106.704
106.704
106.704
106.704
106.704
106.704
106.704
106.704
106.704
106.704
106.704
106.704
106.704
106.704
106.704
106.704
106.704
106.704
106.704
106.704
106.704
106.704
106.704
106.704
106.704
106.704
106.704
106.704
106.704
106.704
106.704
106.704
106.704
106.704
106.704
106.704
106.704
106.704
106.704
106.704
106.704
106.704
106.704
106.704
106.704
106.704
106.704
106.704
106.704
106.704
106.704
106.704
106.704
106.704
106.704
106.704
106.704
106.704
106.704
106.704
106.704
106.704
106.704
106.704
106.704
106.704
106.704
106.704
106.704
106.704
106.704
106.704
106.704
106.704
106.704
106.704
106.704
106.704
106.704
106.704
106.704
106.704
106.704
106.704
106.704
106.704
106.704
106.704
106.704
106.704
106.704
106.704
106.704
106.704
106.704
106.704
106.704
106.704
106.704
106.704
106.704
106.704
106.704
106.704
106.704
106.704
106.704
106.704
106.704
106.704
106.704
106.704
106.704
106.704
106.704
106.704
106.704
106.704
106.704
106.704
106.704
106.704
106.704
106.704
106.704
106.704
106.704
106.704
106.704
106.704
106.704
106.704
106.704
106.704
106.704
106.704
106.704
106.704
106.704
106.704
106.704
106.704
106.704
106.704
106.704
106.704
106.704
106.704
106.704
106.704
106.704
106.704
106.704
106.704
106.704
106.704
106.704
106.704
106.704
106.704
106.704
106.704
106.704
106.704
106.704
106.704
106.704
106.704
106.704
106.704
106.704
106.704
106.704
106.704
106.704
106.704
106.704
106.704
106.704
106.704
106.704
106.704
106.704
106.704
106.704
106.704
106.704
106.704
106.704
106.704
106.704
106.704
106.704
106.704
106.704
106.704
106.704
106.704
106.704
106.704
106.704
106.704
106.704
106.704
106.704
106.704
106.704
106.704
106.704
106.704
106.704
106.704
106.704
106.704
106.704
106.704
106.704
106.704
106.704
106.704
106.704
106.704
106.704
106.704
106.704
106.704
106.704
106.704
106.704
106.704
106.704
106.704
106.704
106.704
106.704
106.704
106.704
106.704
106.704
106.704
106.704
106.704
106.704
106.704
106.704
106.704
106.704
106.704
106.704
106.704
106.704
106.704
106.704
106.704
106.704
106.704
106.704
106.704
106.704
106.704
106.704
106.704
106.704
106.704
106.704
106.704
106.704
106.704
106.704
106.704
106.704
106.704
106.704
106.704
106.704
106.704
106.704
106.704
106.704
106.704
106.704
106.704
106.704
106.704
106.704
106.704
106.704
106.704
106.704
106.704
106.704
106.704
106.704
106.704
106.704
106.704
106.704
106.704
106.704
106.704
106.704
106.704
106.704
106.704
106.704
106.704
106.704
106.704
106.704
106.704
106.704
106.704
106.704
106.704
106.704
106.704
106.704
106.704
106.704
106.704
106.704
106.704
106.704
106.704
106.704
106.704
106.704
106.704
106.704
106.704
106.704
106.704
106.704
106.704
106.704
106.704
106.704
106.704
106.704
106.704
106.704
106.704
106.704
106.704
106.704
106.704
106.704
106.704
106.704
106.704
106.704
106.704
106.704
106.704
106.704
106.704
106.704
106.704
106.704
106.704
106.704
106.704
106.704
106.704
106.704
106.704
106.704
106.704
106.704
106.704
106.704
106.704
106.704
106.704
106.704
106.704
106.704
106.704
106.704
106.704
106.704
106.704
106.704
106.704
106.704
106.704
106.704
106.704
106.704
106.704
106.704
106.704
106.704
106.704
106.704
106.704
106.704
106.704
106.704
106.704
106.704
106.704
106.704
106.704
106.704
106.704
106.704
106.704
106.704
106.704
106.704
106.704
106.704
106.704
106.704
106.704
106.704
106.704
106.704
106.704
106.704
106.704
106.704
106.704
106.704
106.704
106.704
106.704
106.704
106.704
106.704
106.704
106.704
106.704
106.704
106.704
106.704
106.704
106.704
106.704
106.704
106.704
106.704
106.704
106.704
106.704
106.704
106.704
106.704
106.704
106.704
106.704
106.704
106.704
106.704
106.704
106.704
106.704
106.704
106.704
106.704
106.704
106.704
106.704
106.704
106.704
106.704
106.704
106.704
106.704
106.704
106.704
106.704
106.704
106.704
106.704
106.704
106.704
106.704
106.704
106.704
106.704
106.704
106.704
106.704
106.704
106.704
106.704
106.704
106.704
106.704
106.704
106.704
106.704
106.704
106.704
106.704
106.704
106.704
106.704
106.704
106.704
106.704
106.704
106.704
106.704
106.704
106.704
106.704
106.704
106.704
106.704
106.704
106.704
106.704
106.704
106.704
106.704
106.704
106.704
106.704
106.704
106.704
106.704
106.704
106.704
106.704
106.704
106.704
106.704
106.704
106.704
106.704
106.704
106.704
106.704
106.704
106.704
106.704
106.704
106.704
106.704
106.704
106.704
106.704
106.704
106.704
106.704
106.704
106.704
106.704
106.704
106.704
106.704
106.704
106.704
106.704
106.704
106.704
106.704
106.704
106.704
106.704
106.704
106.704
106.704
106.704
106.704
106.704
106.704
106.704
106.704
106.704
106.704
106.704
106.704
106.704
106.704
106.704
106.704
106.704
106.704
106.704
106.704
106.704
106.704
106.704
106.704
106.704
106.704
106.704
106.704
106.704
106.704
106.704
106.704
106.704
106.704
106.704
106.704
106.704
106.704
106.704
106.704
106.704
106.704
106.704
106.704
106.704
106.704
106.704
106.704
106.704
106.704
106.704
106.704
106.704
106.704
106.704
106.704
106.704
106.704
106.704
106.704
106.704
106.704
106.704
106.704
106.704
106.704
106.704
106.704
106.704
106.704
106.704
106.704
106.704
106.704
106.704
106.704
106.704
106.704
106.704
106.704
106.704
106.704
106.704
106.704
106.704
106.704
106.704
106.704
106.704
106.704
106.704
106.704
106.704
106.704
106.704
106.704
106.704
106.704
106.704
106.704
106.704
106.704
106.704
106.704
106.704
106.704
106.704
106.704
106.704
106.704
106.704
106.704
106.704
106.704
106.704
106.704
106.704
106.704
106.704
106.704
106.704
106.704
106.704
106.704
106.704
106.704
106.704
106.704
106.704
106.704
106.704
106.704
106.704
106.704
106.704
106.704
106.704
106.704
106.704
106.704
106.704
106.704
106.704
106.704
106.704
106.704
106.704
106.704
106.704
106.704
106.704
106.704
106.704
106.704
106.704
106.704
106.704
106.704
106.704
106.704
106.704
106.704
106.704
106.704
106.704
106.704
106.704
106.704
106.704
106.704
106.704
106.704
106.704
106.704
106.704
106.704
106.704
106.704
106.704
106.704
106.704
106.704
106.704
106.704
106.704
106.704
106.704
106.704
106.704
106.704
106.704
106.704
106.704
106.704
106.704
106.704
106.704
106.704
106.704
106.704
106.704
106.704
106.704
106.704
106.704
106.704
106.704
106.704
106.704
106.704
106.704
106.704
106.704
106.704
106.704
106.704
106.704
106.704
106.704
106.704
106.704
106.704
106.704
106.704
106.704
106.704
106.704
106.704
106.704
106.704
106.704
106.704
106.704
106.704
106.704
106.704
106.704
