1939.806
1941.835
1943.863
1945.892
1947.920
1949.949
1951.977
1954.006
1956.034
1958.063
1960.091
1962.120
1964.148
1966.177
1968.205
1970.234
1972.262
1974.291
1976.319
1978.348
1980.376
1982.405
1984.433
1986.462
1988.490
1990.519
1992.547
1994.576
1996.604
1998.633
2000.661
2002.690
2004.718
2006.747
2008.775
2010.804
2012.832
2014.861
2016.889
2018.918
2020.946
2022.975
2025.003
2027.032
2029.060
2031.089
2033.117
2035.146
2037.174
2039.203
2041.231
2043.260
2045.288
2047.317
2049.345
2051.374
2053.402
2055.431
2057.459
2059.488
2061.516
2063.545
2065.573
2067.602
2069.630
2071.659
2073.687
2075.716
2077.744
2079.773
2081.801
2083.830
2085.858
2087.887
2089.915
2091.944
2093.972
2096.001
2098.029
2100.058
2102.086
2104.115
2106.143
2107.218
2108.293
2109.368
2110.443
2111.518
2112.593
2113.668
2114.743
2115.818
2116.893
2117.968
2119.043
2120.118
2121.193
2122.268
2123.343
2124.418
2125.493
2126.568
2127.643
2128.718
2129.793
2130.868
2131.943
2133.018
2134.093
2135.168
2136.243
2137.318
2138.393
2139.468
2140.543
2141.618
2142.693
2143.768
2144.843
2145.918
2146.993
2148.068
2149.143
2150.218
2151.293
2152.368
2153.443
2154.518
2155.593
2156.668
2157.743
2158.818
2159.893
2160.968
2162.043
2163.118
2164.193
2165.268
2166.343
2167.418
2168.493
2169.568
2170.643
2171.718
2172.793
2173.868
2174.943
2176.018
2177.093
2178.168
2179.243
2180.318
2181.393
2182.468
2183.543
2184.618
2185.693
2186.768
2187.843
2188.918
2189.993
2191.068
2192.143
2193.218
2194.293
2195.368
2196.443
2197.518
2198.593
2199.668
2200.743
2201.818
2202.893
2203.968
2205.043
2206.118
2207.193
2208.268
2209.343
2210.418
2211.493
2212.568
2213.643
2214.718
2215.793
2216.868
2217.943
2219.018
2220.093
2221.168
2222.243
2223.318
2224.393
2225.468
2226.543
2227.618
2228.693
2229.768
2230.843
2231.918
2232.993
2234.068
2235.143
2236.218
2237.293
2238.368
2239.443
2240.518
2241.593
2242.668
2243.743
2244.818
2245.893
2246.968
2248.043
2249.118
2250.193
2251.268
2252.343
2253.418
2254.493
2255.568
2256.643
2257.718
2258.793
2259.868
2260.943
2262.018
2263.093
2264.168
2265.243
2266.318
2267.393
2268.468
2269.543
2270.618
2271.693
2272.768
2273.843
2274.918
2275.993
2277.068
2278.143
2279.218
2280.293
2281.368
2282.443
2283.518
2284.593
2285.668
2286.743
2287.818
2288.893
2289.968
2291.043
2292.118
2293.193
2294.268
2295.343
2296.418
2297.493
2298.568
2299.643
2300.718
2301.793
2302.868
2303.943
2305.018
2306.093
2307.168
2308.243
2309.318
2310.393
2311.468
2312.543
2313.618
2314.693
2315.768
2316.843
2317.918
2318.993
2320.068
2321.143
2322.903
2324.662
2326.422
2328.181
2329.941
2331.700
2333.460
2335.219
2336.979
2338.738
2340.498
2342.257
2344.017
2345.776
2347.536
2349.295
2351.055
2352.814
2354.574
2356.333
2358.093
2359.852
2361.612
2363.371
2365.131
2366.890
2368.650
2370.409
2372.169
2373.928
2375.688
2377.447
2379.207
2380.966
2382.726
2384.485
2386.245
2388.004
2389.764
2391.523
2393.283
2395.042
2396.802
2398.561
2400.321
2402.080
2403.840
2405.599
2407.359
2409.118
2410.878
2412.637
2414.397
2416.156
2417.916
2419.675
2421.435
2423.194
2424.954
2426.713
2428.473
2430.232
2431.992
2433.751
2435.511
2437.270
2439.030
2440.789
2442.549
2444.308
2446.068
2447.827
2449.587
2451.346
2453.106
2454.865
2456.625
2458.384
2460.144
2461.903
2463.663
2465.422
2467.182
2468.941
2470.701
2472.460
2474.220
2475.979
2477.739
2479.498
2481.258
2483.017
2484.777
2486.536
2488.296
2490.055
2491.815
2493.574
2495.334
2497.093
2498.853
2500.612
2502.372
2504.131
2505.891
2507.650
2509.410
2511.169
2512.929
2514.688
2516.448
2518.207
2519.967
2521.726
2523.486
2525.245
2527.005
2528.764
2530.524
2532.283
2534.043
2535.802
2537.562
2539.321
2541.081
2542.840
2544.600
2546.359
2548.119
2549.878
2551.638
2553.397
2555.157
2556.916
2558.676
2560.435
2562.195
2563.954
2565.714
2567.473
2569.233
2570.992
2572.752
2574.511
2576.271
2578.030
2579.790
2581.549
2583.309
2585.068
2586.828
2588.587
2590.347
2592.106
2593.866
2595.625
2597.385
2599.144
2600.904
2602.663
2604.423
2606.182
2607.942
2609.701
2611.461
2613.220
2614.980
2616.739
2618.499
2620.258
2622.018
2623.777
2625.537
2627.296
2629.056
2630.815
2632.575
2634.334
2636.094
2637.853
2639.613
2641.372
2643.132
2644.891
2646.651
2648.410
2650.170
2651.929
2653.689
2655.448
2657.208
2658.967
2660.727
2662.486
2664.246
2666.005
2667.765
2669.524
2671.284
2673.043
2669.280
2665.517
2661.754
2657.991
2654.228
2650.465
2646.702
2642.939
2639.176
2635.413
2631.650
2627.887
2624.124
2620.361
2616.598
2612.835
2609.072
2605.309
2601.546
2597.783
2594.020
2590.257
2586.494
2582.731
2578.968
2575.205
2571.442
2567.679
2563.916
2560.153
2556.390
2552.627
2548.864
2545.101
2541.338
2537.575
2533.812
2530.049
2526.286
2522.523
2518.760
2514.997
2511.234
2507.471
2503.708
2499.945
2496.182
2492.419
2488.656
2484.893
2481.130
2477.367
2473.604
2469.841
2466.078
2462.315
2458.552
2454.789
2451.026
2447.263
2443.500
2439.737
2435.974
2432.211
2428.448
2424.685
2420.922
2417.159
2413.396
2409.633
2405.870
2402.107
2398.344
2394.581
2390.818
2387.055
2383.292
2379.529
2375.766
2372.003
2368.240
2364.477
2360.714
2356.951
2353.188
2349.425
2345.662
2341.899
2338.136
2334.373
2330.610
2326.847
2323.084
2319.321
2315.558
2311.795
2308.032
2304.269
2300.506
2296.743
2292.980
2289.217
2285.454
2281.691
2277.928
2274.165
2270.402
2266.639
2262.876
2259.113
2255.350
2251.587
2247.824
2244.061
2240.298
2236.535
2232.772
2229.009
2225.246
2221.483
2217.720
2213.957
2210.194
2206.431
2202.668
2198.905
2195.142
2191.379
2187.616
2183.853
2180.090
2176.327
2172.564
2168.801
2165.038
2161.275
2157.512
2153.749
2149.986
2146.223
2142.460
2138.697
2134.934
2131.171
2127.408
2123.645
2119.882
2116.119
2112.356
2108.593
2104.830
2101.067
2097.304
2093.541
2089.778
2086.015
2082.252
2078.489
2074.726
2070.963
2067.200
2063.437
2059.674
2055.911
2052.148
2048.385
2044.622
2040.859
2037.096
2033.333
2029.570
2025.807
2022.044
2018.281
2014.518
2010.755
2006.992
2003.229
1999.466
1995.703
1991.940
1988.177
1984.414
1980.651
1976.888
1973.125
1969.362
1965.599
1961.836
1958.073
1954.310
1950.547
1946.784
1943.021
1939.258
1935.495
1931.732
1927.969
1924.206
1920.443
1918.708
1916.972
1915.237
1913.501
1911.766
1910.030
1908.295
1906.559
1904.824
1903.088
1901.353
1899.617
1897.882
1896.146
1894.411
1892.675
1890.940
1889.204
1887.469
1885.733
1883.998
1882.262
1880.527
1878.791
1877.056
1875.320
1873.585
1871.849
1870.114
1868.378
1866.643
1864.907
1863.172
1861.436
1859.701
1857.965
1856.230
1854.494
1852.759
1851.023
1849.288
1847.552
1845.817
1844.081
1842.346
1840.610
1838.875
1837.139
1835.404
1833.668
1831.933
1830.197
1828.462
1826.726
1824.991
1823.255
1821.520
1819.784
1818.049
1816.313
1814.578
1812.842
1811.107
1809.371
1807.636
1805.900
1804.165
1802.429
1800.694
1798.958
1797.223
1795.487
1793.752
1792.016
1790.281
1788.545
1786.810
1785.074
1783.339
1781.603
1779.868
1778.132
1776.397
1774.661
1772.926
1771.190
1769.455
1767.719
1765.984
1764.248
1762.513
1760.777
1759.042
1757.306
1755.571
1753.835
1752.100
1750.364
1748.629
1746.893
1745.158
1743.422
1741.687
1739.951
1738.216
1736.480
1734.745
1733.009
1731.274
1729.538
1727.803
1726.067
1724.332
1722.596
1720.861
1719.125
1717.390
1715.654
1713.919
1712.183
1710.448
1708.712
1706.977
1705.241
1703.506
1701.770
1700.035
1698.299
1696.564
1694.828
1693.093
1691.357
1689.622
1687.886
1686.151
1684.415
1682.680
1680.944
1679.209
1677.473
1675.738
1674.002
1672.267
1670.531
1668.796
1667.060
1665.325
1663.589
1661.854
1660.118
1658.383
1656.647
1654.912
1653.176
1651.441
1649.705
1647.970
1646.234
1644.499
1642.763
1641.028
1639.292
1637.557
1635.821
1634.086
1632.350
1630.615
1628.879
1627.144
1625.408
1623.673
1621.937
1620.202
1618.466
1616.731
1614.995
1613.260
1611.524
1609.789
1608.053
1606.318
1604.582
1602.847
1601.111
1599.376
1597.640
1595.905
1594.169
1592.434
1590.698
1588.963
1587.227
1585.492
1583.756
1582.021
1580.285
1578.550
1576.814
1575.079
1573.343
1576.080
1578.817
1581.554
1584.291
1587.028
1589.765
1592.502
1595.239
1597.976
1600.713
1603.450
1606.187
1608.924
1611.661
1614.398
1617.135
1619.872
1622.609
1625.346
1628.083
1630.820
1633.557
1636.294
1639.031
1641.768
1644.505
1647.242
1649.979
1652.716
1655.453
1658.190
1660.927
1663.664
1666.401
1669.138
1671.875
1674.612
1677.349
1680.086
1682.823
1685.560
1688.297
1691.034
1693.771
1696.508
1699.245
1701.982
1704.719
1707.456
1710.193
1712.930
1715.667
1718.404
1721.141
1723.878
1726.615
1729.352
1732.089
1734.826
1737.563
1740.300
1743.037
1745.774
1748.511
1751.248
1753.985
1756.722
1759.459
1762.196
1764.933
1767.670
1770.407
1773.144
1775.881
1778.618
1781.355
1784.092
1786.829
1789.566
1792.303
1795.040
1797.777
1800.514
1803.251
1805.988
1808.725
1811.462
1814.199
1816.936
1819.673
1822.410
1825.147
1827.884
1830.621
1833.358
1836.095
1838.832
1841.569
1844.306
1847.043
1849.780
1852.517
1855.254
1857.991
1860.728
1863.465
1866.202
1868.939
1871.676
1874.413
1877.150
1879.887
1882.624
1885.361
1888.098
1890.835
1893.572
1896.309
1899.046
1901.783
1904.520
1907.257
1909.994
1912.731
1915.468
1918.205
1920.942
1923.679
1926.416
1929.153
1931.890
1934.627
1937.364
1940.101
1942.838
1945.575
1948.312
1951.049
1953.786
1956.523
1959.260
1961.997
1964.734
1967.471
1970.208
1972.945
1975.682
1978.419
1981.156
1983.893
1986.630
1989.367
1992.104
1994.841
1997.578
2000.315
2003.052
2005.789
2008.526
2011.263
2014.000
2016.737
2019.474
2022.211
2024.948
2027.685
2030.422
2033.159
2035.896
2038.633
2041.370
2044.107
2046.844
2049.581
2052.318
2055.055
2057.792
2060.529
2063.266
2066.003
2068.740
2071.477
2074.214
2076.951
2079.688
2082.425
2085.162
2087.899
2090.636
2093.373
2096.110
2098.847
2101.584
2104.321
2107.058
2109.795
2112.532
2115.269
2118.006
107.143
107.143
107.143
107.143
107.143
107.143
107.143
107.143
107.143
107.143
107.143
107.143
107.143
107.143
107.143
107.143
107.143
107.143
107.143
107.143
107.143
107.143
107.143
107.143
107.143
107.143
107.143
107.143
107.143
107.143
107.143
107.143
107.143
107.143
107.143
107.143
107.143
107.143
107.143
107.143
107.143
107.143
107.143
107.143
107.143
107.143
107.143
107.143
107.143
107.143
107.143
107.143
107.143
107.143
107.143
107.143
107.143
107.143
107.143
107.143
107.143
107.143
107.143
107.143
107.143
107.143
107.143
107.143
107.143
107.143
107.143
107.143
107.143
107.143
107.143
107.143
107.143
107.143
107.143
107.143
107.143
107.143
107.143
107.143
107.143
107.143
107.143
107.143
107.143
107.143
107.143
107.143
107.143
107.143
107.143
107.143
107.143
107.143
107.143
107.143
107.143
107.143
107.143
107.143
107.143
107.143
107.143
107.143
107.143
107.143
107.143
107.143
107.143
107.143
107.143
107.143
107.143
107.143
107.143
107.143
107.143
107.143
107.143
107.143
107.143
107.143
107.143
107.143
107.143
107.143
107.143
107.143
107.143
107.143
107.143
107.143
107.143
107.143
107.143
107.143
107.143
107.143
107.143
107.143
107.143
107.143
107.143
107.143
107.143
107.143
107.143
107.143
107.143
107.143
107.143
107.143
107.143
107.143
107.143
107.143
107.143
107.143
107.143
107.143
107.143
107.143
107.143
107.143
107.143
107.143
107.143
107.143
107.143
107.143
107.143
107.143
107.143
107.143
107.143
107.143
107.143
107.143
107.143
107.143
107.143
107.143
107.143
107.143
107.143
107.143
107.143
107.143
107.143
107.143
107.143
107.143
107.143
107.143
107.143
107.143
107.143
107.119
107.094
107.070
107.045
107.021
106.996
106.972
106.947
106.923
106.898
106.874
106.849
106.825
106.800
106.776
106.751
106.727
106.702
106.678
106.653
106.629
106.604
106.580
106.555
106.531
106.506
106.482
106.457
106.433
106.408
106.384
106.359
106.335
106.310
106.286
106.261
106.237
106.212
106.188
106.163
106.139
106.114
106.090
106.065
106.041
106.016
105.992
105.967
105.943
105.918
105.894
105.869
105.845
105.820
105.796
105.771
105.747
105.722
105.698
105.673
105.649
105.624
105.600
105.575
105.551
105.526
105.502
105.477
105.453
105.428
105.404
105.379
105.355
105.330
105.306
105.281
105.257
105.232
105.208
105.183
105.159
105.134
105.110
105.085
105.061
105.036
105.012
104.987
104.963
104.938
104.914
104.889
104.865
104.840
104.816
104.791
104.767
104.742
104.718
104.693
104.669
104.644
104.620
104.595
104.571
104.546
104.522
104.497
104.473
104.448
104.424
104.399
104.375
104.350
104.326
104.301
104.277
104.252
104.228
104.203
104.179
104.154
104.130
104.105
104.081
104.056
104.032
104.007
103.983
103.958
103.934
103.909
103.885
103.860
103.836
103.811
103.787
103.762
103.738
103.713
103.689
103.664
103.640
103.615
103.591
103.566
103.542
103.517
103.493
103.468
103.444
103.419
103.395
103.370
103.346
103.321
103.297
103.272
103.248
103.223
103.199
103.174
103.150
103.125
103.101
103.076
103.052
103.027
103.003
102.978
102.954
102.929
102.905
102.880
102.856
102.831
102.807
102.782
102.758
102.733
102.709
102.684
102.660
102.635
102.611
102.586
102.562
102.537
102.513
102.488
102.464
102.439
102.415
102.390
102.366
102.341
102.317
102.292
102.268
102.243
102.243
102.243
102.243
102.243
102.243
102.243
102.243
102.243
102.243
102.243
102.243
102.243
102.243
102.243
102.243
102.243
102.243
102.243
102.243
102.243
102.243
102.243
102.243
102.243
102.243
102.243
102.243
102.243
102.243
102.243
102.243
102.243
102.243
102.243
102.243
102.243
102.243
102.243
102.243
102.243
102.243
102.243
102.243
102.243
102.243
102.243
102.243
102.243
102.243
102.243
102.243
102.243
102.243
102.243
102.243
102.243
102.243
102.243
102.243
102.243
102.243
102.243
102.243
102.243
102.243
102.243
102.243
102.243
102.243
102.243
102.243
102.243
102.243
102.243
102.243
102.243
102.243
102.243
102.243
102.243
102.243
102.243
102.243
102.243
102.243
102.243
102.243
102.243
102.243
102.243
102.243
102.243
102.243
102.243
102.243
102.243
102.243
102.243
102.243
102.243
102.243
102.243
102.243
102.243
102.243
102.243
102.243
102.243
102.243
102.243
102.243
102.243
102.243
102.243
102.243
102.243
102.243
102.243
102.243
102.243
102.243
102.243
102.243
102.243
102.243
102.243
102.243
102.243
102.243
102.243
102.243
102.243
102.243
102.243
102.243
102.243
102.243
102.243
102.243
102.243
102.243
102.243
102.243
102.243
102.243
102.243
102.243
102.243
102.243
102.243
102.243
102.243
102.243
102.243
102.243
102.243
102.243
102.243
102.243
102.243
102.243
102.243
102.243
102.243
102.243
102.243
102.243
102.243
102.243
102.243
102.243
102.243
102.243
102.243
102.243
102.243
102.243
102.243
102.243
102.243
102.243
102.243
102.243
102.243
102.243
102.243
102.243
102.243
102.243
102.243
102.243
102.243
102.243
102.243
102.243
102.243
102.243
102.243
102.243
102.243
102.268
102.292
102.317
102.341
102.366
102.390
102.415
102.439
102.464
102.488
102.513
102.537
102.562
102.586
102.611
102.635
102.660
102.684
102.709
102.733
102.758
102.782
102.807
102.831
102.856
102.880
102.905
102.929
102.954
102.978
103.003
103.027
103.052
103.076
103.101
103.125
103.150
103.174
103.199
103.223
103.248
103.272
103.297
103.321
103.346
103.370
103.395
103.419
103.444
103.468
103.493
103.517
103.542
103.566
103.591
103.615
103.640
103.664
103.689
103.713
103.738
103.762
103.787
103.811
103.836
103.860
103.885
103.909
103.934
103.958
103.983
104.007
104.032
104.056
104.081
104.105
104.130
104.154
104.179
104.203
104.228
104.252
104.277
104.301
104.326
104.350
104.375
104.399
104.424
104.448
104.473
104.497
104.522
104.546
104.571
104.595
104.620
104.644
104.669
104.693
104.718
104.742
104.767
104.791
104.816
104.840
104.865
104.889
104.914
104.938
104.963
104.987
105.012
105.036
105.061
105.085
105.110
105.134
105.159
105.183
105.208
105.232
105.257
105.281
105.306
105.330
105.355
105.379
105.404
105.428
105.453
105.477
105.502
105.526
105.551
105.575
105.600
105.624
105.649
105.673
105.698
105.722
105.747
105.771
105.796
105.820
105.845
105.869
105.894
105.918
105.943
105.967
105.992
106.016
106.041
106.065
106.090
106.114
106.139
106.163
106.188
106.212
106.237
106.261
106.286
106.310
106.335
106.359
106.384
106.408
106.433
106.457
106.482
106.506
106.531
106.555
106.580
106.604
106.629
106.653
106.678
106.702
106.727
106.751
106.776
106.800
106.825
106.849
106.874
106.898
106.923
106.947
106.972
106.996
107.021
107.045
107.070
107.094
107.119
107.143
107.119
107.094
107.070
107.045
107.021
106.996
106.972
106.947
106.923
106.898
106.874
106.849
106.825
106.800
106.776
106.751
106.727
106.702
106.678
106.653
106.629
106.604
106.580
106.555
106.531
106.506
106.482
106.457
106.433
106.408
106.384
106.359
106.335
106.310
106.286
106.261
106.237
106.212
106.188
106.163
106.139
106.114
106.090
106.065
106.041
106.016
105.992
105.967
105.943
105.918
105.894
105.869
105.845
105.820
105.796
105.771
105.747
105.722
105.698
105.673
105.649
105.624
105.600
105.575
105.551
105.526
105.502
105.477
105.453
105.428
105.404
105.379
105.355
105.330
105.306
105.281
105.257
105.232
105.208
105.183
105.159
105.134
105.110
105.085
105.061
105.036
105.012
104.987
104.963
104.938
104.914
104.889
104.865
104.840
104.816
104.791
104.767
104.742
104.718
104.693
104.669
104.644
104.620
104.595
104.571
104.546
104.522
104.497
104.473
104.448
104.424
104.399
104.375
104.350
104.326
104.301
104.277
