1809.959
1810.765
1811.572
1812.378
1813.185
1813.991
1814.798
1815.604
1816.411
1817.217
1818.024
1818.830
1819.637
1820.443
1821.250
1822.056
1822.863
1823.669
1824.476
1825.282
1826.089
1826.895
1827.702
1828.508
1829.315
1830.121
1830.928
1831.734
1832.541
1833.347
1834.154
1834.960
1835.767
1836.573
1837.380
1838.186
1838.993
1839.799
1840.606
1841.412
1842.219
1843.025
1843.832
1844.638
1845.445
1846.251
1847.058
1847.864
1848.671
1849.477
1850.284
1851.090
1851.897
1852.703
1853.510
1854.316
1855.123
1855.929
1856.736
1857.542
1858.349
1859.155
1859.962
1860.768
1861.575
1862.381
1863.188
1863.994
1864.801
1865.607
1866.414
1867.220
1868.027
1868.833
1869.640
1870.446
1871.253
1872.059
1872.866
1873.672
1874.479
1875.285
1876.092
1876.898
1877.705
1878.511
1879.318
1880.124
1880.931
1881.737
1882.544
1883.350
1884.157
1884.963
1885.770
1886.576
1887.383
1888.189
1888.996
1889.802
1890.609
1891.415
1892.222
1893.028
1893.835
1894.641
1895.448
1896.254
1897.061
1897.867
1898.674
1899.480
1900.287
1901.093
1901.900
1902.706
1903.513
1904.319
1905.126
1905.932
1906.739
1907.545
1908.352
1909.158
1909.965
1910.771
1911.578
1912.384
1913.191
1913.997
1914.804
1915.610
1916.417
1917.223
1918.030
1918.836
1919.643
1920.449
1921.256
1922.062
1922.869
1923.675
1924.482
1925.288
1926.095
1926.901
1927.708
1928.514
1929.321
1930.127
1930.934
1931.740
1932.547
1933.353
1934.160
1934.966
1935.773
1936.579
1937.386
1938.192
1938.999
1939.805
1940.612
1941.418
1942.225
1943.031
1943.838
1944.644
1945.451
1946.257
1947.064
1947.870
1948.677
1949.483
1950.290
1951.096
1951.903
1952.709
1953.516
1954.322
1955.129
1955.935
1956.742
1957.548
1958.355
1959.161
1959.968
1960.774
1961.581
1962.387
1963.194
1964.000
1964.807
1965.613
1966.420
1967.226
1968.033
1968.839
1969.646
1970.452
1971.527
1972.602
1973.677
1974.752
1975.827
1976.902
1977.977
1979.052
1980.127
1981.202
1982.277
1983.352
1984.427
1985.502
1986.577
1987.652
1988.727
1989.802
1990.877
1991.952
1993.027
1994.102
1995.177
1996.252
1997.327
1998.402
1999.477
2000.552
2001.627
2002.702
2003.777
2004.852
2005.927
2007.002
2008.077
2009.152
2010.227
2011.302
2012.377
2013.452
2014.527
2015.602
2016.677
2017.752
2018.827
2019.902
2020.977
2022.052
2023.127
2024.202
2025.277
2026.352
2027.427
2028.502
2029.577
2030.652
2031.727
2032.802
2033.877
2034.952
2036.027
2037.102
2038.177
2039.252
2040.327
2041.402
2042.477
2043.552
2044.627
2045.702
2046.777
2047.852
2048.927
2050.002
2051.077
2052.152
2053.227
2054.302
2055.377
2056.452
2057.527
2058.602
2059.677
2060.752
2061.827
2062.902
2063.977
2065.052
2066.127
2067.202
2068.277
2069.352
2070.427
2071.502
2072.577
2073.652
2074.727
2075.802
2076.877
2077.952
2079.027
2080.102
2081.177
2082.252
2083.327
2084.402
2085.477
2086.552
2087.627
2088.702
2089.777
2090.852
2091.927
2093.002
2094.077
2095.152
2096.227
2097.302
2098.377
2099.452
2100.527
2101.602
2102.677
2103.752
2104.827
2105.902
2106.977
2108.052
2109.127
2110.202
2111.277
2112.352
2113.427
2114.502
2115.577
2116.652
2117.727
2118.802
2119.877
2120.952
2122.027
2123.102
2124.177
2125.252
2126.327
2127.402
2128.477
2129.552
2130.627
2131.702
2132.777
2133.852
2134.927
2136.002
2137.077
2138.152
2139.227
2140.302
2141.377
2142.452
2143.527
2144.602
2145.677
2146.752
2147.827
2148.902
2149.977
2151.052
2152.127
2153.202
2154.277
2155.352
2156.427
2157.502
2158.577
2159.652
2160.727
2161.802
2162.877
2163.952
2165.027
2166.102
2167.177
2168.252
2169.327
2170.402
2171.477
2172.552
2173.627
2174.702
2175.777
2176.852
2177.927
2179.002
2180.077
2181.152
2182.227
2183.302
2184.377
2185.452
2185.061
2184.670
2184.279
2183.888
2183.497
2183.106
2182.715
2182.324
2181.933
2181.542
2181.151
2180.760
2180.369
2179.978
2179.587
2179.196
2178.805
2178.414
2178.023
2177.632
2177.241
2176.850
2176.459
2176.068
2175.677
2175.286
2174.895
2174.504
2174.113
2173.722
2173.331
2172.940
2172.549
2172.158
2171.767
2171.376
2170.985
2170.594
2170.203
2169.812
2169.421
2169.030
2168.639
2168.248
2167.857
2167.466
2167.075
2166.684
2166.293
2165.902
2165.511
2165.120
2164.729
2164.338
2163.947
2163.556
2163.165
2162.774
2162.383
2161.992
2161.601
2161.210
2160.819
2160.428
2160.037
2159.646
2159.255
2158.864
2158.473
2158.082
2157.691
2157.300
2156.909
2156.518
2156.127
2155.736
2155.345
2154.954
2154.563
2154.172
2153.781
2153.390
2152.999
2152.608
2152.217
2151.826
2151.435
2151.044
2150.653
2150.262
2149.871
2149.480
2149.089
2148.698
2148.307
2147.916
2147.525
2147.134
2146.743
2146.352
2145.961
2145.570
2145.179
2144.788
2144.397
2144.006
2143.615
2143.224
2142.833
2142.442
2142.051
2141.660
2141.269
2140.878
2140.487
2140.096
2139.705
2139.314
2138.923
2138.532
2138.141
2137.750
2137.359
2136.968
2136.577
2136.186
2135.795
2135.404
2135.013
2134.622
2134.231
2133.840
2133.449
2133.058
2132.667
2132.276
2131.885
2131.494
2131.103
2130.712
2130.321
2129.930
2129.539
2129.148
2128.757
2128.366
2127.975
2127.584
2127.193
2126.802
2126.411
2126.020
2125.629
2125.238
2124.847
2124.456
2124.065
2123.674
2123.283
2122.892
2122.501
2122.110
2121.719
2121.328
2120.937
2120.546
2120.155
2119.764
2119.373
2118.982
2118.591
2118.200
2117.809
2117.418
2117.027
2116.636
2116.245
2115.854
2115.463
2115.072
2114.681
2114.290
2113.899
2113.508
2113.117
2112.726
2112.335
2111.944
2111.553
2111.162
2110.771
2110.380
2109.989
2109.598
2109.207
2108.816
2108.425
2108.034
2107.643
2107.252
2106.519
2105.786
2105.053
2104.320
2103.587
2102.854
2102.121
2101.388
2100.655
2099.922
2099.189
2098.456
2097.723
2096.990
2096.257
2095.524
2094.791
2094.058
2093.325
2092.592
2091.859
2091.126
2090.393
2089.660
2088.927
2088.194
2087.461
2086.728
2085.995
2085.262
2084.529
2083.796
2083.063
2082.330
2081.597
2080.864
2080.131
2079.398
2078.665
2077.932
2077.199
2076.466
2075.733
2075.000
2074.267
2073.534
2072.801
2072.068
2071.335
2070.602
2069.869
2069.136
2068.403
2067.670
2066.937
2066.204
2065.471
2064.738
2064.005
2063.272
2062.539
2061.806
2061.073
2060.340
2059.607
2058.874
2058.141
2057.408
2056.675
2055.942
2055.209
2054.476
2053.743
2053.010
2052.277
2051.544
2050.811
2050.078
2049.345
2048.612
2047.879
2047.146
2046.413
2045.680
2044.947
2044.214
2043.481
2042.748
2042.015
2041.282
2040.549
2039.816
2039.083
2038.350
2037.617
2036.884
2036.151
2035.418
2034.685
2033.952
2033.219
2032.486
2031.753
2031.020
2030.287
2029.554
2028.821
2028.088
2027.355
2026.622
2025.889
2025.156
2024.423
2023.690
2022.957
2022.224
2021.491
2020.758
2020.025
2019.292
2018.559
2017.826
2017.093
2016.360
2015.627
2014.894
2014.161
2013.428
2012.695
2011.962
2011.229
2010.496
2009.763
2009.030
2008.297
2007.564
2006.831
2006.098
2005.365
2004.632
2003.899
2003.166
2002.433
2001.700
2000.967
2000.234
1999.501
1998.768
1998.035
1997.302
1996.569
1995.836
1995.103
1994.370
1993.637
1992.904
1992.171
1991.438
1990.705
1989.972
1989.239
1988.506
1987.773
1987.040
1986.307
1985.574
1984.841
1984.108
1983.375
1982.642
1981.909
1981.176
1980.443
1979.710
1978.977
1978.244
1977.511
1976.778
1976.045
1975.312
1974.579
1973.846
1973.113
1972.380
1971.647
1970.914
1970.181
1969.448
1968.715
1967.982
1967.249
1966.516
1965.783
1965.050
1964.317
1963.584
1962.851
1962.118
1961.385
1960.652
1958.746
1956.840
1954.934
1953.028
1951.122
1949.216
1947.310
1945.404
1943.498
1941.592
1939.686
1937.780
1935.874
1933.968
1932.062
1930.156
1928.250
1926.344
1924.438
1922.532
1920.626
1918.720
1916.814
1914.908
1913.002
1911.096
1909.190
1907.284
1905.378
1903.472
1901.566
1899.660
1897.754
1895.848
1893.942
1892.036
1890.130
1888.224
1886.318
1884.412
1882.506
1880.600
1878.694
1876.788
1874.882
1872.976
1871.070
1869.164
1867.258
1865.352
1863.446
1861.540
1859.634
1857.728
1855.822
1853.916
1852.010
1850.104
1848.198
1846.292
1844.386
1842.480
1840.574
1838.668
1836.762
1834.856
1832.950
1831.044
1829.138
1827.232
1825.326
1823.420
1821.514
1819.608
1817.702
1815.796
1813.890
1811.984
1810.078
1808.172
1806.266
1804.360
1802.454
1800.548
1798.642
1796.736
1794.830
1792.924
1791.018
1789.112
1787.206
1785.300
1783.394
1781.488
1779.582
1777.676
1775.770
1773.864
1771.958
1770.052
1768.146
1766.240
1764.334
1762.428
1760.522
1758.616
1756.710
1754.804
1752.898
1750.992
1749.086
1747.180
1745.274
1743.368
1741.462
1739.556
1737.650
1735.744
1733.838
1731.932
1730.026
1728.120
1726.214
1724.308
1722.402
1720.496
1718.590
1716.684
1714.778
1712.872
1710.966
1709.060
1707.154
1705.248
1703.342
1701.436
1699.530
1697.624
1695.718
1693.812
1691.906
1690.000
1688.094
1686.188
1684.282
1682.376
1680.470
1678.564
1676.658
1674.752
1672.846
1670.940
1669.034
1667.128
1665.222
1663.316
1661.410
1659.504
1657.598
1655.692
1653.786
1651.880
1649.974
1648.068
1646.162
1644.256
1642.350
1640.444
1638.538
1636.632
1634.726
1632.820
1630.914
1629.008
1627.102
1625.196
1623.290
1621.384
1619.478
1617.572
1615.666
1613.760
1611.854
1609.948
1608.042
1606.136
1604.230
1602.324
1600.418
1598.512
1596.606
1594.700
1592.794
1590.888
1588.982
1587.076
1585.170
1583.264
1581.358
1579.452
1579.232
1579.012
1578.792
1578.572
1578.352
1578.132
1577.912
1577.692
1577.472
1577.252
1577.032
1576.812
1576.592
1576.372
1576.152
1575.932
1575.712
1575.492
1575.272
1575.052
1574.832
1574.612
1574.392
1574.172
1573.952
1573.732
1573.512
1573.292
1573.072
1572.852
1572.632
1572.412
1572.192
1571.972
1571.752
1571.532
1571.312
1571.092
1570.872
1570.652
1570.432
1570.212
1569.992
1569.772
1569.552
1569.332
1569.112
1568.892
1568.672
1568.452
1568.232
1568.012
1567.792
1567.572
1567.352
1567.132
1566.912
1566.692
1566.472
1566.252
1566.032
1565.812
1565.592
1565.372
1565.152
1564.932
1564.712
1564.492
1564.272
1564.052
1563.832
1563.612
1563.392
1563.172
1562.952
1562.732
1562.512
1562.292
1562.072
1561.852
1561.632
1561.412
1561.192
1560.972
1560.752
1560.532
1560.312
1560.092
1559.872
1559.652
1559.432
1559.212
1558.992
1558.772
1558.552
1558.332
1558.112
1557.892
1557.672
1557.452
1557.232
1557.012
1556.792
1556.572
1556.352
1556.132
1555.912
1555.692
1555.472
1555.252
1555.032
1554.812
1554.592
1554.372
1554.152
1553.932
1553.712
1553.492
1553.272
1553.052
1552.832
1552.612
1552.392
1552.172
1551.952
1551.732
1551.512
1551.292
1551.072
1550.852
1550.632
1550.412
1550.192
1549.972
1549.752
1549.532
1549.312
1549.092
1548.872
1548.652
1548.432
1548.212
1547.992
1547.772
1547.552
1547.332
1547.112
1546.892
1546.672
1546.452
1546.232
1546.012
1545.792
1545.572
1545.352
1545.132
1544.912
1544.692
1544.472
1544.252
1544.032
1543.812
1543.592
1543.372
1543.152
1542.932
1542.712
1542.492
1542.272
1542.052
1541.832
1541.612
1541.392
1541.172
1540.952
1540.732
1540.512
1540.292
1540.072
1539.852
1539.632
1539.412
1539.192
1538.972
1538.752
1538.532
1538.312
1538.092
1537.872
1537.652
1537.432
1537.212
1536.992
1536.772
1536.552
1536.332
1536.112
1535.892
1535.672
1535.452
1538.727
1542.001
1545.276
1548.550
1551.825
1555.099
1558.374
1561.648
1564.923
1568.197
1571.472
1574.746
1578.021
1581.295
1584.570
1587.844
1591.119
1594.393
1597.668
1600.942
1604.217
1607.491
1610.766
1614.040
1617.315
1620.589
1623.864
1627.138
1630.413
1633.687
1636.962
1640.236
1643.511
1646.785
1650.060
1653.334
1656.609
1659.883
1663.158
1666.432
1669.707
1672.981
1676.256
1679.530
1682.805
1686.079
1689.354
1692.628
1695.903
1699.177
1702.452
1705.726
1709.001
1712.275
1715.550
1718.824
1722.099
1725.373
1728.648
1731.922
1735.197
1738.471
1741.746
1745.020
1748.295
1751.569
1754.844
1758.118
1761.393
1764.667
1767.942
1771.216
1774.491
1777.765
1781.040
1784.314
1787.589
1790.863
1794.138
1797.412
1800.687
1803.961
1807.236
1810.510
1813.785
1817.059
1820.334
1823.608
1826.883
1830.157
1833.432
1836.706
1839.981
1843.255
1846.530
1849.804
1853.079
1856.353
1859.628
1862.902
1866.177
1869.451
1872.726
1876.000
1879.275
1882.549
1885.824
1889.098
1892.373
1895.647
1898.922
1902.196
1905.471
1908.745
1912.020
1915.294
1918.569
1921.843
1925.118
1928.392
1931.667
1934.941
1938.216
1941.490
1944.765
1948.039
1951.314
1954.588
1957.863
1961.137
1964.412
1967.686
1970.961
1974.235
1977.510
1980.784
1984.059
1987.333
1990.608
1993.882
1997.157
2000.431
2003.706
2006.980
2010.255
2013.529
2016.804
2020.078
2023.353
2026.627
2029.902
2033.176
2036.451
2039.725
2043.000
2046.274
2049.549
2052.823
2056.098
2059.372
2062.647
2065.921
2069.196
2072.470
2075.745
2079.019
2082.294
2085.568
2088.843
2092.117
2095.392
2098.666
2101.941
2105.215
2108.490
2111.764
2115.039
2118.313
2121.588
2124.862
2128.137
2131.411
2134.686
2137.960
2141.235
2144.509
2147.784
2151.058
2154.333
2157.607
2160.882
2164.156
2167.431
2170.705
2173.980
2177.254
2180.529
2183.803
2187.078
2190.352
2188.226
2186.100
2183.974
2181.848
2179.722
2177.596
2175.470
2173.344
2171.218
2169.092
2166.966
2164.840
2162.714
2160.588
2158.462
2156.336
2154.210
2152.084
2149.958
2147.832
2145.706
2143.580
2141.454
2139.328
2137.202
2135.076
2132.950
2130.824
2128.698
2126.572
2124.446
2122.320
2120.194
2118.068
2115.942
2113.816
2111.690
2109.564
2107.438
2105.312
2103.186
2101.060
2098.934
2096.808
2094.682
2092.556
2090.430
2088.304
2086.178
2084.052
2081.926
2079.800
2077.674
2075.548
2073.422
2071.296
2069.170
2067.044
2064.918
2062.792
2060.666
2058.540
2056.414
2054.288
2052.162
2050.036
2047.910
2045.784
2043.658
2041.532
2039.406
2037.280
2035.154
2033.028
2030.902
2028.776
2026.650
2024.524
2022.398
2020.272
2018.146
2016.020
2013.894
2011.768
2009.642
2007.516
2005.390
2003.264
2001.138
1999.012
1996.886
1994.760
1992.634
1990.508
1988.382
1986.256
1984.130
1982.004
1979.878
1977.752
1975.626
1973.500
1971.374
1969.248
1967.122
1964.996
1962.870
1960.744
1958.618
1956.492
1954.366
1952.240
1950.114
1947.988
1945.862
1943.736
1941.610
1939.484
1937.358
1935.232
1933.106
1930.980
1928.854
1926.728
1924.602
1922.476
1920.350
1918.224
1916.098
1913.972
1911.846
1909.720
1907.594
1905.468
1903.342
1901.216
1899.090
1896.964
1894.838
1892.712
1890.586
1888.460
1886.334
1884.208
1882.082
1879.956
1877.830
1875.704
1873.578
1871.452
1869.326
1867.200
1865.074
1862.948
1860.822
1858.696
1856.570
1854.444
1852.318
1850.192
1848.066
1845.940
1843.814
1841.688
1839.562
1837.436
1835.310
1833.184
1831.058
1828.932
1826.806
1824.680
1822.554
1820.428
1818.302
1816.176
1814.050
1811.924
1809.798
1807.672
1805.546
1803.420
1801.294
1799.168
1797.042
1794.916
1792.790
1790.664
1788.538
1786.412
1784.286
1782.160
1780.034
1777.908
1775.782
1773.656
1771.530
1769.404
1767.278
83.852
83.852
83.852
83.852
83.852
83.852
83.852
83.852
83.852
83.852
83.852
83.852
83.852
83.852
83.852
83.852
83.852
83.852
83.852
83.852
83.852
83.852
83.852
83.852
83.852
83.852
83.852
83.852
83.852
83.852
83.852
83.852
83.852
83.852
83.852
83.852
83.852
83.852
83.852
83.852
83.852
83.852
83.852
83.852
83.852
83.852
83.852
83.852
83.852
83.852
83.852
83.852
83.852
83.852
83.852
83.852
83.852
83.852
83.852
83.852
83.852
83.852
83.852
83.852
83.852
83.852
83.852
83.852
83.852
83.852
83.852
83.852
83.852
83.852
83.852
83.852
83.852
83.852
83.852
83.852
83.852
83.852
83.852
83.852
83.852
83.852
83.852
83.852
83.852
83.852
83.852
83.852
83.852
83.852
83.852
83.852
83.852
83.852
83.852
83.852
83.852
83.852
83.852
83.852
83.852
83.852
83.852
83.852
83.852
83.852
83.852
83.852
83.852
83.852
83.852
83.852
83.852
83.852
83.852
83.852
83.852
83.852
83.852
83.852
83.852
83.852
83.852
83.852
83.852
83.852
83.852
83.852
83.852
83.852
83.852
83.852
83.852
83.852
83.852
83.852
83.852
83.852
83.852
83.852
83.852
83.852
83.852
83.852
83.852
83.852
83.852
83.852
83.852
83.852
83.852
83.852
83.852
83.852
83.852
83.852
83.852
83.852
83.852
83.852
83.852
83.852
83.852
83.852
83.852
83.852
83.852
83.852
83.852
83.852
83.852
83.852
83.852
83.852
83.852
83.852
83.852
83.852
83.852
83.852
83.852
83.852
83.852
83.852
83.852
83.852
83.852
83.852
83.852
83.852
83.852
83.852
83.852
83.852
83.852
83.852
83.852
83.852
83.852
83.852
83.852
83.852
83.852
83.852
83.852
83.852
83.852
83.852
83.852
83.852
83.852
83.852
83.852
83.852
83.852
83.852
83.852
83.852
83.852
83.852
83.852
83.852
83.852
83.852
83.852
83.852
83.852
83.852
83.852
83.852
83.852
83.852
83.852
83.852
83.852
83.852
83.852
83.852
83.852
83.852
83.852
83.852
83.852
83.852
83.852
83.852
83.852
83.852
83.852
83.852
83.852
83.852
83.852
83.852
83.852
83.852
83.852
83.852
83.852
83.852
83.852
83.852
83.852
83.852
83.852
83.852
83.852
83.852
83.852
83.852
83.852
83.852
83.852
83.852
83.852
83.852
83.852
83.852
83.852
83.852
83.852
83.852
83.852
83.852
83.852
83.852
83.852
83.852
83.852
83.852
83.852
83.852
83.852
83.852
83.852
83.852
83.852
83.852
83.852
83.852
83.852
83.852
83.852
83.852
83.852
83.852
83.852
83.852
83.852
83.852
83.852
83.852
83.852
83.852
83.852
83.852
83.852
83.852
83.852
83.852
83.852
83.852
83.852
83.852
83.852
83.852
83.852
83.852
83.852
83.852
83.852
83.852
83.852
83.852
83.852
83.852
83.852
83.852
83.852
83.852
83.852
83.852
83.852
83.852
83.852
83.852
83.852
83.852
83.852
83.852
83.852
83.852
83.852
83.852
83.852
83.852
83.852
83.852
83.852
83.852
83.852
83.852
83.852
83.852
83.852
83.852
83.852
83.852
83.852
83.852
83.852
83.852
83.852
83.852
83.852
83.852
83.852
83.852
83.852
83.852
83.852
83.852
83.852
83.852
83.852
83.852
83.852
83.852
83.852
83.852
83.852
83.852
83.852
83.852
83.852
83.852
83.852
