2319.377
2320.061
2320.745
2321.429
2322.113
2322.797
2323.481
2324.165
2324.849
2325.533
2326.217
2326.901
2327.585
2328.269
2328.953
2329.637
2330.321
2331.005
2331.689
2332.373
2333.057
2333.741
2334.425
2335.109
2335.793
2336.477
2337.161
2337.845
2338.529
2339.213
2339.897
2340.581
2341.265
2341.949
2342.633
2343.317
2344.001
2344.685
2345.369
2346.053
2346.737
2345.344
2343.951
2342.558
2341.165
2339.772
2338.379
2336.986
2335.593
2334.200
2332.807
2331.414
2330.021
2328.628
2327.235
2325.842
2324.449
2323.056
2321.663
2320.270
2318.877
2317.484
2316.091
2314.698
2313.305
2311.912
2310.519
2309.126
2307.733
2306.340
2304.947
2303.554
2302.161
2300.768
2299.375
2297.982
2296.589
2295.196
2293.803
2292.410
2291.017
2289.624
2288.231
2286.838
2285.445
2284.052
2282.659
2281.266
2279.873
2278.480
2277.087
2275.694
2274.301
2272.908
2271.515
2270.122
2268.729
2267.336
2265.943
2264.550
2263.157
2261.764
2260.371
2258.978
2257.585
2256.192
2254.799
2253.406
2252.013
2250.620
2249.227
2247.834
2246.441
2245.048
2243.655
2242.262
2240.869
2239.476
2238.083
2236.690
2235.297
2233.904
2232.511
2231.118
2229.725
2228.332
2226.939
2225.546
2224.153
2222.760
2221.367
2219.974
2218.581
2217.188
2215.795
2214.402
2213.009
2211.616
2210.223
2208.830
2207.437
2206.044
2204.651
2203.258
2201.865
2200.472
2199.079
2197.686
2196.293
2194.900
2193.507
2192.114
2190.721
2189.328
2187.935
2186.542
2185.149
2183.756
2182.363
2180.970
2179.577
2178.184
2176.791
2175.398
2174.005
2172.612
2171.219
2169.826
2168.433
2167.040
2165.647
2164.254
2162.861
2161.468
2160.075
2158.682
2157.289
2155.896
2154.503
2153.110
2151.717
2150.324
2148.931
2147.538
2146.145
2144.752
2143.359
2141.966
2140.573
2139.180
2137.787
2136.394
2135.001
2133.608
2132.215
2130.822
2129.429
2128.036
2126.643
2125.250
2123.857
2122.464
2121.071
2119.678
2118.285
2116.892
2115.499
2114.106
2112.713
2111.320
2109.927
2108.534
2107.141
2105.748
2104.355
2102.962
2101.569
2100.176
2098.783
2097.390
2095.997
2094.604
2093.211
2091.818
2090.425
2089.032
2087.639
2086.246
2084.853
2083.460
2082.067
2080.674
2079.281
2077.888
2076.495
2075.102
2073.709
2072.316
2070.923
2069.530
2068.137
2067.844
2067.551
2067.258
2066.965
2066.672
2066.379
2066.086
2065.793
2065.500
2065.207
2064.914
2064.621
2064.328
2064.035
2063.742
2063.449
2063.156
2062.863
2062.570
2062.277
2061.984
2061.691
2061.398
2061.105
2060.812
2060.519
2060.226
2059.933
2059.640
2059.347
2059.054
2058.761
2058.468
2058.175
2057.882
2057.589
2057.296
2057.003
2056.710
2056.417
2056.124
2055.831
2055.538
2055.245
2054.952
2054.659
2054.366
2054.073
2053.780
2053.487
2053.194
2052.901
2052.608
2052.315
2052.022
2051.729
2051.436
2051.143
2050.850
2050.557
2050.264
2049.971
2049.678
2049.385
2049.092
2048.799
2048.506
2048.213
2047.920
2047.627
2047.334
2047.041
2046.748
2046.455
2046.162
2045.869
2045.576
2045.283
2044.990
2044.697
2044.404
2044.111
2043.818
2043.525
2043.232
2042.939
2042.646
2042.353
2042.060
2041.767
2041.474
2041.181
2040.888
2040.595
2040.302
2040.009
2039.716
2039.423
2039.130
2038.837
2038.544
2038.251
2037.958
2037.665
2037.372
2037.079
2036.786
2036.493
2036.200
2035.907
2035.614
2035.321
2035.028
2034.735
2034.442
2034.149
2033.856
2033.563
2033.270
2032.977
2032.684
2032.391
2032.098
2031.805
2031.512
2031.219
2030.926
2030.633
2030.340
2030.047
2029.754
2029.461
2029.168
2028.875
2028.582
2028.289
2027.996
2027.703
2027.410
2027.117
2026.824
2026.531
2026.238
2025.945
2025.652
2025.359
2025.066
2024.773
2024.480
2024.187
2023.894
2023.601
2023.308
2023.015
2022.722
2022.429
2022.136
2021.843
2021.550
2021.257
2020.964
2020.671
2020.378
2020.085
2019.792
2019.499
2019.206
2018.913
2018.620
2018.327
2018.034
2017.741
2017.448
2017.155
2016.862
2016.569
2016.276
2015.983
2015.690
2015.397
2015.104
2014.811
2014.518
2014.225
2013.932
2013.639
2013.346
2013.053
2012.760
2012.467
2012.174
2011.881
2011.588
2011.295
2011.002
2010.709
2010.416
2010.123
2009.830
2009.537
2001.863
1994.190
1986.516
1978.843
1971.169
1963.496
1955.822
1948.149
1940.475
1932.802
1925.128
1917.455
1909.781
1902.108
1894.434
1886.761
1879.087
1871.414
1863.740
1856.067
1848.393
1840.720
1833.046
1825.373
1817.699
1810.026
1802.352
1794.679
1787.005
1779.332
1771.658
1763.985
1756.311
1748.638
1740.964
1733.291
1725.617
1717.944
1710.270
1702.597
1694.923
1687.250
1679.576
1671.903
1664.229
1656.556
1648.882
1641.209
1633.535
1625.862
1618.188
1610.515
1602.841
1595.168
1587.494
1579.821
1572.147
1564.474
1556.800
1549.127
1541.453
1533.780
1526.106
1518.433
1510.759
1503.086
1495.412
1487.739
1480.065
1472.392
1464.718
1457.045
1449.371
1441.698
1434.024
1426.351
1418.677
1411.004
1403.330
1395.657
1387.983
1380.310
1372.636
1364.963
1357.289
1349.616
1341.942
1334.269
1326.595
1318.922
1311.248
1303.575
1295.901
1288.228
1280.554
1272.881
1265.207
1257.534
1249.860
1242.187
1234.513
1226.840
1219.166
1211.493
1203.819
1196.146
1188.472
1180.799
1173.125
1165.452
1157.778
1150.105
1142.431
1134.758
1127.084
1119.411
1111.737
1104.064
1096.390
1088.717
1081.043
1073.370
1065.696
1058.023
1050.349
1042.676
1035.002
1027.329
1019.655
1011.982
1004.308
996.635
988.961
981.288
973.614
965.941
958.267
950.594
942.920
935.247
927.573
919.900
912.226
904.553
896.879
889.206
881.532
873.859
866.185
858.512
850.838
843.165
835.491
827.818
820.144
812.471
804.797
797.124
789.450
781.777
774.103
766.430
758.756
751.083
743.409
735.736
728.062
720.389
712.715
705.042
697.368
689.695
682.021
674.348
666.674
659.001
651.327
643.654
635.980
628.307
620.633
612.960
605.286
597.613
589.939
582.266
574.592
566.919
559.245
551.572
543.898
536.225
528.551
520.878
513.204
505.531
497.857
490.184
482.510
83.837
83.837
83.837
83.837
83.837
83.837
83.837
83.837
83.837
83.837
83.837
83.837
83.837
83.837
83.837
83.837
83.837
83.837
83.837
83.837
83.837
83.837
83.837
83.837
83.837
83.837
83.837
83.837
83.837
83.837
83.837
83.837
83.837
83.837
83.837
83.837
83.837
83.837
83.837
83.837
83.837
83.837
83.837
83.837
83.837
83.837
83.837
83.837
83.837
83.837
83.837
83.837
83.837
83.837
83.837
83.837
83.837
83.837
83.837
83.837
83.837
83.837
83.837
83.837
83.837
83.837
83.837
83.837
83.837
83.837
83.837
83.837
83.837
83.837
83.837
83.837
83.837
83.837
83.837
83.837
83.837
83.837
83.837
83.837
83.837
83.837
83.837
83.837
83.837
83.837
83.837
83.837
83.837
83.837
83.837
83.837
83.837
83.837
83.837
83.837
83.837
83.837
83.837
83.837
83.837
83.837
83.837
83.837
83.837
83.837
83.837
83.837
83.837
83.837
83.837
83.837
83.837
83.837
83.837
83.837
83.837
83.837
83.837
83.837
83.837
83.837
83.837
83.837
83.837
83.837
83.837
83.837
83.837
83.837
83.837
83.837
83.837
83.837
83.837
83.837
83.837
83.837
83.837
83.837
83.837
83.837
83.837
83.837
83.837
83.837
83.837
83.837
83.837
83.837
83.837
83.837
83.837
83.837
83.837
83.837
83.837
83.837
83.837
83.837
83.837
83.837
83.837
83.837
83.837
83.837
83.837
83.837
83.837
83.837
83.837
83.837
83.837
83.837
83.837
83.837
83.837
83.837
83.837
83.837
83.837
83.837
83.837
83.837
83.837
83.837
83.837
83.837
83.837
83.837
83.837
83.837
83.837
83.837
83.837
83.837
83.837
83.837
83.837
83.837
83.837
83.837
83.837
83.837
83.837
83.837
83.837
83.837
83.837
83.837
83.837
83.837
83.837
83.837
83.837
83.837
83.837
83.837
83.837
83.837
83.837
83.837
83.837
83.837
83.837
83.837
83.837
83.837
83.837
83.837
83.837
83.837
83.837
83.837
83.837
83.837
83.837
83.837
83.837
83.837
83.837
83.837
83.837
83.837
83.837
83.837
83.837
83.837
83.837
83.837
83.837
83.837
83.837
83.837
83.837
83.837
83.837
83.837
83.837
83.837
83.837
83.837
83.837
83.837
83.837
83.837
83.837
83.837
83.837
83.837
83.837
83.837
83.837
83.837
83.837
83.837
83.837
83.837
83.837
83.837
83.837
83.837
83.837
83.837
83.837
83.837
83.837
83.837
83.837
83.837
83.837
83.837
83.837
83.837
83.837
83.837
83.837
83.837
83.837
83.837
83.837
83.837
83.837
83.837
83.837
83.837
83.837
83.837
83.837
83.837
83.837
83.837
83.837
83.837
83.837
83.837
83.837
83.837
83.837
83.837
83.837
83.837
83.837
83.837
83.837
83.837
83.837
83.837
83.837
83.837
83.837
83.837
83.837
83.837
83.837
83.837
83.837
83.837
83.837
83.837
83.837
83.837
83.837
83.837
83.837
83.837
83.837
83.837
83.837
83.837
83.837
83.837
83.837
83.837
83.837
83.837
83.837
83.837
83.837
83.837
83.837
83.837
83.837
83.837
83.837
83.837
83.837
83.837
83.837
83.837
83.837
83.837
83.837
83.837
83.837
83.837
83.837
83.837
83.837
83.837
83.837
83.837
83.837
83.837
83.837
83.837
83.837
83.837
83.837
83.837
83.837
83.837
83.837
83.837
83.837
83.837
83.837
83.837
83.837
83.837
83.837
83.837
83.837
83.837
83.837
83.837
83.837
83.837
83.837
83.837
83.837
83.837
83.837
83.837
83.837
83.837
83.837
83.837
83.837
83.837
83.837
83.837
83.837
83.837
83.837
83.837
83.837
83.837
83.837
83.837
83.837
83.837
83.837
83.837
83.837
83.837
83.837
83.837
83.837
83.837
83.837
83.837
83.837
83.837
83.837
83.837
83.837
83.837
83.837
83.837
83.837
83.837
83.837
83.837
83.837
83.837
83.837
83.837
83.837
83.837
83.837
83.837
83.837
83.837
83.837
83.837
83.837
83.837
83.837
83.837
83.837
83.837
83.837
83.837
83.837
83.837
83.837
83.837
83.837
83.837
83.837
83.837
83.837
83.837
83.837
83.837
83.837
83.837
83.837
83.837
83.837
83.837
83.837
83.837
83.837
83.837
83.837
83.837
83.837
83.837
83.837
83.837
83.837
83.837
83.837
83.837
83.837
83.837
83.837
83.837
83.837
83.837
83.837
83.837
83.837
83.837
83.837
83.837
83.837
83.837
83.837
83.837
83.837
83.837
83.837
83.837
83.837
83.837
83.837
83.837
83.837
83.837
83.837
83.837
83.837
83.837
83.837
83.837
83.837
83.837
83.837
83.837
83.837
83.837
83.837
83.837
83.837
83.837
83.837
83.837
83.837
83.837
83.837
83.837
83.837
83.837
83.837
83.837
83.837
83.837
83.837
83.837
83.837
83.837
83.837
83.837
83.837
83.837
83.837
83.837
83.837
83.837
83.837
83.837
83.837
83.837
83.837
83.837
83.837
83.837
83.837
83.837
83.837
83.837
83.837
83.837
83.837
83.837
83.837
83.837
83.837
83.837
83.837
83.837
83.837
83.837
83.837
83.837
83.837
83.837
83.837
83.837
83.837
83.837
83.837
83.837
83.837
83.837
83.837
83.837
83.837
83.837
83.837
83.837
83.837
83.837
83.837
83.837
83.837
83.837
83.837
83.837
83.837
83.837
83.837
83.837
83.837
83.837
83.837
83.837
83.837
83.837
83.837
83.837
83.837
83.837
83.837
83.837
83.837
83.837
83.837
83.837
83.837
83.837
83.837
83.837
83.837
83.837
83.837
83.837
83.837
83.837
83.837
83.837
83.837
83.837
83.837
83.837
83.837
83.837
83.837
83.837
83.837
83.837
83.837
83.837
83.837
83.837
83.837
83.837
83.837
83.837
83.837
83.837
83.837
83.837
83.837
83.837
83.837
83.837
83.837
83.837
83.837
83.837
83.837
83.837
83.837
83.837
83.837
83.837
83.837
83.837
83.837
83.837
83.837
83.837
83.837
83.837
83.837
83.837
83.837
83.837
83.837
83.837
83.837
83.837
83.837
83.837
83.837
83.837
83.837
83.837
83.837
83.837
83.837
83.837
83.837
83.837
83.837
83.837
83.837
83.837
83.837
83.837
83.837
83.837
83.837
83.837
83.837
83.837
83.837
83.837
83.837
83.837
83.837
83.837
83.837
83.837
83.837
83.837
83.837
83.837
83.837
83.837
83.837
83.837
83.837
83.837
83.837
83.837
83.837
83.837
83.837
83.837
83.837
83.837
83.837
83.837
83.837
83.837
83.837
83.837
83.837
83.837
83.837
83.837
83.837
83.837
83.837
83.837
83.837
83.837
83.837
83.837
83.837
83.837
83.837
83.837
83.837
83.837
83.837
83.837
83.837
83.837
83.837
83.837
83.837
83.837
83.837
83.837
83.837
83.837
83.837
83.837
83.837
83.837
83.837
83.837
83.837
83.837
83.837
83.837
83.837
83.837
83.837
83.837
83.837
83.837
83.837
83.837
83.837
83.837
83.837
83.837
83.837
83.837
83.837
83.837
83.837
83.837
83.837
83.837
83.837
83.837
83.837
83.837
83.837
83.837
83.837
83.837
83.837
83.837
83.837
83.837
83.837
83.837
83.837
83.837
83.837
83.837
83.837
83.837
83.837
83.837
83.837
83.837
83.837
83.837
83.837
83.837
83.837
83.837
83.837
83.837
83.837
83.837
83.837
83.837
83.837
83.837
83.837
83.837
83.837
83.837
83.837
83.837
83.837
83.837
83.837
83.837
83.837
83.837
83.837
83.837
83.837
83.837
83.837
83.837
83.837
83.837
83.837
83.837
83.837
83.837
83.837
83.837
83.837
83.837
83.837
83.837
83.837
83.837
83.837
83.837
83.837
83.837
83.837
83.837
83.837
83.837
83.837
83.837
83.837
83.837
83.837
83.837
83.837
83.837
83.837
83.837
83.837
83.837
83.837
83.837
83.837
83.837
83.837
83.837
83.837
83.837
83.837
83.837
83.837
83.837
83.837
83.837
83.837
83.837
83.837
83.837
83.837
83.837
83.837
83.837
83.837
83.837
83.837
83.837
83.837
83.837
83.837
83.837
83.837
83.837
83.837
83.837
83.837
83.837
83.837
83.837
83.837
83.837
83.837
83.837
83.837
83.837
83.837
83.837
83.837
83.837
83.837
83.837
83.837
83.837
83.837
83.837
83.837
83.837
83.837
83.837
83.837
83.837
83.837
83.837
83.837
83.837
83.837
83.837
83.837
83.837
83.837
83.837
83.837
83.837
83.837
83.837
83.837
83.837
83.837
83.837
83.837
83.837
83.837
83.837
83.837
83.837
83.837
83.837
83.837
83.837
83.837
83.837
83.837
83.837
83.837
83.837
83.837
83.837
83.837
83.837
83.837
83.837
83.837
83.837
83.837
83.837
83.837
83.837
83.837
83.837
83.837
83.837
83.837
83.837
83.837
83.837
83.837
83.837
83.837
83.837
83.837
83.837
83.837
83.837
83.837
83.837
83.837
83.837
83.837
83.837
83.837
83.837
83.837
83.837
83.837
83.837
83.837
83.837
83.837
83.837
83.837
83.837
83.837
83.837
83.837
83.837
83.837
83.837
83.837
83.837
83.837
83.837
83.837
83.837
83.837
83.837
83.837
83.837
83.837
83.837
83.837
83.837
83.837
83.837
83.837
83.837
83.837
83.837
83.837
83.837
83.837
83.837
83.837
83.837
83.837
83.837
83.837
83.837
83.837
83.837
83.837
83.837
83.837
83.837
83.837
83.837
83.837
83.837
83.837
83.837
83.837
83.837
83.837
83.837
83.837
83.837
83.837
83.837
83.837
83.837
83.837
83.837
83.837
83.837
83.837
83.837
83.837
83.837
83.837
83.837
83.837
83.837
83.837
83.837
83.837
83.837
83.837
83.837
83.837
83.837
83.837
83.837
83.837
83.837
83.837
83.837
83.837
83.837
83.837
83.837
83.837
83.837
83.837
83.837
83.837
83.837
83.837
83.837
83.837
83.837
83.837
83.837
83.837
83.837
83.837
83.837
83.837
83.837
83.837
83.837
83.837
83.837
83.837
83.837
83.837
83.837
83.837
83.837
83.837
83.837
83.837
83.837
83.837
83.837
83.837
83.837
83.837
83.837
83.837
83.837
83.837
83.837
83.837
83.837
83.837
83.837
83.837
83.837
83.837
83.837
83.837
83.837
83.837
83.837
83.837
83.837
83.837
83.837
83.837
83.837
83.837
83.837
83.837
83.837
83.837
83.837
83.837
83.837
83.837
83.837
83.837
83.837
83.837
83.837
83.837
83.837
83.837
83.837
83.837
83.837
83.837
83.837
83.837
83.837
83.837
83.837
83.837
83.837
83.837
83.837
83.837
83.837
83.837
83.837
83.837
83.837
83.837
83.837
83.837
83.837
83.837
83.837
83.837
83.837
83.837
83.837
83.837
83.837
83.837
83.837
83.837
83.837
83.837
83.837
83.837
83.837
83.837
83.837
83.837
83.837
83.837
83.837
83.837
83.837
83.837
83.837
83.837
83.837
83.837
83.837
83.837
83.837
83.837
83.837
83.837
83.837
83.837
83.837
83.837
83.837
83.837
83.837
83.837
83.837
83.837
83.837
83.837
83.837
83.837
83.837
83.837
83.837
83.837
83.837
83.837
83.837
83.837
83.837
83.837
83.837
83.837
83.837
83.837
83.837
83.837
83.837
83.837
83.837
83.837
83.837
83.837
83.837
83.837
83.837
83.837
83.837
83.837
83.837
83.837
83.837
83.837
83.837
83.837
83.837
83.837
83.837
83.837
83.837
83.837
83.837
83.837
83.837
83.837
83.837
83.837
83.837
83.837
83.837
83.837
83.837
83.837
83.837
83.837
83.837
83.837
83.837
83.837
83.837
83.837
83.837
83.837
83.837
83.837
83.837
83.837
83.837
