2247.016
2251.024
2255.032
2259.040
2263.048
2267.056
2271.064
2275.072
2279.080
2283.088
2287.096
2291.104
2295.112
2299.120
2303.128
2307.136
2311.144
2315.152
2319.160
2323.168
2327.176
2331.184
2335.192
2339.200
2343.208
2347.216
2351.224
2355.232
2359.240
2363.248
2367.256
2371.264
2375.272
2379.280
2383.288
2387.296
2391.304
2395.312
2399.320
2403.328
2407.336
2411.344
2415.352
2419.360
2423.368
2427.376
2431.384
2435.392
2439.400
2436.931
2434.463
2431.994
2429.526
2427.057
2424.589
2422.120
2419.652
2417.183
2414.715
2412.246
2409.778
2407.309
2404.841
2402.372
2399.904
2397.435
2394.967
2392.498
2390.030
2387.561
2385.093
2382.624
2380.156
2377.687
2375.219
2372.750
2370.282
2367.813
2365.345
2362.876
2360.408
2357.939
2355.471
2353.002
2350.534
2348.065
2345.597
2343.128
2340.660
2338.191
2335.723
2333.254
2330.786
2328.317
2325.849
2323.380
2320.912
2318.443
2315.975
2313.506
2311.038
2308.569
2306.101
2303.632
2301.164
2298.695
2296.227
2293.758
2291.290
2288.821
2286.353
2283.884
2281.416
2278.947
2276.479
2274.010
2271.542
2269.073
2266.605
2264.136
2261.668
2259.199
2256.731
2254.262
2251.794
2249.325
2246.857
2244.388
2241.920
2239.451
2236.983
2234.514
2232.046
2229.577
2227.109
2224.640
2222.172
2219.703
2217.235
2214.766
2212.298
2209.829
2207.361
2204.892
2202.424
2199.955
2197.487
2195.018
2192.550
2190.081
2187.613
2185.144
2182.676
2180.207
2177.739
2175.270
2172.802
2170.333
2167.865
2165.396
2162.928
2160.459
2157.991
2155.522
2153.054
2150.585
2148.117
2145.648
2143.180
2140.711
2138.243
2135.774
2133.306
2130.837
2128.369
2125.900
2123.432
2120.963
2118.495
2116.026
2113.558
2111.089
2108.621
2106.152
2103.684
2101.215
2098.747
2096.278
2093.810
2091.341
2088.873
2086.404
2083.936
2081.467
2078.999
2076.530
2074.062
2071.593
2069.125
2066.656
2064.188
2061.719
2059.251
2056.782
2054.314
2051.845
2049.377
2046.908
2044.440
2041.971
2039.503
2037.034
2034.566
2032.097
2029.629
2027.160
2024.692
2022.223
2019.755
2017.286
2014.818
2012.349
2009.881
2007.412
2004.944
2002.475
2000.007
1997.538
1995.070
1992.601
1990.133
1987.664
1985.196
1982.727
1980.259
1977.790
1975.322
1972.853
1970.385
1967.916
1965.448
1962.979
1960.511
1958.042
1955.574
1953.105
1950.637
1948.168
1945.700
1944.527
1943.354
1942.181
1941.008
1939.835
1938.662
1937.489
1936.316
1935.143
1933.970
1932.797
1931.624
1930.451
1929.278
1928.105
1926.932
1925.759
1924.586
1923.413
1922.240
1921.067
1919.894
1918.721
1917.548
1916.375
1915.202
1914.029
1912.856
1911.683
1910.510
1909.337
1908.164
1906.991
1905.818
1904.645
1903.472
1902.299
1901.126
1899.953
1898.780
1897.607
1896.434
1895.261
1894.088
1892.915
1891.742
1890.569
1889.396
1888.223
1887.050
1885.877
1884.704
1883.531
1882.358
1881.185
1880.012
1878.839
1877.666
1876.493
1875.320
1874.147
1872.974
1871.801
1870.628
1869.455
1868.282
1867.109
1865.936
1864.763
1863.590
1862.417
1861.244
1860.071
1858.898
1857.725
1856.552
1855.379
1854.206
1853.033
1851.860
1850.687
1849.514
1848.341
1847.168
1845.995
1844.822
1843.649
1842.476
1841.303
1840.130
1838.957
1837.784
1836.611
1835.438
1834.265
1833.092
1831.919
1830.746
1829.573
1828.400
1827.227
1826.054
1824.881
1823.708
1822.535
1821.362
1820.189
1819.016
1817.843
1816.670
1815.497
1814.324
1813.151
1811.978
1810.805
1809.632
1808.459
1807.286
1806.113
1804.940
1803.767
1802.594
1801.421
1800.248
1799.075
1797.902
1796.729
1795.556
1794.383
1793.210
1792.037
1790.864
1789.691
1788.518
1787.345
1786.172
1784.999
1783.826
1782.653
1781.480
1780.307
1779.134
1777.961
1776.788
1775.615
1774.442
1773.269
1772.096
1770.923
1769.750
1768.577
1767.404
1766.231
1765.058
1763.885
1762.712
1761.539
1760.366
1759.193
1758.020
1756.847
1755.674
1754.501
1753.328
1752.155
1750.982
1749.809
1748.636
1747.463
1746.290
1745.117
1743.944
1742.771
1741.598
1740.425
1739.252
1738.079
1736.906
1735.733
1734.560
1733.387
1732.214
1731.041
1729.868
1728.695
1727.522
1726.349
1725.176
1724.003
1722.830
1721.657
1720.484
1719.311
1718.138
1716.965
1715.792
1714.619
1713.446
1712.273
1711.100
1708.045
1704.991
1701.936
1698.882
1695.827
1692.773
1689.718
1686.664
1683.609
1680.555
1677.500
1674.446
1671.391
1668.337
1665.282
1662.228
1659.173
1656.119
1653.064
1650.010
1646.955
1643.901
1640.846
1637.792
1634.737
1631.683
1628.628
1625.574
1622.519
1619.465
1616.410
1613.356
1610.301
1607.247
1604.192
1601.138
1598.083
1595.029
1591.974
1588.920
1585.865
1582.811
1579.756
1576.702
1573.647
1570.593
1567.538
1564.484
1561.429
1558.375
1555.320
1552.266
1549.211
1546.157
1543.102
1540.048
1536.993
1533.939
1530.884
1527.830
1524.775
1521.721
1518.666
1515.612
1512.557
1509.503
1506.448
1503.394
1500.339
1497.285
1494.230
1491.176
1488.121
1485.067
1482.012
1478.958
1475.903
1472.849
1469.794
1466.740
1463.685
1460.631
1457.576
1454.522
1451.467
1448.413
1445.358
1442.304
1439.249
1436.195
1433.140
1430.086
1427.031
1423.977
1420.922
1417.868
1414.813
1411.759
1408.704
1405.650
1402.595
1399.541
1396.486
1393.432
1390.377
1387.323
1384.268
1381.214
1378.159
1375.105
1372.050
1368.996
1365.941
1362.887
1359.832
1356.778
1353.723
1350.669
1347.614
1344.560
1341.505
1338.451
1335.396
1332.342
1329.287
1326.233
1323.178
1320.124
1317.069
1314.015
1310.960
1307.906
1304.851
1301.797
1298.742
1295.688
1292.633
1289.579
1286.524
1283.470
1280.415
1277.361
1274.306
1271.252
1268.197
1265.143
1262.088
1259.034
1255.979
1252.925
1249.870
1246.816
1243.761
1240.707
1237.652
1234.598
1231.543
1228.489
1225.434
1222.380
1219.325
1216.271
1213.216
1210.162
1207.107
1204.053
1200.998
1197.944
1194.889
1191.835
1188.780
1185.726
1182.671
1179.617
1176.562
1173.508
1170.453
1167.399
1164.344
1161.290
1158.235
1155.181
1152.126
1149.072
1146.017
1142.963
1139.908
1136.854
1133.799
1130.745
1127.690
1124.636
1121.581
1118.527
1115.472
1112.418
1109.363
1106.309
1103.254
1100.200
1103.670
1107.140
1110.610
1114.080
1117.550
1121.020
1124.490
1127.960
1131.430
1134.900
1138.370
1141.840
1145.310
1148.780
1152.250
1155.720
1159.190
1162.660
1166.130
1169.600
1173.070
1176.540
1180.010
1183.480
1186.950
1190.420
1193.890
1197.360
1200.830
1204.300
1207.770
1211.240
1214.710
1218.180
1221.650
1225.120
1228.590
1232.060
1235.530
1239.000
1242.470
1245.940
1249.410
1252.880
1256.350
1259.820
1263.290
1266.760
1270.230
1273.700
1277.170
1280.640
1284.110
1287.580
1291.050
1294.520
1297.990
1301.460
1304.930
1308.400
1311.870
1315.340
1318.810
1322.280
1325.750
1329.220
1332.690
1336.160
1339.630
1343.100
1346.570
1350.040
1353.510
1356.980
1360.450
1363.920
1367.390
1370.860
1374.330
1377.800
1381.270
1384.740
1388.210
1391.680
1395.150
1398.620
1402.090
1405.560
1409.030
1412.500
1415.970
1419.440
1422.910
1426.380
1429.850
1433.320
1436.790
1440.260
1443.730
1447.200
1450.670
1454.140
1457.610
1461.080
1464.550
1468.020
1471.490
1474.960
1478.430
1481.900
1485.370
1488.840
1492.310
1495.780
1499.250
1502.720
1506.190
1509.660
1513.130
1516.600
1520.070
1523.540
1527.010
1530.480
1533.950
1537.420
1540.890
1544.360
1547.830
1551.300
1554.770
1558.240
1561.710
1565.180
1568.650
1572.120
1575.590
1579.060
1582.530
1586.000
1589.470
1592.940
1596.410
1599.880
1603.350
1606.820
1610.290
1613.760
1617.230
1620.700
1624.170
1627.640
1631.110
1634.580
1638.050
1641.520
1644.990
1648.460
1651.930
1655.400
1658.870
1662.340
1665.810
1669.280
1672.750
1676.220
1679.690
1683.160
1686.630
1690.100
1693.570
1697.040
1700.510
1703.980
1707.450
1710.920
1714.390
1717.860
1721.330
1724.800
1728.270
1731.740
1735.210
1738.680
1742.150
1745.620
1749.090
1752.560
1756.030
1759.500
1762.970
1766.440
1769.910
1773.380
1776.850
1780.320
1783.790
1787.260
1790.730
1794.200
1787.308
1780.417
1773.525
1766.634
1759.742
1752.851
1745.959
1739.068
1732.176
1725.285
1718.393
1711.502
1704.610
1697.719
1690.827
1683.936
1677.044
1670.153
1663.261
1656.370
1649.478
1642.587
1635.695
1628.804
1621.912
1615.021
1608.129
1601.238
1594.346
1587.455
1580.563
1573.672
1566.780
1559.889
1552.997
1546.106
1539.214
1532.323
1525.431
1518.540
1511.648
1504.757
1497.865
1490.974
1484.082
1477.191
1470.299
1463.408
1456.516
1449.625
1442.733
1435.842
1428.950
1422.059
1415.167
1408.276
1401.384
1394.493
1387.601
1380.710
1373.818
1366.927
1360.035
1353.144
1346.252
1339.361
1332.469
1325.578
1318.686
1311.795
1304.903
1298.012
1291.120
1284.229
1277.337
1270.446
1263.554
1256.663
1249.771
1242.880
1235.988
1229.097
1222.205
1215.314
1208.422
1201.531
1194.639
1187.748
1180.856
1173.965
1167.073
1160.182
1153.290
1146.399
1139.507
1132.616
1125.724
1118.833
1111.941
1105.050
1098.158
1091.267
1084.375
1077.484
1070.592
1063.701
1056.809
1049.918
1043.026
1036.135
1029.243
1022.352
1015.460
1008.569
1001.677
994.786
987.894
981.003
974.111
967.220
960.328
953.437
946.545
939.654
932.762
925.871
918.979
912.088
905.196
898.305
891.413
884.522
877.630
870.739
863.847
856.956
850.064
843.173
836.281
829.390
822.498
815.607
808.715
801.824
794.932
788.041
781.149
774.258
767.366
760.475
753.583
746.692
739.800
732.909
726.017
719.126
712.234
705.343
698.451
691.560
684.668
677.777
670.885
663.994
657.102
650.211
643.319
636.428
629.536
622.645
615.753
608.862
601.970
595.079
588.187
581.296
574.404
567.513
560.621
553.730
546.838
539.947
533.055
526.164
519.272
512.381
505.489
498.598
491.706
484.815
477.923
471.032
464.140
457.249
450.357
443.466
436.574
429.683
422.791
415.900
414.751
413.603
412.454
411.306
410.157
409.009
407.860
406.712
405.563
404.415
403.266
402.118
400.969
399.821
398.672
397.524
396.375
395.227
394.078
392.930
391.781
390.633
389.484
388.336
387.187
386.039
384.890
383.742
382.593
381.445
380.296
379.148
377.999
376.851
375.702
374.554
373.405
372.257
371.108
369.960
368.811
367.663
366.514
365.366
364.217
363.069
361.920
360.772
359.623
358.475
357.326
356.178
355.029
353.881
352.732
351.584
350.435
349.287
348.138
346.990
345.841
344.693
343.544
342.396
341.247
340.099
338.950
337.802
336.653
335.505
334.356
333.208
332.059
330.911
329.762
328.614
327.465
326.317
325.168
324.020
322.871
321.723
320.574
319.426
318.277
317.129
315.980
314.832
313.683
312.535
311.386
310.238
309.089
307.941
306.792
305.644
304.495
303.347
302.198
301.050
299.901
298.753
297.604
296.456
295.307
294.159
293.010
291.862
290.713
289.565
288.416
287.268
286.119
284.971
283.822
282.674
281.525
280.377
279.228
278.080
276.931
275.783
274.634
273.486
272.337
271.189
270.040
268.892
267.743
266.595
265.446
264.298
263.149
262.001
260.852
259.704
258.555
257.407
256.258
255.110
253.961
252.813
251.664
250.516
249.367
248.219
247.070
245.922
244.773
243.625
242.476
241.328
240.179
239.031
237.882
236.734
235.585
234.437
233.288
232.140
230.991
229.843
228.694
227.546
226.397
225.249
224.100
222.952
221.803
220.655
219.506
218.358
217.209
216.061
214.912
213.764
212.615
211.467
210.318
209.170
208.021
206.873
205.724
204.576
203.427
202.279
201.130
199.982
198.833
197.685
196.536
195.388
194.239
193.091
191.942
190.794
189.645
188.497
187.348
117.800
117.800
117.800
117.800
117.800
117.800
117.800
117.800
117.800
117.800
117.800
117.800
117.800
117.800
117.800
117.800
117.800
117.800
117.800
117.800
117.800
117.800
117.800
117.800
117.800
117.800
117.800
117.800
117.800
117.800
117.800
117.800
117.800
117.800
117.800
117.800
117.800
117.800
117.800
117.800
117.800
117.800
117.800
117.800
117.800
117.800
117.800
117.800
117.800
117.800
117.800
117.800
117.800
117.800
117.800
117.800
117.800
117.800
117.800
117.800
117.800
117.800
117.800
117.800
117.800
117.800
117.800
117.800
117.800
117.800
117.800
117.800
117.800
117.800
117.800
117.800
117.800
117.800
117.800
117.800
117.800
117.800
117.800
117.800
117.800
117.800
117.800
117.800
117.800
117.800
117.800
117.800
117.800
117.800
117.800
117.800
117.800
117.800
117.800
117.800
117.800
117.800
117.800
117.800
117.800
117.800
117.800
117.800
117.800
117.800
117.800
117.800
117.800
117.800
117.800
117.800
117.800
117.800
117.800
117.800
117.800
117.800
117.800
117.800
117.800
117.800
117.800
117.800
117.800
117.800
117.800
117.800
117.800
117.800
117.800
117.800
117.800
117.800
117.800
117.800
117.800
117.800
117.800
117.800
117.800
117.800
117.800
117.800
117.800
117.800
117.800
117.800
117.800
117.800
117.800
117.800
117.800
117.800
117.800
117.800
117.800
117.800
117.800
117.800
117.800
117.800
117.800
117.800
117.800
117.800
117.800
117.800
117.800
117.800
117.800
117.800
117.800
117.800
117.800
117.800
117.800
117.800
117.800
117.800
117.800
117.800
117.800
117.800
117.800
117.800
117.800
117.800
117.800
117.800
117.800
117.800
117.800
117.800
117.800
117.800
117.800
117.800
117.800
117.800
117.800
117.800
117.800
117.800
117.800
117.800
117.800
117.800
117.800
117.800
117.800
117.800
117.800
117.800
117.800
117.800
117.800
117.800
117.800
117.800
117.800
117.800
117.800
117.800
117.800
117.800
117.800
117.800
117.800
117.800
117.800
117.800
117.800
117.800
117.800
117.800
117.800
117.800
117.800
117.800
117.800
117.800
117.800
117.800
117.800
117.800
117.800
117.800
117.800
117.800
117.800
117.800
117.800
117.800
117.800
117.800
117.800
117.800
117.800
117.800
117.800
117.800
117.800
117.800
117.800
117.800
117.800
117.800
117.800
117.800
117.800
117.800
117.800
117.800
117.800
117.800
117.800
117.800
117.800
117.800
117.800
117.800
117.800
117.800
117.800
117.800
117.800
117.800
117.800
117.800
117.800
117.800
117.800
117.800
117.800
117.800
117.800
117.800
117.800
117.800
117.800
117.800
117.800
117.800
117.800
117.800
117.800
117.800
117.800
117.800
117.800
117.800
117.800
117.800
117.800
117.800
117.800
117.800
117.800
117.800
117.800
117.800
117.800
117.800
117.800
117.800
117.800
117.800
117.800
117.800
117.800
117.800
117.800
117.800
117.800
117.800
117.800
117.800
117.800
117.800
117.800
117.800
117.800
117.800
117.800
117.800
117.800
117.800
117.800
117.800
117.800
117.800
117.800
117.800
117.800
117.800
117.800
117.800
117.800
117.800
117.800
117.800
117.800
117.800
117.800
117.800
117.800
117.800
117.800
117.800
117.800
117.800
117.800
117.800
117.800
117.800
117.800
117.800
117.800
117.800
117.800
117.800
117.800
117.800
117.800
117.800
117.800
117.800
117.800
117.800
117.800
117.800
117.800
117.800
117.800
117.800
117.800
117.800
117.800
117.800
117.800
117.800
117.800
117.800
117.800
117.800
117.800
117.800
117.800
117.800
117.800
117.800
117.800
117.800
117.800
117.800
117.800
117.800
117.800
117.800
117.800
117.800
117.800
117.800
117.800
117.800
117.800
117.800
117.800
117.800
117.800
117.800
117.800
117.800
117.800
117.800
117.800
117.800
117.800
117.800
117.800
117.800
117.800
117.800
117.800
117.800
117.800
117.800
117.800
117.800
117.800
117.800
117.800
117.800
117.800
117.800
117.800
117.800
117.800
117.800
117.800
117.800
117.800
117.800
117.800
117.800
117.800
117.800
117.800
117.800
117.800
117.800
117.800
117.800
117.800
117.800
117.800
117.800
117.800
117.800
117.800
117.800
117.800
117.800
117.800
117.800
117.800
117.800
117.800
117.800
117.800
117.800
117.800
117.800
117.800
117.800
117.800
117.800
117.800
117.800
117.800
117.800
117.800
117.800
117.800
117.800
117.800
117.800
117.800
117.800
117.800
117.800
117.800
117.800
117.800
117.800
117.800
117.800
117.800
117.800
117.800
117.800
117.800
117.800
117.800
117.800
117.800
117.800
117.800
117.800
117.800
117.800
117.800
117.800
117.800
117.800
117.800
117.800
117.800
117.800
117.800
117.800
117.800
117.800
117.800
117.800
117.800
117.800
117.800
117.800
117.800
117.800
117.800
117.800
117.800
117.800
117.800
117.800
117.800
117.800
117.800
117.800
117.800
117.800
117.800
117.800
117.800
117.800
117.800
117.800
117.800
117.800
117.800
117.800
117.800
117.800
117.800
117.800
117.800
117.800
117.800
117.800
117.800
117.800
117.800
117.800
117.800
117.800
117.800
117.800
117.800
117.800
117.800
117.800
117.800
117.800
117.800
117.800
117.800
117.800
117.800
117.800
117.800
117.800
117.800
117.800
117.800
117.800
117.800
117.800
117.800
117.800
117.800
117.800
117.800
117.800
117.800
117.800
117.800
117.800
117.800
117.800
117.800
117.800
117.800
117.800
117.800
117.800
117.800
117.800
117.800
117.800
117.800
117.800
117.800
117.800
117.800
117.800
117.800
117.800
117.800
117.800
117.800
117.800
117.800
117.800
117.800
117.800
117.800
117.800
117.800
117.800
117.800
117.800
117.800
117.800
117.800
117.800
117.800
117.800
117.800
117.800
117.800
117.800
117.800
117.800
117.800
117.800
117.800
117.800
117.800
117.800
117.800
117.800
117.800
117.800
117.800
117.800
117.800
117.800
117.800
117.800
117.800
117.800
117.800
117.800
117.800
117.800
117.800
117.800
117.800
117.800
117.800
117.800
117.800
117.800
117.800
117.800
117.800
117.800
117.800
117.800
117.800
117.800
117.800
117.800
117.800
117.800
117.800
117.800
117.800
117.800
117.800
117.800
117.800
117.800
117.800
117.800
117.800
117.800
117.800
117.800
117.800
117.800
117.800
117.800
117.800
117.800
117.800
117.800
117.800
117.800
117.800
117.800
117.800
117.800
117.800
117.800
117.800
117.800
117.800
117.800
117.800
117.800
117.800
117.800
117.800
117.800
