2704.371
2703.540
2702.709
2701.878
2701.047
2700.216
2699.385
2698.554
2697.723
2696.892
2696.061
2695.230
2694.399
2693.568
2692.737
2691.906
2691.075
2690.244
2689.413
2688.582
2687.751
2686.920
2681.177
2675.434
2669.691
2663.948
2658.205
2652.462
2646.719
2640.976
2635.233
2629.490
2623.747
2618.004
2612.261
2606.518
2600.775
2595.032
2589.289
2583.546
2577.803
2572.060
2566.317
2560.574
2554.831
2549.088
2543.345
2537.602
2531.859
2526.116
2520.373
2514.630
2508.887
2503.144
2497.401
2491.658
2485.915
2480.172
2474.429
2468.686
2462.943
2457.200
2451.457
2445.714
2439.971
2434.228
2428.485
2422.742
2416.999
2411.256
2405.513
2399.770
2394.027
2388.284
2382.541
2376.798
2371.055
2365.312
2359.569
2353.826
2348.083
2342.340
2336.597
2330.854
2325.111
2319.368
2313.625
2307.882
2302.139
2296.396
2290.653
2284.910
2279.167
2273.424
2267.681
2261.938
2256.195
2250.452
2244.709
2238.966
2233.223
2227.480
2221.737
2215.994
2210.251
2204.508
2198.765
2193.022
2187.279
2181.536
2175.793
2170.050
2164.307
2158.564
2152.821
2147.078
2141.335
2135.592
2129.849
2124.106
2118.363
2112.620
2106.877
2101.134
2095.391
2089.648
2083.905
2078.162
2072.419
2066.676
2060.933
2055.190
2049.447
2043.704
2037.961
2032.218
2026.475
2020.732
2014.989
2009.246
2003.503
1997.760
1992.017
1986.274
1980.531
1974.788
1969.045
1963.302
1957.559
1951.816
1946.073
1940.330
1934.587
1928.844
1923.101
1917.358
1911.615
1905.872
1900.129
1894.386
1888.643
1882.900
1877.157
1871.414
1865.671
1859.928
1854.185
1848.442
1842.699
1836.956
1831.213
1825.470
1819.727
1813.984
1808.241
1802.498
1796.755
1791.012
1785.269
1779.526
1773.783
1768.040
1762.297
1756.554
1750.811
1745.068
1739.325
1733.582
1727.839
1722.096
1716.353
1710.610
1704.867
1699.124
1693.381
1687.638
1681.895
1676.152
1670.409
1664.666
1658.923
1653.180
1647.437
1641.694
1635.951
1630.208
1624.465
1618.722
1612.979
1607.236
1601.493
1595.750
1590.007
1584.264
1578.521
1572.778
1567.035
1561.292
1555.549
1549.806
1544.063
1538.320
1540.935
1543.550
1546.165
1548.780
1551.395
1554.010
1556.625
1559.240
1561.855
1564.470
1567.085
1569.700
1572.315
1574.930
1577.545
1580.160
1582.775
1585.390
1588.005
1590.620
1593.235
1595.850
1598.465
1601.080
1603.695
1606.310
1608.925
1611.540
1614.155
1616.770
1619.385
1622.000
1624.615
1627.230
1629.845
1632.460
1635.075
1637.690
1640.305
1642.920
1645.535
1648.150
1650.765
1653.380
1655.995
1658.610
1661.225
1663.840
1666.455
1669.070
1671.685
1674.300
1676.915
1679.530
1682.145
1684.760
1687.375
1689.990
1692.605
1695.220
1697.835
1700.450
1703.065
1705.680
1708.295
1710.910
1713.525
1716.140
1718.755
1721.370
1723.985
1726.600
1729.215
1731.830
1734.445
1737.060
1739.675
1742.290
1744.905
1747.520
1750.135
1752.750
1755.365
1757.980
1760.595
1763.210
1765.825
1768.440
1771.055
1773.670
1776.285
1778.900
1781.515
1784.130
1786.745
1789.360
1791.975
1794.590
1797.205
1799.820
1802.435
1805.050
1807.665
1810.280
1812.895
1815.510
1818.125
1820.740
1823.355
1825.970
1828.585
1831.200
1833.815
1836.430
1839.045
1841.660
1844.275
1846.890
1849.505
1852.120
1854.735
1857.350
1859.965
1862.580
1865.195
1867.810
1870.425
1873.040
1875.655
1878.270
1880.885
1883.500
1886.115
1888.730
1891.345
1893.960
1896.575
1899.190
1901.805
1904.420
1907.035
1909.650
1912.265
1914.880
1917.495
1920.110
1922.725
1925.340
1927.955
1930.570
1933.185
1935.800
1938.415
1941.030
1943.645
1946.260
1948.875
1951.490
1954.105
1956.720
1959.335
1961.950
1964.565
1967.180
1969.795
1972.410
1975.025
1977.640
1980.255
1982.870
1985.485
1988.100
1990.715
1993.330
1995.945
1998.560
2001.175
2003.790
2006.405
2009.020
2011.635
2014.250
2016.865
2019.480
2022.095
2024.710
2027.325
2029.940
2032.555
2035.170
2037.785
2040.400
2043.015
2045.630
2048.245
2050.860
2053.475
2056.090
2058.705
2061.320
2062.909
2064.497
2066.086
2067.674
2069.263
2070.851
2072.440
2074.028
2075.617
2077.205
2078.794
2080.382
2081.971
2083.559
2085.148
2086.736
2088.325
2089.913
2091.502
2093.090
2094.679
2096.267
2097.856
2099.444
2101.033
2102.621
2104.210
2105.798
2107.387
2108.975
2110.564
2112.152
2113.741
2115.329
2116.918
2118.506
2120.095
2121.683
2123.272
2124.860
2126.449
2128.037
2129.626
2131.214
2132.803
2134.391
2135.980
2137.568
2139.157
2140.745
2142.334
2143.922
2145.511
2147.099
2148.688
2150.276
2151.865
2153.453
2155.042
2156.630
2158.219
2159.807
2161.396
2162.984
2164.573
2166.161
2167.750
2169.338
2170.927
2172.515
2174.104
2175.692
2177.281
2178.869
2180.458
2182.046
2183.635
2185.223
2186.812
2188.400
2189.989
2191.577
2193.166
2194.754
2196.343
2197.931
2199.520
2201.108
2202.697
2204.285
2205.874
2207.462
2209.051
2210.639
2212.228
2213.816
2215.405
2216.993
2218.582
2220.170
2221.759
2223.347
2224.936
2226.524
2228.113
2229.701
2231.290
2232.878
2234.467
2236.055
2237.644
2239.232
2240.821
2242.409
2243.998
2245.586
2247.175
2248.763
2250.352
2251.940
2253.529
2255.117
2256.706
2258.294
2259.883
2261.471
2263.060
2264.648
2266.237
2267.825
2269.414
2271.002
2272.591
2274.179
2275.768
2277.356
2278.945
2280.533
2282.122
2283.710
2285.299
2286.887
2288.476
2290.064
2291.653
2293.241
2294.830
2296.418
2298.007
2299.595
2301.184
2302.772
2304.361
2305.949
2307.538
2309.126
2310.715
2312.303
2313.892
2315.480
2317.069
2318.657
2320.246
2321.834
2323.423
2325.011
2326.600
2328.188
2329.777
2331.365
2332.954
2334.542
2336.131
2337.719
2339.308
2340.896
2342.485
2344.073
2345.662
2347.250
2348.839
2350.427
2352.016
2353.604
2355.193
2356.781
2358.370
2359.958
2361.547
2363.135
2364.724
2366.312
2367.901
2369.489
2371.078
2372.666
2374.255
2375.843
2377.432
2379.020
2377.285
2375.549
2373.814
2372.078
2370.343
2368.607
2366.872
2365.136
2363.401
2361.665
2359.930
2358.194
2356.459
2354.723
2352.988
2351.252
2349.517
2347.781
2346.046
2344.310
2342.575
2340.839
2339.104
2337.368
2335.633
2333.897
2332.162
2330.426
2328.691
2326.955
2325.220
2323.484
2321.749
2320.013
2318.278
2316.542
2314.807
2313.071
2311.336
2309.600
2307.865
2306.129
2304.394
2302.658
2300.923
2299.187
2297.452
2295.716
2293.981
2292.245
2290.510
2288.774
2287.039
2285.303
2283.568
2281.832
2280.097
2278.361
2276.626
2274.890
2273.155
2271.419
2269.684
2267.948
2266.213
2264.477
2262.742
2261.006
2259.271
2257.535
2255.800
2254.064
2252.329
2250.593
2248.858
2247.122
2245.387
2243.651
2241.916
2240.180
2238.445
2236.709
2234.974
2233.238
2231.503
2229.767
2228.032
2226.296
2224.561
2222.825
2221.090
2219.354
2217.619
2215.883
2214.148
2212.412
2210.677
2208.941
2207.206
2205.470
2203.735
2201.999
2200.264
2198.528
2196.793
2195.057
2193.322
2191.586
2189.851
2188.115
2186.380
2184.644
2182.909
2181.173
2179.438
2177.702
2175.967
2174.231
2172.496
2170.760
2169.025
2167.289
2165.554
2163.818
2162.083
2160.347
2158.612
2156.876
2155.141
2153.405
2151.670
2149.934
2148.199
2146.463
2144.728
2142.992
2141.257
2139.521
2137.786
2136.050
2134.315
2132.579
2130.844
2129.108
2127.373
2125.637
2123.902
2122.166
2120.431
2118.695
2116.960
2115.224
2113.489
2111.753
2110.018
2108.282
2106.547
2104.811
2103.076
2101.340
2099.605
2097.869
2096.134
2094.398
2092.663
2090.927
2089.192
2087.456
2085.721
2083.985
2082.250
2080.514
2078.779
2077.043
2075.308
2073.572
2071.837
2070.101
2068.366
2066.630
2064.895
2063.159
2061.424
2059.688
2057.953
2056.217
2054.482
2052.746
2051.011
2049.275
2047.540
2045.804
2044.069
2042.333
2040.598
2038.862
2037.127
2035.391
2033.656
2031.920
2035.806
2039.692
2043.578
2047.464
2051.350
2055.236
2059.122
2063.008
2066.894
2070.780
2074.666
2078.552
2082.438
2086.324
2090.210
2094.096
2097.982
2101.868
2105.754
2109.640
2113.526
2117.412
2121.298
2125.184
2129.070
2132.956
2136.842
2140.728
2144.614
2148.500
2152.386
2156.272
2160.158
2164.044
2167.930
2171.816
2175.702
2179.588
2183.474
2187.360
2191.246
2195.132
2199.018
2202.904
2206.790
2210.676
2214.562
2218.448
2222.334
2226.220
2230.106
2233.992
2237.878
2241.764
2245.650
2249.536
2253.422
2257.308
2261.194
2265.080
2268.966
2272.852
2276.738
2280.624
2284.510
2288.396
2292.282
2296.168
2300.054
2303.940
2307.826
2311.712
2315.598
2319.484
2323.370
2327.256
2331.142
2335.028
2338.914
2342.800
2346.686
2350.572
2354.458
2358.344
2362.230
2366.116
2370.002
2373.888
2377.774
2381.660
2385.546
2389.432
2393.318
2397.204
2401.090
2404.976
2408.862
2412.748
2416.634
2420.520
2424.406
2428.292
2432.178
2436.064
2439.950
2443.836
2447.722
2451.608
2455.494
2459.380
2463.266
2467.152
2471.038
2474.924
2478.810
2482.696
2486.582
2490.468
2494.354
2498.240
2502.126
2506.012
2509.898
2513.784
2517.670
2521.556
2525.442
2529.328
2533.214
2537.100
2540.986
2544.872
2548.758
2552.644
2556.530
2560.416
2564.302
2568.188
2572.074
2575.960
2579.846
2583.732
2587.618
2591.504
2595.390
2599.276
2603.162
2607.048
2610.934
2614.820
2618.706
2622.592
2626.478
2630.364
2634.250
2638.136
2642.022
2645.908
2649.794
2653.680
2657.566
2661.452
2665.338
2669.224
2673.110
2676.996
2680.882
2684.768
2688.654
2692.540
2696.426
2700.312
2704.198
2708.084
2711.970
2715.856
2719.742
2723.628
2727.514
2731.400
2735.286
2739.172
2743.058
2746.944
2750.830
2754.716
2758.602
2762.488
2766.374
2770.260
2774.146
2778.032
2781.918
2785.804
2789.690
2793.576
2797.462
2801.348
2805.234
2809.120
2807.629
2806.138
2804.647
2803.156
2801.665
2800.174
2798.683
2797.192
2795.701
2794.210
2792.719
2791.228
2789.737
2788.246
2786.755
2785.264
2783.773
2782.282
2780.791
2779.300
2777.809
2776.318
2774.827
2773.336
2771.845
2770.354
2768.863
2767.372
2765.881
2764.390
2762.899
2761.408
2759.917
2758.426
2756.935
2755.444
2753.953
2752.462
2750.971
2749.480
2747.989
2746.498
2745.007
2743.516
2742.025
2740.534
2739.043
2737.552
2736.061
2734.570
2733.079
2731.588
2730.097
2728.606
2727.115
2725.624
2724.133
2722.642
2721.151
2719.660
2718.169
2716.678
2715.187
2713.696
2712.205
2710.714
2709.223
2707.732
2706.241
2704.750
2703.259
2701.768
2700.277
2698.786
2697.295
2695.804
2694.313
2692.822
2691.331
2689.840
2688.349
2686.858
2685.367
2683.876
2682.385
2680.894
2679.403
2677.912
2676.421
2674.930
2673.439
2671.948
2670.457
2668.966
2667.475
2665.984
2664.493
2663.002
2661.511
2660.020
2658.529
2657.038
2655.547
2654.056
2652.565
2651.074
2649.583
2648.092
2646.601
2645.110
2643.619
2642.128
2640.637
2639.146
2637.655
2636.164
2634.673
2633.182
2631.691
2630.200
2628.709
2627.218
2625.727
2624.236
2622.745
2621.254
2619.763
2618.272
2616.781
2615.290
2613.799
2612.308
2610.817
2609.326
2607.835
2606.344
2604.853
2603.362
2601.871
2600.380
2598.889
2597.398
2595.907
2594.416
2592.925
2591.434
2589.943
2588.452
2586.961
2585.470
2583.979
2582.488
2580.997
2579.506
2578.015
2576.524
2575.033
2573.542
2572.051
2570.560
2569.069
2567.578
2566.087
2564.596
2563.105
2561.614
2560.123
2558.632
2557.141
2555.650
2554.159
2552.668
2551.177
2549.686
2548.195
2546.704
2545.213
2543.722
2542.231
2540.740
2539.249
2537.758
2536.267
2534.776
2533.285
2531.794
2530.303
2528.812
2527.321
2525.830
2524.339
2522.848
2521.357
2519.866
2518.375
2516.884
2515.393
2513.902
2512.411
2510.920
2508.110
2505.300
2502.490
2499.680
2496.870
2494.060
2491.250
2488.440
2485.630
2482.820
2480.010
2477.200
2474.390
2471.580
2468.770
2465.960
2463.150
2460.340
2457.530
2454.720
2451.910
2449.100
2446.290
2443.480
2440.670
2437.860
2435.050
2432.240
2429.430
2426.620
2423.810
2421.000
2418.190
2415.380
2412.570
2409.760
2406.950
2404.140
2401.330
2398.520
2395.710
2392.900
2390.090
2387.280
2384.470
2381.660
2378.850
2376.040
2373.230
2370.420
2367.610
2364.800
2361.990
2359.180
2356.370
2353.560
2350.750
2347.940
2345.130
2342.320
2339.510
2336.700
2333.890
2331.080
2328.270
2325.460
2322.650
2319.840
2317.030
2314.220
2311.410
2308.600
2305.790
2302.980
2300.170
2297.360
2294.550
2291.740
2288.930
2286.120
2283.310
2280.500
2277.690
2274.880
2272.070
2269.260
2266.450
2263.640
2260.830
2258.020
2255.210
2252.400
2249.590
2246.780
2243.970
2241.160
2238.350
2235.540
2232.730
2229.920
2227.110
2224.300
2221.490
2218.680
2215.870
2213.060
2210.250
2207.440
2204.630
2201.820
2199.010
2196.200
2193.390
2190.580
2187.770
2184.960
2182.150
2179.340
2176.530
2173.720
2170.910
2168.100
2165.290
2162.480
2159.670
2156.860
2154.050
2151.240
2148.430
2145.620
2142.810
2140.000
2137.190
2134.380
2131.570
2128.760
2125.950
2123.140
2120.330
2117.520
2114.710
2111.900
2109.090
2106.280
2103.470
2100.660
2097.850
2095.040
2092.230
2089.420
2086.610
2083.800
2080.990
2078.180
2075.370
2072.560
2069.750
2066.940
2064.130
2061.320
2058.510
2055.700
2052.890
2050.080
2047.270
2044.460
2041.650
2038.840
2036.030
2033.220
2030.410
2027.600
2024.790
2021.980
2019.170
2016.360
2013.550
2010.740
2007.930
2005.120
2002.310
1999.500
1996.690
1993.880
1991.070
1988.260
1985.450
1982.640
1979.830
1977.020
1974.210
1971.400
1968.590
1965.780
1962.970
1960.160
1957.350
1954.540
1951.730
1948.920
1943.422
1937.923
1932.425
1926.926
1921.428
1915.929
1910.431
1904.932
1899.434
1893.935
1888.437
1882.938
1877.440
1871.941
1866.443
1860.944
1855.446
1849.947
1844.449
1838.950
1833.452
1827.953
1822.455
1816.956
1811.458
1805.959
1800.461
1794.962
1789.464
1783.965
1778.467
1772.968
1767.470
1761.971
1756.473
1750.974
1745.476
1739.977
1734.479
1728.980
1723.482
1717.983
1712.485
1706.986
1701.488
1695.989
1690.491
1684.992
1679.494
1673.995
1668.497
1662.998
1657.500
1652.001
1646.503
1641.004
1635.506
1630.007
1624.509
1619.010
1613.512
1608.013
1602.515
1597.016
1591.518
1586.019
1580.521
1575.022
1569.524
1564.025
1558.527
1553.028
1547.530
1542.031
1536.533
1531.034
1525.536
1520.037
1514.539
1509.040
1503.542
1498.043
1492.545
1487.046
1481.548
1476.049
1470.551
1465.052
1459.554
1454.055
1448.557
1443.058
1437.560
1432.061
1426.563
1421.064
1415.566
1410.067
1404.569
1399.070
1393.572
1388.073
1382.575
1377.076
1371.578
1366.079
1360.581
1355.082
1349.584
1344.085
1338.587
1333.088
1327.590
1322.091
1316.593
1311.094
1305.596
1300.097
1294.599
1289.100
1283.602
1278.103
1272.605
1267.106
1261.608
1256.109
1250.611
1245.112
1239.614
1234.115
1228.617
1223.118
1217.620
1212.121
1206.623
1201.124
1195.626
1190.127
1184.629
1179.130
1173.632
1168.133
1162.635
1157.136
1151.638
1146.139
1140.641
1135.142
1129.644
1124.145
1118.647
1113.148
1107.650
1102.151
1096.653
1091.154
1085.656
1080.157
1074.659
1069.160
1063.662
1058.163
1052.665
1047.166
1041.668
1036.169
1030.671
1025.172
1019.674
1014.175
1008.677
1003.178
997.680
992.181
986.683
981.184
975.686
970.187
964.689
959.190
953.692
948.193
942.695
937.196
931.698
926.199
920.701
915.202
909.704
904.205
898.707
893.208
887.710
882.211
876.713
871.214
865.716
860.217
854.719
849.220
845.921
842.621
839.322
836.022
832.723
829.423
826.124
822.824
819.525
816.225
812.926
809.626
806.327
803.027
799.728
796.428
793.129
789.829
786.530
783.230
779.931
776.631
773.332
770.032
766.733
763.433
760.134
756.834
753.535
750.235
746.936
743.636
740.337
737.037
733.738
730.438
727.139
723.839
720.540
717.240
713.941
710.641
707.342
704.042
700.743
697.443
694.144
690.844
687.545
684.245
680.946
677.646
674.347
671.047
667.748
664.448
661.149
657.849
654.550
651.250
647.951
644.651
641.352
638.052
634.753
631.453
628.154
624.854
621.555
618.255
614.956
611.656
608.357
605.057
601.758
598.458
595.159
591.859
588.560
585.260
581.961
578.661
575.362
572.062
568.763
565.463
562.164
558.864
555.565
552.265
548.966
545.666
542.367
539.067
535.768
532.468
529.169
525.869
522.570
519.270
515.971
512.671
509.372
506.072
502.773
499.473
496.174
492.874
489.575
486.275
482.976
479.676
476.377
473.077
469.778
466.478
463.179
459.879
456.580
453.280
449.981
446.681
443.382
440.082
436.783
433.483
430.184
426.884
423.585
420.285
416.986
413.686
410.387
407.087
403.788
400.488
397.189
393.889
390.590
387.290
383.991
380.691
377.392
374.092
370.793
367.493
364.194
360.894
357.595
354.295
350.996
347.696
344.397
341.097
337.798
334.498
331.199
327.899
324.600
321.300
318.001
314.701
311.402
308.102
304.803
301.503
298.204
294.904
291.605
288.305
285.006
281.706
278.407
275.107
271.808
268.508
265.209
261.909
258.610
255.310
252.011
248.711
245.412
242.112
238.813
235.513
232.214
228.914
225.615
222.315
219.016
215.716
212.417
209.117
205.818
202.518
199.219
195.919
192.620
101.420
101.420
101.420
101.420
101.420
101.420
101.420
101.420
101.420
101.420
101.420
101.420
101.420
101.420
101.420
101.420
101.420
101.420
101.420
101.420
101.420
101.420
101.420
101.420
101.420
101.420
101.420
101.420
101.420
101.420
101.420
101.420
101.420
101.420
101.420
101.420
101.420
101.420
101.420
101.420
101.420
101.420
101.420
101.420
101.420
101.420
101.420
101.420
101.420
101.420
101.420
101.420
101.420
101.420
101.420
101.420
101.420
101.420
101.420
101.420
101.420
101.420
101.420
101.420
101.420
101.420
101.420
101.420
101.420
101.420
101.420
101.420
101.420
101.420
101.420
101.420
101.420
101.420
101.420
101.420
101.420
101.420
101.420
101.420
101.420
101.420
101.420
101.420
101.420
101.420
101.420
101.420
101.420
101.420
101.420
101.420
101.420
101.420
101.420
101.420
101.420
101.420
101.420
101.420
101.420
101.420
101.420
101.420
101.420
101.420
101.420
101.420
101.420
101.420
101.420
101.420
101.420
101.420
101.420
101.420
101.420
101.420
101.420
101.420
101.420
101.420
101.420
101.420
101.420
101.420
101.420
101.420
101.420
101.420
101.420
101.420
101.420
101.420
101.420
101.420
101.420
101.420
101.420
101.420
101.420
101.420
101.420
101.420
101.420
101.420
101.420
101.420
101.420
101.420
101.420
101.420
101.420
101.420
101.420
101.420
101.420
101.420
101.420
101.420
101.420
101.420
101.420
101.420
101.420
101.420
101.420
101.420
101.420
101.420
101.420
101.420
101.420
101.420
101.420
