2233.802
2237.810
2241.818
2245.826
2249.834
2253.842
2257.850
2261.858
2265.866
2269.874
2273.882
2277.890
2281.898
2285.906
2289.914
2293.922
2297.930
2301.938
2305.946
2309.954
2313.962
2317.970
2321.978
2325.986
2329.994
2334.002
2338.010
2342.018
2346.026
2350.034
2354.042
2358.050
2362.058
2366.066
2370.074
2374.082
2378.090
2382.098
2386.106
2390.114
2394.122
2398.130
2402.138
2406.146
2410.154
2414.162
2411.694
2409.225
2406.757
2404.288
2401.820
2399.351
2396.883
2394.414
2391.946
2389.477
2387.009
2384.540
2382.072
2379.603
2377.135
2374.666
2372.198
2369.729
2367.261
2364.792
2362.324
2359.855
2357.387
2354.918
2352.450
2349.981
2347.513
2345.044
2342.576
2340.107
2337.639
2335.170
2332.702
2330.233
2327.765
2325.296
2322.828
2320.359
2317.891
2315.422
2312.954
2310.485
2308.017
2305.548
2303.080
2300.611
2298.143
2295.674
2293.206
2290.737
2288.269
2285.800
2283.332
2280.863
2278.395
2275.926
2273.458
2270.989
2268.521
2266.052
2263.584
2261.115
2258.647
2256.178
2253.710
2251.241
2248.773
2246.304
2243.836
2241.367
2238.899
2236.430
2233.962
2231.493
2229.025
2226.556
2224.088
2221.619
2219.151
2216.682
2214.214
2211.745
2209.277
2206.808
2204.340
2201.871
2199.403
2196.934
2194.466
2191.997
2189.529
2187.060
2184.592
2182.123
2179.655
2177.186
2174.718
2172.249
2169.781
2167.312
2164.844
2162.375
2159.907
2157.438
2154.970
2152.501
2150.033
2147.564
2145.096
2142.627
2140.159
2137.690
2135.222
2132.753
2130.285
2127.816
2125.348
2122.879
2120.411
2117.942
2115.474
2113.005
2110.537
2108.068
2105.600
2103.131
2100.663
2098.194
2095.726
2093.257
2090.789
2088.320
2085.852
2083.383
2080.915
2078.446
2075.978
2073.509
2071.041
2068.572
2066.104
2063.635
2061.167
2058.698
2056.230
2053.761
2051.293
2048.824
2046.356
2043.887
2041.419
2038.950
2036.482
2034.013
2031.545
2029.076
2026.608
2024.139
2021.671
2019.202
2016.734
2014.265
2011.797
2009.328
2006.860
2004.391
2001.923
1999.454
1996.986
1994.517
1992.049
1989.580
1987.112
1984.643
1982.175
1979.706
1977.238
1974.769
1972.301
1969.832
1967.364
1964.895
1962.427
1959.958
1957.490
1955.021
1952.553
1950.084
1947.616
1945.147
1942.679
1940.210
1937.742
1935.273
1932.805
1930.336
1927.868
1925.399
1922.931
1920.462
1919.289
1918.116
1916.943
1915.770
1914.597
1913.424
1912.251
1911.078
1909.905
1908.732
1907.559
1906.386
1905.213
1904.040
1902.867
1901.694
1900.521
1899.348
1898.175
1897.002
1895.829
1894.656
1893.483
1892.310
1891.137
1889.964
1888.791
1887.618
1886.445
1885.272
1884.099
1882.926
1881.753
1880.580
1879.407
1878.234
1877.061
1875.888
1874.715
1873.542
1872.369
1871.196
1870.023
1868.850
1867.677
1866.504
1865.331
1864.158
1862.985
1861.812
1860.639
1859.466
1858.293
1857.120
1855.947
1854.774
1853.601
1852.428
1851.255
1850.082
1848.909
1847.736
1846.563
1845.390
1844.217
1843.044
1841.871
1840.698
1839.525
1838.352
1837.179
1836.006
1834.833
1833.660
1832.487
1831.314
1830.141
1828.968
1827.795
1826.622
1825.449
1824.276
1823.103
1821.930
1820.757
1819.584
1818.411
1817.238
1816.065
1814.892
1813.719
1812.546
1811.373
1810.200
1809.027
1807.854
1806.681
1805.508
1804.335
1803.162
1801.989
1800.816
1799.643
1798.470
1797.297
1796.124
1794.951
1793.778
1792.605
1791.432
1790.259
1789.086
1787.913
1786.740
1785.567
1784.394
1783.221
1782.048
1780.875
1779.702
1778.529
1777.356
1776.183
1775.010
1773.837
1772.664
1771.491
1770.318
1769.145
1767.972
1766.799
1765.626
1764.453
1763.280
1762.107
1760.934
1759.761
1758.588
1757.415
1756.242
1755.069
1753.896
1752.723
1751.550
1750.377
1749.204
1748.031
1746.858
1745.685
1744.512
1743.339
1742.166
1740.993
1739.820
1738.647
1737.474
1736.301
1735.128
1733.955
1732.782
1731.609
1730.436
1729.263
1728.090
1726.917
1725.744
1724.571
1723.398
1722.225
1721.052
1719.879
1718.706
1717.533
1716.360
1715.187
1714.014
1712.841
1711.668
1710.495
1709.322
1708.149
1706.976
1705.803
1704.630
1703.457
1702.284
1701.111
1699.938
1698.765
1697.592
1696.419
1695.246
1694.073
1692.900
1691.727
1690.554
1689.381
1688.208
1687.035
1685.862
1682.808
1679.753
1676.699
1673.644
1670.590
1667.535
1664.481
1661.426
1658.372
1655.317
1652.263
1649.208
1646.154
1643.099
1640.045
1636.990
1633.936
1630.881
1627.827
1624.772
1621.718
1618.663
1615.609
1612.554
1609.500
1606.445
1603.391
1600.336
1597.282
1594.227
1591.173
1588.118
1585.064
1582.009
1578.955
1575.900
1572.846
1569.791
1566.737
1563.682
1560.628
1557.573
1554.519
1551.464
1548.410
1545.355
1542.301
1539.246
1536.192
1533.137
1530.083
1527.028
1523.974
1520.919
1517.865
1514.810
1511.756
1508.701
1505.647
1502.592
1499.538
1496.483
1493.429
1490.374
1487.320
1484.265
1481.211
1478.156
1475.102
1472.047
1468.993
1465.938
1462.884
1459.829
1456.775
1453.720
1450.666
1447.611
1444.557
1441.502
1438.448
1435.393
1432.339
1429.284
1426.230
1423.175
1420.121
1417.066
1414.012
1410.957
1407.903
1404.848
1401.794
1398.739
1395.685
1392.630
1389.576
1386.521
1383.467
1380.412
1377.358
1374.303
1371.249
1368.194
1365.140
1362.085
1359.031
1355.976
1352.922
1349.867
1346.813
1343.758
1340.704
1337.649
1334.595
1331.540
1328.486
1325.431
1322.377
1319.322
1316.268
1313.213
1310.159
1307.104
1304.050
1300.995
1297.941
1294.886
1291.832
1288.777
1285.723
1282.668
1279.614
1276.559
1273.505
1270.450
1267.396
1264.341
1261.287
1258.232
1255.178
1252.123
1249.069
1246.014
1242.960
1239.905
1236.851
1233.796
1230.742
1227.687
1224.633
1221.578
1218.524
1215.469
1212.415
1209.360
1206.306
1203.251
1200.197
1197.142
1194.088
1191.033
1187.979
1184.924
1181.870
1178.815
1175.761
1172.706
1169.652
1166.597
1163.543
1160.488
1157.434
1154.379
1151.325
1148.270
1145.216
1142.161
1139.107
1136.052
1132.998
1129.943
1126.889
1123.834
1120.780
1117.725
1114.671
1111.616
1108.562
1105.507
1102.453
1099.398
1096.344
1093.289
1090.235
1087.180
1084.126
1081.071
1078.017
1074.962
1078.432
1081.902
1085.372
1088.842
1092.312
1095.782
1099.252
1102.722
1106.192
1109.662
1113.132
1116.602
1120.072
1123.542
1127.012
1130.482
1133.952
1137.422
1140.892
1144.362
1147.832
1151.302
1154.772
1158.242
1161.712
1165.182
1168.652
1172.122
1175.592
1179.062
1182.532
1186.002
1189.472
1192.942
1196.412
1199.882
1203.352
1206.822
1210.292
1213.762
1217.232
1220.702
1224.172
1227.642
1231.112
1234.582
1238.052
1241.522
1244.992
1248.462
1251.932
1255.402
1258.872
1262.342
1265.812
1269.282
1272.752
1276.222
1279.692
1283.162
1286.632
1290.102
1293.572
1297.042
1300.512
1303.982
1307.452
1310.922
1314.392
1317.862
1321.332
1324.802
1328.272
1331.742
1335.212
1338.682
1342.152
1345.622
1349.092
1352.562
1356.032
1359.502
1362.972
1366.442
1369.912
1373.382
1376.852
1380.322
1383.792
1387.262
1390.732
1394.202
1397.672
1401.142
1404.612
1408.082
1411.552
1415.022
1418.492
1421.962
1425.432
1428.902
1432.372
1435.842
1439.312
1442.782
1446.252
1449.722
1453.192
1456.662
1460.132
1463.602
1467.072
1470.542
1474.012
1477.482
1480.952
1484.422
1487.892
1491.362
1494.832
1498.302
1501.772
1505.242
1508.712
1512.182
1515.652
1519.122
1522.592
1526.062
1529.532
1533.002
1536.472
1539.942
1543.412
1546.882
1550.352
1553.822
1557.292
1560.762
1564.232
1567.702
1571.172
1574.642
1578.112
1581.582
1585.052
1588.522
1591.992
1595.462
1598.932
1602.402
1605.872
1609.342
1612.812
1616.282
1619.752
1623.222
1626.692
1630.162
1633.632
1637.102
1640.572
1644.042
1647.512
1650.982
1654.452
1657.922
1661.392
1664.862
1668.332
1671.802
1675.272
1678.742
1682.212
1685.682
1689.152
1692.622
1696.092
1699.562
1703.032
1706.502
1709.972
1713.442
1716.912
1720.382
1723.852
1727.322
1730.792
1734.262
1737.732
1741.202
1744.672
1748.142
1751.612
1755.082
1758.552
1762.022
1765.492
1768.962
1762.071
1755.179
1748.288
1741.396
1734.505
1727.613
1720.722
1713.830
1706.939
1700.047
1693.156
1686.264
1679.373
1672.481
1665.590
1658.698
1651.807
1644.915
1638.024
1631.132
1624.241
1617.349
1610.458
1603.566
1596.675
1589.783
1582.892
1576.000
1569.109
1562.217
1555.326
1548.434
1541.543
1534.651
1527.760
1520.868
1513.977
1507.085
1500.194
1493.302
1486.411
1479.519
1472.628
1465.736
1458.845
1451.953
1445.062
1438.170
1431.279
1424.387
1417.496
1410.604
1403.713
1396.821
1389.930
1383.038
1376.147
1369.255
1362.364
1355.472
1348.581
1341.689
1334.798
1327.906
1321.015
1314.123
1307.232
1300.340
1293.449
1286.557
1279.666
1272.774
1265.883
1258.991
1252.100
1245.208
1238.317
1231.425
1224.534
1217.642
1210.751
1203.859
1196.968
1190.076
1183.185
1176.293
1169.402
1162.510
1155.619
1148.727
1141.836
1134.944
1128.053
1121.161
1114.270
1107.378
1100.487
1093.595
1086.704
1079.812
1072.921
1066.029
1059.138
1052.246
1045.355
1038.463
1031.572
1024.680
1017.789
1010.897
1004.006
997.114
990.223
983.331
976.440
969.548
962.657
955.765
948.874
941.982
935.091
928.199
921.308
914.416
907.525
900.633
893.742
886.850
879.959
873.067
866.176
859.284
852.393
845.501
838.610
831.718
824.827
817.935
811.044
804.152
797.261
790.369
783.478
776.586
769.695
762.803
755.912
749.020
742.129
735.237
728.346
721.454
714.563
707.671
700.780
693.888
686.997
680.105
673.214
666.322
659.431
652.539
645.648
638.756
631.865
624.973
618.082
611.190
604.299
597.407
590.516
583.624
576.733
569.841
562.950
556.058
549.167
542.275
535.384
528.492
521.601
514.709
507.818
500.926
494.035
487.143
480.252
473.360
466.469
459.577
452.686
445.794
438.903
432.011
425.120
418.228
411.337
404.445
397.554
390.662
389.514
388.365
387.217
386.068
384.920
383.771
382.623
381.474
380.326
379.177
378.029
376.880
375.732
374.583
373.435
372.286
371.138
369.989
368.841
367.692
366.544
365.395
364.247
363.098
361.950
360.801
359.653
358.504
357.356
356.207
355.059
353.910
352.762
351.613
350.465
349.316
348.168
347.019
345.871
344.722
343.574
342.425
341.277
340.128
338.980
337.831
336.683
335.534
334.386
333.237
332.089
330.940
329.792
328.643
327.495
326.346
325.198
324.049
322.901
321.752
320.604
319.455
318.307
317.158
316.010
314.861
313.713
312.564
311.416
310.267
309.119
307.970
306.822
305.673
304.525
303.376
302.228
301.079
299.931
298.782
297.634
296.485
295.337
294.188
293.040
291.891
290.743
289.594
288.446
287.297
286.149
285.000
283.852
282.703
281.555
280.406
279.258
278.109
276.961
275.812
274.664
273.515
272.367
271.218
270.070
268.921
267.773
266.624
265.476
264.327
263.179
262.030
260.882
259.733
258.585
257.436
256.288
255.139
253.991
252.842
251.694
250.545
249.397
248.248
247.100
245.951
244.803
243.654
242.506
241.357
240.209
239.060
237.912
236.763
235.615
234.466
233.318
232.169
231.021
229.872
228.724
227.575
226.427
225.278
224.130
222.981
221.833
220.684
219.536
218.387
217.239
216.090
214.942
213.793
212.645
211.496
210.348
209.199
208.051
206.902
205.754
204.605
203.457
202.308
201.160
200.011
198.863
197.714
196.566
195.417
194.269
193.120
191.972
190.823
189.675
188.526
187.378
186.229
185.081
183.932
182.784
181.635
180.487
179.338
178.190
177.041
175.893
174.744
173.596
172.447
171.299
170.150
169.002
167.853
166.705
165.556
164.408
163.259
162.111
160.962
160.962
160.962
160.962
160.962
160.962
160.962
160.962
160.962
160.962
160.962
160.962
160.962
160.962
160.962
160.962
160.962
160.962
160.962
160.962
160.962
160.962
160.962
160.962
160.962
160.962
160.962
160.962
160.962
160.962
160.962
160.962
160.962
160.962
160.962
160.962
160.962
160.962
160.962
160.962
160.962
160.962
160.962
160.962
160.962
160.962
160.962
160.962
160.962
160.962
160.962
160.962
160.962
160.962
160.962
160.962
160.962
160.962
160.962
160.962
160.962
160.962
160.962
160.962
160.962
160.962
160.962
160.962
160.962
160.962
160.962
160.962
160.962
160.962
160.962
160.962
160.962
160.962
160.962
160.962
160.962
160.962
160.962
160.962
160.962
160.962
160.962
160.962
160.962
160.962
160.962
160.962
160.962
160.962
160.962
160.962
160.962
160.962
160.962
160.962
160.962
160.962
160.962
160.962
160.962
160.962
160.962
160.962
160.962
160.962
160.962
160.962
160.962
160.962
160.962
160.962
160.962
160.962
160.962
160.962
160.962
160.962
160.962
160.962
160.962
160.962
160.962
160.962
160.962
160.962
160.962
160.962
160.962
160.962
160.962
160.962
160.962
160.962
160.962
160.962
160.962
160.962
160.962
160.962
160.962
160.962
160.962
160.962
160.962
160.962
160.962
160.962
160.962
160.962
160.962
160.962
160.962
160.962
160.962
160.962
160.962
160.962
160.962
160.962
160.962
160.962
160.962
160.962
160.962
160.962
160.962
160.962
160.962
160.962
160.962
160.962
160.962
160.962
160.962
160.962
160.962
160.962
160.962
160.962
160.962
160.962
160.962
160.962
160.962
160.962
160.962
160.962
160.962
160.962
160.962
160.962
160.962
160.962
160.962
160.962
82.762
82.787
82.811
82.836
82.860
82.885
82.909
82.934
82.958
82.983
83.007
83.032
83.056
83.081
83.105
83.130
83.154
83.179
83.203
83.228
83.252
83.277
83.301
83.326
83.350
83.375
83.399
83.424
83.448
83.473
83.497
83.522
83.546
83.571
83.595
83.620
83.644
83.669
83.693
83.718
83.742
83.767
83.791
83.816
83.840
83.865
83.889
83.914
83.938
83.963
83.987
84.012
84.036
84.061
84.085
84.110
84.134
84.159
84.183
84.208
84.232
84.257
84.281
84.306
84.330
84.355
84.379
84.404
84.428
84.453
84.477
84.502
84.526
84.551
84.575
84.600
84.624
84.649
84.673
84.698
84.722
84.747
84.771
84.796
84.820
84.845
84.869
84.894
84.918
84.943
84.967
84.992
85.016
85.041
85.065
85.090
85.114
85.139
85.163
85.188
85.212
85.237
85.261
85.286
85.310
85.335
85.359
85.384
85.408
85.433
85.457
85.482
85.506
85.531
85.555
85.580
85.604
85.629
85.653
85.678
85.702
85.727
85.751
85.776
85.800
85.825
85.849
85.874
85.898
85.923
85.947
85.972
85.996
86.021
86.045
86.070
86.094
86.119
86.143
86.168
86.192
86.217
86.241
86.266
86.290
86.315
86.339
86.364
86.388
86.413
86.437
86.462
86.486
86.511
86.535
86.560
86.584
86.609
86.633
86.658
86.682
86.707
86.731
86.756
86.780
86.805
86.829
86.854
86.878
86.903
86.927
86.952
86.976
87.001
87.025
87.050
87.074
87.099
87.123
87.148
87.172
87.197
87.221
87.246
87.270
87.295
87.319
87.344
87.368
87.393
87.417
87.442
87.466
87.491
87.515
87.540
87.564
87.589
87.613
87.638
87.662
87.662
87.662
87.662
87.662
87.662
87.662
87.662
87.662
87.662
87.662
87.662
87.662
87.662
87.662
87.662
87.662
87.662
87.662
87.662
87.662
87.662
87.662
87.662
87.662
87.662
87.662
87.662
87.662
87.662
87.662
87.662
87.662
87.662
87.662
87.662
87.662
87.662
87.662
87.662
87.662
87.662
87.662
87.662
87.662
87.662
87.662
87.662
87.662
87.662
87.662
87.662
87.662
87.662
87.662
87.662
87.662
87.662
87.662
87.662
87.662
87.662
87.662
87.662
87.662
87.662
87.662
87.662
87.662
87.662
87.662
87.662
87.662
87.662
87.662
87.662
87.662
87.662
87.662
87.662
87.662
87.662
87.662
87.662
87.662
87.662
87.662
87.662
87.662
87.662
87.662
87.662
87.662
87.662
87.662
87.662
87.662
87.662
87.662
87.662
87.662
87.662
87.662
87.662
87.662
87.662
87.662
87.662
87.662
87.662
87.662
87.662
87.662
87.662
87.662
87.662
87.662
87.662
87.662
87.662
87.662
87.662
87.662
87.662
87.662
87.662
87.662
87.662
87.662
87.662
87.662
87.662
87.662
87.662
87.662
87.662
87.662
87.662
87.662
87.662
87.662
87.662
87.662
87.662
87.662
87.662
87.662
87.662
87.662
87.662
87.662
87.662
87.662
87.662
87.662
87.662
87.662
87.662
87.662
87.662
87.662
87.662
87.662
87.662
87.662
87.662
87.662
87.662
87.662
87.662
87.662
87.662
87.662
87.662
87.662
87.662
87.662
87.662
87.662
87.662
87.662
87.662
87.662
87.662
87.662
87.662
87.662
87.662
87.662
87.662
87.662
87.662
87.662
87.662
87.662
87.662
87.662
87.662
87.662
87.662
87.662
87.662
87.662
87.662
87.662
87.662
87.662
87.662
87.662
87.662
87.662
87.662
87.662
87.662
87.662
87.662
87.662
87.662
87.662
87.662
87.662
87.662
87.662
87.662
87.662
87.662
87.662
87.662
87.662
87.662
87.662
87.662
87.662
87.662
87.662
87.662
87.662
87.662
87.662
87.662
87.662
87.662
87.662
87.662
87.662
87.662
87.662
87.662
87.662
87.662
87.662
87.662
87.662
87.662
87.662
87.662
87.662
87.662
87.662
87.662
87.662
87.662
87.662
87.662
87.662
87.662
87.662
87.662
87.662
87.662
87.662
87.662
87.662
87.662
87.662
87.662
87.662
87.662
87.662
87.662
87.662
87.662
87.662
87.662
87.662
87.662
87.662
87.662
87.662
87.662
87.662
87.662
87.662
87.662
87.662
87.662
87.662
87.662
87.662
87.662
87.662
87.662
87.662
87.662
87.662
87.662
87.662
87.662
87.662
87.662
87.662
87.662
87.662
87.662
87.662
87.662
87.662
87.662
87.662
87.662
87.662
87.662
87.662
87.662
87.662
87.662
87.662
87.662
87.662
87.662
87.662
87.662
87.662
87.662
87.662
87.662
87.662
87.662
87.662
87.662
87.662
87.662
87.662
87.662
87.662
87.662
87.662
87.662
87.662
87.662
87.662
87.662
87.662
87.662
87.662
