2158.641
2163.309
2167.977
2172.645
2177.313
2181.981
2186.649
2186.991
2187.333
2187.675
2188.017
2188.359
2188.701
2189.043
2189.385
2189.727
2190.069
2190.411
2190.753
2191.095
2191.437
2191.779
2192.121
2192.463
2192.805
2193.147
2193.489
2193.831
2194.173
2194.515
2194.857
2195.199
2195.541
2195.883
2196.225
2196.567
2196.909
2197.251
2197.593
2197.935
2198.277
2198.619
2198.961
2199.303
2199.645
2199.987
2200.329
2200.671
2201.013
2201.355
2201.697
2202.039
2202.381
2202.723
2203.065
2203.407
2203.749
2204.091
2204.433
2204.775
2205.117
2205.459
2205.801
2206.143
2206.485
2206.827
2207.169
2207.511
2207.853
2208.195
2208.537
2208.879
2209.221
2209.563
2209.905
2210.247
2210.589
2210.931
2211.273
2211.615
2211.957
2212.299
2212.641
2212.983
2213.325
2213.667
2214.009
2214.351
2214.693
2215.035
2215.377
2215.719
2216.061
2216.403
2216.745
2217.087
2217.429
2217.771
2218.113
2218.455
2218.797
2219.139
2219.481
2219.823
2220.165
2220.507
2220.849
2221.191
2221.533
2221.875
2222.217
2222.559
2222.901
2223.243
2223.585
2223.927
2224.269
2224.611
2224.953
2225.295
2225.637
2225.979
2226.321
2226.663
2227.005
2227.347
2227.689
2228.031
2228.373
2228.715
2229.057
2229.399
2229.741
2230.083
2230.425
2230.767
2231.109
2231.451
2231.793
2232.135
2232.477
2232.819
2233.161
2233.503
2233.845
2234.187
2234.529
2234.871
2235.213
2235.555
2235.897
2236.239
2236.581
2236.923
2237.265
2237.607
2237.949
2238.291
2238.633
2238.975
2239.317
2239.659
2240.001
2240.343
2240.685
2241.027
2241.369
2241.711
2242.053
2242.395
2242.737
2243.079
2243.421
2243.763
2244.105
2244.447
2244.789
2245.131
2245.473
2245.815
2246.157
2246.499
2246.841
2247.183
2247.525
2247.867
2248.209
2248.551
2248.893
2249.235
2249.577
2249.919
2250.261
2250.603
2250.945
2251.287
2251.629
2251.971
2252.313
2252.655
2252.997
2253.339
2253.681
2254.023
2254.365
2254.707
2255.049
2251.921
2248.793
2245.665
2242.537
2239.409
2236.281
2233.153
2230.025
2226.897
2223.769
2220.641
2217.513
2214.385
2211.257
2208.129
2205.001
2201.873
2198.745
2195.617
2192.489
2189.361
2186.233
2183.105
2179.977
2176.849
2173.721
2170.593
2167.465
2164.337
2161.209
2158.081
2154.953
2151.825
2148.697
2145.569
2142.441
2139.313
2136.185
2133.057
2129.929
2126.801
2123.673
2120.545
2117.417
2114.289
2111.161
2108.033
2104.905
2101.777
2098.649
2095.521
2092.393
2089.265
2086.137
2083.009
2079.881
2076.753
2073.625
2070.497
2067.369
2064.241
2061.113
2057.985
2054.857
2051.729
2048.601
2045.473
2042.345
2039.217
2036.089
2032.961
2029.833
2026.705
2023.577
2020.449
2017.321
2014.193
2011.065
2007.937
2004.809
2001.681
1998.553
1995.425
1992.297
1989.169
1986.041
1982.913
1979.785
1976.657
1973.529
1970.401
1967.273
1964.145
1961.017
1957.889
1954.761
1951.633
1948.505
1945.377
1942.249
1939.121
1935.993
1932.865
1929.737
1926.609
1923.481
1920.353
1917.225
1914.097
1910.969
1907.841
1904.713
1901.585
1898.457
1895.329
1892.201
1889.073
1885.945
1882.817
1879.689
1876.561
1873.433
1870.305
1867.177
1864.049
1860.921
1857.793
1854.665
1851.537
1848.409
1845.281
1842.153
1839.025
1835.897
1832.769
1829.641
1826.513
1823.385
1820.257
1817.129
1814.001
1810.873
1807.745
1804.617
1801.489
1798.361
1795.233
1792.105
1788.977
1785.849
1782.721
1779.593
1776.465
1773.337
1770.209
1767.081
1763.953
1760.825
1757.697
1754.569
1751.441
1748.313
1745.185
1742.057
1738.929
1735.801
1732.673
1729.545
1726.417
1723.289
1720.161
1717.033
1713.905
1710.777
1707.649
1704.521
1701.393
1698.265
1695.137
1692.009
1688.881
1685.753
1682.625
1679.497
1676.369
1673.241
1670.113
1666.985
1663.857
1660.729
1657.601
1654.473
1651.345
1648.217
1645.089
1641.961
1638.833
1635.705
1632.577
1629.449
1633.457
1637.465
1641.473
1645.481
1649.489
1653.497
1657.505
1661.513
1665.521
1669.529
1673.537
1677.545
1681.553
1685.561
1689.569
1693.577
1697.585
1701.593
1705.601
1709.609
1713.617
1717.625
1721.633
1725.641
1729.649
1733.657
1737.665
1741.673
1745.681
1749.689
1753.697
1757.705
1761.713
1765.721
1769.729
1773.737
1777.745
1781.753
1785.761
1789.769
1793.777
1797.785
1801.793
1805.801
1809.809
1813.817
1817.825
1821.833
1825.841
1829.849
1833.857
1837.865
1841.873
1845.881
1849.889
1853.897
1857.905
1861.913
1865.921
1869.929
1873.937
1877.945
1881.953
1885.961
1889.969
1893.977
1897.985
1901.993
1906.001
1910.009
1914.017
1918.025
1922.033
1926.041
1930.049
1934.057
1938.065
1942.073
1946.081
1950.089
1954.097
1958.105
1962.113
1966.121
1970.129
1974.137
1978.145
1982.153
1986.161
1990.169
1994.177
1998.185
2002.193
2006.201
2010.209
2014.217
2018.225
2022.233
2026.241
2030.249
2034.257
2038.265
2042.273
2046.281
2050.289
2054.297
2058.305
2062.313
2066.321
2070.329
2074.337
2078.345
2082.353
2086.361
2090.369
2094.377
2098.385
2102.393
2106.401
2110.409
2114.417
2118.425
2122.433
2126.441
2130.449
2134.457
2138.465
2142.473
2146.481
2150.489
2154.497
2158.505
2162.513
2166.521
2170.529
2174.537
2178.545
2182.553
2186.561
2190.569
2194.577
2198.585
2202.593
2206.601
2210.609
2214.617
2218.625
2222.633
2226.641
2230.649
2234.657
2238.665
2242.673
2246.681
2250.689
2254.697
2258.705
2262.713
2266.721
2270.729
2274.737
2278.745
2282.753
2286.761
2290.769
2294.777
2298.785
2302.793
2306.801
2310.809
2314.817
2318.825
2322.833
2326.841
2330.849
2334.857
2338.865
2342.873
2346.881
2350.889
2354.897
2358.905
2362.913
2366.921
2370.929
2374.937
2378.945
2382.953
2386.961
2390.969
2394.977
2398.985
2402.993
2407.001
2411.009
2415.017
2419.025
2423.033
2427.041
2431.049
2428.581
2426.112
2423.644
2421.175
2418.707
2416.238
2413.770
2411.301
2408.833
2406.364
2403.896
2401.427
2398.959
2396.490
2394.022
2391.553
2389.085
2386.616
2384.148
2381.679
2379.211
2376.742
2374.274
2371.805
2369.337
2366.868
2364.400
2361.931
2359.463
2356.994
2354.526
2352.057
2349.589
2347.120
2344.652
2342.183
2339.715
2337.246
2334.778
2332.309
2329.841
2327.372
2324.904
2322.435
2319.967
2317.498
2315.030
2312.561
2310.093
2307.624
2305.156
2302.687
2300.219
2297.750
2295.282
2292.813
2290.345
2287.876
2285.408
2282.939
2280.471
2278.002
2275.534
2273.065
2270.597
2268.128
2265.660
2263.191
2260.723
2258.254
2255.786
2253.317
2250.849
2248.380
2245.912
2243.443
2240.975
2238.506
2236.038
2233.569
2231.101
2228.632
2226.164
2223.695
2221.227
2218.758
2216.290
2213.821
2211.353
2208.884
2206.416
2203.947
2201.479
2199.010
2196.542
2194.073
2191.605
2189.136
2186.668
2184.199
2181.731
2179.262
2176.794
2174.325
2171.857
2169.388
2166.920
2164.451
2161.983
2159.514
2157.046
2154.577
2152.109
2149.640
2147.172
2144.703
2142.235
2139.766
2137.298
2134.829
2132.361
2129.892
2127.424
2124.955
2122.487
2120.018
2117.550
2115.081
2112.613
2110.144
2107.676
2105.207
2102.739
2100.270
2097.802
2095.333
2092.865
2090.396
2087.928
2085.459
2082.991
2080.522
2078.054
2075.585
2073.117
2070.648
2068.180
2065.711
2063.243
2060.774
2058.306
2055.837
2053.369
2050.900
2048.432
2045.963
2043.495
2041.026
2038.558
2036.089
2033.621
2031.152
2028.684
2026.215
2023.747
2021.278
2018.810
2016.341
2013.873
2011.404
2008.936
2006.467
2003.999
2001.530
1999.062
1996.593
1994.125
1991.656
1989.188
1986.719
1984.251
1981.782
1979.314
1976.845
1974.377
1971.908
1969.440
1966.971
1964.503
1962.034
1959.566
1957.097
1954.629
1952.160
1949.692
1947.223
1944.755
1942.286
1939.818
1937.349
1936.176
1935.003
1933.830
1932.657
1931.484
1930.311
1929.138
1927.965
1926.792
1925.619
1924.446
1923.273
1922.100
1920.927
1919.754
1918.581
1917.408
1916.235
1915.062
1913.889
1912.716
1911.543
1910.370
1909.197
1908.024
1906.851
1905.678
1904.505
1903.332
1902.159
1900.986
1899.813
1898.640
1897.467
1896.294
1895.121
1893.948
1892.775
1891.602
1890.429
1889.256
1888.083
1886.910
1885.737
1884.564
1883.391
1882.218
1881.045
1879.872
1878.699
1877.526
1876.353
1875.180
1874.007
1872.834
1871.661
1870.488
1869.315
1868.142
1866.969
1865.796
1864.623
1863.450
1862.277
1861.104
1859.931
1858.758
1857.585
1856.412
1855.239
1854.066
1852.893
1851.720
1850.547
1849.374
1848.201
1847.028
1845.855
1844.682
1843.509
1842.336
1841.163
1839.990
1838.817
1837.644
1836.471
1835.298
1834.125
1832.952
1831.779
1830.606
1829.433
1828.260
1827.087
1825.914
1824.741
1823.568
1822.395
1821.222
1820.049
1818.876
1817.703
1816.530
1815.357
1814.184
1813.011
1811.838
1810.665
1809.492
1808.319
1807.146
1805.973
1804.800
1803.627
1802.454
1801.281
1800.108
1798.935
1797.762
1796.589
1795.416
1794.243
1793.070
1791.897
1790.724
1789.551
1788.378
1787.205
1786.032
1784.859
1783.686
1782.513
1781.340
1780.167
1778.994
1777.821
1776.648
1775.475
1774.302
1773.129
1771.956
1770.783
1769.610
1768.437
1767.264
1766.091
1764.918
1763.745
1762.572
1761.399
1760.226
1759.053
1757.880
1756.707
1755.534
1754.361
1753.188
1752.015
1750.842
1749.669
1748.496
1747.323
1746.150
1744.977
1743.804
1742.631
1741.458
1740.285
1739.112
1737.939
1736.766
1735.593
1734.420
1733.247
1732.074
1730.901
1729.728
1728.555
1727.382
1726.209
1725.036
1723.863
1722.690
1721.517
1720.344
1719.171
1717.998
1716.825
1715.652
1714.479
1713.306
1712.133
1710.960
1709.787
1708.614
1707.441
1706.268
1705.095
1703.922
1702.749
1699.695
1696.640
1693.586
1690.531
1687.477
1684.422
1681.368
1678.313
1675.259
1672.204
1669.150
1666.095
1663.041
1659.986
1656.932
1653.877
1650.823
1647.768
1644.714
1641.659
1638.605
1635.550
1632.496
1629.441
1626.387
1623.332
1620.278
1617.223
1614.169
1611.114
1608.060
1605.005
1601.951
1598.896
1595.842
1592.787
1589.733
1586.678
1583.624
1580.569
1577.515
1574.460
1571.406
1568.351
1565.297
1562.242
1559.188
1556.133
1553.079
1550.024
1546.970
1543.915
1540.861
1537.806
1534.752
1531.697
1528.643
1525.588
1522.534
1519.479
1516.425
1513.370
1510.316
1507.261
1504.207
1501.152
1498.098
1495.043
1491.989
1488.934
1485.880
1482.825
1479.771
1476.716
1473.662
1470.607
1467.553
1464.498
1461.444
1458.389
1455.335
1452.280
1449.226
1446.171
1443.117
1440.062
1437.008
1433.953
1430.899
1427.844
1424.790
1421.735
1418.681
1415.626
1412.572
1409.517
1406.463
1403.408
1400.354
1397.299
1394.245
1391.190
1388.136
1385.081
1382.027
1378.972
1375.918
1372.863
1369.809
1366.754
1363.700
1360.645
1357.591
1354.536
1351.482
1348.427
1345.373
1342.318
1339.264
1336.209
1333.155
1330.100
1327.046
1323.991
1320.937
1317.882
1314.828
1311.773
1308.719
1305.664
1302.610
1299.555
1296.501
1293.446
1290.392
1287.337
1284.283
1281.228
1278.174
1275.119
1272.065
1269.010
1265.956
1262.901
1259.847
1256.792
1253.738
1250.683
1247.629
1244.574
1241.520
1238.465
1235.411
1232.356
1229.302
1226.247
1223.193
1220.138
1217.084
1214.029
1210.975
1207.920
1204.866
1201.811
1198.757
1195.702
1192.648
1189.593
1186.539
1183.484
1180.430
1177.375
1174.321
1171.266
1168.212
1165.157
1162.103
1159.048
1155.994
1152.939
1149.885
1146.830
1143.776
1140.721
1137.667
1134.612
1131.558
1128.503
1125.449
1122.394
1119.340
1116.285
1113.231
1110.176
1107.122
1104.067
1101.013
1097.958
1094.904
1091.849
1095.319
1098.789
1102.259
1105.729
1109.199
1112.669
1116.139
1119.609
1123.079
1126.549
1130.019
1133.489
1136.959
1140.429
1143.899
1147.369
1150.839
1154.309
1157.779
1161.249
1164.719
1168.189
1171.659
1175.129
1178.599
1182.069
1185.539
1189.009
1192.479
1195.949
1199.419
1202.889
1206.359
1209.829
1213.299
1216.769
1220.239
1223.709
1227.179
1230.649
1234.119
1237.589
1241.059
1244.529
1247.999
1251.469
1254.939
1258.409
1261.879
1265.349
1268.819
1272.289
1275.759
1279.229
1282.699
1286.169
1289.639
1293.109
1296.579
1300.049
1303.519
1306.989
1310.459
1313.929
1317.399
1320.869
1324.339
1327.809
1331.279
1334.749
1338.219
1341.689
1345.159
1348.629
1352.099
1355.569
1359.039
1362.509
1365.979
1369.449
1372.919
1376.389
1379.859
1383.329
1386.799
1390.269
1393.739
1397.209
1400.679
1404.149
1407.619
1411.089
1414.559
1418.029
1421.499
1424.969
1428.439
1431.909
1435.379
1438.849
1442.319
1445.789
1449.259
1452.729
1456.199
1459.669
1463.139
1466.609
1470.079
1473.549
1477.019
1480.489
1483.959
1487.429
1490.899
1494.369
1497.839
1501.309
1504.779
1508.249
1511.719
1515.189
1518.659
1522.129
1525.599
1529.069
1532.539
1536.009
1539.479
1542.949
1546.419
1549.889
1553.359
1556.829
1560.299
1563.769
1567.239
1570.709
1574.179
1577.649
1581.119
1584.589
1588.059
1591.529
1594.999
1598.469
1601.939
1605.409
1608.879
1612.349
1615.819
1619.289
1622.759
1626.229
1629.699
1633.169
1636.639
1640.109
1643.579
1647.049
1650.519
1653.989
1657.459
1660.929
1664.399
1667.869
1671.339
1674.809
1678.279
1681.749
1685.219
1688.689
1692.159
1695.629
1699.099
1702.569
1706.039
1709.509
1712.979
1716.449
1719.919
1723.389
1726.859
1730.329
1733.799
1737.269
1740.739
1744.209
1747.679
1751.149
1754.619
1758.089
1761.559
1765.029
1768.499
1771.969
1775.439
1778.909
1782.379
1785.849
1778.958
1772.066
1765.175
1758.283
1751.392
1744.500
1737.609
1730.717
1723.826
1716.934
1710.043
1703.151
1696.260
1689.368
1682.477
1675.585
1668.694
1661.802
1654.911
1648.019
1641.128
1634.236
1627.345
1620.453
1613.562
1606.670
1599.779
1592.887
1585.996
1579.104
1572.213
1565.321
1558.430
1551.538
1544.647
1537.755
1530.864
1523.972
1517.081
1510.189
1503.298
1496.406
1489.515
1482.623
1475.732
1468.840
1461.949
1455.057
1448.166
1441.274
1434.383
1427.491
1420.600
1413.708
1406.817
1399.925
1393.034
1386.142
1379.251
1372.359
1365.468
1358.576
1351.685
1344.793
1337.902
1331.010
1324.119
1317.227
1310.336
1303.444
1296.553
1289.661
1282.770
1275.878
1268.987
1262.095
1255.204
1248.312
1241.421
1234.529
1227.638
1220.746
1213.855
1206.963
1200.072
1193.180
1186.289
1179.397
1172.506
1165.614
1158.723
1151.831
1144.940
1138.048
1131.157
1124.265
1117.374
1110.482
1103.591
1096.699
1089.808
1082.916
1076.025
1069.133
1062.242
1055.350
1048.459
1041.567
1034.676
1027.784
1020.893
1014.001
1007.110
1000.218
993.327
986.435
979.544
972.652
965.761
958.869
951.978
945.086
938.195
931.303
924.412
917.520
910.629
903.737
896.846
889.954
883.063
876.171
869.280
862.388
855.497
848.605
841.714
834.822
827.931
821.039
814.148
807.256
800.365
793.473
786.582
779.690
772.799
765.907
759.016
752.124
745.233
738.341
731.450
724.558
717.667
710.775
703.884
696.992
690.101
683.209
676.318
669.426
662.535
655.643
648.752
641.860
634.969
628.077
621.186
614.294
607.403
600.511
593.620
586.728
579.837
572.945
566.054
559.162
552.271
545.379
538.488
531.596
524.705
517.813
510.922
504.030
497.139
490.247
483.356
476.464
469.573
462.681
455.790
448.898
442.007
435.115
428.224
421.332
414.441
104.549
104.549
104.549
104.549
104.549
104.549
104.549
104.549
104.549
104.549
104.549
104.549
104.549
104.549
104.549
104.549
104.549
104.549
104.549
104.549
104.549
104.549
104.549
104.549
104.549
104.549
104.549
104.549
104.549
104.549
104.549
104.549
104.549
104.549
104.549
104.549
104.549
104.549
104.549
104.549
104.549
104.549
104.549
104.549
104.549
104.549
104.549
104.549
104.549
104.549
104.549
104.549
104.549
104.549
104.549
104.549
104.549
104.549
104.549
104.549
104.549
104.549
104.549
104.549
104.549
104.549
104.549
104.549
104.549
104.549
104.549
104.549
104.549
104.549
104.549
104.549
104.549
104.549
104.549
104.549
104.549
104.549
104.549
104.549
104.549
104.549
104.549
104.549
104.549
104.549
104.549
104.549
104.549
104.549
104.549
104.549
104.549
104.549
104.549
104.549
104.549
104.549
104.549
104.549
104.549
104.549
104.549
104.549
104.549
104.549
104.549
104.549
104.549
104.549
104.549
104.549
104.549
104.549
104.549
104.549
104.549
104.549
104.549
104.549
104.549
104.549
104.549
104.549
104.549
104.549
104.549
104.549
104.549
104.549
104.549
104.549
104.549
104.549
104.549
104.549
104.549
104.549
104.549
104.549
104.549
104.549
104.549
104.549
104.549
104.549
104.549
104.549
104.549
104.549
104.549
104.549
104.549
104.549
104.549
104.549
104.549
104.549
104.549
104.549
104.549
104.549
104.549
104.549
104.549
104.549
104.549
104.549
104.549
104.549
104.549
104.549
104.549
104.549
104.549
104.549
104.549
104.549
104.549
104.549
104.549
104.549
104.549
104.549
104.549
104.549
104.549
104.549
104.549
104.549
104.549
104.549
104.549
104.549
104.549
104.549
104.549
104.549
104.549
104.549
104.549
104.549
104.549
104.549
104.549
104.549
104.549
104.549
104.549
104.549
104.549
104.549
104.549
104.549
104.549
104.549
104.549
104.549
104.549
104.549
104.549
104.549
104.549
104.549
104.549
104.549
104.549
104.549
104.549
104.549
104.549
104.549
104.549
104.549
104.549
104.549
104.549
104.549
104.549
104.549
104.549
104.549
104.549
104.549
104.549
104.549
104.549
104.549
104.549
104.549
104.549
104.549
104.549
104.549
104.549
104.549
104.549
104.549
104.549
104.549
104.549
104.549
104.549
104.549
104.549
104.549
104.549
104.549
104.549
104.549
104.549
104.549
104.549
104.549
104.549
104.549
104.549
104.549
104.549
104.549
104.549
104.549
104.549
104.549
104.549
104.549
104.549
104.549
104.549
104.549
104.549
104.549
104.549
104.549
104.549
104.549
104.549
104.549
104.549
104.549
104.549
104.549
104.549
104.549
104.549
104.549
104.549
104.549
104.549
104.549
104.549
104.549
104.549
104.549
104.549
104.549
104.549
104.549
104.549
104.549
104.549
104.549
104.549
104.549
104.549
104.549
104.549
104.549
104.549
104.549
104.549
104.549
104.549
104.549
104.549
104.549
104.549
104.549
104.549
104.549
104.549
104.549
104.549
104.549
104.549
104.549
104.549
104.549
104.549
104.549
104.549
104.549
104.549
104.549
104.549
104.549
104.549
104.549
104.549
104.549
104.549
104.549
104.549
104.549
104.549
104.549
104.549
104.549
104.549
104.549
104.549
104.549
104.549
104.549
104.549
104.549
104.549
104.549
104.549
104.549
104.549
104.549
104.549
104.549
104.549
104.549
104.549
104.549
104.549
104.549
