2114.134
2111.324
2108.514
2105.704
2102.894
2100.084
2097.274
2094.464
2091.654
2088.844
2086.034
2083.224
2080.414
2077.604
2074.794
2071.984
2069.174
2066.364
2063.554
2060.744
2057.934
2055.124
2052.314
2049.504
2046.694
2043.884
2041.074
2038.264
2035.454
2032.644
2029.834
2027.024
2024.214
2021.404
2018.594
2015.784
2012.974
2010.164
2007.354
2004.544
2001.734
1998.924
1996.114
1993.304
1990.494
1987.684
1984.874
1982.064
1979.254
1976.444
1973.634
1970.824
1968.014
112.804
112.804
112.804
112.804
112.804
112.804
112.804
112.804
112.804
112.804
112.804
112.804
112.804
112.804
112.804
112.804
112.804
112.804
112.804
112.804
112.804
112.804
112.804
112.804
112.804
112.804
112.804
112.804
112.804
112.804
112.804
112.804
112.804
112.804
112.804
112.804
112.804
112.804
112.804
112.804
112.804
112.804
112.804
112.804
112.804
112.804
112.804
112.804
112.804
112.804
112.804
112.804
112.804
112.804
112.804
112.804
112.804
112.804
112.804
112.804
112.804
112.804
112.804
112.804
112.804
112.804
112.804
112.804
112.804
112.804
112.804
112.804
112.804
112.804
112.804
112.804
112.804
112.804
112.804
112.804
112.804
112.804
112.804
112.804
112.804
112.804
112.804
112.804
112.804
112.804
112.804
112.804
112.804
112.804
112.804
112.804
112.804
112.804
112.804
112.804
112.804
112.804
112.804
112.804
112.804
112.804
112.804
112.804
112.804
112.804
112.804
112.804
112.804
112.804
112.804
112.804
112.804
112.804
112.804
112.804
112.804
112.804
112.804
112.804
112.804
112.804
112.804
112.804
112.804
112.804
112.804
112.804
112.804
112.804
112.804
112.804
112.804
112.804
112.804
112.804
112.804
112.804
112.804
112.804
112.804
112.804
112.804
112.804
112.804
112.804
112.804
112.804
112.804
112.804
112.804
112.804
112.804
112.804
112.804
112.804
112.804
112.804
112.804
112.804
112.804
112.804
112.804
112.804
112.804
112.804
112.804
112.804
112.804
112.804
112.804
112.804
112.804
112.804
112.804
112.804
112.804
112.804
112.804
112.804
112.804
112.804
112.804
112.804
112.804
112.804
112.804
112.804
112.804
112.804
112.804
112.804
112.804
112.804
112.804
112.804
112.804
112.804
112.804
112.804
112.804
112.804
112.804
112.804
112.804
112.804
112.804
112.804
112.804
112.804
112.804
112.804
112.804
112.804
112.804
112.804
112.804
112.804
112.804
112.804
112.804
112.804
112.804
112.804
112.804
112.804
112.804
112.804
112.804
112.804
112.804
112.804
112.804
112.804
112.804
112.804
112.804
112.804
112.804
112.804
112.804
112.804
112.804
112.804
112.804
112.804
112.804
112.804
112.804
112.804
112.804
112.804
112.804
112.804
112.804
112.804
112.804
112.804
112.804
112.804
112.804
112.804
112.804
112.804
112.804
112.804
112.804
112.804
112.804
112.804
112.804
112.804
112.804
112.804
112.804
112.804
112.804
112.804
112.804
112.804
112.804
112.804
112.804
112.804
112.804
112.804
112.804
112.804
112.804
112.804
112.804
112.804
112.804
112.804
112.804
112.804
112.804
112.804
112.804
112.804
112.804
112.804
112.804
112.804
112.804
112.804
112.804
112.804
112.804
112.804
112.804
112.804
112.804
112.804
112.804
112.804
112.804
112.804
112.804
112.804
112.804
112.804
112.804
112.804
112.804
112.804
112.804
112.804
112.804
112.804
112.804
112.804
112.804
112.804
112.804
112.804
112.804
112.804
112.804
112.804
112.804
112.804
112.804
112.804
112.804
112.804
112.804
112.804
112.804
112.804
112.804
112.804
112.804
112.804
112.804
112.804
112.804
112.804
112.804
112.804
112.804
112.804
112.804
112.804
112.804
112.804
112.804
112.804
112.804
112.804
112.804
112.804
112.804
112.804
112.804
112.804
112.804
112.804
112.804
112.804
112.804
112.804
112.804
112.804
112.804
112.804
112.804
112.804
112.804
112.804
112.804
112.804
112.804
112.804
112.804
112.804
112.804
112.804
112.804
112.804
112.804
112.804
112.804
112.804
112.804
112.804
112.804
112.804
112.804
112.804
112.804
112.804
112.804
112.804
112.804
112.804
112.804
112.804
112.804
112.804
112.804
112.804
112.804
112.804
112.804
112.804
112.804
112.804
112.804
112.804
112.804
112.804
112.804
112.804
112.804
112.804
112.804
112.804
112.804
112.804
112.804
112.804
112.804
112.804
112.804
112.804
112.804
112.804
112.804
112.804
112.804
112.804
112.804
112.804
112.804
112.804
112.804
112.804
112.804
112.804
112.804
112.804
112.804
112.804
112.804
112.804
112.804
112.804
112.804
112.804
112.804
112.804
112.804
112.804
112.804
112.804
112.804
112.804
112.804
112.804
112.804
112.804
112.804
112.804
112.804
112.804
112.804
112.804
112.804
112.804
112.804
112.804
112.804
112.804
112.804
112.804
112.804
112.804
112.804
112.804
112.804
112.804
112.804
112.804
112.804
112.804
112.804
112.804
112.804
112.804
112.804
112.804
112.804
112.804
112.804
112.804
112.804
112.804
112.804
112.804
112.804
112.804
112.804
112.804
112.804
112.804
112.804
112.804
112.804
112.804
112.804
112.804
112.804
112.804
112.804
112.804
112.804
112.804
112.804
112.804
112.804
112.804
112.804
112.804
112.804
112.804
112.804
112.804
112.804
112.804
112.804
112.804
112.804
112.804
112.804
112.804
112.804
112.804
112.804
112.804
112.804
112.804
112.804
112.804
112.804
112.804
112.804
112.804
112.804
112.804
112.804
112.804
112.804
112.804
112.804
112.804
112.804
112.804
112.804
112.804
112.804
112.804
112.804
112.804
112.804
112.804
112.804
112.804
112.804
112.804
112.804
112.804
112.804
112.804
112.804
112.804
112.804
112.804
112.804
112.804
112.804
112.804
112.804
112.804
112.804
112.804
112.804
112.804
112.804
112.804
112.804
112.804
112.804
112.804
112.804
112.804
112.804
112.804
112.804
112.804
112.804
112.804
112.804
112.804
112.804
112.804
112.804
112.804
112.804
112.804
112.804
112.804
112.804
112.804
112.804
112.804
112.804
112.804
112.804
112.804
112.804
112.804
112.804
112.804
112.804
112.804
112.804
112.804
112.804
112.804
112.804
112.804
112.804
112.804
112.804
112.804
112.804
112.804
112.804
112.804
112.804
112.804
112.804
112.804
112.804
112.804
112.804
112.804
112.804
112.804
112.804
112.804
112.804
112.804
112.804
112.804
112.804
112.804
112.804
112.804
112.804
112.804
112.804
112.804
112.804
112.804
112.804
112.804
112.804
112.804
112.804
112.804
112.804
112.804
112.804
112.804
112.804
112.804
112.804
112.804
112.804
112.804
112.804
112.804
112.804
112.804
112.804
112.804
112.804
112.804
112.804
112.804
112.804
112.804
112.804
112.804
112.804
112.804
112.804
112.804
112.804
112.804
112.804
112.804
112.804
112.804
112.804
112.804
112.804
112.804
112.804
112.804
112.804
112.804
112.804
112.804
112.804
112.804
112.804
112.804
112.804
112.804
112.804
112.804
112.804
112.804
112.804
112.804
112.804
112.804
112.804
112.804
112.804
112.804
112.804
112.804
112.804
112.804
112.804
112.804
112.804
112.804
112.804
112.804
112.804
112.804
112.804
112.804
112.804
112.804
112.804
112.804
112.804
112.804
112.804
112.804
112.804
112.804
112.804
112.804
112.804
112.804
112.804
112.804
112.804
112.804
112.804
112.804
112.804
112.804
112.804
112.804
112.804
112.804
112.804
112.804
112.804
112.780
112.755
112.731
112.706
112.682
112.657
112.633
112.608
112.584
112.559
112.535
112.510
112.486
112.461
112.437
112.412
112.388
112.363
112.339
112.314
112.290
112.265
112.241
112.216
112.192
112.167
112.143
112.118
112.094
112.069
112.045
112.020
111.996
111.971
111.947
111.922
111.898
111.873
111.849
111.824
111.800
111.775
111.751
111.726
111.702
111.677
111.653
111.628
111.604
111.579
111.555
111.530
111.506
111.481
111.457
111.432
111.408
111.383
111.359
111.334
111.310
111.285
111.261
111.236
111.212
111.187
111.163
111.138
111.114
111.089
111.065
111.040
111.016
110.991
110.967
110.942
110.918
110.893
110.869
110.844
110.820
110.795
110.771
110.746
110.722
110.697
110.673
110.648
110.624
110.599
110.575
110.550
110.526
110.501
110.477
110.452
110.428
110.403
110.379
110.354
110.330
110.305
110.281
110.256
110.232
110.207
110.183
110.158
110.134
110.109
110.085
110.060
110.036
110.011
109.987
109.962
109.938
109.913
109.889
109.864
109.840
109.815
109.791
109.766
109.742
109.717
109.693
109.668
109.644
109.619
109.595
109.570
109.546
109.521
109.497
109.472
109.448
109.423
109.399
109.374
109.350
109.325
109.301
109.276
109.252
109.227
109.203
109.178
109.154
109.129
109.105
109.080
109.056
109.031
109.007
108.982
108.958
108.933
108.909
108.884
108.860
108.835
108.811
108.786
108.762
108.737
108.713
108.688
108.664
108.639
108.615
108.590
108.566
108.541
108.517
108.492
108.468
108.443
108.419
108.394
108.370
108.345
108.321
108.296
108.272
108.247
108.223
108.198
108.174
108.149
108.125
108.100
108.076
108.051
108.027
108.002
107.978
107.953
107.929
107.904
107.977
108.050
108.123
108.196
108.269
108.342
108.415
108.488
108.561
108.634
108.707
108.780
108.853
108.926
108.999
109.072
109.145
109.218
109.291
109.364
109.437
109.510
109.583
109.656
109.729
109.802
109.875
109.948
110.021
110.094
110.167
110.240
110.313
110.386
110.459
110.532
110.605
110.678
110.751
110.824
110.897
110.970
111.043
111.116
111.189
111.262
111.335
111.408
111.481
111.554
111.627
111.700
111.773
111.846
111.919
111.992
112.065
112.138
112.211
112.284
112.357
112.430
112.503
112.576
112.649
112.722
112.795
112.868
112.941
113.014
113.087
113.160
113.233
113.306
113.379
113.452
113.525
113.598
113.671
113.744
113.817
113.890
113.963
114.036
114.109
114.182
114.255
114.328
114.401
114.474
114.547
114.620
114.693
114.766
114.839
114.912
114.985
115.058
115.131
115.204
115.277
115.350
115.423
115.496
115.569
115.642
115.715
115.788
115.861
115.934
116.007
116.080
116.153
116.226
116.299
116.372
116.445
116.518
116.591
116.664
116.737
116.810
116.883
116.956
117.029
117.102
117.175
117.248
117.321
117.394
117.467
117.540
117.613
117.686
117.759
117.832
117.905
117.978
118.051
118.124
118.197
118.270
118.343
118.416
118.489
118.562
118.635
118.708
118.781
118.854
118.927
119.000
119.073
119.146
119.219
119.292
119.365
119.438
119.511
119.584
119.657
119.730
119.803
119.876
119.949
120.022
120.095
120.168
120.241
120.314
120.387
120.460
120.533
120.606
120.679
120.752
120.825
120.898
120.971
121.044
121.117
121.190
121.263
121.336
121.409
121.482
121.555
121.628
121.701
121.774
121.847
121.920
121.993
122.066
122.139
122.212
122.285
122.358
122.431
122.504
122.456
122.407
122.359
122.310
122.262
122.213
122.165
122.116
122.068
122.019
121.971
121.922
121.874
121.825
121.777
121.728
121.680
121.631
121.583
121.534
121.486
121.437
121.389
121.340
121.292
121.243
121.195
121.146
121.098
121.049
121.001
120.952
120.904
120.855
120.807
120.758
120.710
120.661
120.613
120.564
120.516
120.467
120.419
120.370
120.322
120.273
120.225
120.176
120.128
120.079
120.031
119.982
119.934
119.885
119.837
119.788
119.740
119.691
119.643
119.594
119.546
119.497
119.449
119.400
119.352
119.303
119.255
119.206
119.158
119.109
119.061
119.012
118.964
118.915
118.867
118.818
118.770
118.721
118.673
118.624
118.576
118.527
118.479
118.430
118.382
118.333
118.285
118.236
118.188
118.139
118.091
118.042
117.994
117.945
117.897
117.848
117.800
117.751
117.703
117.654
117.606
117.557
117.509
117.460
117.412
117.363
117.315
117.266
117.218
117.169
117.121
117.072
117.024
116.975
116.927
116.878
116.830
116.781
116.733
116.684
116.636
116.587
116.539
116.490
116.442
116.393
116.345
116.296
116.248
116.199
116.151
116.102
116.054
116.005
115.957
115.908
115.860
115.811
115.763
115.714
115.666
115.617
115.569
115.520
115.472
115.423
115.375
115.326
115.278
115.229
115.181
115.132
115.084
115.035
114.987
114.938
114.890
114.841
114.793
114.744
114.696
114.647
114.599
114.550
114.502
114.453
114.405
114.356
114.308
114.259
114.211
114.162
114.114
114.065
114.017
113.968
113.920
113.871
113.823
113.774
113.726
113.677
113.629
113.580
113.532
113.483
113.435
113.386
113.338
113.289
113.241
113.192
113.144
113.095
113.047
112.998
112.950
112.901
112.853
112.804
112.804
112.804
112.804
112.804
112.804
112.804
112.804
112.804
112.804
112.804
112.804
112.804
112.804
112.804
112.804
112.804
112.804
112.804
112.804
112.804
112.804
112.804
112.804
112.804
112.804
112.804
112.804
112.804
112.804
112.804
112.804
112.804
112.804
112.804
112.804
112.804
112.804
112.804
112.804
112.804
112.804
112.804
112.804
112.804
112.804
112.804
112.804
112.804
112.804
112.804
112.804
112.804
112.804
112.804
112.804
112.804
112.804
112.804
112.804
112.804
112.804
112.804
112.804
112.804
112.804
112.804
112.804
112.804
112.804
112.804
112.804
112.804
112.804
112.804
112.804
112.804
112.804
112.804
112.804
112.804
112.804
112.804
112.804
112.804
112.804
112.804
112.804
112.804
112.804
112.804
112.804
112.804
112.804
112.804
112.804
112.804
112.804
112.804
112.804
112.804
112.804
112.804
112.804
112.804
112.804
112.804
112.804
112.804
112.804
112.804
112.804
112.804
112.804
112.804
112.804
112.804
112.804
112.804
112.804
112.804
112.804
112.804
112.804
112.804
112.804
112.804
112.804
112.804
112.804
112.804
112.804
112.804
112.804
112.804
112.804
112.804
112.804
112.804
112.804
112.804
112.804
112.804
112.804
112.804
112.804
112.804
112.804
112.804
112.804
112.804
112.804
112.804
112.804
112.804
112.804
112.804
112.804
112.804
112.804
112.804
112.804
112.804
112.804
112.804
112.804
112.804
112.804
112.804
112.804
112.804
112.804
112.804
112.804
112.804
112.804
112.804
112.804
112.804
112.804
112.804
112.804
112.804
112.804
112.804
112.804
112.804
112.804
112.804
112.804
112.804
112.804
112.804
112.804
112.804
112.804
112.804
112.804
112.804
112.804
112.804
112.804
112.804
112.804
112.804
112.804
112.804
112.804
112.804
112.804
112.804
112.804
112.804
112.804
112.804
112.804
112.804
112.804
112.804
112.804
112.804
112.804
112.804
112.804
112.804
112.804
112.804
112.804
112.804
112.804
112.804
112.804
112.804
112.804
112.804
112.804
112.804
112.804
112.804
112.804
112.804
112.804
112.804
112.804
112.804
112.804
112.804
112.804
112.804
112.804
112.804
112.804
112.804
112.804
112.804
112.804
112.804
112.804
112.804
112.804
112.804
112.804
112.804
112.804
112.804
112.804
112.804
112.804
112.804
112.804
112.804
112.804
112.804
112.804
112.804
112.804
112.804
112.804
112.804
112.804
112.804
112.804
112.804
112.804
112.804
112.804
112.804
112.804
112.804
112.804
112.804
112.804
112.804
112.804
112.804
112.804
112.804
112.804
112.804
112.804
112.804
112.804
112.804
112.804
112.804
112.804
112.804
112.804
112.804
112.804
112.804
112.804
112.804
112.804
112.804
112.804
112.804
112.804
112.804
112.804
112.804
112.804
112.804
112.804
112.804
112.804
112.804
112.804
112.804
112.804
112.804
112.804
112.804
112.804
112.804
112.804
112.804
112.804
112.804
112.804
112.804
112.804
112.804
112.804
112.804
112.804
112.804
112.804
112.804
112.804
112.804
112.804
112.804
112.804
112.804
112.804
112.804
112.804
112.804
112.804
112.804
112.804
112.804
112.804
112.804
112.804
112.804
112.804
112.804
112.804
112.804
112.804
112.804
112.804
112.804
112.804
112.804
112.804
112.804
112.804
112.804
112.804
112.804
112.804
112.804
112.804
112.804
112.804
112.804
112.804
112.804
112.804
112.804
112.804
112.804
112.804
112.804
112.804
112.804
112.804
112.804
112.804
112.804
112.804
112.804
112.804
112.804
112.804
112.804
112.804
112.804
112.804
112.804
112.804
112.804
112.804
112.804
112.804
112.804
112.804
112.804
112.804
112.804
112.804
112.804
112.804
112.804
112.804
112.804
112.804
112.804
112.804
112.804
112.804
112.804
112.804
112.804
112.804
112.804
112.804
112.804
112.804
112.804
112.804
112.804
112.804
112.804
112.804
112.804
112.804
112.804
112.804
112.804
112.804
112.804
112.804
112.804
112.804
112.804
112.804
112.804
112.804
112.804
112.804
112.804
112.804
112.804
112.804
112.804
112.804
112.804
112.804
112.804
112.804
112.804
112.804
112.804
112.804
112.804
112.804
112.804
112.804
112.804
112.804
112.804
112.804
112.804
112.804
112.804
112.804
112.804
112.804
112.804
112.804
112.804
112.804
112.804
112.804
112.804
112.804
112.804
112.804
112.804
112.804
112.804
112.804
112.804
112.804
112.804
112.804
112.804
112.804
112.804
112.804
112.804
112.804
112.804
112.804
112.804
112.804
112.804
112.804
112.804
112.804
112.804
112.804
112.804
112.804
112.804
112.804
112.804
112.804
112.804
112.804
112.804
112.804
112.804
112.804
112.804
112.804
112.804
112.804
112.804
112.804
112.804
112.804
112.804
