1345.874
1348.318
1350.761
1353.205
1355.648
1358.092
1360.535
1362.979
1365.422
1367.866
1370.309
1372.753
1375.196
1377.640
1380.083
1382.527
1384.970
1387.414
1389.857
1392.301
1394.744
1397.188
1399.631
1402.075
1404.518
1406.962
1409.405
1411.849
1414.292
1416.736
1419.179
1421.623
1424.066
1426.510
1428.953
1431.397
1433.840
1436.284
1438.727
1441.171
1443.614
1446.058
1448.501
1450.945
1453.388
1455.832
1458.275
1460.719
1463.162
1465.606
1468.049
1470.493
1472.936
1475.380
1477.823
1480.267
1482.710
1485.154
1487.597
1490.041
1492.484
1494.928
1497.371
1499.815
1502.258
1504.702
1507.145
1509.589
1512.032
1514.476
1516.919
1519.363
1521.806
1524.250
1526.693
1529.137
1531.580
1534.024
1536.467
1538.911
1541.354
1543.798
1546.241
1548.685
1551.128
1553.572
1556.015
1558.459
1560.902
1563.346
1565.789
1568.233
1570.676
1573.120
1575.563
1578.007
1580.450
1582.894
1585.337
1587.781
1590.224
1592.326
1594.428
1596.530
1598.632
1600.734
1602.836
1604.938
1607.040
1609.142
1611.244
1613.346
1615.448
1617.550
1619.652
1621.754
1623.856
1625.958
1628.060
1630.162
1632.264
1634.366
1636.468
1638.570
1640.672
1642.774
1644.876
1646.978
1649.080
1651.182
1653.284
1655.386
1657.488
1659.590
1661.692
1663.794
1665.896
1667.998
1670.100
1672.202
1674.304
1676.406
1678.508
1680.610
1682.712
1684.814
1686.916
1689.018
1691.120
1693.222
1695.324
1697.426
1699.528
1701.630
1703.732
1705.834
1707.936
1710.038
1712.140
1714.242
1716.344
1718.446
1720.548
1722.650
1724.752
1726.854
1728.956
1731.058
1733.160
1735.262
1737.364
1739.466
1741.568
1743.670
1745.772
1747.874
1749.976
1752.078
1754.180
1756.282
1758.384
1760.486
1762.588
1764.690
1766.792
1768.894
1770.996
1773.098
1775.200
1777.302
1779.404
1781.506
1783.608
1785.710
1787.812
1789.914
1792.016
1794.118
1796.220
1798.322
1800.424
1802.526
1804.628
1806.730
1808.832
1810.934
1813.036
1815.138
1817.240
1819.342
1821.444
1823.546
1825.648
1827.750
1829.852
1831.954
1834.056
1836.158
1838.260
1840.362
1842.464
1844.566
1846.668
1848.770
1850.872
1852.974
1855.076
1857.178
1859.280
1861.382
1863.484
1865.586
1867.688
1869.790
1871.892
1873.994
1876.096
1878.198
1880.300
1882.402
1884.504
1886.606
1888.708
1890.810
1892.912
1895.014
1897.116
1899.218
1901.320
1903.422
1905.524
1907.626
1909.728
1911.830
1913.932
1916.034
1918.136
1920.238
1922.340
1924.442
1926.544
1928.646
1930.748
1932.850
1934.952
1937.054
1939.156
1941.258
1943.360
1945.462
1947.564
1949.666
1951.768
1953.870
1955.972
1958.074
1960.176
1962.278
1964.380
1966.482
1968.584
1970.686
1972.788
1974.890
1976.992
1979.094
1981.196
1983.298
1985.400
1987.502
1989.604
1991.706
1993.808
1995.910
1998.012
2000.114
2002.216
2004.318
2006.420
2008.522
2010.624
2011.137
2011.650
2012.163
2012.676
2013.189
2013.702
2014.215
2014.728
2015.241
2015.754
2016.267
2016.780
2017.293
2017.806
2018.319
2018.832
2019.345
2019.858
2020.371
2020.884
2021.397
2021.910
2022.423
2022.936
2023.449
2023.962
2024.475
2024.988
2025.501
2026.014
2026.527
2027.040
2027.553
2028.066
2028.579
2029.092
2029.605
2030.118
2030.631
2031.144
2031.657
2032.170
2032.683
2033.196
2033.709
2034.222
2034.735
2035.248
2035.761
2036.274
2036.787
2037.300
2037.813
2038.326
2038.839
2039.352
2039.865
2040.378
2040.891
2041.404
2041.917
2042.430
2042.943
2043.456
2043.969
2044.482
2044.995
2045.508
2046.021
2046.534
2047.047
2047.560
2048.073
2048.586
2049.099
2049.612
2050.125
2050.638
2051.151
2051.664
2052.177
2052.690
2053.203
2053.716
2054.229
2054.742
2055.255
2055.768
2056.281
2056.794
2057.307
2057.820
2058.333
2058.846
2059.359
2059.872
2060.385
2060.898
2061.411
2061.924
2062.437
2062.950
2063.463
2063.976
2064.489
2065.002
2065.515
2066.028
2066.541
2067.054
2067.567
2068.080
2068.593
2069.106
2069.619
2070.132
2070.645
2071.158
2071.671
2072.184
2072.697
2073.210
2073.723
2074.236
2074.749
2075.262
2075.775
2076.288
2076.801
2077.314
2077.827
2078.340
2078.853
2079.366
2079.879
2080.392
2080.905
2081.418
2081.931
2082.444
2082.957
2083.470
2083.983
2084.496
2085.009
2085.522
2086.035
2086.548
2087.061
2087.574
2088.087
2088.600
2089.113
2089.626
2090.139
2090.652
2091.165
2091.678
2092.191
2092.704
2093.217
2093.730
2094.243
2094.756
2095.269
2095.782
2096.295
2096.808
2097.321
2097.834
2098.347
2098.860
2099.373
2099.886
2100.399
2100.912
2101.425
2101.938
2102.451
2102.964
2103.477
2103.990
2104.503
2105.016
2105.529
2106.042
2106.555
2107.068
2107.581
2108.094
2108.607
2109.120
2109.633
2110.146
2110.659
2111.172
2111.685
2112.198
2112.711
2113.224
2111.782
2110.340
2108.898
2107.456
2106.014
2104.572
2103.130
2101.688
2100.246
2098.804
2097.362
2095.920
2094.478
2093.036
2091.594
2090.152
2088.710
2087.268
2085.826
2084.384
2082.942
2081.500
2080.058
2078.616
2077.174
2075.732
2074.290
2072.848
2071.406
2069.964
2068.522
2067.080
2065.638
2064.196
2062.754
2061.312
2059.870
2058.428
2056.986
2055.544
2054.102
2052.660
2051.218
2049.776
2048.334
2046.892
2045.450
2044.008
2042.566
2041.124
2039.682
2038.240
2036.798
2035.356
2033.914
2032.472
2031.030
2029.588
2028.146
2026.704
2025.262
2023.820
2022.378
2020.936
2019.494
2018.052
2016.610
2015.168
2013.726
2012.284
2010.842
2009.400
2007.958
2006.516
2005.074
2003.632
2002.190
2000.748
1999.306
1997.864
1996.422
1994.980
1993.538
1992.096
1990.654
1989.212
1987.770
1986.328
1984.886
1983.444
1982.002
1980.560
1979.118
1977.676
1976.234
1974.792
1973.350
1971.908
1970.466
1969.024
1967.582
1966.140
1964.698
1963.256
1961.814
1960.372
1958.930
1957.488
1956.046
1954.604
1953.162
1951.720
1950.278
1948.836
1947.394
1945.952
1944.510
1943.068
1941.626
1940.184
1938.742
1937.300
1935.858
1934.416
1932.974
1931.532
1930.090
1928.648
1927.206
1925.764
1924.322
1922.880
1921.438
1919.996
1918.554
1917.112
1915.670
1914.228
1912.786
1911.344
1909.902
1908.460
1907.018
1905.576
1904.134
1902.692
1901.250
1899.808
1898.366
1896.924
1895.482
1894.040
1892.598
1891.156
1889.714
1888.272
1886.830
1885.388
1883.946
1882.504
1881.062
1879.620
1878.178
1876.736
1875.294
1873.852
1872.410
1870.968
1869.526
1868.084
1866.642
1865.200
1863.758
1862.316
1860.874
1859.432
1857.990
1856.548
1855.106
1853.664
1852.222
1850.780
1849.338
1847.896
1846.454
1845.012
1843.570
1842.128
1840.686
1839.244
1837.802
1836.360
1834.918
1833.476
1832.034
1830.592
1829.150
1827.708
1826.266
1824.824
1827.195
1829.565
1831.936
1834.306
1836.677
1839.047
1841.418
1843.788
1846.159
1848.529
1850.900
1853.270
1855.641
1858.011
1860.382
1862.752
1865.123
1867.493
1869.864
1872.234
1874.605
1876.975
1879.346
1881.716
1884.087
1886.457
1888.828
1891.198
1893.569
1895.939
1898.310
1900.680
1903.051
1905.421
1907.792
1910.162
1912.533
1914.903
1917.274
1919.644
1922.015
1924.385
1926.756
1929.126
1931.497
1933.867
1936.238
1938.608
1940.979
1943.349
1945.720
1948.090
1950.461
1952.831
1955.202
1957.572
1959.943
1962.313
1964.684
1967.054
1969.425
1971.795
1974.166
1976.536
1978.907
1981.277
1983.648
1986.018
1988.389
1990.759
1993.130
1995.500
1997.871
2000.241
2002.612
2004.982
2007.353
2009.723
2012.094
2014.464
2016.835
2019.205
2021.576
2023.946
2026.317
2028.687
2031.058
2033.428
2035.799
2038.169
2040.540
2042.910
2045.281
2047.651
2050.022
2052.392
2054.763
2057.133
2059.504
2061.874
2064.245
2066.615
2068.986
2071.356
2073.727
2076.097
2078.468
2080.838
2083.209
2085.579
2087.950
2090.320
2092.691
2095.061
2097.432
2099.802
2102.173
2104.543
2106.914
2109.284
2111.655
2114.025
2116.396
2118.766
2121.137
2123.507
2125.878
2128.248
2130.619
2132.989
2135.360
2137.730
2140.101
2142.471
2144.842
2147.212
2149.583
2151.953
2154.324
2156.694
2159.065
2161.435
2163.806
2166.176
2168.547
2170.917
2173.288
2175.658
2178.029
2180.399
2182.770
2185.140
2187.511
2189.881
2192.252
2194.622
2196.993
2199.363
2201.734
2204.104
2206.475
2208.845
2211.216
2213.586
2215.957
2218.327
2220.698
2223.068
2225.439
2227.809
2230.180
2232.550
2234.921
2237.291
2239.662
2242.032
2244.403
2246.773
2249.144
2251.514
2253.885
2256.255
2258.626
2260.996
2263.367
2265.737
2268.108
2270.478
2272.849
2275.219
2277.590
2279.960
2282.331
2284.701
2287.072
2289.442
2291.813
2294.183
2296.554
2298.924
2298.069
2297.214
2296.359
2295.504
2294.649
2293.794
2292.939
2292.084
2291.229
2290.374
2289.519
2288.664
2287.809
2286.954
2286.099
2285.244
2284.389
2283.534
2282.679
2281.824
2280.969
2280.114
2279.259
2278.404
2277.549
2276.694
2275.839
2274.984
2274.129
2273.274
2272.419
2271.564
2270.709
2269.854
2268.999
2268.144
2267.289
2266.434
2265.579
2264.724
2263.869
2263.014
2262.159
2261.304
2260.449
2259.594
2258.739
2257.884
2257.029
2256.174
2255.319
2254.464
2253.609
2252.754
2251.899
2251.044
2250.189
2249.334
2248.479
2247.624
2246.769
2245.914
2245.059
2244.204
2243.349
2242.494
2241.639
2240.784
2239.929
2239.074
2238.219
2237.364
2236.509
2235.654
2234.799
2233.944
2233.089
2232.234
2231.379
2230.524
2229.669
2228.814
2227.959
2227.104
2226.249
2225.394
2224.539
2223.684
2222.829
2221.974
2221.119
2220.264
2219.409
2218.554
2217.699
2216.844
2215.989
2215.134
2214.279
2213.424
2212.569
2211.714
2210.859
2210.004
2209.149
2208.294
2207.439
2206.584
2205.729
2204.874
2204.019
2203.164
2202.309
2201.454
2200.599
2199.744
2198.889
2198.034
2197.179
2196.324
2195.469
2194.614
2193.759
2192.904
2192.049
2191.194
2190.339
2189.484
2188.629
2187.774
2186.919
2186.064
2185.209
2184.354
2183.499
2182.644
2181.789
2180.934
2180.079
2179.224
2178.369
2177.514
2176.659
2175.804
2174.949
2174.094
2173.239
2172.384
2171.529
2170.674
2169.819
2168.964
2168.109
2167.254
2166.399
2165.544
2164.689
2163.834
2162.979
2162.124
2161.269
2160.414
2159.559
2158.704
2157.849
2156.994
2156.139
2155.284
2154.429
2153.574
2152.719
2151.864
2151.009
2150.154
2149.299
2148.444
2147.589
2146.734
2145.879
2145.024
2144.169
2143.314
2142.459
2141.604
2140.749
2139.894
2139.039
2138.184
2137.329
2136.474
2135.619
2134.764
2133.909
2133.054
2132.199
2131.344
2130.489
2129.634
2128.779
2127.924
2125.700
2123.476
2121.252
2119.028
2116.804
2114.580
2112.356
2110.132
2107.908
2105.684
2103.460
2101.236
2099.012
2096.788
2094.564
2092.340
2090.116
2087.892
2085.668
2083.444
2081.220
2078.996
2076.772
2074.548
2072.324
2070.100
2067.876
2065.652
2063.428
2061.204
2058.980
2056.756
2054.532
2052.308
2050.084
2047.860
2045.636
2043.412
2041.188
2038.964
2036.740
2034.516
2032.292
2030.068
2027.844
2025.620
2023.396
2021.172
2018.948
2016.724
2014.500
2012.276
2010.052
2007.828
2005.604
2003.380
2001.156
1998.932
1996.708
1994.484
1992.260
1990.036
1987.812
1985.588
1983.364
1981.140
1978.916
1976.692
1974.468
1972.244
1970.020
1967.796
1965.572
1963.348
1961.124
1958.900
1956.676
1954.452
1952.228
1950.004
1947.780
1945.556
1943.332
1941.108
1938.884
1936.660
1934.436
1932.212
1929.988
1927.764
1925.540
1923.316
1921.092
1918.868
1916.644
1914.420
1912.196
1909.972
1907.748
1905.524
1903.300
1901.076
1898.852
1896.628
1894.404
1892.180
1889.956
1887.732
1885.508
1883.284
1881.060
1878.836
1876.612
1874.388
1872.164
1869.940
1867.716
1865.492
1863.268
1861.044
1858.820
1856.596
1854.372
1852.148
1849.924
1847.700
1845.476
1843.252
1841.028
1838.804
1836.580
1834.356
1832.132
1829.908
1827.684
1825.460
1823.236
1821.012
1818.788
1816.564
1814.340
1812.116
1809.892
1807.668
1805.444
1803.220
1800.996
1798.772
1796.548
1794.324
1792.100
1789.876
1787.652
1785.428
1783.204
1780.980
1778.756
1776.532
1774.308
1772.084
1769.860
1767.636
1765.412
1763.188
1760.964
1758.740
1756.516
1754.292
1752.068
1749.844
1747.620
1745.396
1743.172
1740.948
1738.724
1736.500
1734.276
1732.052
1729.828
1727.604
1725.380
1723.156
1720.932
1718.708
1716.484
1714.260
1712.036
1709.812
1707.588
1705.364
1703.140
1700.916
1698.692
1696.468
1694.244
1692.020
1689.796
1687.572
1685.348
1683.124
1685.446
1687.767
1690.089
1692.410
1694.732
1697.053
1699.375
1701.696
1704.018
1706.339
1708.661
1710.982
1713.304
1715.625
1717.947
1720.268
1722.590
1724.911
1727.233
1729.554
1731.876
1734.197
1736.519
1738.840
1741.162
1743.483
1745.805
1748.126
1750.448
1752.769
1755.091
1757.412
1759.734
1762.055
1764.377
1766.698
1769.020
1771.341
1773.663
1775.984
1778.306
1780.627
1782.949
1785.270
1787.592
1789.913
1792.235
1794.556
1796.878
1799.199
1801.521
1803.842
1806.164
1808.485
1810.807
1813.128
1815.450
1817.771
1820.093
1822.414
1824.736
1827.057
1829.379
1831.700
1834.022
1836.343
1838.665
1840.986
1843.308
1845.629
1847.951
1850.272
1852.594
1854.915
1857.237
1859.558
1861.880
1864.201
1866.523
1868.844
1871.166
1873.487
1875.809
1878.130
1880.452
1882.773
1885.095
1887.416
1889.738
1892.059
1894.381
1896.702
1899.024
1901.345
1903.667
1905.988
1908.310
1910.631
1912.953
1915.274
1917.596
1919.917
1922.239
1924.560
1926.882
1929.203
1931.525
1933.846
1936.168
1938.489
1940.811
1943.132
1945.454
1947.775
1950.097
1952.418
1954.740
1957.061
1959.383
1961.704
1964.026
1966.347
1968.669
1970.990
1973.312
1975.633
1977.955
1980.276
1982.598
1984.919
1987.241
1989.562
1991.884
1994.205
1996.527
1998.848
2001.170
2003.491
2005.813
2008.134
2010.456
2012.777
2015.099
2017.420
2019.742
2022.063
2024.385
2026.706
2029.028
2031.349
2033.671
2035.992
2038.314
2040.635
2042.957
2045.278
2047.600
2049.921
2052.243
2054.564
2056.886
2059.207
2061.529
2063.850
2066.172
2068.493
2070.815
2073.136
2075.458
2077.779
2080.101
2082.422
2084.744
2087.065
2089.387
2091.708
2094.030
2096.351
2098.673
2100.994
2103.316
2105.637
2107.959
2110.280
2112.602
2114.923
2117.245
2119.566
2121.888
2124.209
2126.531
2128.852
2131.174
2133.495
2135.817
2138.138
2140.460
2142.781
2145.103
2147.424
2150.846
2154.267
2157.689
2161.110
2164.532
2167.953
2171.375
2174.796
2178.218
2181.639
2185.061
2188.482
2191.904
2195.325
2198.747
2202.168
2205.590
2209.011
2212.433
2215.854
2219.276
2222.697
2226.119
2229.540
2232.962
2236.383
2239.805
2243.226
2246.648
2250.069
2253.491
2256.912
2260.334
2263.755
2267.177
2270.598
2274.020
2277.441
2280.863
2284.284
2287.706
2291.127
2294.549
2297.970
2301.392
2304.813
2308.235
2311.656
2315.078
2318.499
2321.921
2325.342
2328.764
2332.185
2335.607
2339.028
2342.450
2345.871
2349.293
2352.714
2356.136
2359.557
2362.979
2366.400
2369.822
2373.243
2376.665
2380.086
2383.508
2386.929
2390.351
2393.772
2397.194
2400.615
2404.037
2407.458
2410.880
2414.301
2417.723
2421.144
2424.566
2427.987
2431.409
2434.830
2438.252
2441.673
2445.095
2448.516
2451.938
2455.359
2458.781
2462.202
2465.624
2469.045
2472.467
2475.888
2479.310
2482.731
2486.153
2489.574
2492.996
2496.417
2499.839
2503.260
2506.682
2510.103
2513.525
2516.946
2520.368
2523.789
2527.211
2530.632
2534.054
2537.475
2540.897
2544.318
2547.740
2551.161
2554.583
2558.004
2561.426
2564.847
2568.269
2571.690
2575.112
2578.533
2581.955
2585.376
2588.798
2592.219
2595.641
2599.062
2602.484
2605.905
2609.327
2612.748
2616.170
2619.591
2623.013
2626.434
2629.856
2633.277
2636.699
2640.120
2643.542
2646.963
2650.385
2653.806
2657.228
2660.649
2664.071
2667.492
2670.914
2674.335
2677.757
2681.178
2684.600
2688.021
2691.443
2694.864
2698.286
2701.707
2705.129
2708.550
2711.972
2715.393
2718.815
2722.236
2725.658
2729.079
2732.501
2735.922
2739.344
2742.765
2746.187
2749.608
2753.030
2756.451
2759.873
2763.294
2766.716
2770.137
2773.559
2776.980
2780.402
2783.823
2787.245
2790.666
2794.088
2797.509
2800.931
2804.352
2807.774
2811.195
2814.617
2818.038
2821.460
2824.881
2828.303
80.024
80.024
80.024
80.024
80.024
80.024
80.024
80.024
80.024
80.024
80.024
80.024
80.024
80.024
80.024
80.024
80.024
80.024
80.024
80.024
80.024
80.024
80.024
80.024
80.024
80.024
80.024
80.024
80.024
80.024
80.024
80.024
80.024
80.024
80.024
80.024
80.024
80.024
80.024
80.024
80.024
80.024
80.024
80.024
80.024
80.024
80.024
80.024
80.024
80.024
80.024
80.024
80.024
80.024
80.024
80.024
80.024
80.024
80.024
80.024
80.024
80.024
80.024
80.024
80.024
80.024
80.024
80.024
80.024
80.024
80.024
80.024
80.024
80.024
80.024
80.024
80.024
80.024
80.024
80.024
80.024
80.024
80.024
80.024
80.024
80.024
80.024
80.024
80.024
80.024
80.024
80.024
80.024
80.024
80.024
80.024
80.024
80.024
80.024
80.024
80.024
80.024
80.024
80.024
80.024
80.024
80.024
80.024
80.024
80.024
80.024
80.024
80.024
80.024
80.024
80.024
80.024
80.024
80.024
80.024
80.024
80.024
80.024
80.024
80.024
80.024
80.024
80.024
80.024
80.024
80.024
80.024
80.024
80.024
80.024
80.024
80.024
80.024
80.024
80.024
80.024
80.024
80.024
80.024
80.024
80.024
80.024
80.024
80.024
80.024
80.024
80.024
80.024
80.024
80.024
80.024
80.024
80.024
80.024
80.024
80.024
80.024
80.024
80.024
80.024
80.024
80.024
80.024
80.024
80.024
80.024
80.024
80.024
80.024
80.024
80.024
80.024
80.024
80.024
80.024
80.024
80.024
80.024
80.024
80.024
80.024
80.024
80.024
80.024
80.024
80.024
80.024
80.024
80.024
80.024
80.024
80.024
80.024
80.024
80.024
80.024
80.024
80.024
80.024
80.024
80.024
80.024
80.024
80.024
80.024
80.024
80.024
80.024
80.024
80.024
80.024
80.024
80.024
80.024
80.024
80.024
80.024
80.024
80.024
80.024
80.024
80.024
80.024
80.024
80.024
80.024
80.024
80.024
80.024
80.024
80.024
80.024
80.024
80.024
80.024
80.024
80.024
80.024
80.024
80.024
80.024
80.024
80.024
80.024
80.024
80.024
80.024
80.024
80.024
80.024
80.024
80.024
80.024
80.024
80.024
80.024
80.024
80.024
80.024
80.024
80.024
80.024
80.024
80.024
80.024
80.024
80.024
80.024
80.024
80.024
80.024
80.024
80.024
80.024
80.024
80.024
80.024
80.024
80.024
80.024
80.024
80.024
80.024
80.024
80.024
80.024
80.024
80.024
80.024
80.024
80.024
80.024
80.024
80.024
80.024
