1389.548
1391.967
1394.387
1396.806
1399.226
1401.645
1404.065
1406.484
1408.904
1411.323
1413.743
1416.162
1418.582
1421.001
1423.421
1425.840
1428.260
1430.679
1433.099
1435.518
1437.938
1440.357
1442.777
1445.196
1447.616
1450.035
1452.455
1454.874
1457.294
1459.713
1462.133
1464.552
1466.972
1469.391
1471.811
1474.230
1476.650
1479.069
1481.489
1483.908
1486.328
1488.747
1491.167
1493.586
1496.006
1498.425
1500.845
1503.264
1505.684
1508.103
1510.523
1512.942
1515.362
1517.781
1520.201
1522.620
1525.040
1527.459
1529.879
1532.298
1534.718
1537.137
1539.557
1541.976
1544.396
1546.815
1549.235
1551.654
1554.074
1556.493
1558.913
1561.332
1563.752
1566.171
1568.591
1571.010
1573.430
1575.849
1578.269
1580.688
1583.108
1585.527
1587.947
1590.366
1592.786
1595.205
1597.625
1600.044
1602.464
1604.883
1607.303
1609.722
1612.142
1614.561
1616.981
1619.400
1621.820
1624.239
1626.659
1629.078
1631.498
1633.917
1636.337
1638.756
1641.176
1643.595
1646.015
1648.434
1650.854
1653.273
1655.693
1658.112
1660.532
1662.951
1665.371
1667.790
1670.210
1672.629
1675.049
1677.468
1679.888
1682.307
1684.727
1687.146
1689.566
1691.985
1694.405
1696.824
1699.244
1701.663
1704.083
1706.502
1708.922
1711.341
1713.761
1716.180
1718.600
1721.019
1723.439
1725.858
1728.278
1730.697
1733.117
1735.536
1737.956
1740.375
1742.795
1745.214
1747.634
1750.053
1752.473
1754.892
1757.312
1759.731
1762.151
1764.570
1766.990
1769.409
1771.829
1774.248
1776.668
1779.087
1781.507
1783.926
1786.346
1788.765
1791.185
1793.604
1796.024
1798.443
1800.863
1803.282
1805.702
1808.121
1810.541
1812.960
1815.380
1817.799
1820.219
1822.638
1825.058
1827.477
1829.897
1832.316
1834.736
1835.542
1836.349
1837.155
1837.962
1838.768
1839.575
1840.381
1841.188
1841.994
1842.801
1843.607
1844.414
1845.220
1846.027
1846.833
1847.640
1848.446
1849.253
1850.059
1850.866
1851.672
1852.479
1853.285
1854.092
1854.898
1855.705
1856.511
1857.318
1858.124
1858.931
1859.737
1860.544
1861.350
1862.157
1862.963
1863.770
1864.576
1865.383
1866.189
1866.996
1867.802
1868.609
1869.415
1870.222
1871.028
1871.835
1872.641
1873.448
1874.254
1875.061
1875.867
1876.674
1877.480
1878.287
1879.093
1879.900
1880.706
1881.513
1882.319
1883.126
1883.932
1884.739
1885.545
1886.352
1887.158
1887.965
1888.771
1889.578
1890.384
1891.191
1891.997
1892.804
1893.610
1894.417
1895.223
1896.030
1896.836
1897.643
1898.449
1899.256
1900.062
1900.869
1901.675
1902.482
1903.288
1904.095
1904.901
1905.708
1906.514
1907.321
1908.127
1908.934
1909.740
1910.547
1911.353
1912.160
1912.966
1913.773
1914.579
1915.386
1916.192
1916.999
1917.805
1918.612
1919.418
1920.225
1921.031
1921.838
1922.644
1923.451
1924.257
1925.064
1925.870
1926.677
1927.483
1928.290
1929.096
1929.903
1930.709
1931.516
1932.322
1933.129
1933.935
1934.742
1935.548
1936.355
1937.161
1937.968
1938.774
1939.581
1940.387
1941.194
1942.000
1942.807
1943.613
1944.420
1945.226
1946.033
1946.839
1947.646
1948.452
1949.259
1950.065
1950.872
1951.678
1952.485
1953.291
1954.098
1954.904
1955.711
1956.517
1957.324
1958.130
1958.937
1959.743
1960.550
1961.356
1962.163
1962.969
1963.776
1964.582
1965.389
1966.195
1967.002
1967.808
1968.615
1969.421
1970.228
1971.034
1971.841
1972.647
1973.454
1974.260
1975.067
1975.873
1976.680
1977.486
1978.293
1979.099
1979.906
1980.712
1981.519
1982.325
1983.132
1983.938
1984.745
1985.551
1986.358
1987.164
1987.971
1988.777
1989.584
1990.390
1991.197
1992.003
1992.810
1993.616
1994.423
1995.229
1996.036
1997.111
1998.186
1999.261
2000.336
2001.411
2002.486
2003.561
2004.636
2005.711
2006.786
2007.861
2008.936
2010.011
2011.086
2012.161
2013.236
2014.311
2015.386
2016.461
2017.536
2018.611
2019.686
2020.761
2021.836
2022.911
2023.986
2025.061
2026.136
2027.211
2028.286
2029.361
2030.436
2031.511
2032.586
2033.661
2034.736
2035.811
2036.886
2037.961
2039.036
2040.111
2041.186
2042.261
2043.336
2044.411
2045.486
2046.561
2047.636
2048.711
2049.786
2050.861
2051.936
2053.011
2054.086
2055.161
2056.236
2057.311
2058.386
2059.461
2060.536
2061.611
2062.686
2063.761
2064.836
2065.911
2066.986
2068.061
2069.136
2070.211
2071.286
2072.361
2073.436
2074.511
2075.586
2076.661
2077.736
2078.811
2079.886
2080.961
2082.036
2083.111
2084.186
2085.261
2086.336
2087.411
2088.486
2089.561
2090.636
2091.711
2092.786
2093.861
2094.936
2096.011
2097.086
2098.161
2099.236
2100.311
2101.386
2102.461
2103.536
2104.611
2105.686
2106.761
2107.836
2108.911
2109.986
2111.061
2112.136
2113.211
2114.286
2115.361
2116.436
2117.511
2118.586
2119.661
2120.736
2121.811
2122.886
2123.961
2125.036
2126.111
2127.186
2128.261
2129.336
2130.411
2131.486
2132.561
2133.636
2134.711
2135.786
2136.861
2137.936
2139.011
2140.086
2141.161
2142.236
2143.311
2144.386
2145.461
2146.536
2147.611
2148.686
2149.761
2150.836
2151.911
2152.986
2154.061
2155.136
2156.211
2157.286
2158.361
2159.436
2160.511
2161.586
2162.661
2163.736
2164.811
2165.886
2166.961
2168.036
2169.111
2170.186
2171.261
2172.336
2173.411
2174.486
2175.561
2176.636
2177.711
2178.786
2179.861
2180.936
2182.011
2183.086
2184.161
2185.236
2186.311
2187.386
2188.461
2189.536
2190.611
2191.686
2192.761
2193.836
2194.911
2195.986
2197.061
2198.136
2199.211
2200.286
2201.361
2202.436
2203.511
2204.586
2205.661
2206.736
2207.811
2208.886
2209.961
2211.036
2210.645
2210.254
2209.863
2209.472
2209.081
2208.690
2208.299
2207.908
2207.517
2207.126
2206.735
2206.344
2205.953
2205.562
2205.171
2204.780
2204.389
2203.998
2203.607
2203.216
2202.825
2202.434
2202.043
2201.652
2201.261
2200.870
2200.479
2200.088
2199.697
2199.306
2198.915
2198.524
2198.133
2197.742
2197.351
2196.960
2196.569
2196.178
2195.787
2195.396
2195.005
2194.614
2194.223
2193.832
2193.441
2193.050
2192.659
2192.268
2191.877
2191.486
2191.095
2190.704
2190.313
2189.922
2189.531
2189.140
2188.749
2188.358
2187.967
2187.576
2187.185
2186.794
2186.403
2186.012
2185.621
2185.230
2184.839
2184.448
2184.057
2183.666
2183.275
2182.884
2182.493
2182.102
2181.711
2181.320
2180.929
2180.538
2180.147
2179.756
2179.365
2178.974
2178.583
2178.192
2177.801
2177.410
2177.019
2176.628
2176.237
2175.846
2175.455
2175.064
2174.673
2174.282
2173.891
2173.500
2173.109
2172.718
2172.327
2171.936
2171.545
2171.154
2170.763
2170.372
2169.981
2169.590
2169.199
2168.808
2168.417
2168.026
2167.635
2167.244
2166.853
2166.462
2166.071
2165.680
2165.289
2164.898
2164.507
2164.116
2163.725
2163.334
2162.943
2162.552
2162.161
2161.770
2161.379
2160.988
2160.597
2160.206
2159.815
2159.424
2159.033
2158.642
2158.251
2157.860
2157.469
2157.078
2156.687
2156.296
2155.905
2155.514
2155.123
2154.732
2154.341
2153.950
2153.559
2153.168
2152.777
2152.386
2151.995
2151.604
2151.213
2150.822
2150.431
2150.040
2149.649
2149.258
2148.867
2148.476
2148.085
2147.694
2147.303
2146.912
2146.521
2146.130
2145.739
2145.348
2144.957
2144.566
2144.175
2143.784
2143.393
2143.002
2142.611
2142.220
2141.829
2141.438
2141.047
2140.656
2140.265
2139.874
2139.483
2139.092
2138.701
2138.310
2137.919
2137.528
2137.137
2136.746
2136.355
2135.964
2135.573
2135.182
2134.791
2134.400
2134.009
2133.618
2133.227
2132.836
2132.103
2131.370
2130.637
2129.904
2129.171
2128.438
2127.705
2126.972
2126.239
2125.506
2124.773
2124.040
2123.307
2122.574
2121.841
2121.108
2120.375
2119.642
2118.909
2118.176
2117.443
2116.710
2115.977
2115.244
2114.511
2113.778
2113.045
2112.312
2111.579
2110.846
2110.113
2109.380
2108.647
2107.914
2107.181
2106.448
2105.715
2104.982
2104.249
2103.516
2102.783
2102.050
2101.317
2100.584
2099.851
2099.118
2098.385
2097.652
2096.919
2096.186
2095.453
2094.720
2093.987
2093.254
2092.521
2091.788
2091.055
2090.322
2089.589
2088.856
2088.123
2087.390
2086.657
2085.924
2085.191
2084.458
2083.725
2082.992
2082.259
2081.526
2080.793
2080.060
2079.327
2078.594
2077.861
2077.128
2076.395
2075.662
2074.929
2074.196
2073.463
2072.730
2071.997
2071.264
2070.531
2069.798
2069.065
2068.332
2067.599
2066.866
2066.133
2065.400
2064.667
2063.934
2063.201
2062.468
2061.735
2061.002
2060.269
2059.536
2058.803
2058.070
2057.337
2056.604
2055.871
2055.138
2054.405
2053.672
2052.939
2052.206
2051.473
2050.740
2050.007
2049.274
2048.541
2047.808
2047.075
2046.342
2045.609
2044.876
2044.143
2043.410
2042.677
2041.944
2041.211
2040.478
2039.745
2039.012
2038.279
2037.546
2036.813
2036.080
2035.347
2034.614
2033.881
2033.148
2032.415
2031.682
2030.949
2030.216
2029.483
2028.750
2028.017
2027.284
2026.551
2025.818
2025.085
2024.352
2023.619
2022.886
2022.153
2021.420
2020.687
2019.954
2019.221
2018.488
2017.755
2017.022
2016.289
2015.556
2014.823
2014.090
2013.357
2012.624
2011.891
2011.158
2010.425
2009.692
2008.959
2008.226
2007.493
2006.760
2006.027
2005.294
2004.561
2003.828
2003.095
2002.362
2001.629
2000.896
2000.163
1999.430
1998.697
1997.964
1997.231
1996.498
1995.765
1995.032
1994.299
1993.566
1992.833
1992.100
1991.367
1990.634
1989.901
1989.168
1988.435
1987.702
1986.969
1986.236
1984.330
1982.424
1980.518
1978.612
1976.706
1974.800
1972.894
1970.988
1969.082
1967.176
1965.270
1963.364
1961.458
1959.552
1957.646
1955.740
1953.834
1951.928
1950.022
1948.116
1946.210
1944.304
1942.398
1940.492
1938.586
1936.680
1934.774
1932.868
1930.962
1929.056
1927.150
1925.244
1923.338
1921.432
1919.526
1917.620
1915.714
1913.808
1911.902
1909.996
1908.090
1906.184
1904.278
1902.372
1900.466
1898.560
1896.654
1894.748
1892.842
1890.936
1889.030
1887.124
1885.218
1883.312
1881.406
1879.500
1877.594
1875.688
1873.782
1871.876
1869.970
1868.064
1866.158
1864.252
1862.346
1860.440
1858.534
1856.628
1854.722
1852.816
1850.910
1849.004
1847.098
1845.192
1843.286
1841.380
1839.474
1837.568
1835.662
1833.756
1831.850
1829.944
1828.038
1826.132
1824.226
1822.320
1820.414
1818.508
1816.602
1814.696
1812.790
1810.884
1808.978
1807.072
1805.166
1803.260
1801.354
1799.448
1797.542
1795.636
1793.730
1791.824
1789.918
1788.012
1786.106
1784.200
1782.294
1780.388
1778.482
1776.576
1774.670
1772.764
1770.858
1768.952
1767.046
1765.140
1763.234
1761.328
1759.422
1757.516
1755.610
1753.704
1751.798
1749.892
1747.986
1746.080
1744.174
1742.268
1740.362
1738.456
1736.550
1734.644
1732.738
1730.832
1728.926
1727.020
1725.114
1723.208
1721.302
1719.396
1717.490
1715.584
1713.678
1711.772
1709.866
1707.960
1706.054
1704.148
1702.242
1700.336
1698.430
1696.524
1694.618
1692.712
1690.806
1688.900
1686.994
1685.088
1683.182
1681.276
1679.370
1677.464
1675.558
1673.652
1671.746
1669.840
1667.934
1666.028
1664.122
1662.216
1660.310
1658.404
1656.498
1654.592
1652.686
1650.780
1648.874
1646.968
1645.062
1643.156
1641.250
1639.344
1637.438
1635.532
1633.626
1631.720
1629.814
1627.908
1626.002
1624.096
1622.190
1620.284
1618.378
1616.472
1614.566
1612.660
1610.754
1608.848
1606.942
1605.036
1604.816
1604.596
1604.376
1604.156
1603.936
1603.716
1603.496
1603.276
1603.056
1602.836
1602.616
1602.396
1602.176
1601.956
1601.736
1601.516
1601.296
1601.076
1600.856
1600.636
1600.416
1600.196
1599.976
1599.756
1599.536
1599.316
1599.096
1598.876
1598.656
1598.436
1598.216
1597.996
1597.776
1597.556
1597.336
1597.116
1596.896
1596.676
1596.456
1596.236
1596.016
1595.796
1595.576
1595.356
1595.136
1594.916
1594.696
1594.476
1594.256
1594.036
1593.816
1593.596
1593.376
1593.156
1592.936
1592.716
1592.496
1592.276
1592.056
1591.836
1591.616
1591.396
1591.176
1590.956
1590.736
1590.516
1590.296
1590.076
1589.856
1589.636
1589.416
1589.196
1588.976
1588.756
1588.536
1588.316
1588.096
1587.876
1587.656
1587.436
1587.216
1586.996
1586.776
1586.556
1586.336
1586.116
1585.896
1585.676
1585.456
1585.236
1585.016
1584.796
1584.576
1584.356
1584.136
1583.916
1583.696
1583.476
1583.256
1583.036
1582.816
1582.596
1582.376
1582.156
1581.936
1581.716
1581.496
1581.276
1581.056
1580.836
1580.616
1580.396
1580.176
1579.956
1579.736
1579.516
1579.296
1579.076
1578.856
1578.636
1578.416
1578.196
1577.976
1577.756
1577.536
1577.316
1577.096
1576.876
1576.656
1576.436
1576.216
1575.996
1575.776
1575.556
1575.336
1575.116
1574.896
1574.676
1574.456
1574.236
1574.016
1573.796
1573.576
1573.356
1573.136
1572.916
1572.696
1572.476
1572.256
1572.036
1571.816
1571.596
1571.376
1571.156
1570.936
1570.716
1570.496
1570.276
1570.056
1569.836
1569.616
1569.396
1569.176
1568.956
1568.736
1568.516
1568.296
1568.076
1567.856
1567.636
1567.416
1567.196
1566.976
1566.756
1566.536
1566.316
1566.096
1565.876
1565.656
1565.436
1565.216
1564.996
1564.776
1564.556
1564.336
1564.116
1563.896
1563.676
1563.456
1563.236
1563.016
1562.796
1562.576
1562.356
1562.136
1561.916
1561.696
1561.476
1561.256
1561.036
1564.310
1567.585
1570.859
1574.134
1577.408
1580.683
1583.957
1587.232
1590.506
1593.781
1597.055
1600.330
1603.604
1606.879
1610.153
1613.428
1616.702
1619.977
1623.251
1626.526
1629.800
1633.075
1636.349
1639.624
1642.898
1646.173
1649.447
1652.722
1655.996
1659.271
1662.545
1665.820
1669.094
1672.369
1675.643
1678.918
1682.192
1685.467
1688.741
1692.016
1695.290
1698.565
1701.839
1705.114
1708.388
1711.663
1714.937
1718.212
1721.486
1724.761
1728.035
1731.310
1734.584
1737.859
1741.133
1744.408
1747.682
1750.957
1754.231
1757.506
1760.780
1764.055
1767.329
1770.604
1773.878
1777.153
1780.427
1783.702
1786.976
1790.251
1793.525
1796.800
1800.074
1803.349
1806.623
1809.898
1813.172
1816.447
1819.721
1822.996
1826.270
1829.545
1832.819
1836.094
1839.368
1842.643
1845.917
1849.192
1852.466
1855.741
1859.015
1862.290
1865.564
1868.839
1872.113
1875.388
1878.662
1881.937
1885.211
1888.486
1891.760
1895.035
1898.309
1901.584
1904.858
1908.133
1911.407
1914.682
1917.956
1921.231
1924.505
1927.780
1931.054
1934.329
1937.603
1940.878
1944.152
1947.427
1950.701
1953.976
1957.250
1960.525
1963.799
1967.074
1970.348
1973.623
1976.897
1980.172
1983.446
1986.721
1989.995
1993.270
1996.544
1999.819
2003.093
2006.368
2009.642
2012.917
2016.191
2019.466
2022.740
2026.015
2029.289
2032.564
2035.838
2039.113
2042.387
2045.662
2048.936
2052.211
2055.485
2058.760
2062.034
2065.309
2068.583
2071.858
2075.132
2078.407
2081.681
2084.956
2088.230
2091.505
2094.779
2098.054
2101.328
2104.603
2107.877
2111.152
2114.426
2117.701
2120.975
2124.250
2127.524
2130.799
2134.073
2137.348
2140.622
2143.897
2147.171
2150.446
2153.720
2156.995
2160.269
2163.544
2166.818
2170.093
2173.367
2176.642
2179.916
2183.191
2186.465
2189.740
2193.014
2196.289
2199.563
2202.838
2206.112
2209.387
2212.661
2215.936
2213.810
2211.684
2209.558
2207.432
2205.306
2203.180
2201.054
2198.928
2196.802
2194.676
2192.550
2190.424
2188.298
2186.172
2184.046
2181.920
2179.794
2177.668
2175.542
2173.416
2171.290
2169.164
2167.038
2164.912
2162.786
2160.660
2158.534
2156.408
2154.282
2152.156
2150.030
2147.904
2145.778
2143.652
2141.526
2139.400
2137.274
2135.148
2133.022
2130.896
2128.770
2126.644
2124.518
2122.392
2120.266
2118.140
2116.014
2113.888
2111.762
2109.636
2107.510
2105.384
2103.258
2101.132
2099.006
2096.880
2094.754
2092.628
2090.502
2088.376
2086.250
2084.124
2081.998
2079.872
2077.746
2075.620
2073.494
2071.368
2069.242
2067.116
2064.990
2062.864
2060.738
2058.612
2056.486
2054.360
2052.234
2050.108
2047.982
2045.856
2043.730
2041.604
2039.478
2037.352
2035.226
2033.100
2030.974
2028.848
2026.722
2024.596
2022.470
2020.344
2018.218
2016.092
2013.966
2011.840
2009.714
2007.588
2005.462
2003.336
2001.210
1999.084
1996.958
1994.832
1992.706
1990.580
1988.454
1986.328
1984.202
1982.076
1979.950
1977.824
1975.698
1973.572
1971.446
1969.320
1967.194
1965.068
1962.942
1960.816
1958.690
1956.564
1954.438
1952.312
1950.186
1948.060
1945.934
1943.808
1941.682
1939.556
1937.430
1935.304
1933.178
1931.052
1928.926
1926.800
1924.674
1922.548
1920.422
1918.296
1916.170
1914.044
1911.918
1909.792
1907.666
1905.540
1903.414
1901.288
1899.162
1897.036
1894.910
1892.784
1890.658
1888.532
1886.406
1884.280
1882.154
1880.028
1877.902
1875.776
1873.650
1871.524
1869.398
1867.272
1865.146
1863.020
1860.894
1858.768
1856.642
1854.516
1852.390
1850.264
1848.138
1846.012
1843.886
1841.760
1839.634
1837.508
1835.382
1833.256
1831.130
1829.004
1826.878
1824.752
1822.626
1820.500
1818.374
1816.248
1814.122
1811.996
1809.870
1807.744
1805.618
1803.492
1801.366
1799.240
1797.114
1794.988
1792.862
1790.736
1789.709
1788.683
1787.656
1786.630
1785.603
1784.577
1783.550
1782.524
1781.497
1780.471
1779.444
1778.418
1777.391
1776.365
1775.338
1774.312
1773.285
1772.259
1771.232
1770.206
1769.179
1768.153
1767.126
1766.100
1765.073
1764.047
1763.020
1761.994
1760.967
1759.941
1758.914
1757.888
1756.861
1755.835
1754.808
1753.782
1752.755
1751.729
1750.702
1749.676
1748.649
1747.623
1746.596
1745.570
1744.543
1743.517
1742.490
1741.464
1740.437
1739.411
1738.384
1737.358
1736.331
1735.305
1734.278
1733.252
1732.225
1731.199
1730.172
1729.146
1728.119
1727.093
1726.066
1725.040
1724.013
1722.987
1721.960
1720.934
1719.907
1718.881
1717.854
1716.828
1715.801
1714.775
1713.748
1712.722
1711.695
1710.669
1709.642
1708.616
1707.589
1706.563
1705.536
1704.510
1703.483
1702.457
1701.430
1700.404
1699.377
1698.351
1697.324
1696.298
1695.271
1694.245
1693.218
1692.192
1691.165
1690.139
1689.112
1688.086
1687.059
1686.033
1685.006
1683.980
1682.953
1681.927
1680.900
1679.874
1678.847
1677.821
1676.794
1675.768
1674.741
1673.715
1672.688
1671.662
1670.635
1669.609
1668.582
1667.556
1666.529
1665.503
1664.476
1663.450
1662.423
1661.397
1660.370
1659.344
1658.317
1657.291
1656.264
1655.238
1654.211
1653.185
1652.158
1651.132
1650.105
1649.079
1648.052
1647.026
1645.999
1644.973
1643.946
1642.920
1641.893
1640.867
1639.840
1638.814
1637.787
1636.761
1635.734
1634.708
1633.681
1632.655
1631.628
1630.602
1629.575
1628.549
1627.522
1626.496
1625.469
1624.443
1623.416
1622.390
1621.363
1620.337
1619.310
1618.284
1617.257
1616.231
1615.204
1614.178
1613.151
1612.125
1611.098
1610.072
1609.045
1608.019
1606.992
1605.966
1604.939
1603.913
1602.886
1601.860
1600.833
1599.807
1598.780
1597.754
1596.727
1595.701
1594.674
1593.648
1592.621
1591.595
1590.568
1589.542
1588.515
1587.489
1586.462
109.436
109.436
109.436
109.436
109.436
109.436
109.436
109.436
109.436
109.436
109.436
109.436
109.436
109.436
109.436
109.436
