2219.031
2219.715
2220.400
2221.084
2221.769
2223.040
2224.311
2225.582
2226.853
2228.124
2229.395
2230.666
2231.937
2233.208
2234.479
2235.750
2237.021
2238.292
2239.563
2240.834
2242.105
2243.376
2244.647
2245.918
2247.189
2248.460
2249.731
2251.002
2252.273
2253.544
2254.815
2256.086
2257.357
2258.628
2259.899
2261.170
2262.441
2263.712
2264.983
2266.254
2267.525
2268.796
2270.067
2271.338
2272.609
2273.880
2275.151
2276.422
2277.693
2278.964
2280.235
2281.506
2282.777
2284.048
2285.319
2286.590
2287.861
2289.132
2290.403
2291.674
2292.945
2294.216
2295.487
2296.758
2298.029
2299.300
2300.571
2301.842
2303.113
2304.384
2305.655
2306.926
2308.197
2309.468
2310.739
2312.010
2313.281
2314.552
2315.823
2317.094
2318.365
2319.636
2320.907
2322.178
2323.449
2324.720
2325.991
2327.262
2328.533
2329.804
2331.075
2332.346
2333.617
2334.888
2336.159
2337.430
2338.701
2339.972
2341.243
2342.514
2343.785
2345.056
2346.327
2347.598
2348.869
2350.140
2351.411
2352.682
2353.953
2355.224
2356.495
2357.766
2359.037
2360.308
2361.579
2362.850
2364.121
2365.392
2366.663
2367.934
2369.205
2370.476
2371.747
2373.018
2374.289
2375.560
2376.831
2378.102
2379.373
2380.644
2381.915
2383.186
2384.457
2385.728
2386.999
2388.270
2389.541
2390.812
2392.083
2393.354
2394.625
2395.896
2397.167
2398.438
2399.709
2400.980
2402.251
2403.522
2404.793
2406.064
2407.335
2408.606
2409.877
2411.148
2412.419
2413.690
2414.961
2416.232
2417.503
2418.774
2420.045
2421.316
2422.587
2423.858
2425.129
2426.400
2427.671
2428.942
2430.213
2431.484
2432.755
2434.026
2435.297
2436.568
2437.839
2439.110
2440.381
2441.652
2442.923
2444.194
2445.465
2446.736
2448.007
2449.278
2450.549
2451.820
2453.091
2454.362
2455.633
2456.904
2458.175
2459.446
2460.717
2461.988
2463.259
2464.530
2465.801
2467.072
2468.343
2469.614
2470.885
2472.156
2473.427
2474.698
2475.969
2475.235
2474.502
2473.768
2473.035
2472.301
2471.568
2470.834
2470.101
2469.367
2468.634
2467.900
2467.167
2466.433
2465.700
2464.966
2464.233
2463.499
2462.766
2462.032
2461.299
2460.565
2459.832
2459.098
2458.365
2457.631
2456.898
2456.164
2455.431
2454.697
2453.964
2453.230
2452.497
2451.763
2451.030
2450.296
2449.563
2448.829
2448.096
2447.362
2446.629
2445.895
2445.162
2444.428
2443.695
2442.961
2442.228
2441.494
2440.761
2440.027
2439.294
2438.560
2437.827
2437.093
2436.360
2435.626
2434.893
2434.159
2433.426
2432.692
2431.959
2431.225
2430.492
2429.758
2429.025
2428.291
2427.558
2426.824
2426.091
2425.357
2424.624
2423.890
2423.157
2422.423
2421.690
2420.956
2420.223
2419.489
2418.756
2418.022
2417.289
2416.555
2415.822
2415.088
2414.355
2413.621
2412.888
2412.154
2411.421
2410.687
2409.954
2409.220
2408.487
2407.753
2407.020
2406.286
2405.553
2404.819
2404.086
2403.352
2402.619
2401.885
2401.152
2400.418
2399.685
2398.951
2398.218
2397.484
2396.751
2396.017
2395.284
2394.550
2393.817
2393.083
2392.350
2391.616
2390.883
2390.149
2389.416
2388.682
2387.949
2387.215
2386.482
2385.748
2385.015
2384.281
2383.548
2382.814
2382.081
2381.347
2380.614
2379.880
2379.147
2378.413
2377.680
2376.946
2376.213
2375.479
2374.746
2374.012
2373.279
2372.545
2371.812
2371.078
2370.345
2369.611
2368.878
2368.144
2367.411
2366.677
2365.944
2365.210
2364.477
2363.743
2363.010
2362.276
2361.543
2360.809
2360.076
2359.342
2358.609
2357.875
2357.142
2356.408
2355.675
2354.941
2354.208
2353.474
2352.741
2352.007
2351.274
2350.540
2349.807
2349.073
2348.340
2347.606
2346.873
2346.139
2345.406
2344.672
2343.939
2343.205
2342.472
2341.738
2341.005
2340.271
2339.538
2338.804
2338.071
2337.337
2336.604
2335.870
2335.137
2334.403
2333.670
2332.936
2332.203
2331.469
2330.736
2330.002
115.269
115.244
115.220
115.195
115.171
115.146
115.122
115.097
115.073
115.048
115.024
114.999
114.975
114.950
114.926
114.901
114.877
114.852
114.828
114.803
114.779
114.754
114.730
114.705
114.681
114.656
114.632
114.607
114.583
114.558
114.534
114.509
114.485
114.460
114.436
114.411
114.387
114.362
114.338
114.313
114.289
114.264
114.240
114.215
114.191
114.166
114.142
114.117
114.093
114.068
114.044
114.019
113.995
113.970
113.946
113.921
113.897
113.872
113.848
113.823
113.799
113.774
113.750
113.725
113.701
113.676
113.652
113.627
113.603
113.578
113.554
113.529
113.505
113.480
113.456
113.431
113.407
113.382
113.358
113.333
113.309
113.284
113.260
113.235
113.211
113.186
113.162
113.137
113.113
113.088
113.064
113.039
113.015
112.990
112.966
112.941
112.917
112.892
112.868
112.843
112.819
112.794
112.770
112.745
112.721
112.696
112.672
112.647
112.623
112.598
112.574
112.549
112.525
112.500
112.476
112.451
112.427
112.402
112.378
112.353
112.329
112.304
112.280
112.255
112.231
112.206
112.182
112.157
112.133
112.108
112.084
112.059
112.035
112.010
111.986
111.961
111.937
111.912
111.888
111.863
111.839
111.814
111.790
111.765
111.741
111.716
111.692
111.667
111.643
111.618
111.594
111.569
111.545
111.520
111.496
111.471
111.447
111.422
111.398
111.373
111.349
111.324
111.300
111.275
111.251
111.226
111.202
111.177
111.153
111.128
111.104
111.079
111.055
111.030
111.006
110.981
110.957
110.932
110.908
110.883
110.859
110.834
110.810
110.785
110.761
110.736
110.712
110.687
110.663
110.638
110.614
110.589
110.565
110.540
110.516
110.491
110.467
110.442
110.418
110.393
110.369
110.369
110.369
110.369
110.369
110.369
110.369
110.369
110.369
110.369
110.369
110.369
110.369
110.369
110.369
110.369
110.369
110.369
110.369
110.369
110.369
110.369
110.369
110.369
110.369
110.369
110.369
110.369
110.369
110.369
110.369
110.369
110.369
110.369
110.369
110.369
110.369
110.369
110.369
110.369
110.369
110.369
110.369
110.369
110.369
110.369
110.369
110.369
110.369
110.369
110.369
110.369
110.369
110.369
110.369
110.369
110.369
110.369
110.369
110.369
110.369
110.369
110.369
110.369
110.369
110.369
110.369
110.369
110.369
110.369
110.369
110.369
110.369
110.369
110.369
110.369
110.369
110.369
110.369
110.369
110.369
110.369
110.369
110.369
110.369
110.369
110.369
110.369
110.369
110.369
110.369
110.369
110.369
110.369
110.369
110.369
110.369
110.369
110.369
110.369
110.369
110.369
110.369
110.369
110.369
110.369
110.369
110.369
110.369
110.369
110.369
110.369
110.369
110.369
110.369
110.369
110.369
110.369
110.369
110.369
110.369
110.369
110.369
110.369
110.369
110.369
110.369
110.369
110.369
110.369
110.369
110.369
110.369
110.369
110.369
110.369
110.369
110.369
110.369
110.369
110.369
110.369
110.369
110.369
110.369
110.369
110.369
110.369
110.369
110.369
110.369
110.369
110.369
110.369
110.369
110.369
110.369
110.369
110.369
110.369
110.369
110.369
110.369
110.369
110.369
110.369
110.369
110.369
110.369
110.369
110.369
110.369
110.369
110.369
110.369
110.369
110.369
110.369
110.369
110.369
110.369
110.369
110.369
110.369
110.369
110.369
110.369
110.369
110.369
110.369
110.369
110.369
110.369
110.369
110.369
110.369
110.369
110.369
110.369
110.369
110.369
110.369
110.369
110.369
110.369
110.369
110.369
110.369
110.369
110.369
110.369
110.369
110.369
110.369
110.369
110.369
110.369
110.369
110.369
110.369
110.369
110.369
110.369
110.369
110.369
110.369
110.369
110.369
110.369
110.369
110.369
110.369
110.369
110.369
110.369
110.369
110.369
110.369
110.369
110.369
110.369
110.369
110.369
110.369
110.369
110.369
110.369
110.369
110.369
110.369
110.369
110.369
110.369
110.369
110.369
110.369
110.369
110.369
110.369
110.369
110.369
110.369
110.369
110.369
110.369
110.369
110.369
110.369
110.369
110.369
110.369
110.369
110.369
110.369
110.369
110.369
110.369
110.369
110.369
110.369
110.369
110.369
110.369
110.369
110.369
110.369
110.369
110.369
110.369
110.369
110.369
110.369
110.369
110.369
110.369
110.369
110.369
110.369
110.369
110.369
110.369
110.369
110.369
110.369
110.369
110.369
110.369
110.369
110.369
110.369
110.369
110.369
110.369
110.369
110.369
110.369
110.369
110.369
110.369
110.369
110.369
110.369
110.369
110.369
110.369
110.369
110.369
110.369
110.369
110.369
110.369
110.369
110.369
110.369
110.369
110.369
110.369
110.369
110.369
110.369
110.369
110.369
110.369
110.369
110.369
110.369
110.369
110.369
110.369
110.369
110.369
110.369
110.369
110.369
110.369
110.369
110.369
110.369
110.369
110.369
110.369
110.369
110.369
110.369
110.369
110.369
110.369
110.369
110.369
110.369
110.369
110.369
110.369
110.369
110.369
110.369
110.369
110.369
110.369
110.369
110.369
110.369
110.369
110.369
110.369
110.369
110.369
110.369
110.369
110.369
110.369
110.369
110.369
110.369
110.369
110.369
110.369
110.369
110.369
110.369
110.369
110.393
110.418
110.442
110.467
110.491
110.516
110.540
110.565
110.589
110.614
110.638
110.663
110.687
110.712
110.736
110.761
110.785
110.810
110.834
110.859
110.883
110.908
110.932
110.957
110.981
111.006
111.030
111.055
111.079
111.104
111.128
111.153
111.177
111.202
111.226
111.251
111.275
111.300
111.324
111.349
111.373
111.398
111.422
111.447
111.471
111.496
111.520
111.545
111.569
111.594
111.618
111.643
111.667
111.692
111.716
111.741
111.765
111.790
111.814
111.839
111.863
111.888
111.912
111.937
111.961
111.986
112.010
112.035
112.059
112.084
112.108
112.133
112.157
112.182
112.206
112.231
112.255
112.280
112.304
112.329
112.353
112.378
112.402
112.427
112.451
112.476
112.500
112.525
112.549
112.574
112.598
112.623
112.647
112.672
112.696
112.721
112.745
112.770
112.794
112.819
112.843
112.868
112.892
112.917
112.941
112.966
112.990
113.015
113.039
113.064
113.088
113.113
113.137
113.162
113.186
113.211
113.235
113.260
113.284
113.309
113.333
113.358
113.382
113.407
113.431
113.456
113.480
113.505
113.529
113.554
113.578
113.603
113.627
113.652
113.676
113.701
113.725
113.750
113.774
113.799
113.823
113.848
113.872
113.897
113.921
113.946
113.970
113.995
114.019
114.044
114.068
114.093
114.117
114.142
114.166
114.191
114.215
114.240
114.264
114.289
114.313
114.338
114.362
114.387
114.411
114.436
114.460
114.485
114.509
114.534
114.558
114.583
114.607
114.632
114.656
114.681
114.705
114.730
114.754
114.779
114.803
114.828
114.852
114.877
114.901
114.926
114.950
114.975
114.999
115.024
115.048
115.073
115.097
115.122
115.146
115.171
115.195
115.220
115.244
115.269
115.244
115.220
115.195
115.171
115.146
115.122
115.097
115.073
115.048
115.024
114.999
114.975
114.950
114.926
114.901
114.877
114.852
114.828
114.803
114.779
114.754
114.730
114.705
114.681
114.656
114.632
114.607
114.583
114.558
114.534
114.509
114.485
114.460
114.436
114.411
114.387
114.362
114.338
114.313
114.289
114.264
114.240
114.215
114.191
114.166
114.142
114.117
114.093
114.068
114.044
114.019
113.995
113.970
113.946
113.921
113.897
113.872
113.848
113.823
113.799
113.774
113.750
113.725
113.701
113.676
113.652
113.627
113.603
113.578
113.554
113.529
113.505
113.480
113.456
113.431
113.407
113.382
113.358
113.333
113.309
113.284
113.260
113.235
113.211
113.186
113.162
113.137
113.113
113.088
113.064
113.039
113.015
112.990
112.966
112.941
112.917
112.892
112.868
112.843
112.819
112.794
112.770
112.745
112.721
112.696
112.672
112.647
112.623
112.598
112.574
112.549
112.525
112.500
112.476
112.451
112.427
112.402
112.378
112.353
112.329
112.304
112.280
112.255
112.231
112.206
112.182
112.157
112.133
112.108
112.084
112.059
112.035
112.010
111.986
111.961
111.937
111.912
111.888
111.863
111.839
111.814
111.790
111.765
111.741
111.716
111.692
111.667
111.643
111.618
111.594
111.569
111.545
111.520
111.496
111.471
111.447
111.422
111.398
111.373
111.349
111.324
111.300
111.275
111.251
111.226
111.202
111.177
111.153
111.128
111.104
111.079
111.055
111.030
111.006
110.981
110.957
110.932
110.908
110.883
110.859
110.834
110.810
110.785
110.761
110.736
110.712
110.687
110.663
110.638
110.614
110.589
110.565
110.540
110.516
110.491
110.467
110.442
110.418
110.393
110.369
110.369
110.369
110.369
110.369
110.369
110.369
110.369
110.369
110.369
110.369
110.369
110.369
110.369
110.369
110.369
110.369
110.369
110.369
110.369
110.369
110.369
110.369
110.369
110.369
110.369
110.369
110.369
110.369
110.369
110.369
110.369
110.369
110.369
110.369
110.369
110.369
110.369
110.369
110.369
110.369
110.369
110.369
110.369
110.369
110.369
110.369
110.369
110.369
110.369
110.369
110.369
110.369
110.369
110.369
110.369
110.369
110.369
110.369
110.369
110.369
110.369
110.369
110.369
110.369
110.369
110.369
110.369
110.369
110.369
110.369
110.369
110.369
110.369
110.369
110.369
110.369
110.369
110.369
110.369
110.369
110.369
110.369
110.369
110.369
110.369
110.369
110.369
110.369
110.369
110.369
110.369
110.369
110.369
110.369
110.369
110.369
110.369
110.369
110.369
110.369
110.369
110.369
110.369
110.369
110.369
110.369
110.369
110.369
110.369
110.369
110.369
110.369
110.369
110.369
110.369
110.369
110.369
110.369
110.369
110.369
110.369
110.369
110.369
110.369
110.369
110.369
110.369
110.369
110.369
110.369
110.369
110.369
110.369
110.369
110.369
110.369
110.369
110.369
110.369
110.369
110.369
110.369
110.369
110.369
110.369
110.369
110.369
110.369
110.369
110.369
110.369
110.369
110.369
110.369
110.369
110.369
110.369
110.369
110.369
110.369
110.369
110.369
110.369
110.369
110.369
110.369
110.369
110.369
110.369
110.369
110.369
110.369
110.369
110.369
110.369
110.369
110.369
110.369
110.369
110.369
110.369
110.369
110.369
110.369
110.369
110.369
110.369
110.369
110.369
110.369
110.369
110.369
110.369
110.369
110.369
110.369
110.369
110.369
110.369
110.369
110.369
110.369
110.369
110.369
110.369
110.369
110.369
110.369
110.369
110.369
110.369
110.369
110.369
110.369
110.369
110.369
110.369
110.369
110.369
110.369
110.369
110.369
110.369
110.369
110.369
110.369
110.369
110.369
110.369
110.369
110.369
110.369
110.369
110.369
110.369
110.369
110.369
110.369
110.369
110.369
110.369
110.369
110.369
110.369
110.369
110.369
110.369
110.369
110.369
110.369
110.369
110.369
110.369
110.369
110.369
110.369
110.369
110.369
110.369
110.369
110.369
110.369
110.369
110.369
110.369
110.369
110.369
110.369
110.369
110.369
110.369
110.369
110.369
110.369
110.369
110.369
110.369
110.369
110.369
110.369
110.369
110.369
110.369
110.369
110.369
110.369
110.369
110.369
110.369
110.369
110.369
110.369
110.369
110.369
110.369
110.369
110.369
110.369
110.369
110.369
110.369
110.369
110.369
110.369
110.369
110.369
110.369
110.369
110.369
110.369
110.369
110.369
110.369
110.369
110.369
110.369
110.369
110.369
110.369
110.369
110.369
110.369
110.369
110.369
110.369
110.369
110.369
110.369
110.369
110.369
110.369
110.369
110.369
110.369
110.369
110.369
110.369
110.369
110.369
110.369
110.369
110.369
110.369
110.369
110.369
110.369
110.369
110.369
110.369
110.369
110.369
110.369
110.369
110.369
110.369
110.369
110.369
110.369
110.369
110.369
110.369
110.369
110.369
110.369
110.369
110.369
110.369
110.369
110.369
110.369
110.369
110.369
110.369
110.369
110.369
110.369
110.369
110.369
110.369
110.369
110.369
110.369
110.369
110.369
110.369
110.369
110.369
110.369
110.369
110.369
110.369
110.369
110.369
110.369
110.369
110.369
110.369
110.369
110.369
110.369
110.369
110.369
110.369
110.369
110.369
110.369
110.369
110.369
110.369
110.369
110.369
110.369
110.369
110.369
110.369
110.369
110.369
110.369
110.369
110.369
110.369
110.369
110.369
110.369
110.369
110.369
110.369
110.369
110.369
110.369
110.369
110.369
110.369
110.369
110.369
110.369
110.369
110.369
110.369
110.369
110.369
110.369
110.369
110.369
110.369
110.369
110.369
110.369
110.369
110.369
110.369
110.369
110.369
110.369
110.369
110.369
110.369
110.369
110.369
110.369
110.369
110.369
110.369
110.369
110.369
110.369
110.369
110.369
110.369
110.369
110.369
110.369
110.369
110.369
110.369
110.369
110.369
110.369
110.369
110.369
110.369
110.369
110.369
110.369
110.369
110.369
110.369
110.369
110.369
110.369
110.369
110.369
110.369
110.369
110.369
110.369
110.369
110.369
110.369
110.369
110.369
110.369
110.369
110.369
110.369
110.369
110.369
110.369
110.369
110.369
110.369
110.369
110.369
110.369
110.369
110.369
110.369
110.369
110.369
110.369
110.369
110.369
110.369
110.369
110.369
110.369
110.369
110.369
110.369
110.369
110.369
110.369
110.369
110.369
110.369
110.369
110.369
110.369
110.369
110.369
110.369
110.369
110.369
110.369
110.369
110.369
110.369
110.369
110.369
110.369
110.369
110.369
110.369
110.369
110.369
110.369
110.369
110.369
110.369
110.369
110.369
110.369
110.369
110.369
110.369
110.369
110.369
110.369
110.369
110.369
110.369
110.369
110.369
110.369
110.369
110.369
110.369
110.369
110.369
110.369
110.369
110.369
110.369
110.369
110.369
110.369
110.369
110.369
110.369
110.369
110.369
110.369
110.369
110.369
110.369
