2276.195
2272.432
2268.669
2264.906
2261.143
2257.380
2253.617
2249.854
2246.091
2242.328
2238.565
2234.802
2231.039
2227.276
2223.513
2219.750
2215.987
2212.224
2208.461
2204.698
2200.935
2197.172
2193.409
2189.646
2185.883
2182.120
2178.357
2174.594
2170.831
2167.068
2163.305
2159.542
2155.779
2152.016
2148.253
2144.490
2140.727
2136.964
2133.201
2129.438
2125.675
2121.912
2118.149
2114.386
2110.623
2106.860
2103.097
2099.334
2095.571
2091.808
2088.045
2084.282
2080.519
2076.756
2072.993
2069.230
2065.467
2061.704
2057.941
2054.178
2050.415
2046.652
2042.889
2039.126
2035.363
2031.600
2027.837
2024.074
2020.311
2016.548
2012.785
2009.022
2005.259
2001.496
1997.733
1993.970
1990.207
1986.444
1982.681
1978.918
1975.155
1971.392
1967.629
1963.866
1960.103
1956.340
1952.577
1948.814
1945.051
1941.288
1937.525
1933.762
1929.999
1926.236
1922.473
1918.710
1914.947
1911.184
1907.421
1903.658
1899.895
1896.132
1892.369
1888.606
1886.871
1885.135
1883.400
1881.664
1879.929
1878.193
1876.458
1874.722
1872.987
1871.251
1869.516
1867.780
1866.045
1864.309
1862.574
1860.838
1859.103
1857.367
1855.632
1853.896
1852.161
1850.425
1848.690
1846.954
1845.219
1843.483
1841.748
1840.012
1838.277
1836.541
1834.806
1833.070
1831.335
1829.599
1827.864
1826.128
1824.393
1822.657
1820.922
1819.186
1817.451
1815.715
1813.980
1812.244
1810.509
1808.773
1807.038
1805.302
1803.567
1801.831
1800.096
1798.360
1796.625
1794.889
1793.154
1791.418
1789.683
1787.947
1786.212
1784.476
1782.741
1781.005
1779.270
1777.534
1775.799
1774.063
1772.328
1770.592
1768.857
1767.121
1765.386
1763.650
1761.915
1760.179
1758.444
1756.708
1754.973
1753.237
1751.502
1749.766
1748.031
1746.295
1744.560
1742.824
1741.089
1739.353
1737.618
1735.882
1734.147
1732.411
1730.676
1728.940
1727.205
1725.469
1723.734
1721.998
1720.263
1718.527
1716.792
1715.056
1713.321
1711.585
1709.850
1708.114
1706.379
1704.643
1702.908
1701.172
1699.437
1697.701
1695.966
1694.230
1692.495
1690.759
1689.024
1687.288
1685.553
1683.817
1682.082
1680.346
1678.611
1676.875
1675.140
1673.404
1671.669
1669.933
1668.198
1666.462
1664.727
1662.991
1661.256
1659.520
1657.785
1656.049
1654.314
1652.578
1650.843
1649.107
1647.372
1645.636
1643.901
1642.165
1640.430
1638.694
1636.959
1635.223
1633.488
1631.752
1630.017
1628.281
1626.546
1624.810
1623.075
1621.339
1619.604
1617.868
1616.133
1614.397
1612.662
1610.926
1609.191
1607.455
1605.720
1603.984
1602.249
1600.513
1598.778
1597.042
1595.307
1593.571
1591.836
1590.100
1588.365
1586.629
1584.894
1583.158
1581.423
1579.687
1577.952
1576.216
1574.481
1572.745
1571.010
1569.274
1567.539
1565.803
1564.068
1562.332
1560.597
1558.861
1557.126
1555.390
1553.655
1551.919
1550.184
1548.448
1546.713
1544.977
1543.242
1541.506
1544.243
1546.980
1549.717
1552.454
1555.191
1557.928
1560.665
1563.402
1566.139
1568.876
1571.613
1574.350
1577.087
1579.824
1582.561
1585.298
1588.035
1590.772
1593.509
1596.246
1598.983
1601.720
1604.457
1607.194
1609.931
1612.668
1615.405
1618.142
1620.879
1623.616
1626.353
1629.090
1631.827
1634.564
1637.301
1640.038
1642.775
1645.512
1648.249
1650.986
1653.723
1656.460
1659.197
1661.934
1664.671
1667.408
1670.145
1672.882
1675.619
1678.356
1681.093
1683.830
1686.567
1689.304
1692.041
1694.778
1697.515
1700.252
1702.989
1705.726
1708.463
1711.200
1713.937
1716.674
1719.411
1722.148
1724.885
1727.622
1730.359
1733.096
1735.833
1738.570
1741.307
1744.044
1746.781
1749.518
1752.255
1754.992
1757.729
1760.466
1763.203
1765.940
1768.677
1771.414
1774.151
1776.888
1779.625
1782.362
1785.099
1787.836
1790.573
1793.310
1796.047
1798.784
1801.521
1804.258
1806.995
1809.732
1812.469
1815.206
1817.943
1820.680
1823.417
1826.154
1828.891
1831.628
1834.365
1837.102
1839.839
1842.576
1845.313
1848.050
1850.787
1853.524
1856.261
1858.998
1861.735
1864.472
1867.209
1869.946
1872.683
1875.420
1878.157
1880.894
1883.631
1886.368
1889.105
1891.842
1894.579
1897.316
1900.053
1902.790
1905.527
1908.264
1911.001
1913.738
1916.475
1919.212
1921.949
1924.686
1927.423
1930.160
1932.897
1935.634
1938.371
1941.108
1943.845
1946.582
1949.319
1952.056
1954.793
1957.530
1960.267
1963.004
1965.741
1968.478
1971.215
1973.952
1976.689
1979.426
1982.163
1984.900
1987.637
1990.374
1993.111
1995.848
1998.585
2001.322
2004.059
2006.796
2009.533
2012.270
2015.007
2017.744
2020.481
2023.218
2025.955
2028.692
2031.429
2034.166
2036.903
2039.640
2042.377
2045.114
2047.851
2050.588
2053.325
2056.062
2058.799
2061.536
2064.273
2067.010
2069.747
2072.484
2075.221
2077.958
2080.695
2083.432
2086.169
2088.906
2091.521
2094.136
2096.751
2099.366
2101.981
2104.596
2107.211
2109.826
2112.441
2115.056
2117.671
2120.286
2122.901
2125.516
2128.131
2130.746
2133.361
2135.976
2138.591
2141.206
2143.821
2146.436
2149.051
2151.666
2154.281
2156.896
2159.511
2162.126
2164.741
2167.356
2169.971
2172.586
2175.201
2177.816
2180.431
2183.046
2185.661
2188.276
2190.891
2193.506
2196.121
2198.736
2201.351
2203.966
2206.581
2209.196
2211.811
2214.426
2217.041
2219.656
2222.271
2224.886
2227.501
2230.116
2232.731
2235.346
2237.961
2240.576
2243.191
2245.806
2248.421
2251.036
2253.651
2256.266
2258.881
2261.496
2264.111
2266.726
2269.341
2271.956
2274.571
2277.186
2279.801
2282.416
2285.031
2287.646
2290.261
2292.876
2295.491
2298.106
2300.721
2303.336
2305.951
2308.566
2311.181
2313.796
2316.411
2319.026
2321.641
2324.256
2326.871
2329.486
2332.101
2334.716
2337.331
2339.946
2342.561
2345.176
2347.791
2350.406
2353.021
2355.636
2358.251
2360.866
2363.481
2366.096
2368.711
2371.326
2373.941
2376.556
2379.171
2381.786
2384.401
2387.016
2389.631
2392.246
2394.861
2397.476
2400.091
2402.706
2405.321
2407.936
2410.551
2413.166
2415.781
2418.396
2421.011
2423.626
2426.241
2428.856
2431.471
2434.086
2436.701
2439.316
2441.931
2444.546
2447.161
2449.776
2452.391
2455.006
2457.621
2460.236
2462.851
2465.466
2468.081
2470.696
2473.311
2475.926
2478.541
2481.156
2483.771
2486.386
2489.001
2491.616
2494.231
2496.846
2499.461
2502.076
2504.691
2507.306
2509.921
2512.536
2515.151
2517.766
2520.381
2522.996
2525.611
2528.226
2530.841
2533.456
2536.071
2538.686
2541.301
2543.916
2546.531
2549.146
2551.761
2554.376
2556.991
2559.606
2562.221
2564.836
2567.451
2570.066
2572.681
2575.296
2577.911
2580.526
2583.141
2585.756
2588.371
2590.986
2593.601
2596.216
2598.831
2601.446
2604.061
2606.676
2609.291
80.206
80.182
80.157
80.133
80.108
80.084
80.059
80.035
80.010
79.986
79.961
79.937
79.912
79.888
79.863
79.839
79.814
79.790
79.765
79.741
79.716
79.692
79.667
79.643
79.618
79.594
79.569
79.545
79.520
79.496
79.471
79.447
79.422
79.398
79.373
79.349
79.324
79.300
79.275
79.251
79.226
79.202
79.177
79.153
79.128
79.104
79.079
79.055
79.030
79.006
78.981
78.957
78.932
78.908
78.883
78.859
78.834
78.810
78.785
78.761
78.736
78.712
78.687
78.663
78.638
78.614
78.589
78.565
78.540
78.516
78.491
78.467
78.442
78.418
78.393
78.369
78.344
78.320
78.295
78.271
78.246
78.222
78.197
78.173
78.148
78.124
78.099
78.075
78.050
78.026
78.001
77.977
77.952
77.928
77.903
77.879
77.854
77.830
77.805
77.781
77.756
77.732
77.707
77.683
77.658
77.634
77.609
77.585
77.560
77.536
77.511
77.487
77.462
77.438
77.413
77.389
77.364
77.340
77.315
77.291
77.266
77.242
77.217
77.193
77.168
77.144
77.119
77.095
77.070
77.046
77.021
76.997
76.972
76.948
76.923
76.899
76.874
76.850
76.825
76.801
76.776
76.752
76.727
76.703
76.678
76.654
76.629
76.605
76.580
76.556
76.531
76.507
76.482
76.458
76.433
76.409
76.384
76.360
76.335
76.311
76.286
76.262
76.237
76.213
76.188
76.164
76.139
76.115
76.090
76.066
76.041
76.017
75.992
75.968
75.943
75.919
75.894
75.870
75.845
75.821
75.796
75.772
75.747
75.723
75.698
75.674
75.649
75.625
75.600
75.576
75.551
75.527
75.502
75.478
75.453
75.429
75.404
75.380
75.355
75.331
75.306
75.306
75.306
75.306
75.306
75.306
75.306
75.306
75.306
75.306
75.306
75.306
75.306
75.306
75.306
75.306
75.306
75.306
75.306
75.306
75.306
75.306
75.306
75.306
75.306
75.306
75.306
75.306
75.306
75.306
75.306
75.306
75.306
75.306
75.306
75.306
75.306
75.306
75.306
75.306
75.306
75.306
75.306
75.306
75.306
75.306
75.306
75.306
75.306
75.306
75.306
75.306
75.306
75.306
75.306
75.306
75.306
75.306
75.306
75.306
75.306
75.306
75.306
75.306
75.306
75.306
75.306
75.306
75.306
75.306
75.306
75.306
75.306
75.306
75.306
75.306
75.306
75.306
75.306
75.306
75.306
75.306
75.306
75.306
75.306
75.306
75.306
75.306
75.306
75.306
75.306
75.306
75.306
75.306
75.306
75.306
75.306
75.306
75.306
75.306
75.306
75.306
75.306
75.306
75.306
75.306
75.306
75.306
75.306
75.306
75.306
75.306
75.306
75.306
75.306
75.306
75.306
75.306
75.306
75.306
75.306
75.306
75.306
75.306
75.306
75.306
75.306
75.306
75.306
75.306
75.306
75.306
75.306
75.306
75.306
75.306
75.306
75.306
75.306
75.306
75.306
75.306
75.306
75.306
75.306
75.306
75.306
75.306
75.306
75.306
75.306
75.306
75.306
75.306
75.306
75.306
75.306
75.306
75.306
75.306
75.306
75.306
75.306
75.306
75.306
75.306
75.306
75.306
75.306
75.306
75.306
75.306
75.306
75.306
75.306
75.306
75.306
75.306
75.306
75.306
75.306
75.306
75.306
75.306
75.306
75.306
75.306
75.306
75.306
75.306
75.306
75.306
75.306
75.306
75.306
75.306
75.306
75.306
75.306
75.306
75.306
75.306
75.306
75.306
75.306
75.306
75.306
75.306
75.306
75.306
75.306
75.306
75.306
75.306
75.306
75.306
75.306
75.306
75.306
75.306
75.306
75.306
75.306
75.306
75.306
75.306
75.306
75.306
75.306
75.306
75.306
75.306
75.306
75.306
75.306
75.306
75.306
75.306
75.306
75.306
75.306
75.306
75.306
75.306
75.306
75.306
75.306
75.306
75.306
75.306
75.306
75.306
75.306
75.306
75.306
75.306
75.306
75.306
75.306
75.306
75.306
75.306
75.306
75.306
75.306
75.306
75.306
75.306
75.306
75.306
75.306
75.306
75.306
75.306
75.306
75.306
75.306
75.306
75.306
75.306
75.306
75.306
75.306
75.306
75.306
75.306
75.306
75.306
75.306
75.306
75.306
75.306
75.306
75.306
75.306
75.306
75.306
75.306
75.306
75.306
75.306
75.306
75.306
75.306
75.306
75.306
75.306
75.306
75.306
75.306
75.306
75.306
75.306
75.306
75.306
75.306
75.306
75.306
75.306
75.306
75.306
75.306
75.306
75.306
75.306
75.306
75.306
75.306
75.306
75.306
75.306
75.306
75.306
75.306
75.306
75.306
75.306
75.306
75.306
75.306
75.306
75.306
75.306
75.306
75.306
75.306
75.306
75.306
75.306
75.306
75.306
75.306
75.306
75.306
75.306
75.306
75.306
75.306
75.306
75.306
75.306
75.306
75.306
75.306
75.306
75.306
75.306
75.306
75.306
75.306
75.306
75.306
75.306
75.306
75.306
75.306
75.306
75.306
75.306
75.306
75.306
75.306
75.306
75.306
75.306
75.306
75.306
75.306
75.306
75.306
75.306
75.306
75.306
75.306
75.306
75.306
75.306
75.306
75.306
75.306
75.306
75.306
75.306
75.306
75.306
75.306
75.306
75.306
75.306
75.306
75.306
75.306
75.306
75.306
75.306
75.306
75.306
75.306
75.306
75.306
75.306
75.306
75.306
75.306
75.306
75.306
75.306
75.306
75.306
75.306
75.306
75.306
75.306
75.306
75.306
75.306
75.306
75.306
75.306
75.306
75.306
75.306
75.306
75.306
75.306
75.306
75.306
75.306
75.306
75.306
75.306
75.306
75.306
75.306
75.306
75.306
75.306
75.306
75.306
75.306
75.306
75.306
75.306
75.306
75.306
75.306
75.306
75.306
75.306
75.306
75.306
75.306
75.306
75.306
75.306
75.306
75.306
75.306
75.306
75.306
75.306
75.306
75.306
75.306
75.306
75.306
75.306
75.306
75.306
75.306
75.306
75.306
75.306
75.306
75.306
75.306
75.306
75.306
75.306
75.306
75.306
75.306
75.306
75.306
75.306
75.306
75.306
75.306
75.306
75.306
75.306
75.306
75.306
75.306
75.306
75.306
75.306
75.306
75.306
75.306
75.306
75.306
75.306
75.306
75.306
75.306
75.306
75.306
75.306
75.306
75.306
75.306
75.306
75.306
75.306
75.306
75.306
75.306
75.306
75.306
75.306
75.306
75.306
75.306
75.306
75.306
75.306
75.306
75.306
75.306
75.306
75.306
75.306
75.306
75.306
75.306
75.306
75.306
75.306
75.306
75.306
75.306
75.306
75.306
75.306
75.306
75.306
75.306
75.306
75.306
75.306
75.306
75.306
75.306
75.306
75.306
75.306
75.306
75.306
75.306
75.306
75.306
75.306
75.306
75.306
75.306
75.306
75.306
75.306
75.306
75.306
75.306
75.306
75.306
75.306
75.306
75.306
75.306
75.306
75.306
75.306
75.306
75.306
75.306
75.306
75.306
75.306
75.306
75.306
75.306
75.306
75.306
75.306
75.306
75.306
75.306
75.306
75.306
75.306
75.306
75.306
75.306
75.306
75.306
75.306
75.306
75.306
75.306
75.306
75.306
75.306
75.306
75.306
75.306
75.306
75.306
75.306
75.306
75.306
75.306
75.306
75.306
75.306
75.306
75.306
75.306
75.306
75.306
75.306
75.306
75.306
75.306
75.306
75.306
75.306
75.306
75.306
75.306
75.306
75.306
75.306
75.306
75.306
75.306
75.306
75.306
75.306
75.306
75.306
75.306
75.306
75.306
75.306
75.306
75.306
75.306
75.306
75.306
75.306
75.306
75.306
75.306
75.306
75.306
75.306
75.306
75.306
75.306
75.306
75.306
75.306
75.306
75.306
75.306
75.306
75.306
75.306
75.306
75.306
75.306
75.306
75.306
75.306
75.306
75.306
75.306
75.306
75.306
75.306
75.306
75.306
75.306
75.306
75.306
75.306
75.306
75.306
75.306
75.306
75.306
75.306
75.306
75.306
75.306
75.306
75.306
75.306
75.306
75.306
75.306
75.306
75.306
75.306
75.306
75.306
75.306
75.306
75.306
75.306
75.306
75.306
75.306
75.306
75.306
75.306
75.306
75.306
75.306
75.306
75.306
75.306
75.306
75.306
75.306
75.306
75.306
75.306
75.306
75.306
75.306
75.306
75.306
75.306
75.306
75.306
75.306
75.306
75.306
75.306
75.306
75.306
75.306
75.306
75.306
75.306
75.306
75.306
75.306
75.306
75.306
75.306
75.306
75.306
75.306
75.306
75.306
75.306
75.306
75.306
75.306
75.306
75.306
75.306
75.306
75.306
75.306
75.306
75.306
75.306
75.306
75.306
75.306
75.306
75.306
75.306
75.306
75.306
75.306
75.306
75.306
75.306
75.306
75.306
75.306
75.306
75.306
75.306
75.306
75.306
75.306
75.306
75.306
75.306
75.306
75.306
75.306
75.306
75.306
75.306
75.306
75.306
75.306
75.306
75.306
75.306
75.306
75.306
75.306
75.306
75.306
75.306
75.306
75.306
75.306
75.306
75.306
75.306
75.306
75.306
75.306
75.306
75.306
75.306
75.306
75.306
75.306
75.306
75.306
75.306
75.306
75.306
75.306
75.306
75.306
75.306
75.306
75.306
75.306
75.306
75.306
75.306
75.306
75.306
75.306
75.306
75.306
75.306
75.306
75.306
75.306
75.306
75.306
75.306
75.306
75.306
75.306
75.306
75.306
75.306
75.306
75.306
75.306
75.306
75.306
75.306
75.306
75.306
75.306
75.306
75.306
75.306
75.306
75.306
75.306
75.306
75.306
75.306
75.306
75.306
75.306
75.306
75.306
75.306
75.306
75.306
75.306
75.306
75.306
75.306
75.306
75.306
75.306
75.306
75.306
75.306
75.306
75.306
75.306
75.306
75.306
75.306
75.306
75.306
75.306
75.306
75.306
75.306
75.306
75.306
75.306
75.306
75.306
75.306
75.306
75.306
75.306
75.306
75.306
75.306
75.306
75.306
75.306
75.306
75.306
75.306
75.306
75.306
75.306
75.306
75.306
75.306
75.306
75.306
75.306
75.306
75.306
75.306
75.306
75.306
75.306
75.306
75.306
75.306
75.306
75.306
75.306
75.306
75.306
75.306
75.306
75.306
75.306
75.306
75.306
75.306
75.306
75.306
75.306
75.306
75.306
75.306
75.306
75.306
75.306
75.306
75.306
75.306
75.306
75.306
75.306
75.306
75.282
75.257
75.233
75.208
75.184
75.159
75.135
75.110
75.086
75.061
75.037
75.012
74.988
74.963
74.939
74.914
74.890
74.865
74.841
74.816
74.792
74.767
74.743
74.718
74.694
74.669
74.645
74.620
74.596
74.571
74.547
74.522
74.498
74.473
74.449
74.424
74.400
74.375
74.351
74.326
74.302
74.277
74.253
74.228
74.204
74.179
74.155
74.130
74.106
74.081
74.057
74.032
74.008
73.983
73.959
73.934
73.910
73.885
73.861
73.836
73.812
73.787
73.763
73.738
73.714
73.689
73.665
73.640
73.616
73.591
73.567
73.542
73.518
73.493
73.469
73.444
73.420
73.395
73.371
73.346
73.322
73.297
73.273
73.248
73.224
73.199
73.175
73.150
73.126
73.101
73.077
73.052
73.028
73.003
72.979
72.954
