1912.590
1911.148
1909.706
1908.264
1906.822
1905.380
1903.938
1902.496
1901.054
1899.612
1898.170
1896.728
1895.286
1893.844
1892.402
1890.960
1889.518
1888.076
1886.634
1885.192
1883.750
1882.308
1880.866
1879.424
1877.982
1876.540
1875.098
1873.656
1872.214
1870.772
1869.330
1867.888
1866.446
1865.004
1863.562
1862.120
1860.678
1859.236
1857.794
1856.352
1854.910
1853.468
1852.026
1850.584
1849.142
1847.700
1846.258
1844.816
1843.374
1841.932
1840.490
1842.860
1845.231
1847.601
1849.972
1852.342
1854.713
1857.083
1859.454
1861.824
1864.195
1866.565
1868.936
1871.306
1873.677
1876.047
1878.418
1880.788
1883.159
1885.529
1887.900
1890.270
1892.641
1895.011
1897.382
1899.752
1902.123
1904.493
1906.864
1909.234
1911.605
1913.975
1916.346
1918.716
1921.087
1923.457
1925.828
1928.198
1930.569
1932.939
1935.310
1937.680
1940.051
1942.421
1944.792
1947.162
1949.533
1951.903
1954.274
1956.644
1959.015
1961.385
1963.756
1966.126
1968.497
1970.867
1973.238
1975.608
1977.979
1980.349
1982.720
1985.090
1987.461
1989.831
1992.202
1994.572
1996.943
1999.313
2001.684
2004.054
2006.425
2008.795
2011.166
2013.536
2015.907
2018.277
2020.648
2023.018
2025.389
2027.759
2030.130
2032.500
2034.871
2037.241
2039.612
2041.982
2044.353
2046.723
2049.094
2051.464
2053.835
2056.205
2058.576
2060.946
2063.317
2065.687
2068.058
2070.428
2072.799
2075.169
2077.540
2079.910
2082.281
2084.651
2087.022
2089.392
2091.763
2094.133
2096.504
2098.874
2101.245
2103.615
2105.986
2108.356
2110.727
2113.097
2115.468
2117.838
2120.209
2122.579
2124.950
2127.320
2129.691
2132.061
2134.432
2136.802
2139.173
2141.543
2143.914
2146.284
2148.655
2151.025
2153.396
2155.766
2158.137
2160.507
2162.878
2165.248
2167.619
2169.989
2172.360
2174.730
2177.101
2179.471
2181.842
2184.212
2186.583
2188.953
2191.324
2193.694
2196.065
2198.435
2200.806
2203.176
2205.547
2207.917
2210.288
2212.658
2215.029
2217.399
2219.770
2222.140
2224.511
2226.881
2229.252
2231.622
2233.993
2236.363
2238.734
2241.104
2243.475
2245.845
2248.216
2250.586
2252.957
2255.327
2257.698
2260.068
2262.439
2264.809
2267.180
2269.550
2271.921
2274.291
2276.662
2279.032
2281.403
2283.773
2286.144
2288.514
2290.885
2293.255
2295.626
2297.996
2300.367
2302.737
2305.108
2307.478
2309.849
2312.219
2314.590
2313.735
2312.880
2312.025
2311.170
2310.315
2309.460
2308.605
2307.750
2306.895
2306.040
2305.185
2304.330
2303.475
2302.620
2301.765
2300.910
2300.055
2299.200
2298.345
2297.490
2296.635
2295.780
2294.925
2294.070
2293.215
2292.360
2291.505
2290.650
2289.795
2288.940
2288.085
2287.230
2286.375
2285.520
2284.665
2283.810
2282.955
2282.100
2281.245
2280.390
2279.535
2278.680
2277.825
2276.970
2276.115
2275.260
2274.405
2273.550
2272.695
2271.840
2270.985
2270.130
2269.275
2268.420
2267.565
2266.710
2265.855
2265.000
2264.145
2263.290
2262.435
2261.580
2260.725
2259.870
2259.015
2258.160
2257.305
2256.450
2255.595
2254.740
2253.885
2253.030
2252.175
2251.320
2250.465
2249.610
2248.755
2247.900
2247.045
2246.190
2245.335
2244.480
2243.625
2242.770
2241.915
2241.060
2240.205
2239.350
2238.495
2237.640
2236.785
2235.930
2235.075
2234.220
2233.365
2232.510
2231.655
2230.800
2229.945
2229.090
2228.235
2227.380
2226.525
2225.670
2224.815
2223.960
2223.105
2222.250
2221.395
2220.540
2219.685
2218.830
2217.975
2217.120
2216.265
2215.410
2214.555
2213.700
2212.845
2211.990
2211.135
2210.280
2209.425
2208.570
2207.715
2206.860
2206.005
2205.150
2204.295
2203.440
2202.585
2201.730
2200.875
2200.020
2199.165
2198.310
2197.455
2196.600
2195.745
2194.890
2194.035
2193.180
2192.325
2191.470
2190.615
2189.760
2188.905
2188.050
2187.195
2186.340
2185.485
2184.630
2183.775
2182.920
2182.065
2181.210
2180.355
2179.500
2178.645
2177.790
2176.935
2176.080
2175.225
2174.370
2173.515
2172.660
2171.805
2170.950
2170.095
2169.240
2168.385
2167.530
2166.675
2165.820
2164.965
2164.110
2163.255
2162.400
2161.545
2160.690
2159.835
2158.980
2158.125
2157.270
2156.415
2155.560
2154.705
2153.850
2152.995
2152.140
2151.285
2150.430
2149.575
2148.720
2147.865
2147.010
2146.155
2145.300
2144.445
2143.590
2141.366
2139.142
2136.918
2134.694
2132.470
2130.246
2128.022
2125.798
2123.574
2121.350
2119.126
2116.902
2114.678
2112.454
2110.230
2108.006
2105.782
2103.558
2101.334
2099.110
2096.886
2094.662
2092.438
2090.214
2087.990
2085.766
2083.542
2081.318
2079.094
2076.870
2074.646
2072.422
2070.198
2067.974
2065.750
2063.526
2061.302
2059.078
2056.854
2054.630
2052.406
2050.182
2047.958
2045.734
2043.510
2041.286
2039.062
2036.838
2034.614
2032.390
2030.166
2027.942
2025.718
2023.494
2021.270
2019.046
2016.822
2014.598
2012.374
2010.150
2007.926
2005.702
2003.478
2001.254
1999.030
1996.806
1994.582
1992.358
1990.134
1987.910
1985.686
1983.462
1981.238
1979.014
1976.790
1974.566
1972.342
1970.118
1967.894
1965.670
1963.446
1961.222
1958.998
1956.774
1954.550
1952.326
1950.102
1947.878
1945.654
1943.430
1941.206
1938.982
1936.758
1934.534
1932.310
1930.086
1927.862
1925.638
1923.414
1921.190
1918.966
1916.742
1914.518
1912.294
1910.070
1907.846
1905.622
1903.398
1901.174
1898.950
1896.726
1894.502
1892.278
1890.054
1887.830
1885.606
1883.382
1881.158
1878.934
1876.710
1874.486
1872.262
1870.038
1867.814
1865.590
1863.366
1861.142
1858.918
1856.694
1854.470
1852.246
1850.022
1847.798
1845.574
1843.350
1841.126
1838.902
1836.678
1834.454
1832.230
1830.006
1827.782
1825.558
1823.334
1821.110
1818.886
1816.662
1814.438
1812.214
1809.990
1807.766
1805.542
1803.318
1801.094
1798.870
1796.646
1794.422
1792.198
1789.974
1787.750
1785.526
1783.302
1781.078
1778.854
1776.630
1774.406
1772.182
1769.958
1767.734
1765.510
1763.286
1761.062
1758.838
1756.614
1754.390
1752.166
1749.942
1747.718
1745.494
1743.270
1741.046
1738.822
1736.598
1734.374
1732.150
1729.926
1727.702
1725.478
1723.254
1721.030
1718.806
1716.582
1714.358
1712.134
1709.910
1707.686
1705.462
1703.238
1701.014
1698.790
1701.111
1703.433
1705.754
1708.076
1710.397
1712.719
1715.040
1717.362
1719.683
1722.005
1724.326
1726.648
1728.969
1731.291
1733.612
1735.934
1738.255
1740.577
1742.898
1745.220
1747.541
1749.863
1752.184
1754.506
1756.827
1759.149
1761.470
1763.792
1766.113
1768.435
1770.756
1773.078
1775.399
1777.721
1780.042
1782.364
1784.685
1787.007
1789.328
1791.650
1793.971
1796.293
1798.614
1800.936
1803.257
1805.579
1807.900
1810.222
1812.543
1814.865
1817.186
1819.508
1821.829
1824.151
1826.472
1828.794
1831.115
1833.437
1835.758
1838.080
1840.401
1842.723
1845.044
1847.366
1849.687
1852.009
1854.330
1856.652
1858.973
1861.295
1863.616
1865.938
1868.259
1870.581
1872.902
1875.224
1877.545
1879.867
1882.188
1884.510
1886.831
1889.153
1891.474
1893.796
1896.117
1898.439
1900.760
1903.082
1905.403
1907.725
1910.046
1912.368
1914.689
1917.011
1919.332
1921.654
1923.975
1926.297
1928.618
1930.940
1933.261
1935.583
1937.904
1940.226
1942.547
1944.869
1947.190
1949.512
1951.833
1954.155
1956.476
1958.798
1961.119
1963.441
1965.762
1968.084
1970.405
1972.727
1975.048
1977.370
1979.691
1982.013
1984.334
1986.656
1988.977
1991.299
1993.620
1995.942
1998.263
2000.585
2002.906
2005.228
2007.549
2009.871
2012.192
2014.514
2016.835
2019.157
2021.478
2023.800
2026.121
2028.443
2030.764
2033.086
2035.407
2037.729
2040.050
2042.372
2044.693
2047.015
2049.336
2051.658
2053.979
2056.301
2058.622
2060.944
2063.265
2065.587
2067.908
2070.230
2072.551
2074.873
2077.194
2079.516
2081.837
2084.159
2086.480
2088.802
2091.123
2093.445
2095.766
2098.088
2100.409
2102.731
2105.052
2107.374
2109.695
2112.017
2114.338
2116.660
2118.981
2121.303
2123.624
2125.946
2128.267
2130.589
2132.910
2135.232
2137.553
2139.875
2142.196
2144.518
2146.839
2149.161
2151.482
2153.804
2156.125
2158.447
2160.768
2163.090
2166.511
2169.933
2173.354
2176.776
2180.197
2183.619
2187.040
2190.462
2193.883
2197.305
2200.726
2204.148
2207.569
2210.991
2214.412
2217.834
2221.255
2224.677
2228.098
2231.520
2234.941
2238.363
2241.784
2245.206
2248.627
2252.049
2255.470
2258.892
2262.313
2265.735
2269.156
2272.578
2275.999
2279.421
2282.842
2286.264
2289.685
2293.107
2296.528
2299.950
2303.371
2306.793
2310.214
2313.636
2317.057
2320.479
2323.900
2327.322
2330.743
2334.165
2337.586
2341.008
2344.429
2347.851
2351.272
2354.694
2358.115
2361.537
2364.958
2368.380
2371.801
2375.223
2378.644
2382.066
2385.487
2388.909
2392.330
2395.752
2399.173
2402.595
2406.016
2409.438
2412.859
2416.281
2419.702
2423.124
2426.545
2429.967
2433.388
2436.810
2440.231
2443.653
2447.074
2450.496
2453.917
2457.339
2460.760
2464.182
2467.603
2471.025
2474.446
2477.868
2481.289
2484.711
2488.132
2491.554
2494.975
2498.397
2501.818
2505.240
2508.661
2512.083
2515.504
2518.926
2522.347
2525.769
2529.190
2532.612
2536.033
2539.455
2542.876
2546.298
2549.719
2553.141
2556.562
2559.984
2563.405
2566.827
2570.248
2573.670
2577.091
2580.513
2583.934
2587.356
2590.777
2594.199
2597.620
2601.042
2604.463
2607.885
2611.306
2614.728
2618.149
2621.571
2624.992
2628.414
2631.835
2635.257
2638.678
2642.100
2645.521
2648.943
2652.364
2655.786
2659.207
2662.629
2666.050
2669.472
2672.893
2676.315
2679.736
2683.158
2686.579
2690.001
2693.422
2696.844
2700.265
2703.687
2707.108
2710.530
2713.951
2717.373
2720.794
2724.216
2727.637
2731.059
2734.480
2737.902
2741.323
2744.745
2748.166
2751.588
2755.009
2758.431
2761.852
2765.274
2768.695
2772.117
2775.538
2778.960
2782.381
2785.803
2789.224
2792.646
2796.067
2799.489
2802.910
2806.332
2809.753
2813.175
2816.596
2820.018
2823.439
2826.861
2830.282
2833.704
2837.125
2840.547
2843.968
2847.390
2844.677
2841.965
2839.252
2836.540
2833.827
2831.115
2828.402
2825.690
2822.977
2820.265
2817.552
2814.840
2812.127
2809.415
2806.702
2803.990
2801.277
2798.565
2795.852
2793.140
2790.427
2787.715
2785.002
2782.290
2779.577
2776.865
2774.152
2771.440
2768.727
2766.015
2763.302
2760.590
2757.877
2755.165
2752.452
2749.740
2747.027
2744.315
2741.602
2738.890
2736.177
2733.465
2730.752
2728.040
2725.327
2722.615
2719.902
2717.190
2714.477
2711.765
2709.052
2706.340
2703.627
2700.915
2698.202
2695.490
2692.777
2690.065
2687.352
2684.640
2681.927
2679.215
2676.502
2673.790
2671.077
2668.365
2665.652
2662.940
2660.227
2657.515
2654.802
2652.090
2649.377
2646.665
2643.952
2641.240
2638.527
2635.815
2633.102
2630.390
2627.677
2624.965
2622.252
2619.540
2616.827
2614.115
2611.402
2608.690
2605.977
2603.265
2600.552
2597.840
2595.127
2592.415
2589.702
2586.990
2584.277
2581.565
2578.852
2576.140
2573.427
2570.715
2568.002
2565.290
2562.577
2559.865
2557.152
2554.440
2551.727
2549.015
2546.302
2543.590
2540.877
2538.165
2535.452
2532.740
2530.027
2527.315
2524.602
2521.890
2519.177
2516.465
2513.752
2511.040
2508.327
2505.615
2502.902
2500.190
2497.477
2494.765
2492.052
2489.340
2486.627
2483.915
2481.202
2478.490
2475.777
2473.065
2470.352
2467.640
2464.927
2462.215
2459.502
2456.790
2454.077
2451.365
2448.652
2445.940
2443.227
2440.515
2437.802
2435.090
2432.377
2429.665
2426.952
2424.240
2421.527
2418.815
2416.102
2413.390
2410.677
2407.965
2405.252
2402.540
2399.827
2397.115
2394.402
2391.690
2388.977
2386.265
2383.552
2380.840
2378.127
2375.415
2372.702
2369.990
2367.277
2364.565
2361.852
2359.140
2356.427
2353.715
2351.002
2348.290
2345.577
2342.865
2340.152
2337.440
2334.727
2332.015
2329.302
2326.590
2323.877
2321.165
2318.452
2315.740
2313.027
2310.315
2307.602
2304.890
2297.094
2289.298
2281.502
2273.706
2265.910
2258.114
2250.318
2242.522
2234.726
2226.930
2219.134
2211.338
2203.542
2195.746
2187.950
2180.154
2172.358
2164.562
2156.766
2148.970
2141.174
2133.378
2125.582
2117.786
2109.990
2102.194
2094.398
2086.602
2078.806
2071.010
2063.214
2055.418
2047.622
2039.826
2032.030
2024.234
2016.438
2008.642
2000.846
1993.050
1985.254
1977.458
1969.662
1961.866
1954.070
1946.274
1938.478
1930.682
1922.886
1915.090
1907.294
1899.498
1891.702
1883.906
1876.110
1868.314
1860.518
1852.722
1844.926
1837.130
1829.334
1821.538
1813.742
1805.946
1798.150
1790.354
1782.558
1774.762
1766.966
1759.170
1751.374
1743.578
1735.782
1727.986
1720.190
1712.394
1704.598
1696.802
1689.006
1681.210
1673.414
1665.618
1657.822
1650.026
1642.230
1634.434
1626.638
1618.842
1611.046
1603.250
1595.454
1587.658
1579.862
1572.066
1564.270
1556.474
1548.678
1540.882
1533.086
1525.290
1517.494
1509.698
1501.902
1494.106
1486.310
1478.514
1470.718
1462.922
1455.126
1447.330
1439.534
1431.738
1423.942
1416.146
1408.350
1400.554
1392.758
1384.962
1377.166
1369.370
1361.574
1353.778
1345.982
1338.186
1330.390
1322.594
1314.798
1307.002
1299.206
1291.410
1283.614
1275.818
1268.022
1260.226
1252.430
1244.634
1236.838
1229.042
1221.246
1213.450
1205.654
1197.858
1190.062
1182.266
1174.470
1166.674
1158.878
1151.082
1143.286
1135.490
1127.694
1119.898
1112.102
1104.306
1096.510
1088.714
1080.918
1073.122
1065.326
1057.530
1049.734
1041.938
1034.142
1026.346
1018.550
1010.754
1002.958
995.162
987.366
979.570
971.774
963.978
956.182
948.386
940.590
932.794
924.998
917.202
909.406
901.610
893.814
886.018
878.222
870.426
862.630
854.834
847.038
839.242
831.446
823.650
815.854
808.058
800.262
792.466
784.670
776.874
769.078
761.282
753.486
95.690
95.690
95.690
95.690
95.690
95.690
95.690
95.690
95.690
95.690
95.690
95.690
95.690
95.690
95.690
95.690
95.690
95.690
95.690
95.690
95.690
95.690
95.690
95.690
95.690
95.690
95.690
95.690
95.690
95.690
95.690
95.690
95.690
95.690
95.690
95.690
95.690
95.690
95.690
95.690
95.690
95.690
95.690
95.690
95.690
95.690
95.690
95.690
95.690
95.690
95.690
95.690
95.690
95.690
95.690
95.690
95.690
95.690
95.690
95.690
95.690
95.690
95.690
95.690
95.690
95.690
95.690
95.690
95.690
95.690
95.690
95.690
95.690
95.690
95.690
95.690
95.690
95.690
95.690
95.690
95.690
95.690
95.690
95.690
95.690
95.690
95.690
95.690
95.690
95.690
95.690
95.690
95.690
95.690
95.690
95.690
95.690
95.690
95.690
95.690
95.690
95.690
95.690
95.690
95.690
95.690
95.690
95.690
95.690
95.690
95.690
95.690
95.690
95.690
95.690
95.690
95.690
95.690
95.690
95.690
95.690
95.690
95.690
95.690
95.690
95.690
95.690
95.690
95.690
95.690
95.690
95.690
95.690
95.690
95.690
95.690
95.690
95.690
95.690
95.690
95.690
95.690
95.690
95.690
95.690
95.690
95.690
95.690
95.690
95.690
95.690
95.690
95.690
95.690
95.690
95.690
95.690
95.690
95.690
95.690
95.690
95.690
95.690
95.690
95.690
95.690
95.690
95.690
95.690
95.690
95.690
95.690
95.690
95.690
95.690
95.690
95.690
95.690
95.690
95.690
95.690
95.690
95.690
95.690
95.690
95.690
95.690
95.690
95.690
95.690
95.690
95.690
95.690
95.690
95.690
95.690
95.690
95.690
95.690
95.690
95.690
95.690
95.690
95.690
95.690
95.690
95.690
95.690
95.690
95.690
95.690
95.690
95.690
95.690
95.690
95.690
95.690
95.690
95.690
95.690
95.690
95.690
95.690
95.690
95.690
95.690
95.690
95.690
95.690
95.690
95.690
95.690
95.690
95.690
95.690
95.690
95.690
95.690
95.690
95.690
95.690
95.690
95.690
95.690
95.690
95.690
95.690
95.690
95.690
95.690
95.690
95.690
95.690
95.690
95.690
95.690
95.690
95.690
95.690
95.690
95.690
95.690
95.690
95.690
95.690
95.690
95.690
95.690
95.690
95.690
95.690
95.690
95.690
95.690
95.690
95.690
95.690
95.690
95.690
95.690
95.690
95.690
95.690
95.690
95.690
95.690
95.690
95.690
95.690
95.690
95.690
95.690
95.690
95.690
95.690
95.690
95.690
95.690
95.690
95.690
95.690
95.690
95.690
95.690
95.690
95.690
95.690
95.690
95.690
95.690
95.690
95.690
95.690
95.690
95.690
95.690
95.690
95.690
95.690
95.690
95.690
95.690
95.690
95.690
95.690
95.690
95.690
95.690
95.690
95.690
95.690
95.690
95.690
95.690
95.690
95.690
95.690
95.690
95.690
95.690
95.690
95.690
95.690
95.690
95.690
95.690
95.690
95.690
95.690
95.690
95.690
95.690
95.690
95.690
95.690
95.690
95.690
95.690
95.690
95.690
95.690
95.690
95.690
95.690
95.690
95.690
95.690
95.690
95.690
95.690
95.690
95.690
95.690
95.690
95.690
95.690
95.690
95.690
95.690
95.690
95.690
95.690
95.690
95.690
95.690
95.690
95.690
95.690
95.690
95.690
95.690
95.690
95.690
95.690
95.690
95.690
95.690
95.690
95.690
95.690
95.690
95.690
95.690
95.690
95.690
95.690
95.690
95.690
95.690
95.690
95.690
95.690
95.690
95.690
95.690
95.690
95.690
95.690
95.690
95.690
95.690
95.690
95.690
95.690
95.690
95.690
95.690
95.690
95.690
95.690
95.690
95.690
95.690
95.690
95.690
95.690
95.690
95.690
95.690
95.690
95.690
95.690
95.690
95.690
95.690
95.690
95.690
95.690
95.690
95.690
95.690
95.690
95.690
95.690
95.690
95.690
95.690
95.690
95.690
95.690
95.690
95.690
95.690
95.690
95.690
95.690
95.690
95.690
95.690
95.690
95.690
95.690
95.690
95.690
95.690
95.690
95.690
95.690
95.690
95.690
95.690
95.690
95.690
95.690
95.690
95.690
95.690
95.690
95.690
95.690
95.690
95.690
95.690
95.690
95.690
95.690
95.690
95.690
95.690
95.690
95.690
95.690
95.690
95.690
95.690
95.690
95.690
95.690
95.690
95.690
95.690
95.690
95.690
95.690
95.690
95.690
95.690
95.690
95.690
95.690
95.690
95.690
95.690
95.690
95.690
95.690
95.690
95.690
95.690
95.690
95.690
95.690
95.690
95.690
95.690
95.690
95.690
95.690
95.690
95.690
95.690
95.690
95.690
95.690
95.690
95.690
95.690
95.690
95.690
95.690
