1750.936
1753.551
1756.166
1758.781
1761.396
1764.011
1766.626
1769.241
1771.856
1774.471
1777.086
1779.701
1782.316
1784.931
1787.546
1790.161
1792.776
1795.391
1798.006
1800.621
1803.236
1805.851
1808.466
1811.081
1813.696
1816.311
1818.926
1821.541
1824.156
1826.771
1829.386
1832.001
1834.616
1837.231
1839.846
1842.461
1845.076
1847.691
1850.306
1852.921
1855.536
1858.151
1860.766
1863.381
1865.996
1868.611
1871.226
1873.841
1876.456
1879.071
1881.686
1884.301
1886.916
1889.531
1892.146
1894.761
1897.376
1899.991
1902.606
1905.221
1907.836
1910.451
1913.066
1915.681
1918.296
1920.911
1923.526
1926.141
1928.756
1931.371
1933.986
1936.601
1939.216
1941.831
1944.446
1947.061
1949.676
1952.291
1954.906
1957.521
1960.136
1962.751
1965.366
1967.981
1970.596
1973.211
1975.826
1978.441
1981.056
1983.671
1986.286
1988.901
1991.516
1994.131
1996.746
1999.361
2001.976
2004.591
2007.206
2009.821
2012.436
2015.051
2017.666
2020.281
2022.896
2025.511
2028.126
2030.741
2033.356
2035.971
2038.586
2041.201
2043.816
2046.431
2049.046
2051.661
2054.276
2056.891
2059.506
2062.121
2064.736
2067.351
2068.940
2070.528
2072.117
2073.705
2075.294
2076.882
2078.471
2080.059
2081.648
2083.236
2084.825
2086.413
2088.002
2089.590
2091.179
2092.767
2094.356
2095.944
2097.533
2099.121
2100.710
2102.298
2103.887
2105.475
2107.064
2108.652
2110.241
2111.829
2113.418
2115.006
2116.595
2118.183
2119.772
2121.360
2122.949
2124.537
2126.126
2127.714
2129.303
2130.891
2132.480
2134.068
2135.657
2137.245
2138.834
2140.422
2142.011
2143.599
2145.188
2146.776
2148.365
2149.953
2151.542
2153.130
2154.719
2156.307
2157.896
2159.484
2161.073
2162.661
2164.250
2165.838
2167.427
2169.015
2170.604
2172.192
2173.781
2175.369
2176.958
2178.546
2180.135
2181.723
2183.312
2184.900
2186.489
2188.077
2189.666
2191.254
2192.843
2194.431
2196.020
2197.608
2199.197
2200.785
2202.374
2203.962
2205.551
2207.139
2208.728
2210.316
2211.905
2213.493
2215.082
2216.670
2218.259
2219.847
2221.436
2223.024
2224.613
2226.201
2227.790
2229.378
2230.967
2232.555
2234.144
2235.732
2237.321
2238.909
2240.498
2242.086
2243.675
2245.263
2246.852
2248.440
2250.029
2251.617
2253.206
2254.794
2256.383
2257.971
2259.560
2261.148
2262.737
2264.325
2265.914
2267.502
2269.091
2270.679
2272.268
2273.856
2275.445
2277.033
2278.622
2280.210
2281.799
2283.387
2284.976
2286.564
2288.153
2289.741
2291.330
2292.918
2294.507
2296.095
2297.684
2299.272
2300.861
2302.449
2304.038
2305.626
2307.215
2308.803
2310.392
2311.980
2313.569
2315.157
2316.746
2318.334
2319.923
2321.511
2323.100
2324.688
2326.277
2327.865
2329.454
2331.042
2332.631
2334.219
2335.808
2337.396
2338.985
2340.573
2342.162
2343.750
2345.339
2346.927
2348.516
2350.104
2351.693
2353.281
2354.870
2356.458
2358.047
2359.635
2361.224
2362.812
2364.401
2365.989
2367.578
2369.166
2370.755
2372.343
2373.932
2375.520
2377.109
2378.697
2380.286
2381.874
2383.463
2385.051
2383.316
2381.580
2379.845
2378.109
2376.374
2374.638
2372.903
2371.167
2369.432
2367.696
2365.961
2364.225
2362.490
2360.754
2359.019
2357.283
2355.548
2353.812
2352.077
2350.341
2348.606
2346.870
2345.135
2343.399
2341.664
2339.928
2338.193
2336.457
2334.722
2332.986
2331.251
2329.515
2327.780
2326.044
2324.309
2322.573
2320.838
2319.102
2317.367
2315.631
2313.896
2312.160
2310.425
2308.689
2306.954
2305.218
2303.483
2301.747
2300.012
2298.276
2296.541
2294.805
2293.070
2291.334
2289.599
2287.863
2286.128
2284.392
2282.657
2280.921
2279.186
2277.450
2275.715
2273.979
2272.244
2270.508
2268.773
2267.037
2265.302
2263.566
2261.831
2260.095
2258.360
2256.624
2254.889
2253.153
2251.418
2249.682
2247.947
2246.211
2244.476
2242.740
2241.005
2239.269
2237.534
2235.798
2234.063
2232.327
2230.592
2228.856
2227.121
2225.385
2223.650
2221.914
2220.179
2218.443
2216.708
2214.972
2213.237
2211.501
2209.766
2208.030
2206.295
2204.559
2202.824
2201.088
2199.353
2197.617
2195.882
2194.146
2192.411
2190.675
2188.940
2187.204
2185.469
2183.733
2181.998
2180.262
2178.527
2176.791
2175.056
2173.320
2171.585
2169.849
2168.114
2166.378
2164.643
2162.907
2161.172
2159.436
2157.701
2155.965
2154.230
2152.494
2150.759
2149.023
2147.288
2145.552
2143.817
2142.081
2140.346
2138.610
2136.875
2135.139
2133.404
2131.668
2129.933
2128.197
2126.462
2124.726
2122.991
2121.255
2119.520
2117.784
2116.049
2114.313
2112.578
2110.842
2109.107
2107.371
2105.636
2103.900
2102.165
2100.429
2098.694
2096.958
2095.223
2093.487
2091.752
2090.016
2088.281
2086.545
2084.810
2083.074
2081.339
2079.603
2077.868
2076.132
2074.397
2072.661
2070.926
2069.190
2067.455
2065.719
2063.984
2062.248
2060.513
2058.777
2057.042
2055.306
2053.571
2051.835
2050.100
2048.364
2046.629
2044.893
2043.158
2041.422
2039.687
2037.951
2041.837
2045.723
2049.609
2053.495
2057.381
2061.267
2065.153
2069.039
2072.925
2076.811
2080.697
2084.583
2088.469
2092.355
2096.241
2100.127
2104.013
2107.899
2111.785
2115.671
2119.557
2123.443
2127.329
2131.215
2135.101
2138.987
2142.873
2146.759
2150.645
2154.531
2158.417
2162.303
2166.189
2170.075
2173.961
2177.847
2181.733
2185.619
2189.505
2193.391
2197.277
2201.163
2205.049
2208.935
2212.821
2216.707
2220.593
2224.479
2228.365
2232.251
2236.137
2240.023
2243.909
2247.795
2251.681
2255.567
2259.453
2263.339
2267.225
2271.111
2274.997
2278.883
2282.769
2286.655
2290.541
2294.427
2298.313
2302.199
2306.085
2309.971
2313.857
2317.743
2321.629
2325.515
2329.401
2333.287
2337.173
2341.059
2344.945
2348.831
2352.717
2356.603
2360.489
2364.375
2368.261
2372.147
2376.033
2379.919
2383.805
2387.691
2391.577
2395.463
2399.349
2403.235
2407.121
2411.007
2414.893
2418.779
2422.665
2426.551
2430.437
2434.323
2438.209
2442.095
2445.981
2449.867
2453.753
2457.639
2461.525
2465.411
2469.297
2473.183
2477.069
2480.955
2484.841
2488.727
2492.613
2496.499
2500.385
2504.271
2508.157
2512.043
2515.929
2519.815
2523.701
2527.587
2531.473
2535.359
2539.245
2543.131
2547.017
2550.903
2554.789
2558.675
2562.561
2566.447
2570.333
2574.219
2578.105
2581.991
2585.877
2589.763
2593.649
2597.535
2601.421
2605.307
2609.193
2613.079
2616.965
2620.851
2624.737
2628.623
2632.509
2636.395
2640.281
2644.167
2648.053
2651.939
2655.825
2659.711
2663.597
2667.483
2671.369
2675.255
2679.141
2683.027
2686.913
2690.799
2694.685
2698.571
2702.457
2706.343
2710.229
2714.115
2718.001
2721.887
2725.773
2729.659
2733.545
2737.431
2741.317
2745.203
2749.089
2752.975
2756.861
2760.747
2764.633
2768.519
2772.405
2776.291
2780.177
2784.063
2787.949
2791.835
2795.721
2799.607
2803.493
2807.379
2811.265
2815.151
2813.660
2812.169
2810.678
2809.187
2807.696
2806.205
2804.714
2803.223
2801.732
2800.241
2798.750
2797.259
2795.768
2794.277
2792.786
2791.295
2789.804
2788.313
2786.822
2785.331
2783.840
2782.349
2780.858
2779.367
2777.876
2776.385
2774.894
2773.403
2771.912
2770.421
2768.930
2767.439
2765.948
2764.457
2762.966
2761.475
2759.984
2758.493
2757.002
2755.511
2754.020
2752.529
2751.038
2749.547
2748.056
2746.565
2745.074
2743.583
2742.092
2740.601
2739.110
2737.619
2736.128
2734.637
2733.146
2731.655
2730.164
2728.673
2727.182
2725.691
2724.200
2722.709
2721.218
2719.727
2718.236
2716.745
2715.254
2713.763
2712.272
2710.781
2709.290
2707.799
2706.308
2704.817
2703.326
2701.835
2700.344
2698.853
2697.362
2695.871
2694.380
2692.889
2691.398
2689.907
2688.416
2686.925
2685.434
2683.943
2682.452
2680.961
2679.470
2677.979
2676.488
2674.997
2673.506
2672.015
2670.524
2669.033
2667.542
2666.051
2664.560
2663.069
2661.578
2660.087
2658.596
2657.105
2655.614
2654.123
2652.632
2651.141
2649.650
2648.159
2646.668
2645.177
2643.686
2642.195
2640.704
2639.213
2637.722
2636.231
2634.740
2633.249
2631.758
2630.267
2628.776
2627.285
2625.794
2624.303
2622.812
2621.321
2619.830
2618.339
2616.848
2615.357
2613.866
2612.375
2610.884
2609.393
2607.902
2606.411
2604.920
2603.429
2601.938
2600.447
2598.956
2597.465
2595.974
2594.483
2592.992
2591.501
2590.010
2588.519
2587.028
2585.537
2584.046
2582.555
2581.064
2579.573
2578.082
2576.591
2575.100
2573.609
2572.118
2570.627
2569.136
2567.645
2566.154
2564.663
2563.172
2561.681
2560.190
2558.699
2557.208
2555.717
2554.226
2552.735
2551.244
2549.753
2548.262
2546.771
2545.280
2543.789
2542.298
2540.807
2539.316
2537.825
2536.334
2534.843
2533.352
2531.861
2530.370
2528.879
2527.388
2525.897
2524.406
2522.915
2521.424
2519.933
2518.442
2516.951
2514.141
2511.331
2508.521
2505.711
2502.901
2500.091
2497.281
2494.471
2491.661
2488.851
2486.041
2483.231
2480.421
2477.611
2474.801
2471.991
2469.181
2466.371
2463.561
2460.751
2457.941
2455.131
2452.321
2449.511
2446.701
2443.891
2441.081
2438.271
2435.461
2432.651
2429.841
2427.031
2424.221
2421.411
2418.601
2415.791
2412.981
2410.171
2407.361
2404.551
2401.741
2398.931
2396.121
2393.311
2390.501
2387.691
2384.881
2382.071
2379.261
2376.451
2373.641
2370.831
2368.021
2365.211
2362.401
2359.591
2356.781
2353.971
2351.161
2348.351
2345.541
2342.731
2339.921
2337.111
2334.301
2331.491
2328.681
2325.871
2323.061
2320.251
2317.441
2314.631
2311.821
2309.011
2306.201
2303.391
2300.581
2297.771
2294.961
2292.151
2289.341
2286.531
2283.721
2280.911
2278.101
2275.291
2272.481
2269.671
2266.861
2264.051
2261.241
2258.431
2255.621
2252.811
2250.001
2247.191
2244.381
2241.571
2238.761
2235.951
2233.141
2230.331
2227.521
2224.711
2221.901
2219.091
2216.281
2213.471
2210.661
2207.851
2205.041
2202.231
2199.421
2196.611
2193.801
2190.991
2188.181
2185.371
2182.561
2179.751
2176.941
2174.131
2171.321
2168.511
2165.701
2162.891
2160.081
2157.271
2154.461
2151.651
2148.841
2146.031
2143.221
2140.411
2137.601
2134.791
2131.981
2129.171
2126.361
2123.551
2120.741
2117.931
2115.121
2112.311
2109.501
2106.691
2103.881
2101.071
2098.261
2095.451
2092.641
2089.831
2087.021
2084.211
2081.401
2078.591
2075.781
2072.971
2070.161
2067.351
2064.541
2061.731
2058.921
2056.111
2053.301
2050.491
2047.681
2044.871
2042.061
2039.251
2036.441
2033.631
2030.821
2028.011
2025.201
2022.391
2019.581
2016.771
2013.961
2011.151
2008.341
2005.531
2002.721
1999.911
1997.101
1994.291
1991.481
1988.671
1985.861
1983.051
1980.241
1977.431
1974.621
1971.811
1969.001
1966.191
1963.381
1960.571
1957.761
1954.951
1949.453
1943.954
1938.456
1932.957
1927.459
1921.960
1916.462
1910.963
1905.465
1899.966
1894.468
1888.969
1883.471
1877.972
1872.474
1866.975
1861.477
1855.978
1850.480
1844.981
1839.483
1833.984
1828.486
1822.987
1817.489
1811.990
1806.492
1800.993
1795.495
1789.996
1784.498
1778.999
1773.501
1768.002
1762.504
1757.005
1751.507
1746.008
1740.510
1735.011
1729.513
1724.014
1718.516
1713.017
1707.519
1702.020
1696.522
1691.023
1685.525
1680.026
1674.528
1669.029
1663.531
1658.032
1652.534
1647.035
1641.537
1636.038
1630.540
1625.041
1619.543
1614.044
1608.546
1603.047
1597.549
1592.050
1586.552
1581.053
1575.555
1570.056
1564.558
1559.059
1553.561
1548.062
1542.564
1537.065
1531.567
1526.068
1520.570
1515.071
1509.573
1504.074
1498.576
1493.077
1487.579
1482.080
1476.582
1471.083
1465.585
1460.086
1454.588
1449.089
1443.591
1438.092
1432.594
1427.095
1421.597
1416.098
1410.600
1405.101
1399.603
1394.104
1388.606
1383.107
1377.609
1372.110
1366.612
1361.113
1355.615
1350.116
1344.618
1339.119
1333.621
1328.122
1322.624
1317.125
1311.627
1306.128
1300.630
1295.131
1289.633
1284.134
1278.636
1273.137
1267.639
1262.140
1256.642
1251.143
1245.645
1240.146
1234.648
1229.149
1223.651
1218.152
1212.654
1207.155
1201.657
1196.158
1190.660
1185.161
1179.663
1174.164
1168.666
1163.167
1157.669
1152.170
1146.672
1141.173
1135.675
1130.176
1124.678
1119.179
1113.681
1108.182
1102.684
1097.185
1091.687
1086.188
1080.690
1075.191
1069.693
1064.194
1058.696
1053.197
1047.699
1042.200
1036.702
1031.203
1025.705
1020.206
1014.708
1009.209
1003.711
998.212
992.714
987.215
981.717
976.218
970.720
965.221
959.723
954.224
948.726
943.227
937.729
932.230
926.732
921.233
915.735
910.236
904.738
899.239
893.741
888.242
882.744
877.245
871.747
866.248
860.750
855.251
851.952
848.652
845.353
842.053
838.754
835.454
832.155
828.855
825.556
822.256
818.957
815.657
812.358
809.058
805.759
802.459
799.160
795.860
792.561
789.261
785.962
782.662
779.363
776.063
772.764
769.464
766.165
762.865
759.566
756.266
752.967
749.667
746.368
743.068
739.769
736.469
733.170
729.870
726.571
723.271
719.972
716.672
713.373
710.073
706.774
703.474
700.175
696.875
693.576
690.276
686.977
683.677
680.378
677.078
673.779
670.479
667.180
663.880
660.581
657.281
653.982
650.682
647.383
644.083
640.784
637.484
634.185
630.885
627.586
624.286
620.987
617.687
614.388
611.088
607.789
604.489
601.190
597.890
594.591
591.291
587.992
584.692
581.393
578.093
574.794
571.494
568.195
564.895
561.596
558.296
554.997
551.697
548.398
545.098
541.799
538.499
535.200
531.900
528.601
525.301
522.002
518.702
515.403
512.103
508.804
505.504
502.205
498.905
495.606
492.306
489.007
485.707
482.408
479.108
475.809
472.509
469.210
465.910
462.611
459.311
456.012
452.712
449.413
446.113
442.814
439.514
436.215
432.915
429.616
426.316
423.017
419.717
416.418
413.118
409.819
406.519
403.220
399.920
396.621
393.321
390.022
386.722
383.423
380.123
376.824
373.524
370.225
366.925
363.626
360.326
357.027
353.727
350.428
347.128
343.829
340.529
337.230
333.930
330.631
327.331
324.032
320.732
317.433
314.133
310.834
307.534
304.235
300.935
297.636
294.336
291.037
287.737
284.438
281.138
277.839
274.539
271.240
267.940
264.641
261.341
258.042
254.742
251.443
248.143
244.844
241.544
238.245
234.945
231.646
228.346
225.047
221.747
218.448
215.148
211.849
208.549
205.250
201.950
198.651
107.451
107.427
107.402
107.378
107.353
107.329
107.304
107.280
107.255
107.231
107.206
107.182
107.157
107.133
107.108
107.084
107.059
107.035
107.010
106.986
106.961
106.937
106.912
106.888
106.863
106.839
106.814
106.790
106.765
106.741
106.716
106.692
106.667
106.643
106.618
106.594
106.569
106.545
106.520
106.496
106.471
106.447
106.422
106.398
106.373
106.349
106.324
106.300
106.275
106.251
106.226
106.202
106.177
106.153
106.128
106.104
106.079
106.055
106.030
106.006
105.981
105.957
105.932
105.908
105.883
105.859
105.834
105.810
105.785
105.761
105.736
105.712
105.687
105.663
105.638
105.614
105.589
105.565
105.540
105.516
105.491
105.467
105.442
105.418
105.393
105.369
105.344
105.320
105.295
105.271
105.246
105.222
105.197
105.173
105.148
105.124
105.099
105.075
105.050
105.026
105.001
104.977
104.952
104.928
104.903
104.879
104.854
104.830
104.805
104.781
104.756
104.732
104.707
104.683
104.658
104.634
104.609
104.585
104.560
104.536
104.511
104.487
104.462
104.438
104.413
104.389
104.364
104.340
104.315
104.291
104.266
104.242
104.217
104.193
104.168
104.144
104.119
104.095
104.070
104.046
104.021
103.997
103.972
103.948
103.923
103.899
103.874
103.850
103.825
103.801
103.776
103.752
103.727
103.703
103.678
103.654
103.629
103.605
103.580
103.556
103.531
103.507
103.482
103.458
103.433
103.409
103.384
103.360
103.335
103.311
103.286
103.262
103.237
103.213
103.188
103.164
103.139
103.115
103.090
103.066
103.041
103.017
102.992
102.968
102.943
102.919
102.894
102.870
102.845
102.821
102.796
102.772
102.747
102.723
102.698
102.674
102.649
102.625
102.600
102.576
102.551
102.551
102.551
102.551
102.551
102.551
102.551
102.551
102.551
102.551
102.551
102.551
102.551
102.551
102.551
102.551
102.551
102.551
102.551
102.551
102.551
102.551
102.551
102.551
102.551
102.551
102.551
102.551
102.551
102.551
102.551
102.551
102.551
102.551
102.551
102.551
102.551
102.551
102.551
102.551
102.551
102.551
102.551
102.551
102.551
102.551
102.551
102.551
102.551
102.551
102.551
102.551
102.551
102.551
102.551
102.551
102.551
102.551
102.551
102.551
102.551
102.551
102.551
102.551
102.551
102.551
102.551
102.551
102.551
102.551
102.551
102.551
102.551
102.551
102.551
102.551
102.551
102.551
102.551
102.551
102.551
102.551
102.551
102.551
102.551
102.551
102.551
102.551
102.551
102.551
102.551
102.551
102.551
102.551
102.551
102.551
102.551
102.551
102.551
102.551
102.551
102.551
102.551
102.551
102.551
102.551
102.551
102.551
102.551
102.551
102.551
102.551
102.551
102.551
102.551
102.551
102.551
102.551
102.551
102.551
102.551
102.551
102.551
102.551
102.551
102.551
102.551
102.551
102.551
102.551
102.551
102.551
102.551
102.551
102.551
102.551
102.551
102.551
102.551
102.551
102.551
102.551
102.551
102.551
102.551
102.551
102.551
102.551
102.551
102.551
102.551
102.551
102.551
102.551
102.551
102.551
102.551
102.551
102.551
102.551
102.551
102.551
102.551
102.551
102.551
102.551
102.551
102.551
102.551
102.551
102.551
102.551
102.551
102.551
102.551
102.551
102.551
102.551
102.551
102.551
102.551
102.551
102.551
102.551
102.551
102.551
102.551
102.551
102.551
102.551
102.551
102.551
102.551
102.551
102.551
102.551
102.551
102.551
102.551
102.551
102.551
102.551
102.551
102.551
102.551
102.551
102.551
102.551
102.551
102.551
102.551
102.551
102.551
102.551
102.551
102.551
102.551
102.551
102.551
102.551
102.551
102.551
102.551
102.551
102.551
102.551
102.551
102.551
102.551
102.551
102.551
102.551
102.551
102.551
102.551
102.551
102.551
102.551
102.551
102.551
102.551
102.551
102.551
102.551
102.551
102.551
102.551
102.551
102.551
102.551
102.551
102.551
102.551
102.551
102.551
102.551
102.551
102.551
102.551
102.551
102.551
102.551
102.551
102.551
102.551
102.551
102.551
102.551
102.551
102.551
102.551
102.551
102.551
102.551
102.551
102.551
102.551
102.551
102.551
