2119.068
2118.286
2117.504
2116.722
2115.940
2115.158
2114.376
2113.594
2112.812
2112.030
2111.248
2110.466
2109.684
2108.902
2108.120
2107.338
2106.556
2105.774
2104.992
2104.210
2103.428
2102.646
2101.864
2101.082
2100.300
2099.518
2098.736
2097.954
2097.172
2096.390
2095.608
2094.826
2094.044
2093.262
2092.480
2091.698
2090.916
2090.134
2089.352
2088.570
2087.788
2087.006
2086.224
2085.442
2084.660
2083.878
2083.096
2082.314
2081.532
2080.750
2079.968
2079.186
2078.404
2077.622
2076.840
2076.058
2075.276
2074.494
2073.712
2072.930
2072.148
2071.366
2070.584
2069.802
2069.020
2068.238
2067.456
2066.674
2065.892
2065.110
2064.328
2063.546
2062.764
2061.982
2061.200
2060.418
2059.636
2058.854
2058.072
2057.290
2056.508
2055.726
2054.944
2054.162
2053.380
2052.598
2051.816
2051.034
2050.252
2049.470
2048.688
2047.906
2047.124
2046.342
2045.560
2044.778
2043.996
2043.214
2042.432
2041.650
2040.868
2040.086
2039.304
2038.522
2037.740
2036.958
2036.176
2035.394
2034.612
2033.830
2033.048
2032.266
2031.484
2030.702
2029.920
2029.138
2028.356
2027.574
2026.792
2026.010
2025.228
2024.446
2023.664
2022.882
2022.100
2021.318
2020.536
2019.754
2018.972
2018.190
2017.408
2016.626
2015.844
2015.062
2014.280
2013.498
2012.716
2011.934
2011.152
2010.370
2009.588
2008.806
2008.024
2007.242
2006.460
2005.678
2004.896
2004.114
2003.332
2002.550
2001.768
2000.986
2000.204
1999.422
1998.640
1997.858
1997.076
1996.294
1995.512
1994.730
1993.948
1993.166
1992.384
1991.602
1990.820
1990.038
1989.256
1988.474
1987.692
1986.910
1986.128
1985.346
1984.564
1983.782
1983.000
1982.218
1980.850
1979.481
1978.113
1976.744
1975.376
1974.007
1972.639
1971.270
1969.902
1968.533
1967.165
1965.796
1964.428
1963.059
1961.691
1960.322
1958.954
1957.585
1956.217
1954.848
1953.480
1952.111
1950.743
1949.374
1948.006
1946.637
1945.269
1943.900
1942.532
1941.163
1939.795
1938.426
1937.058
1935.689
1934.321
1932.952
1931.584
1930.215
1928.847
1927.478
1926.110
1924.741
1923.373
1922.004
1920.636
1919.267
1917.899
1916.530
1915.162
1913.793
1912.425
1911.056
1909.688
1908.319
1906.951
1905.582
1904.214
1902.845
1901.477
1900.108
1898.740
1897.371
1896.003
1894.634
1893.266
1891.897
1890.529
1889.160
1887.792
1886.423
1885.055
1883.686
1882.318
1880.949
1879.581
1878.212
1876.844
1875.475
1874.107
1872.738
1871.370
1870.001
1868.633
1867.264
1865.896
1864.527
1863.159
1861.790
1860.422
1859.053
1857.685
1856.316
1854.948
1853.579
1852.211
1850.842
1849.474
1848.105
1846.737
1845.368
1844.000
1842.631
1841.263
1839.894
1838.526
1837.157
1835.789
1834.420
1833.052
1831.683
1830.315
1828.946
1827.578
1826.209
1824.841
1823.472
1822.104
1820.735
1819.367
1817.998
1816.630
1815.261
1813.893
1812.524
1811.156
1809.787
1808.419
1807.050
1805.682
1804.313
1802.945
1801.576
1800.208
1798.839
1797.471
1796.102
1794.734
1793.365
1791.997
1790.628
1789.260
1787.891
1786.523
1785.154
1783.786
1782.417
1781.049
1779.680
1778.312
1776.943
1775.575
1774.206
1772.838
1771.469
1770.101
1768.732
1767.364
1765.995
1764.627
1763.258
1761.890
1760.521
1759.153
1757.784
1756.416
1755.047
1753.679
1752.310
1750.942
1749.573
1748.205
1746.836
1745.468
1744.099
1742.731
1741.362
1739.994
1738.625
1737.257
1735.888
1734.520
1733.151
1731.783
1730.414
1729.046
1727.677
1726.309
1724.940
1723.572
1722.203
1720.835
1719.466
1718.098
1716.729
1715.361
1713.992
1712.624
1711.255
1709.887
1708.518
1710.645
1712.771
1714.898
1717.024
1719.151
1721.277
1723.404
1725.530
1727.657
1729.783
1731.910
1734.036
1736.163
1738.289
1740.416
1742.542
1744.669
1746.795
1748.922
1751.048
1753.175
1755.301
1757.428
1759.554
1761.681
1763.807
1765.934
1768.060
1770.187
1772.313
1774.440
1776.566
1778.693
1780.819
1782.946
1785.072
1787.199
1789.325
1791.452
1793.578
1795.705
1797.831
1799.958
1802.084
1804.211
1806.337
1808.464
1810.590
1812.717
1814.843
1816.970
1819.096
1821.223
1823.349
1825.476
1827.602
1829.729
1831.855
1833.982
1836.108
1838.235
1840.361
1842.488
1844.614
1846.741
1848.867
1850.994
1853.120
1855.247
1857.373
1859.500
1861.626
1863.753
1865.879
1868.006
1870.132
1872.259
1874.385
1876.512
1878.638
1880.765
1882.891
1885.018
1887.144
1889.271
1891.397
1893.524
1895.650
1897.777
1899.903
1902.030
1904.156
1906.283
1908.409
1910.536
1912.662
1914.789
1916.915
1919.042
1921.168
1923.295
1925.421
1927.548
1929.674
1931.801
1933.927
1936.054
1938.180
1940.307
1942.433
1944.560
1946.686
1948.813
1950.939
1953.066
1955.192
1957.319
1959.445
1961.572
1963.698
1965.825
1967.951
1970.078
1972.204
1974.331
1976.457
1978.584
1980.710
1982.837
1984.963
1987.090
1989.216
1991.343
1993.469
1995.596
1997.722
1999.849
2001.975
2004.102
2006.228
2008.355
2010.481
2012.608
2014.734
2016.861
2018.987
2021.114
2023.240
2025.367
2027.493
2029.620
2031.746
2033.873
2035.999
2038.126
2040.252
2042.379
2044.505
2046.632
2048.758
2050.885
2053.011
2055.138
2057.264
2059.391
2061.517
2063.644
2065.770
2067.897
2070.023
2072.150
2074.276
2076.403
2078.529
2080.656
2082.782
2084.909
2087.035
2089.162
2091.288
2093.415
2095.541
2097.668
2099.794
2101.921
2104.047
2106.174
2108.300
2110.427
2112.553
2114.680
2116.806
2118.933
2121.059
2123.186
2125.312
2127.439
2129.565
2131.692
2133.818
2130.226
2126.633
2123.041
2119.448
2115.856
2112.263
2108.671
2105.078
2101.486
2097.893
2094.301
2090.708
2087.116
2083.523
2079.931
2076.338
2072.746
2069.153
2065.561
2061.968
2058.376
2054.783
2051.191
2047.598
2044.006
2040.413
2036.821
2033.228
2029.636
2026.043
2022.451
2018.858
2015.266
2011.673
2008.081
2004.488
2000.896
1997.303
1993.711
1990.118
1986.526
1982.933
1979.341
1975.748
1972.156
1968.563
1964.971
1961.378
1957.786
1954.193
1950.601
1947.008
1943.416
1939.823
1936.231
1932.638
1929.046
1925.453
1921.861
1918.268
1914.676
1911.083
1907.491
1903.898
1900.306
1896.713
1893.121
1889.528
1885.936
1882.343
1878.751
1875.158
1871.566
1867.973
1864.381
1860.788
1857.196
1853.603
1850.011
1846.418
1842.826
1839.233
1835.641
1832.048
1828.456
1824.863
1821.271
1817.678
1814.086
1810.493
1806.901
1803.308
1799.716
1796.123
1792.531
1788.938
1785.346
1781.753
1778.161
1774.568
1770.976
1767.383
1763.791
1760.198
1756.606
1753.013
1749.421
1745.828
1742.236
1738.643
1735.051
1731.458
1727.866
1724.273
1720.681
1717.088
1713.496
1709.903
1706.311
1702.718
1699.126
1695.533
1691.941
1688.348
1684.756
1681.163
1677.571
1673.978
1670.386
1666.793
1663.201
1659.608
1656.016
1652.423
1648.831
1645.238
1641.646
1638.053
1634.461
1630.868
1627.276
1623.683
1620.091
1616.498
1612.906
1609.313
1605.721
1602.128
1598.536
1594.943
1591.351
1587.758
1584.166
1580.573
1576.981
1573.388
1569.796
1566.203
1562.611
1559.018
1555.426
1551.833
1548.241
1544.648
1541.056
1537.463
1533.871
1530.278
1526.686
1523.093
1519.501
1515.908
1512.316
1508.723
1505.131
1501.538
1497.946
1494.353
1490.761
1487.168
1483.576
1479.983
1476.391
1472.798
1469.206
1465.613
1462.021
1458.428
1454.836
1451.243
1447.651
1444.058
1440.466
1436.873
1433.281
1429.688
1426.096
1422.503
1418.911
1415.318
1415.636
1415.953
1416.271
1416.588
1416.906
1417.223
1417.541
1417.858
1418.176
1418.493
1418.811
1419.128
1419.446
1419.763
1420.081
1420.398
1420.716
1421.033
1421.351
1421.668
1421.986
1422.303
1422.621
1422.938
1423.256
1423.573
1423.891
1424.208
1424.526
1424.843
1425.161
1425.478
1425.796
1426.113
1426.431
1426.748
1427.066
1427.383
1427.701
1428.018
1428.336
1428.653
1428.971
1429.288
1429.606
1429.923
1430.241
1430.558
1430.876
1431.193
1431.511
1431.828
1432.146
1432.463
1432.781
1433.098
1433.416
1433.733
1434.051
1434.368
1434.686
1435.003
1435.321
1435.638
1435.956
1436.273
1436.591
1436.908
1437.226
1437.543
1437.861
1438.178
1438.496
1438.813
1439.131
1439.448
1439.766
1440.083
1440.401
1440.718
1441.036
1441.353
1441.671
1441.988
1442.306
1442.623
1442.941
1443.258
1443.576
1443.893
1444.211
1444.528
1444.846
1445.163
1445.481
1445.798
1446.116
1446.433
1446.751
1447.068
1447.386
1447.703
1448.021
1448.338
1448.656
1448.973
1449.291
1449.608
1449.926
1450.243
1450.561
1450.878
1451.196
1451.513
1451.831
1452.148
1452.466
1452.783
1453.101
1453.418
1453.736
1454.053
1454.371
1454.688
1455.006
1455.323
1455.641
1455.958
1456.276
1456.593
1456.911
1457.228
1457.546
1457.863
1458.181
1458.498
1458.816
1459.133
1459.451
1459.768
1460.086
1460.403
1460.721
1461.038
1461.356
1461.673
1461.991
1462.308
1462.626
1462.943
1463.261
1463.578
1463.896
1464.213
1464.531
1464.848
1465.166
1465.483
1465.801
1466.118
1466.436
1466.753
1467.071
1467.388
1467.706
1468.023
1468.341
1468.658
1468.976
1469.293
1469.611
1469.928
1470.246
1470.563
1470.881
1471.198
1471.516
1471.833
1472.151
1472.468
1472.786
1473.103
1473.421
1473.738
1474.056
1474.373
1474.691
1475.008
1475.326
1475.643
1475.961
1476.278
1476.596
1476.913
1477.231
1477.548
1477.866
1478.183
1478.501
1478.818
1473.564
1468.310
1463.056
1457.802
1452.548
1447.294
1442.040
1436.786
1431.532
1426.278
1421.024
1415.770
1410.516
1405.262
1400.008
1394.754
1389.500
1384.246
1378.992
1373.738
1368.484
1363.230
1357.976
1352.722
1347.468
1342.214
1336.960
1331.706
1326.452
1321.198
1315.944
1310.690
1305.436
1300.182
1294.928
1289.674
1284.420
1279.166
1273.912
1268.658
1263.404
1258.150
1252.896
1247.642
1242.388
1237.134
1231.880
1226.626
1221.372
1216.118
1210.864
1205.610
1200.356
1195.102
1189.848
1184.594
1179.340
1174.086
1168.832
1163.578
1158.324
1153.070
1147.816
1142.562
1137.308
1132.054
1126.800
1121.546
1116.292
1111.038
1105.784
1100.530
1095.276
1090.022
1084.768
1079.514
1074.260
1069.006
1063.752
1058.498
1053.244
1047.990
1042.736
1037.482
1032.228
1026.974
1021.720
1016.466
1011.212
1005.958
1000.704
995.450
990.196
984.942
979.688
974.434
969.180
963.926
958.672
953.418
948.164
942.910
937.656
932.402
927.148
921.894
916.640
911.386
906.132
900.878
895.624
890.370
885.116
879.862
874.608
869.354
864.100
858.846
853.592
848.338
843.084
837.830
832.576
827.322
822.068
816.814
811.560
806.306
801.052
795.798
790.544
785.290
780.036
774.782
769.528
764.274
759.020
753.766
748.512
743.258
738.004
732.750
727.496
722.242
716.988
711.734
706.480
701.226
695.972
690.718
685.464
680.210
674.956
669.702
664.448
659.194
653.940
648.686
643.432
638.178
632.924
627.670
622.416
617.162
611.908
606.654
601.400
596.146
590.892
585.638
580.384
575.130
569.876
564.622
559.368
554.114
548.860
543.606
538.352
533.098
527.844
522.590
517.336
512.082
506.828
501.574
496.320
491.066
485.812
480.558
475.304
470.050
464.796
459.542
454.288
449.034
443.780
438.526
433.272
85.918
85.918
85.918
85.918
85.918
85.918
85.918
85.918
85.918
85.918
85.918
85.918
85.918
85.918
85.918
85.918
85.918
85.918
85.918
85.918
85.918
85.918
85.918
85.918
85.918
85.918
85.918
85.918
85.918
85.918
85.918
85.918
85.918
85.918
85.918
85.918
85.918
85.918
85.918
85.918
85.918
85.918
85.918
85.918
85.918
85.918
85.918
85.918
85.918
85.918
85.918
85.918
85.918
85.918
85.918
85.918
85.918
85.918
85.918
85.918
85.918
85.918
85.918
85.918
85.918
85.918
85.918
85.918
85.918
85.918
85.918
85.918
85.918
85.918
85.918
85.918
85.918
85.918
85.918
85.918
85.918
85.918
85.918
85.918
85.918
85.918
85.918
85.918
85.918
85.918
85.918
85.918
85.918
85.918
85.918
85.918
85.918
85.918
85.918
85.918
85.918
85.918
85.918
85.918
85.918
85.918
85.918
85.918
85.918
85.918
85.918
85.918
85.918
85.918
85.918
85.918
85.918
85.918
85.918
85.918
85.918
85.918
85.918
85.918
85.918
85.918
85.918
85.918
85.918
85.918
85.918
85.918
85.918
85.918
85.918
85.918
85.918
85.918
85.918
85.918
85.918
85.918
85.918
85.918
85.918
85.918
85.918
85.918
85.918
85.918
85.918
85.918
85.918
85.918
85.918
85.918
85.918
85.918
85.918
85.918
85.918
85.918
85.918
85.918
85.918
85.918
85.918
85.918
85.918
85.918
85.918
85.918
85.918
85.918
85.918
85.918
85.918
85.918
85.918
85.918
85.918
85.918
85.918
85.918
85.918
85.918
85.918
85.918
85.918
85.918
85.918
85.918
85.918
85.918
85.918
85.918
85.918
85.918
85.918
85.918
85.918
85.918
85.918
85.918
85.918
85.918
85.918
85.918
85.918
85.918
85.918
85.918
85.918
85.918
85.918
85.918
85.918
85.918
85.918
85.918
85.918
85.918
85.918
85.918
85.918
85.918
85.918
85.918
85.918
85.918
85.918
85.918
85.918
85.918
85.918
85.918
85.918
85.918
85.918
85.918
85.918
85.918
85.918
85.918
85.918
85.918
85.918
85.918
85.918
85.918
85.918
85.918
85.918
85.918
85.918
85.918
85.918
85.918
85.918
85.918
85.918
85.918
85.918
85.918
85.918
85.918
85.918
85.918
85.918
85.918
85.918
85.918
85.918
85.918
85.918
85.918
85.918
85.918
85.918
85.918
85.918
85.918
85.918
85.918
85.918
85.918
85.918
85.918
85.918
85.918
85.918
85.918
85.918
85.918
85.918
85.918
85.918
85.918
85.918
85.918
85.918
85.918
85.918
85.918
85.918
85.918
85.918
85.918
85.918
85.918
85.918
85.918
85.918
85.918
85.918
85.918
85.918
85.918
85.918
85.918
85.918
85.918
85.918
85.918
85.918
85.918
85.918
85.918
85.918
85.918
85.918
85.918
85.918
85.918
85.918
85.918
85.918
85.918
85.918
85.918
85.918
85.918
85.918
85.918
85.918
85.918
85.918
85.918
85.918
85.918
85.918
85.918
85.918
85.918
85.918
85.918
85.918
85.918
85.918
85.918
85.918
85.918
85.918
85.918
85.918
85.918
85.918
85.918
85.918
85.918
85.918
85.918
85.918
85.918
85.918
85.918
85.918
85.918
85.918
85.918
85.918
85.918
85.918
85.918
85.918
85.918
85.918
85.918
85.918
85.918
85.918
85.918
85.918
85.918
85.918
85.918
85.918
85.918
85.918
85.918
85.918
85.918
85.918
85.918
85.918
85.918
85.918
85.918
85.918
85.918
85.918
85.918
85.918
85.918
85.918
85.918
85.918
85.918
85.918
85.918
85.918
85.918
85.918
85.918
85.918
85.918
85.918
85.918
85.918
85.918
85.918
85.918
85.918
85.918
85.918
85.918
85.918
85.918
85.918
85.918
85.918
85.918
85.918
85.918
85.918
85.918
85.918
85.918
85.918
85.918
85.918
85.918
85.918
85.918
85.918
85.918
85.918
85.918
85.918
85.918
85.918
85.918
85.918
85.918
85.918
85.918
85.918
85.918
85.918
85.918
85.918
85.918
85.918
85.918
85.918
85.918
85.918
85.918
85.918
85.918
85.918
85.918
85.918
85.918
85.918
85.918
85.918
85.918
85.918
85.918
85.918
85.918
85.918
85.918
85.918
85.918
85.918
85.918
85.918
85.918
85.918
85.918
85.918
85.918
85.918
85.918
85.918
85.918
85.918
85.918
85.918
85.918
85.918
85.918
85.918
85.918
85.918
85.918
85.918
85.918
85.918
85.918
85.918
85.918
85.918
85.918
85.918
85.918
85.918
85.918
85.918
85.918
85.918
85.918
85.918
85.918
85.918
85.918
85.918
85.918
85.918
85.918
85.918
85.918
85.918
85.918
85.918
85.918
85.918
85.918
85.918
85.918
85.918
85.918
85.918
85.918
85.918
85.918
85.918
85.918
85.918
85.918
85.918
85.918
85.918
85.918
85.918
85.918
85.918
85.918
85.918
85.918
85.918
85.918
85.918
85.918
85.918
85.918
85.918
85.918
85.918
85.918
85.918
85.918
85.918
85.918
85.918
85.918
85.918
85.918
85.918
85.918
85.918
85.918
85.918
85.918
85.918
85.918
85.918
85.918
85.918
85.918
85.918
85.918
85.918
85.918
85.918
85.918
85.918
85.918
85.918
85.918
85.918
85.918
85.918
85.918
85.918
85.918
85.918
85.918
85.918
85.918
85.918
85.918
85.918
85.918
85.918
85.918
85.918
85.918
85.918
85.918
85.918
85.918
85.918
85.918
85.918
85.918
85.918
85.918
85.918
85.918
85.918
85.918
85.918
85.918
85.918
85.918
85.918
85.918
85.918
85.918
85.918
85.918
85.918
85.918
85.918
85.918
85.918
85.918
85.918
85.918
85.918
85.918
85.918
85.918
85.918
85.918
85.918
85.918
85.918
85.918
85.918
85.918
85.918
85.918
85.918
85.918
85.918
85.918
85.918
85.918
85.918
85.918
85.918
85.918
85.918
85.918
85.918
85.918
85.918
85.918
85.918
85.918
85.918
85.918
85.918
85.918
85.918
85.918
85.918
85.918
85.918
85.918
85.918
85.918
85.918
85.918
85.918
85.918
85.918
85.918
85.918
85.918
85.918
85.918
85.918
85.918
85.918
85.918
85.918
85.918
85.918
85.918
85.918
85.918
85.918
85.918
85.918
85.918
85.918
85.918
85.918
85.918
85.918
85.918
85.918
85.918
85.918
85.918
85.918
85.918
85.918
85.918
85.918
85.918
85.918
85.918
85.918
85.918
85.918
85.918
85.918
85.918
85.918
85.918
85.918
85.918
85.918
85.918
85.918
85.918
85.918
85.918
85.918
85.918
85.918
85.918
85.918
85.918
85.918
85.918
85.918
85.918
85.918
85.918
85.918
85.918
85.918
85.918
85.918
85.918
85.918
85.918
85.918
85.918
85.918
85.918
85.918
85.918
85.918
85.918
85.918
85.918
85.918
85.918
85.918
85.918
85.918
85.918
85.918
85.918
85.918
85.918
85.918
85.918
85.918
85.918
85.918
85.918
85.918
85.918
85.918
85.918
85.918
85.918
85.918
85.918
85.918
85.918
85.918
85.918
85.918
85.918
85.918
