2002.438
2001.656
2000.874
2000.092
1999.310
1998.528
1997.746
1996.964
1996.182
1995.400
1994.618
1993.836
1993.054
1992.272
1991.490
1990.708
1989.926
1989.144
1988.362
1986.993
1985.625
1984.256
1982.888
1981.519
1980.151
1978.782
1977.414
1976.045
1974.677
1973.308
1971.940
1970.571
1969.203
1967.834
1966.466
1965.097
1963.729
1962.360
1960.992
1959.623
1958.255
1956.886
1955.518
1954.149
1952.781
1951.412
1950.044
1948.675
1947.307
1945.938
1944.570
1943.201
1941.833
1940.464
1939.096
1937.727
1936.359
1934.990
1933.622
1932.253
1930.885
1929.516
1928.148
1926.779
1925.411
1924.042
1922.674
1921.305
1919.937
1918.568
1917.200
1915.831
1914.463
1913.094
1911.726
1910.357
1908.989
1907.620
1906.252
1904.883
1903.515
1902.146
1900.778
1899.409
1898.041
1896.672
1895.304
1893.935
1892.567
1891.198
1889.830
1888.461
1887.093
1885.724
1884.356
1882.987
1881.619
1880.250
1878.882
1877.513
1876.145
1874.776
1873.408
1872.039
1870.671
1869.302
1867.934
1866.565
1865.197
1863.828
1862.460
1861.091
1859.723
1858.354
1856.986
1855.617
1854.249
1852.880
1851.512
1850.143
1848.775
1847.406
1846.038
1844.669
1843.301
1841.932
1840.564
1839.195
1837.827
1836.458
1835.090
1833.721
1832.353
1830.984
1829.616
1828.247
1826.879
1825.510
1824.142
1822.773
1821.405
1820.036
1818.668
1817.299
1815.931
1814.562
1813.194
1811.825
1810.457
1809.088
1807.720
1806.351
1804.983
1803.614
1802.246
1800.877
1799.509
1798.140
1796.772
1795.403
1794.035
1792.666
1791.298
1789.929
1788.561
1787.192
1785.824
1784.455
1783.087
1781.718
1780.350
1778.981
1777.613
1776.244
1774.876
1773.507
1772.139
1770.770
1769.402
1768.033
1766.665
1765.296
1763.928
1762.559
1761.191
1759.822
1758.454
1757.085
1755.717
1754.348
1752.980
1751.611
1750.243
1748.874
1747.506
1746.137
1744.769
1743.400
1742.032
1740.663
1739.295
1737.926
1736.558
1735.189
1733.821
1732.452
1731.084
1729.715
1728.347
1726.978
1725.610
1724.241
1722.873
1721.504
1720.136
1718.767
1717.399
1716.030
1714.662
1716.788
1718.915
1721.041
1723.168
1725.294
1727.421
1729.547
1731.674
1733.800
1735.927
1738.053
1740.180
1742.306
1744.433
1746.559
1748.686
1750.812
1752.939
1755.065
1757.192
1759.318
1761.445
1763.571
1765.698
1767.824
1769.951
1772.077
1774.204
1776.330
1778.457
1780.583
1782.710
1784.836
1786.963
1789.089
1791.216
1793.342
1795.469
1797.595
1799.722
1801.848
1803.975
1806.101
1808.228
1810.354
1812.481
1814.607
1816.734
1818.860
1820.987
1823.113
1825.240
1827.366
1829.493
1831.619
1833.746
1835.872
1837.999
1840.125
1842.252
1844.378
1846.505
1848.631
1850.758
1852.884
1855.011
1857.137
1859.264
1861.390
1863.517
1865.643
1867.770
1869.896
1872.023
1874.149
1876.276
1878.402
1880.529
1882.655
1884.782
1886.908
1889.035
1891.161
1893.288
1895.414
1897.541
1899.667
1901.794
1903.920
1906.047
1908.173
1910.300
1912.426
1914.553
1916.679
1918.806
1920.932
1923.059
1925.185
1927.312
1929.438
1931.565
1933.691
1935.818
1937.944
1940.071
1942.197
1944.324
1946.450
1948.577
1950.703
1952.830
1954.956
1957.083
1959.209
1961.336
1963.462
1965.589
1967.715
1969.842
1971.968
1974.095
1976.221
1978.348
1980.474
1982.601
1984.727
1986.854
1988.980
1991.107
1993.233
1995.360
1997.486
1999.613
2001.739
2003.866
2005.992
2008.119
2010.245
2012.372
2014.498
2016.625
2018.751
2020.878
2023.004
2025.131
2027.257
2029.384
2031.510
2033.637
2035.763
2037.890
2040.016
2042.143
2044.269
2046.396
2048.522
2050.649
2052.775
2054.902
2057.028
2059.155
2061.281
2063.408
2065.534
2067.661
2069.787
2071.914
2074.040
2076.167
2078.293
2080.420
2082.546
2084.673
2086.799
2088.926
2091.052
2093.179
2095.305
2097.432
2099.558
2101.685
2103.811
2105.938
2108.064
2110.191
2112.317
2114.444
2116.570
2118.697
2120.823
2122.950
2125.076
2127.203
2129.329
2131.456
2133.582
2135.709
2137.835
2139.962
2136.369
2132.777
2129.184
2125.592
2121.999
2118.407
2114.814
2111.222
2107.629
2104.037
2100.444
2096.852
2093.259
2089.667
2086.074
2082.482
2078.889
2075.297
2071.704
2068.112
2064.519
2060.927
2057.334
2053.742
2050.149
2046.557
2042.964
2039.372
2035.779
2032.187
2028.594
2025.002
2021.409
2017.817
2014.224
2010.632
2007.039
2003.447
1999.854
1996.262
1992.669
1989.077
1985.484
1981.892
1978.299
1974.707
1971.114
1967.522
1963.929
1960.337
1956.744
1953.152
1949.559
1945.967
1942.374
1938.782
1935.189
1931.597
1928.004
1924.412
1920.819
1917.227
1913.634
1910.042
1906.449
1902.857
1899.264
1895.672
1892.079
1888.487
1884.894
1881.302
1877.709
1874.117
1870.524
1866.932
1863.339
1859.747
1856.154
1852.562
1848.969
1845.377
1841.784
1838.192
1834.599
1831.007
1827.414
1823.822
1820.229
1816.637
1813.044
1809.452
1805.859
1802.267
1798.674
1795.082
1791.489
1787.897
1784.304
1780.712
1777.119
1773.527
1769.934
1766.342
1762.749
1759.157
1755.564
1751.972
1748.379
1744.787
1741.194
1737.602
1734.009
1730.417
1726.824
1723.232
1719.639
1716.047
1712.454
1708.862
1705.269
1701.677
1698.084
1694.492
1690.899
1687.307
1683.714
1680.122
1676.529
1672.937
1669.344
1665.752
1662.159
1658.567
1654.974
1651.382
1647.789
1644.197
1640.604
1637.012
1633.419
1629.827
1626.234
1622.642
1619.049
1615.457
1611.864
1608.272
1604.679
1601.087
1597.494
1593.902
1590.309
1586.717
1583.124
1579.532
1575.939
1572.347
1568.754
1565.162
1561.569
1557.977
1554.384
1550.792
1547.199
1543.607
1540.014
1536.422
1532.829
1529.237
1525.644
1522.052
1518.459
1514.867
1511.274
1507.682
1504.089
1500.497
1496.904
1493.312
1489.719
1486.127
1482.534
1478.942
1475.349
1471.757
1468.164
1464.572
1460.979
1457.387
1453.794
1450.202
1446.609
1443.017
1439.424
1435.832
1432.239
1428.647
1425.054
1421.462
1421.779
1422.097
1422.414
1422.732
1423.049
1423.367
1423.684
1424.002
1424.319
1424.637
1424.954
1425.272
1425.589
1425.907
1426.224
1426.542
1426.859
1427.177
1427.494
1427.812
1428.129
1428.447
1428.764
1429.082
1429.399
1429.717
1430.034
1430.352
1430.669
1430.987
1431.304
1431.622
1431.939
1432.257
1432.574
1432.892
1433.209
1433.527
1433.844
1434.162
1434.479
1434.797
1435.114
1435.432
1435.749
1436.067
1436.384
1436.702
1437.019
1437.337
1437.654
1437.972
1438.289
1438.607
1438.924
1439.242
1439.559
1439.877
1440.194
1440.512
1440.829
1441.147
1441.464
1441.782
1442.099
1442.417
1442.734
1443.052
1443.369
1443.687
1444.004
1444.322
1444.639
1444.957
1445.274
1445.592
1445.909
1446.227
1446.544
1446.862
1447.179
1447.497
1447.814
1448.132
1448.449
1448.767
1449.084
1449.402
1449.719
1450.037
1450.354
1450.672
1450.989
1451.307
1451.624
1451.942
1452.259
1452.577
1452.894
1453.212
1453.529
1453.847
1454.164
1454.482
1454.799
1455.117
1455.434
1455.752
1456.069
1456.387
1456.704
1457.022
1457.339
1457.657
1457.974
1458.292
1458.609
1458.927
1459.244
1459.562
1459.879
1460.197
1460.514
1460.832
1461.149
1461.467
1461.784
1462.102
1462.419
1462.737
1463.054
1463.372
1463.689
1464.007
1464.324
1464.642
1464.959
1465.277
1465.594
1465.912
1466.229
1466.547
1466.864
1467.182
1467.499
1467.817
1468.134
1468.452
1468.769
1469.087
1469.404
1469.722
1470.039
1470.357
1470.674
1470.992
1471.309
1471.627
1471.944
1472.262
1472.579
1472.897
1473.214
1473.532
1473.849
1474.167
1474.484
1474.802
1475.119
1475.437
1475.754
1476.072
1476.389
1476.707
1477.024
1477.342
1477.659
1477.977
1478.294
1478.612
1478.929
1479.247
1479.564
1479.882
1480.199
1480.517
1480.834
1481.152
1481.469
1481.787
1482.104
1482.422
1482.739
1483.057
1483.374
1483.692
1484.009
1484.327
1484.644
1484.962
1479.708
1474.454
1469.200
1463.946
1458.692
1453.438
1448.184
1442.930
1437.676
1432.422
1427.168
1421.914
1416.660
1411.406
1406.152
1400.898
1395.644
1390.390
1385.136
1379.882
1374.628
1369.374
1364.120
1358.866
1353.612
1348.358
1343.104
1337.850
1332.596
1327.342
1322.088
1316.834
1311.580
1306.326
1301.072
1295.818
1290.564
1285.310
1280.056
1274.802
1269.548
1264.294
1259.040
1253.786
1248.532
1243.278
1238.024
1232.770
1227.516
1222.262
1217.008
1211.754
1206.500
1201.246
1195.992
1190.738
1185.484
1180.230
1174.976
1169.722
1164.468
1159.214
1153.960
1148.706
1143.452
1138.198
1132.944
1127.690
1122.436
1117.182
1111.928
1106.674
1101.420
1096.166
1090.912
1085.658
1080.404
1075.150
1069.896
1064.642
1059.388
1054.134
1048.880
1043.626
1038.372
1033.118
1027.864
1022.610
1017.356
1012.102
1006.848
1001.594
996.340
991.086
985.832
980.578
975.324
970.070
964.816
959.562
954.308
949.054
943.800
938.546
933.292
928.038
922.784
917.530
912.276
907.022
901.768
896.514
891.260
886.006
880.752
875.498
870.244
864.990
859.736
854.482
849.228
843.974
838.720
833.466
828.212
822.958
817.704
812.450
807.196
801.942
796.688
791.434
786.180
780.926
775.672
770.418
765.164
759.910
754.656
749.402
744.148
738.894
733.640
728.386
723.132
717.878
712.624
707.370
702.116
696.862
691.608
686.354
681.100
675.846
670.592
665.338
660.084
654.830
649.576
644.322
639.068
633.814
628.560
623.306
618.052
612.798
607.544
602.290
597.036
591.782
586.528
581.274
576.020
570.766
565.512
560.258
555.004
549.750
544.496
539.242
533.988
528.734
523.480
518.226
512.972
507.718
502.464
497.210
491.956
486.702
481.448
476.194
470.940
465.686
460.432
455.178
449.924
444.670
439.416
92.062
92.037
92.013
91.988
91.964
91.939
91.915
91.890
91.866
91.841
91.817
91.792
91.768
91.743
91.719
91.694
91.670
91.645
91.621
91.596
91.572
91.547
91.523
91.498
91.474
91.449
91.425
91.400
91.376
91.351
91.327
91.302
91.278
91.253
91.229
91.204
91.180
91.155
91.131
91.106
91.082
91.057
91.033
91.008
90.984
90.959
90.935
90.910
90.886
90.861
90.837
90.812
90.788
90.763
90.739
90.714
90.690
90.665
90.641
90.616
90.592
90.567
90.543
90.518
90.494
90.469
90.445
90.420
90.396
90.371
90.347
90.322
90.298
90.273
90.249
90.224
90.200
90.175
90.151
90.126
90.102
90.077
90.053
90.028
90.004
89.979
89.955
89.930
89.906
89.881
89.857
89.832
89.808
89.783
89.759
89.734
89.710
89.685
89.661
89.636
89.612
89.587
89.563
89.538
89.514
89.489
89.465
89.440
89.416
89.391
89.367
89.342
89.318
89.293
89.269
89.244
89.220
89.195
89.171
89.146
89.122
89.097
89.073
89.048
89.024
88.999
88.975
88.950
88.926
88.901
88.877
88.852
88.828
88.803
88.779
88.754
88.730
88.705
88.681
88.656
88.632
88.607
88.583
88.558
88.534
88.509
88.485
88.460
88.436
88.411
88.387
88.362
88.338
88.313
88.289
88.264
88.240
88.215
88.191
88.166
88.142
88.117
88.093
88.068
88.044
88.019
87.995
87.970
87.946
87.921
87.897
87.872
87.848
87.823
87.799
87.774
87.750
87.725
87.701
87.676
87.652
87.627
87.603
87.578
87.554
87.529
87.505
87.480
87.456
87.431
87.407
87.382
87.358
87.333
87.309
87.284
87.260
87.235
87.211
87.186
87.162
87.162
87.162
87.162
87.162
87.162
87.162
87.162
87.162
87.162
87.162
87.162
87.162
87.162
87.162
87.162
87.162
87.162
87.162
87.162
87.162
87.162
87.162
87.162
87.162
87.162
87.162
87.162
87.162
87.162
87.162
87.162
87.162
87.162
87.162
87.162
87.162
87.162
87.162
87.162
87.162
87.162
87.162
87.162
87.162
87.162
87.162
87.162
87.162
87.162
87.162
87.162
87.162
87.162
87.162
87.162
87.162
87.162
87.162
87.162
87.162
87.162
87.162
87.162
87.162
87.162
87.162
87.162
87.162
87.162
87.162
87.162
87.162
87.162
87.162
87.162
87.162
87.162
87.162
87.162
87.162
87.162
87.162
87.162
87.162
87.162
87.162
87.162
87.162
87.162
87.162
87.162
87.162
87.162
87.162
87.162
87.162
87.162
87.162
87.162
87.162
87.162
87.162
87.162
87.162
87.162
87.162
87.162
87.162
87.162
87.162
87.162
87.162
87.162
87.162
87.162
87.162
87.162
87.162
87.162
87.162
87.162
87.162
87.162
87.162
87.162
87.162
87.162
87.162
87.162
87.162
87.162
87.162
87.162
87.162
87.162
87.162
87.162
87.162
87.162
87.162
87.162
87.162
87.162
87.162
87.162
87.162
87.162
87.162
87.162
87.162
87.162
87.162
87.162
87.162
87.162
87.162
87.162
87.162
87.162
87.162
87.162
87.162
87.162
87.162
87.162
87.162
87.162
87.162
87.162
87.162
87.162
87.162
87.162
87.162
87.162
87.162
87.162
87.162
87.162
87.162
87.162
87.162
87.162
87.162
87.162
87.162
87.162
87.162
87.162
87.162
87.162
87.162
87.162
87.162
87.162
87.162
87.162
87.162
87.162
87.162
87.162
87.162
87.162
87.162
87.162
87.162
87.162
87.162
87.162
87.162
87.162
87.162
87.162
87.162
87.162
87.162
87.162
87.162
87.162
87.162
87.162
87.162
87.162
87.162
87.162
87.162
87.162
87.162
87.162
87.162
87.162
87.162
87.162
87.162
87.162
87.162
87.162
87.162
87.162
87.162
87.162
87.162
87.162
87.162
87.162
87.162
87.162
87.162
87.162
87.162
87.162
87.162
87.162
87.162
87.162
87.162
87.162
87.162
87.162
87.162
87.162
87.162
87.162
87.162
87.162
87.162
87.162
87.162
87.162
87.162
87.162
87.162
87.162
87.162
87.162
87.162
87.162
87.162
87.162
87.162
87.162
87.162
87.162
87.162
87.162
87.162
87.162
87.162
87.162
87.162
87.162
87.162
87.162
87.162
87.162
87.162
87.162
87.162
87.162
87.162
87.162
87.162
87.162
87.162
87.162
87.162
87.162
87.162
87.162
87.162
87.162
87.162
87.162
87.162
87.162
87.162
87.162
87.162
87.162
87.162
87.162
87.162
87.162
87.162
87.162
87.162
87.162
87.162
87.162
87.162
87.162
87.162
87.162
87.162
87.162
87.162
87.162
87.162
87.162
87.162
87.162
87.162
87.162
87.162
87.162
87.162
87.162
87.162
87.162
87.162
87.162
87.162
87.162
87.162
87.162
87.162
87.162
87.162
87.162
87.162
87.162
87.162
87.162
87.162
87.162
87.162
87.162
87.162
87.162
87.162
87.162
87.162
87.162
87.162
87.162
87.162
87.162
87.162
87.162
87.162
87.162
87.162
87.162
87.162
87.162
87.162
87.162
87.162
87.162
87.162
87.162
87.162
87.162
87.162
87.162
87.162
87.162
87.162
87.162
87.162
87.186
87.211
87.235
87.260
87.284
87.309
87.333
87.358
87.382
87.407
87.431
87.456
87.480
87.505
87.529
87.554
87.578
87.603
87.627
87.652
87.676
87.701
87.725
87.750
87.774
87.799
87.823
87.848
87.872
87.897
87.921
87.946
87.970
87.995
88.019
88.044
88.068
88.093
88.117
88.142
88.166
88.191
88.215
88.240
88.264
88.289
88.313
88.338
88.362
88.387
88.411
88.436
88.460
88.485
88.509
88.534
88.558
88.583
88.607
88.632
88.656
88.681
88.705
88.730
88.754
88.779
88.803
88.828
88.852
88.877
88.901
88.926
88.950
88.975
88.999
89.024
89.048
89.073
89.097
89.122
89.146
89.171
89.195
89.220
89.244
89.269
89.293
89.318
89.342
89.367
89.391
89.416
89.440
89.465
89.489
89.514
89.538
89.563
89.587
89.612
89.636
89.661
89.685
89.710
89.734
89.759
89.783
89.808
89.832
89.857
89.881
89.906
89.930
89.955
89.979
90.004
90.028
90.053
90.077
90.102
90.126
90.151
90.175
90.200
90.224
90.249
90.273
90.298
90.322
90.347
90.371
90.396
90.420
90.445
90.469
90.494
90.518
90.543
90.567
90.592
90.616
90.641
90.665
90.690
90.714
90.739
90.763
90.788
90.812
90.837
90.861
90.886
90.910
90.935
90.959
90.984
91.008
91.033
91.057
91.082
91.106
91.131
91.155
91.180
91.204
91.229
91.253
91.278
91.302
91.327
91.351
91.376
91.400
91.425
91.449
91.474
91.498
91.523
91.547
91.572
91.596
91.621
91.645
91.670
91.694
91.719
91.743
91.768
91.792
91.817
91.841
91.866
91.890
91.915
91.939
91.964
91.988
92.013
92.037
92.062
92.037
92.013
91.988
91.964
91.939
91.915
91.890
91.866
91.841
91.817
91.792
91.768
91.743
91.719
91.694
91.670
91.645
91.621
91.596
91.572
91.547
91.523
91.498
91.474
91.449
91.425
91.400
91.376
91.351
91.327
91.302
91.278
91.253
91.229
91.204
91.180
91.155
91.131
91.106
91.082
91.057
91.033
91.008
90.984
90.959
90.935
90.910
90.886
90.861
90.837
90.812
90.788
90.763
90.739
90.714
90.690
90.665
90.641
90.616
90.592
90.567
90.543
90.518
90.494
90.469
90.445
90.420
90.396
90.371
90.347
90.322
90.298
90.273
90.249
90.224
90.200
90.175
90.151
90.126
90.102
90.077
90.053
90.028
90.004
89.979
89.955
89.930
89.906
89.881
89.857
89.832
89.808
89.783
89.759
89.734
89.710
89.685
89.661
89.636
89.612
89.587
89.563
89.538
89.514
89.489
89.465
89.440
89.416
89.391
89.367
89.342
89.318
89.293
89.269
89.244
89.220
89.195
89.171
89.146
89.122
89.097
89.073
89.048
89.024
88.999
88.975
88.950
88.926
88.901
88.877
88.852
88.828
88.803
88.779
88.754
88.730
88.705
88.681
88.656
88.632
88.607
88.583
88.558
88.534
88.509
88.485
88.460
88.436
88.411
88.387
88.362
88.338
88.313
88.289
88.264
88.240
88.215
88.191
88.166
88.142
88.117
88.093
88.068
88.044
88.019
87.995
87.970
87.946
87.921
87.897
87.872
87.848
87.823
87.799
87.774
87.750
87.725
87.701
87.676
87.652
87.627
