1358.850
1363.518
1368.186
1372.854
1377.522
1382.190
1386.858
1391.526
1396.194
1400.862
1405.530
1410.198
1414.866
1419.534
1424.202
1428.870
1433.538
1438.206
1442.874
1447.542
1452.210
1456.878
1461.546
1466.214
1470.882
1475.550
1480.218
1484.886
1489.554
1494.222
1498.890
1503.558
1508.226
1512.894
1517.562
1522.230
1526.898
1531.566
1536.234
1540.902
1545.570
1550.238
1554.906
1559.574
1564.242
1568.910
1573.578
1578.246
1582.914
1587.582
1592.250
1596.918
1601.586
1606.254
1610.922
1615.590
1620.258
1624.926
1629.594
1634.262
1638.930
1643.598
1648.266
1652.934
1657.602
1662.270
1666.938
1671.606
1676.274
1680.942
1685.610
1690.278
1694.946
1699.614
1704.282
1708.950
1713.618
1718.286
1722.954
1727.622
1732.290
1736.958
1741.626
1746.294
1750.962
1755.630
1760.298
1764.966
1769.634
1774.302
1778.970
1783.638
1788.306
1792.974
1797.642
1802.310
1806.978
1811.646
1816.314
1820.982
1825.650
1830.318
1834.986
1839.654
1844.322
1848.990
1853.658
1858.326
1862.994
1867.662
1872.330
1876.998
1881.666
1886.334
1891.002
1895.670
1900.338
1905.006
1909.674
1914.342
1919.010
1923.678
1928.346
1933.014
1937.682
1942.350
1947.018
1951.686
1956.354
1961.022
1965.690
1970.358
1975.026
1979.694
1984.362
1989.030
1993.698
1998.366
2003.034
2007.702
2012.370
2017.038
2021.706
2026.374
2031.042
2035.710
2040.378
2045.046
2049.714
2054.382
2059.050
2063.718
2068.386
2073.054
2077.722
2082.390
2087.058
2091.726
2096.394
2101.062
2105.730
2110.398
2115.066
2119.734
2124.402
2129.070
2133.738
2138.406
2143.074
2147.742
2152.410
2157.078
2157.420
2157.762
2158.104
2158.446
2158.788
2159.130
2159.472
2159.814
2160.156
2160.498
2160.840
2161.182
2161.524
2161.866
2162.208
2162.550
2162.892
2163.234
2163.576
2163.918
2164.260
2164.602
2164.944
2165.286
2165.628
2165.970
2166.312
2166.654
2166.996
2167.338
2167.680
2168.022
2168.364
2168.706
2169.048
2169.390
2169.732
2170.074
2170.416
2170.758
2171.100
2171.442
2171.784
2172.126
2172.468
2172.810
2173.152
2173.494
2173.836
2174.178
2174.520
2174.862
2175.204
2175.546
2175.888
2176.230
2176.572
2176.914
2177.256
2177.598
2177.940
2178.282
2178.624
2178.966
2179.308
2179.650
2179.992
2180.334
2180.676
2181.018
2181.360
2181.702
2182.044
2182.386
2182.728
2183.070
2183.412
2183.754
2184.096
2184.438
2184.780
2185.122
2185.464
2185.806
2186.148
2186.490
2186.832
2187.174
2187.516
2187.858
2188.200
2188.542
2188.884
2189.226
2189.568
2189.910
2190.252
2190.594
2190.936
2191.278
2191.620
2191.962
2192.304
2192.646
2192.988
2193.330
2193.672
2194.014
2194.356
2194.698
2195.040
2195.382
2195.724
2196.066
2196.408
2196.750
2197.092
2197.434
2197.776
2198.118
2198.460
2198.802
2199.144
2199.486
2199.828
2200.170
2200.512
2200.854
2201.196
2201.538
2201.880
2202.222
2202.564
2202.906
2203.248
2203.590
2203.932
2204.274
2204.616
2204.958
2205.300
2205.642
2205.984
2206.326
2206.668
2207.010
2207.352
2207.694
2208.036
2208.378
2208.720
2209.062
2209.404
2209.746
2210.088
2210.430
2210.772
2211.114
2211.456
2211.798
2212.140
2212.482
2212.824
2213.166
2213.508
2213.850
2214.192
2214.534
2214.876
2215.218
2215.560
2215.902
2216.244
2216.586
2216.928
2217.270
2217.612
2217.954
2218.296
2218.638
2218.980
2219.322
2219.664
2220.006
2220.348
2220.690
2221.032
2221.374
2221.716
2222.058
2222.400
2222.742
2223.084
2223.426
2223.768
2224.110
2224.452
2224.794
2225.136
2225.478
2222.350
2219.222
2216.094
2212.966
2209.838
2206.710
2203.582
2200.454
2197.326
2194.198
2191.070
2187.942
2184.814
2181.686
2178.558
2175.430
2172.302
2169.174
2166.046
2162.918
2159.790
2156.662
2153.534
2150.406
2147.278
2144.150
2141.022
2137.894
2134.766
2131.638
2128.510
2125.382
2122.254
2119.126
2115.998
2112.870
2109.742
2106.614
2103.486
2100.358
2097.230
2094.102
2090.974
2087.846
2084.718
2081.590
2078.462
2075.334
2072.206
2069.078
2065.950
2062.822
2059.694
2056.566
2053.438
2050.310
2047.182
2044.054
2040.926
2037.798
2034.670
2031.542
2028.414
2025.286
2022.158
2019.030
2015.902
2012.774
2009.646
2006.518
2003.390
2000.262
1997.134
1994.006
1990.878
1987.750
1984.622
1981.494
1978.366
1975.238
1972.110
1968.982
1965.854
1962.726
1959.598
1956.470
1953.342
1950.214
1947.086
1943.958
1940.830
1937.702
1934.574
1931.446
1928.318
1925.190
1922.062
1918.934
1915.806
1912.678
1909.550
1906.422
1903.294
1900.166
1897.038
1893.910
1890.782
1887.654
1884.526
1881.398
1878.270
1875.142
1872.014
1868.886
1865.758
1862.630
1859.502
1856.374
1853.246
1850.118
1846.990
1843.862
1840.734
1837.606
1834.478
1831.350
1828.222
1825.094
1821.966
1818.838
1815.710
1812.582
1809.454
1806.326
1803.198
1800.070
1796.942
1793.814
1790.686
1787.558
1784.430
1781.302
1778.174
1775.046
1771.918
1768.790
1765.662
1762.534
1759.406
1756.278
1753.150
1750.022
1746.894
1743.766
1740.638
1737.510
1734.382
1731.254
1728.126
1724.998
1721.870
1718.742
1715.614
1712.486
1709.358
1706.230
1703.102
1699.974
1696.846
1693.718
1690.590
1687.462
1684.334
1681.206
1678.078
1674.950
1671.822
1668.694
1665.566
1662.438
1659.310
1656.182
1653.054
1649.926
1646.798
1643.670
1640.542
1637.414
1634.286
1631.158
1628.030
1624.902
1621.774
1618.646
1615.518
1612.390
1609.262
1606.134
1603.006
1599.878
1603.886
1607.894
1611.902
1615.910
1619.918
1623.926
1627.934
1631.942
1635.950
1639.958
1643.966
1647.974
1651.982
1655.990
1659.998
1664.006
1668.014
1672.022
1676.030
1680.038
1684.046
1688.054
1692.062
1696.070
1700.078
1704.086
1708.094
1712.102
1716.110
1720.118
1724.126
1728.134
1732.142
1736.150
1740.158
1744.166
1748.174
1752.182
1756.190
1760.198
1764.206
1768.214
1772.222
1776.230
1780.238
1784.246
1788.254
1792.262
1796.270
1800.278
1804.286
1808.294
1812.302
1816.310
1820.318
1824.326
1828.334
1832.342
1836.350
1840.358
1844.366
1848.374
1852.382
1856.390
1860.398
1864.406
1868.414
1872.422
1876.430
1880.438
1884.446
1888.454
1892.462
1896.470
1900.478
1904.486
1908.494
1912.502
1916.510
1920.518
1924.526
1928.534
1932.542
1936.550
1940.558
1944.566
1948.574
1952.582
1956.590
1960.598
1964.606
1968.614
1972.622
1976.630
1980.638
1984.646
1988.654
1992.662
1996.670
2000.678
2004.686
2008.694
2012.702
2016.710
2020.718
2024.726
2028.734
2032.742
2036.750
2040.758
2044.766
2048.774
2052.782
2056.790
2060.798
2064.806
2068.814
2072.822
2076.830
2080.838
2084.846
2088.854
2092.862
2096.870
2100.878
2104.886
2108.894
2112.902
2116.910
2120.918
2124.926
2128.934
2132.942
2136.950
2140.958
2144.966
2148.974
2152.982
2156.990
2160.998
2165.006
2169.014
2173.022
2177.030
2181.038
2185.046
2189.054
2193.062
2197.070
2201.078
2205.086
2209.094
2213.102
2217.110
2221.118
2225.126
2229.134
2233.142
2237.150
2241.158
2245.166
2249.174
2253.182
2257.190
2261.198
2265.206
2269.214
2273.222
2277.230
2281.238
2285.246
2289.254
2293.262
2297.270
2301.278
2305.286
2309.294
2313.302
2317.310
2321.318
2325.326
2329.334
2333.342
2337.350
2341.358
2345.366
2349.374
2353.382
2357.390
2361.398
2365.406
2369.414
2373.422
2377.430
2381.438
2385.446
2389.454
2393.462
2397.470
2401.478
2399.010
2396.541
2394.073
2391.604
2389.136
2386.667
2384.199
2381.730
2379.262
2376.793
2374.325
2371.856
2369.388
2366.919
2364.451
2361.982
2359.514
2357.045
2354.577
2352.108
2349.640
2347.171
2344.703
2342.234
2339.766
2337.297
2334.829
2332.360
2329.892
2327.423
2324.955
2322.486
2320.018
2317.549
2315.081
2312.612
2310.144
2307.675
2305.207
2302.738
2300.270
2297.801
2295.333
2292.864
2290.396
2287.927
2285.459
2282.990
2280.522
2278.053
2275.585
2273.116
2270.648
2268.179
2265.711
2263.242
2260.774
2258.305
2255.837
2253.368
2250.900
2248.431
2245.963
2243.494
2241.026
2238.557
2236.089
2233.620
2231.152
2228.683
2226.215
2223.746
2221.278
2218.809
2216.341
2213.872
2211.404
2208.935
2206.467
2203.998
2201.530
2199.061
2196.593
2194.124
2191.656
2189.187
2186.719
2184.250
2181.782
2179.313
2176.845
2174.376
2171.908
2169.439
2166.971
2164.502
2162.034
2159.565
2157.097
2154.628
2152.160
2149.691
2147.223
2144.754
2142.286
2139.817
2137.349
2134.880
2132.412
2129.943
2127.475
2125.006
2122.538
2120.069
2117.601
2115.132
2112.664
2110.195
2107.727
2105.258
2102.790
2100.321
2097.853
2095.384
2092.916
2090.447
2087.979
2085.510
2083.042
2080.573
2078.105
2075.636
2073.168
2070.699
2068.231
2065.762
2063.294
2060.825
2058.357
2055.888
2053.420
2050.951
2048.483
2046.014
2043.546
2041.077
2038.609
2036.140
2033.672
2031.203
2028.735
2026.266
2023.798
2021.329
2018.861
2016.392
2013.924
2011.455
2008.987
2006.518
2004.050
2001.581
1999.113
1996.644
1994.176
1991.707
1989.239
1986.770
1984.302
1981.833
1979.365
1976.896
1974.428
1971.959
1969.491
1967.022
1964.554
1962.085
1959.617
1957.148
1954.680
1952.211
1949.743
1947.274
1944.806
1942.337
1939.869
1937.400
1934.932
1932.463
1929.995
1927.526
1925.058
1922.589
1920.121
1917.652
1915.184
1912.715
1910.247
1907.778
1906.605
1905.432
1904.259
1903.086
1901.913
1900.740
1899.567
1898.394
1897.221
1896.048
1894.875
1893.702
1892.529
1891.356
1890.183
1889.010
1887.837
1886.664
1885.491
1884.318
1883.145
1881.972
1880.799
1879.626
1878.453
1877.280
1876.107
1874.934
1873.761
1872.588
1871.415
1870.242
1869.069
1867.896
1866.723
1865.550
1864.377
1863.204
1862.031
1860.858
1859.685
1858.512
1857.339
1856.166
1854.993
1853.820
1852.647
1851.474
1850.301
1849.128
1847.955
1846.782
1845.609
1844.436
1843.263
1842.090
1840.917
1839.744
1838.571
1837.398
1836.225
1835.052
1833.879
1832.706
1831.533
1830.360
1829.187
1828.014
1826.841
1825.668
1824.495
1823.322
1822.149
1820.976
1819.803
1818.630
1817.457
1816.284
1815.111
1813.938
1812.765
1811.592
1810.419
1809.246
1808.073
1806.900
1805.727
1804.554
1803.381
1802.208
1801.035
1799.862
1798.689
1797.516
1796.343
1795.170
1793.997
1792.824
1791.651
1790.478
1789.305
1788.132
1786.959
1785.786
1784.613
1783.440
1782.267
1781.094
1779.921
1778.748
1777.575
1776.402
1775.229
1774.056
1772.883
1771.710
1770.537
1769.364
1768.191
1767.018
1765.845
1764.672
1763.499
1762.326
1761.153
1759.980
1758.807
1757.634
1756.461
1755.288
1754.115
1752.942
1751.769
1750.596
1749.423
1748.250
1747.077
1745.904
1744.731
1743.558
1742.385
1741.212
1740.039
1738.866
1737.693
1736.520
1735.347
1734.174
1733.001
1731.828
1730.655
1729.482
1728.309
1727.136
1725.963
1724.790
1723.617
1722.444
1721.271
1720.098
1718.925
1717.752
1716.579
1715.406
1714.233
1713.060
1711.887
1710.714
1709.541
1708.368
1707.195
1706.022
1704.849
1703.676
1702.503
1701.330
1700.157
1698.984
1697.811
1696.638
1695.465
1694.292
1693.119
1691.946
1690.773
1689.600
1688.427
1687.254
1686.081
1684.908
1683.735
1682.562
1681.389
1680.216
1679.043
1677.870
1676.697
1675.524
1674.351
1673.178
1670.124
1667.069
1664.015
1660.960
1657.906
1654.851
1651.797
1648.742
1645.688
1642.633
1639.579
1636.524
1633.470
1630.415
1627.361
1624.306
1621.252
1618.197
1615.143
1612.088
1609.034
1605.979
1602.925
1599.870
1596.816
1593.761
1590.707
1587.652
1584.598
1581.543
1578.489
1575.434
1572.380
1569.325
1566.271
1563.216
1560.162
1557.107
1554.053
1550.998
1547.944
1544.889
1541.835
1538.780
1535.726
1532.671
1529.617
1526.562
1523.508
1520.453
1517.399
1514.344
1511.290
1508.235
1505.181
1502.126
1499.072
1496.017
1492.963
1489.908
1486.854
1483.799
1480.745
1477.690
1474.636
1471.581
1468.527
1465.472
1462.418
1459.363
1456.309
1453.254
1450.200
1447.145
1444.091
1441.036
1437.982
1434.927
1431.873
1428.818
1425.764
1422.709
1419.655
1416.600
1413.546
1410.491
1407.437
1404.382
1401.328
1398.273
1395.219
1392.164
1389.110
1386.055
1383.001
1379.946
1376.892
1373.837
1370.783
1367.728
1364.674
1361.619
1358.565
1355.510
1352.456
1349.401
1346.347
1343.292
1340.238
1337.183
1334.129
1331.074
1328.020
1324.965
1321.911
1318.856
1315.802
1312.747
1309.693
1306.638
1303.584
1300.529
1297.475
1294.420
1291.366
1288.311
1285.257
1282.202
1279.148
1276.093
1273.039
1269.984
1266.930
1263.875
1260.821
1257.766
1254.712
1251.657
1248.603
1245.548
1242.494
1239.439
1236.385
1233.330
1230.276
1227.221
1224.167
1221.112
1218.058
1215.003
1211.949
1208.894
1205.840
1202.785
1199.731
1196.676
1193.622
1190.567
1187.513
1184.458
1181.404
1178.349
1175.295
1172.240
1169.186
1166.131
1163.077
1160.022
1156.968
1153.913
1150.859
1147.804
1144.750
1141.695
1138.641
1135.586
1132.532
1129.477
1126.423
1123.368
1120.314
1117.259
1114.205
1111.150
1108.096
1105.041
1101.987
1098.932
1095.878
1092.823
1089.769
1086.714
1083.660
1080.605
1077.551
1074.496
1071.442
1068.387
1065.333
1062.278
1065.748
1069.218
1072.688
1076.158
1079.628
1083.098
1086.568
1090.038
1093.508
1096.978
1100.448
1103.918
1107.388
1110.858
1114.328
1117.798
1121.268
1124.738
1128.208
1131.678
1135.148
1138.618
1142.088
1145.558
1149.028
1152.498
1155.968
1159.438
1162.908
1166.378
1169.848
1173.318
1176.788
1180.258
1183.728
1187.198
1190.668
1194.138
1197.608
1201.078
1204.548
1208.018
1211.488
1214.958
1218.428
1221.898
1225.368
1228.838
1232.308
1235.778
1239.248
1242.718
1246.188
1249.658
1253.128
1256.598
1260.068
1263.538
1267.008
1270.478
1273.948
1277.418
1280.888
1284.358
1287.828
1291.298
1294.768
1298.238
1301.708
1305.178
1308.648
1312.118
1315.588
1319.058
1322.528
1325.998
1329.468
1332.938
1336.408
1339.878
1343.348
1346.818
1350.288
1353.758
1357.228
1360.698
1364.168
1367.638
1371.108
1374.578
1378.048
1381.518
1384.988
1388.458
1391.928
1395.398
1398.868
1402.338
1405.808
1409.278
1412.748
1416.218
1419.688
1423.158
1426.628
1430.098
1433.568
1437.038
1440.508
1443.978
1447.448
1450.918
1454.388
1457.858
1461.328
1464.798
1468.268
1471.738
1475.208
1478.678
1482.148
1485.618
1489.088
1492.558
1496.028
1499.498
1502.968
1506.438
1509.908
1513.378
1516.848
1520.318
1523.788
1527.258
1530.728
1534.198
1537.668
1541.138
1544.608
1548.078
1551.548
1555.018
1558.488
1561.958
1565.428
1568.898
1572.368
1575.838
1579.308
1582.778
1586.248
1589.718
1593.188
1596.658
1600.128
1603.598
1607.068
1610.538
1614.008
1617.478
1620.948
1624.418
1627.888
1631.358
1634.828
1638.298
1641.768
1645.238
1648.708
1652.178
1655.648
1659.118
1662.588
1666.058
1669.528
1672.998
1676.468
1679.938
1683.408
1686.878
1690.348
1693.818
1697.288
1700.758
1704.228
1707.698
1711.168
1714.638
1718.108
1721.578
1725.048
1728.518
1731.988
1735.458
1738.928
1742.398
1745.868
1749.338
1752.808
1756.278
1749.387
1742.495
1735.604
1728.712
1721.821
1714.929
1708.038
1701.146
1694.255
1687.363
1680.472
1673.580
1666.689
1659.797
1652.906
1646.014
1639.123
1632.231
1625.340
1618.448
1611.557
1604.665
1597.774
1590.882
1583.991
1577.099
1570.208
1563.316
1556.425
1549.533
1542.642
1535.750
1528.859
1521.967
1515.076
1508.184
1501.293
1494.401
1487.510
1480.618
1473.727
1466.835
1459.944
1453.052
1446.161
1439.269
1432.378
1425.486
1418.595
1411.703
1404.812
1397.920
1391.029
1384.137
1377.246
1370.354
1363.463
1356.571
1349.680
1342.788
1335.897
1329.005
1322.114
1315.222
1308.331
1301.439
1294.548
1287.656
1280.765
1273.873
1266.982
1260.090
1253.199
1246.307
1239.416
1232.524
1225.633
1218.741
1211.850
1204.958
1198.067
1191.175
1184.284
1177.392
1170.501
1163.609
1156.718
1149.826
1142.935
1136.043
1129.152
1122.260
1115.369
1108.477
1101.586
1094.694
1087.803
1080.911
1074.020
1067.128
1060.237
1053.345
1046.454
1039.562
1032.671
1025.779
1018.888
1011.996
1005.105
998.213
991.322
984.430
977.539
970.647
963.756
956.864
949.973
943.081
936.190
929.298
922.407
915.515
908.624
901.732
894.841
887.949
881.058
874.166
867.275
860.383
853.492
846.600
839.709
832.817
825.926
819.034
812.143
805.251
798.360
791.468
784.577
777.685
770.794
763.902
757.011
750.119
743.228
736.336
729.445
722.553
715.662
708.770
701.879
694.987
688.096
681.204
674.313
667.421
660.530
653.638
646.747
639.855
632.964
626.072
619.181
612.289
605.398
598.506
591.615
584.723
577.832
570.940
564.049
557.157
550.266
543.374
536.483
529.591
522.700
515.808
508.917
502.025
495.134
488.242
481.351
474.459
467.568
460.676
453.785
446.893
440.002
433.110
426.219
419.327
412.436
405.544
398.653
391.761
384.870
74.978
74.978
74.978
74.978
74.978
74.978
74.978
74.978
74.978
74.978
74.978
74.978
74.978
74.978
74.978
74.978
74.978
74.978
74.978
74.978
74.978
74.978
74.978
74.978
74.978
74.978
74.978
74.978
74.978
74.978
74.978
74.978
74.978
74.978
74.978
74.978
74.978
74.978
74.978
74.978
74.978
74.978
74.978
74.978
74.978
74.978
74.978
74.978
74.978
74.978
74.978
74.978
74.978
74.978
74.978
74.978
74.978
74.978
74.978
74.978
74.978
74.978
74.978
74.978
74.978
74.978
74.978
74.978
74.978
74.978
74.978
74.978
74.978
74.978
74.978
74.978
74.978
74.978
74.978
74.978
74.978
74.978
74.978
74.978
74.978
74.978
74.978
74.978
74.978
74.978
74.978
74.978
74.978
74.978
74.978
74.978
74.978
74.978
74.978
74.978
74.978
74.978
74.978
74.978
74.978
74.978
74.978
74.978
74.978
74.978
74.978
74.978
74.978
74.978
74.978
74.978
74.978
74.978
74.978
74.978
74.978
74.978
74.978
74.978
74.978
74.978
74.978
74.978
74.978
74.978
74.978
74.978
74.978
74.978
74.978
74.978
74.978
74.978
74.978
74.978
74.978
74.978
74.978
74.978
74.978
74.978
74.978
74.978
74.978
74.978
74.978
74.978
74.978
74.978
74.978
74.978
74.978
74.978
74.978
74.978
74.978
74.978
74.978
74.978
74.978
74.978
74.978
74.978
74.978
74.978
74.978
74.978
74.978
74.978
74.978
74.978
74.978
74.978
74.978
74.978
74.978
74.978
74.978
74.978
74.978
74.978
74.978
74.978
74.978
74.978
74.978
74.978
74.978
74.978
74.978
74.978
74.978
74.978
74.978
74.978
74.978
74.978
74.978
74.978
74.978
74.978
74.978
74.978
74.978
74.978
74.978
74.978
74.978
74.978
74.978
74.978
74.978
74.978
74.978
74.978
74.978
74.978
74.978
74.978
74.978
74.978
74.978
74.978
74.978
