1275.559
1278.125
1280.691
1283.257
1285.823
1288.389
1290.955
1293.521
1296.087
1298.653
1301.219
1303.785
1306.351
1308.917
1311.483
1314.049
1316.615
1319.181
1321.747
1324.313
1326.879
1329.445
1332.011
1334.577
1337.143
1339.709
1342.275
1344.841
1347.407
1349.826
1352.246
1354.665
1357.085
1359.504
1361.924
1364.343
1366.763
1369.182
1371.602
1374.021
1376.441
1378.860
1381.280
1383.699
1386.119
1388.538
1390.958
1393.377
1395.797
1398.216
1400.636
1403.055
1405.475
1407.894
1410.314
1412.733
1415.153
1417.572
1419.992
1422.411
1424.831
1427.250
1429.670
1432.089
1434.509
1436.928
1439.348
1441.767
1444.187
1446.606
1449.026
1451.445
1453.865
1456.284
1458.704
1461.123
1463.543
1465.962
1468.382
1470.801
1473.221
1475.640
1478.060
1480.479
1482.899
1485.318
1487.738
1490.157
1492.577
1494.996
1497.416
1499.835
1502.255
1504.674
1507.094
1509.513
1511.933
1514.352
1516.772
1519.191
1521.611
1524.030
1526.450
1528.869
1531.289
1533.708
1536.128
1538.547
1540.967
1543.386
1545.806
1548.225
1550.645
1553.064
1555.484
1557.903
1560.323
1562.742
1565.162
1567.581
1570.001
1572.420
1574.840
1577.259
1579.679
1582.098
1584.518
1586.937
1589.357
1591.776
1594.196
1596.615
1599.035
1601.454
1603.874
1606.293
1608.713
1611.132
1613.552
1615.971
1618.391
1620.810
1623.230
1625.649
1628.069
1630.488
1632.908
1635.327
1637.747
1640.166
1642.586
1645.005
1647.425
1649.844
1652.264
1654.683
1657.103
1659.522
1661.942
1664.361
1666.781
1669.200
1671.620
1674.039
1676.459
1678.878
1681.298
1683.717
1686.137
1688.556
1690.976
1693.395
1695.815
1698.234
1700.654
1703.073
1705.493
1707.912
1710.332
1712.751
1715.171
1717.590
1720.010
1722.429
1724.849
1727.268
1729.688
1732.107
1734.527
1736.946
1739.366
1741.785
1744.205
1746.624
1749.044
1751.463
1753.883
1756.302
1758.722
1761.141
1763.561
1765.980
1768.400
1770.819
1773.239
1775.658
1778.078
1780.497
1782.917
1785.336
1787.756
1790.175
1792.595
1795.014
1797.434
1799.853
1802.273
1804.692
1807.112
1809.531
1811.951
1814.370
1816.790
1819.209
1821.629
1824.048
1826.468
1828.887
1831.307
1832.113
1832.920
1833.726
1834.533
1835.339
1836.146
1836.952
1837.759
1838.565
1839.372
1840.178
1840.985
1841.791
1842.598
1843.404
1844.211
1845.017
1845.824
1846.630
1847.437
1848.243
1849.050
1849.856
1850.663
1851.469
1852.276
1853.082
1853.889
1854.695
1855.502
1856.308
1857.115
1857.921
1858.728
1859.534
1860.341
1861.147
1861.954
1862.760
1863.567
1864.373
1865.180
1865.986
1866.793
1867.599
1868.406
1869.212
1870.019
1870.825
1871.632
1872.438
1873.245
1874.051
1874.858
1875.664
1876.471
1877.277
1878.084
1878.890
1879.697
1880.503
1881.310
1882.116
1882.923
1883.729
1884.536
1885.342
1886.149
1886.955
1887.762
1888.568
1889.375
1890.181
1890.988
1891.794
1892.601
1893.407
1894.214
1895.020
1895.827
1896.633
1897.440
1898.246
1899.053
1899.859
1900.666
1901.472
1902.279
1903.085
1903.892
1904.698
1905.505
1906.311
1907.118
1907.924
1908.731
1909.537
1910.344
1911.150
1911.957
1912.763
1913.570
1914.376
1915.183
1915.989
1916.796
1917.602
1918.409
1919.215
1920.022
1920.828
1921.635
1922.441
1923.248
1924.054
1924.861
1925.667
1926.474
1927.280
1928.087
1928.893
1929.700
1930.506
1931.313
1932.119
1932.926
1933.732
1934.539
1935.345
1936.152
1936.958
1937.765
1938.571
1939.378
1940.184
1940.991
1941.797
1942.604
1943.410
1944.217
1945.023
1945.830
1946.636
1947.443
1948.249
1949.056
1949.862
1950.669
1951.475
1952.282
1953.088
1953.895
1954.701
1955.508
1956.314
1957.121
1957.927
1958.734
1959.540
1960.347
1961.153
1961.960
1962.766
1963.573
1964.379
1965.186
1965.992
1966.799
1967.605
1968.412
1969.218
1970.025
1970.831
1971.638
1972.444
1973.251
1974.057
1974.864
1975.670
1976.477
1977.283
1978.090
1978.896
1979.703
1980.509
1981.316
1982.122
1982.929
1983.735
1984.542
1985.348
1986.155
1986.961
1987.768
1988.574
1989.381
1990.187
1990.994
1991.800
1992.607
1993.682
1994.757
1995.832
1996.907
1997.982
1999.057
2000.132
2001.207
2002.282
2003.357
2004.432
2005.507
2006.582
2007.657
2008.732
2009.807
2010.882
2011.957
2013.032
2014.107
2015.182
2016.257
2017.332
2018.407
2019.482
2020.557
2021.632
2022.707
2023.782
2024.857
2025.932
2027.007
2028.082
2029.157
2030.232
2031.307
2032.382
2033.457
2034.532
2035.607
2036.682
2037.757
2038.832
2039.907
2040.982
2042.057
2043.132
2044.207
2045.282
2046.357
2047.432
2048.507
2049.582
2050.657
2051.732
2052.807
2053.882
2054.957
2056.032
2057.107
2058.182
2059.257
2060.332
2061.407
2062.482
2063.557
2064.632
2065.707
2066.782
2067.857
2068.932
2070.007
2071.082
2072.157
2073.232
2074.307
2075.382
2076.457
2077.532
2078.607
2079.682
2080.757
2081.832
2082.907
2083.982
2085.057
2086.132
2087.207
2088.282
2089.357
2090.432
2091.507
2092.582
2093.657
2094.732
2095.807
2096.882
2097.957
2099.032
2100.107
2101.182
2102.257
2103.332
2104.407
2105.482
2106.557
2107.632
2108.707
2109.782
2110.857
2111.932
2113.007
2114.082
2115.157
2116.232
2117.307
2118.382
2119.457
2120.532
2121.607
2122.682
2123.757
2124.832
2125.907
2126.982
2128.057
2129.132
2130.207
2131.282
2132.357
2133.432
2134.507
2135.582
2136.657
2137.732
2138.807
2139.882
2140.957
2142.032
2143.107
2144.182
2145.257
2146.332
2147.407
2148.482
2149.557
2150.632
2151.707
2152.782
2153.857
2154.932
2156.007
2157.082
2158.157
2159.232
2160.307
2161.382
2162.457
2163.532
2164.607
2165.682
2166.757
2167.832
2168.907
2169.982
2171.057
2172.132
2173.207
2174.282
2175.357
2176.432
2177.507
2178.582
2179.657
2180.732
2181.807
2182.882
2183.957
2185.032
2186.107
2187.182
2188.257
2189.332
2190.407
2191.482
2192.557
2193.632
2194.707
2195.782
2196.857
2197.932
2199.007
2200.082
2201.157
2202.232
2203.307
2204.382
2205.457
2206.532
2207.607
2207.216
2206.825
2206.434
2206.043
2205.652
2205.261
2204.870
2204.479
2204.088
2203.697
2203.306
2202.915
2202.524
2202.133
2201.742
2201.351
2200.960
2200.569
2200.178
2199.787
2199.396
2199.005
2198.614
2198.223
2197.832
2197.441
2197.050
2196.659
2196.268
2195.877
2195.486
2195.095
2194.704
2194.313
2193.922
2193.531
2193.140
2192.749
2192.358
2191.967
2191.576
2191.185
2190.794
2190.403
2190.012
2189.621
2189.230
2188.839
2188.448
2188.057
2187.666
2187.275
2186.884
2186.493
2186.102
2185.711
2185.320
2184.929
2184.538
2184.147
2183.756
2183.365
2182.974
2182.583
2182.192
2181.801
2181.410
2181.019
2180.628
2180.237
2179.846
2179.455
2179.064
2178.673
2178.282
2177.891
2177.500
2177.109
2176.718
2176.327
2175.936
2175.545
2175.154
2174.763
2174.372
2173.981
2173.590
2173.199
2172.808
2172.417
2172.026
2171.635
2171.244
2170.853
2170.462
2170.071
2169.680
2169.289
2168.898
2168.507
2168.116
2167.725
2167.334
2166.943
2166.552
2166.161
2165.770
2165.379
2164.988
2164.597
2164.206
2163.815
2163.424
2163.033
2162.642
2162.251
2161.860
2161.469
2161.078
2160.687
2160.296
2159.905
2159.514
2159.123
2158.732
2158.341
2157.950
2157.559
2157.168
2156.777
2156.386
2155.995
2155.604
2155.213
2154.822
2154.431
2154.040
2153.649
2153.258
2152.867
2152.476
2152.085
2151.694
2151.303
2150.912
2150.521
2150.130
2149.739
2149.348
2148.957
2148.566
2148.175
2147.784
2147.393
2147.002
2146.611
2146.220
2145.829
2145.438
2145.047
2144.656
2144.265
2143.874
2143.483
2143.092
2142.701
2142.310
2141.919
2141.528
2141.137
2140.746
2140.355
2139.964
2139.573
2139.182
2138.791
2138.400
2138.009
2137.618
2137.227
2136.836
2136.445
2136.054
2135.663
2135.272
2134.881
2134.490
2134.099
2133.708
2133.317
2132.926
2132.535
2132.144
2131.753
2131.362
2130.971
2130.580
2130.189
2129.798
2129.407
2128.674
2127.941
2127.208
2126.475
2125.742
2125.009
2124.276
2123.543
2122.810
2122.077
2121.344
2120.611
2119.878
2119.145
2118.412
2117.679
2116.946
2116.213
2115.480
2114.747
2114.014
2113.281
2112.548
2111.815
2111.082
2110.349
2109.616
2108.883
2108.150
2107.417
2106.684
2105.951
2105.218
2104.485
2103.752
2103.019
2102.286
2101.553
2100.820
2100.087
2099.354
2098.621
2097.888
2097.155
2096.422
2095.689
2094.956
2094.223
2093.490
2092.757
2092.024
2091.291
2090.558
2089.825
2089.092
2088.359
2087.626
2086.893
2086.160
2085.427
2084.694
2083.961
2083.228
2082.495
2081.762
2081.029
2080.296
2079.563
2078.830
2078.097
2077.364
2076.631
2075.898
2075.165
2074.432
2073.699
2072.966
2072.233
2071.500
2070.767
2070.034
2069.301
2068.568
2067.835
2067.102
2066.369
2065.636
2064.903
2064.170
2063.437
2062.704
2061.971
2061.238
2060.505
2059.772
2059.039
2058.306
2057.573
2056.840
2056.107
2055.374
2054.641
2053.908
2053.175
2052.442
2051.709
2050.976
2050.243
2049.510
2048.777
2048.044
2047.311
2046.578
2045.845
2045.112
2044.379
2043.646
2042.913
2042.180
2041.447
2040.714
2039.981
2039.248
2038.515
2037.782
2037.049
2036.316
2035.583
2034.850
2034.117
2033.384
2032.651
2031.918
2031.185
2030.452
2029.719
2028.986
2028.253
2027.520
2026.787
2026.054
2025.321
2024.588
2023.855
2023.122
2022.389
2021.656
2020.923
2020.190
2019.457
2018.724
2017.991
2017.258
2016.525
2015.792
2015.059
2014.326
2013.593
2012.860
2012.127
2011.394
2010.661
2009.928
2009.195
2008.462
2007.729
2006.996
2006.263
2005.530
2004.797
2004.064
2003.331
2002.598
2001.865
2001.132
2000.399
1999.666
1998.933
1998.200
1997.467
1996.734
1996.001
1995.268
1994.535
1993.802
1993.069
1992.336
1991.603
1990.870
1990.137
1989.404
1988.671
1987.938
1987.205
1986.472
1985.739
1985.006
1984.273
1983.540
1982.807
1980.901
1978.995
1977.089
1975.183
1973.277
1971.371
1969.465
1967.559
1965.653
1963.747
1961.841
1959.935
1958.029
1956.123
1954.217
1952.311
1950.405
1948.499
1946.593
1944.687
1942.781
1940.875
1938.969
1937.063
1935.157
1933.251
1931.345
1929.439
1927.533
1925.627
1923.721
1921.815
1919.909
1918.003
1916.097
1914.191
1912.285
1910.379
1908.473
1906.567
1904.661
1902.755
1900.849
1898.943
1897.037
1895.131
1893.225
1891.319
1889.413
1887.507
1885.601
1883.695
1881.789
1879.883
1877.977
1876.071
1874.165
1872.259
1870.353
1868.447
1866.541
1864.635
1862.729
1860.823
1858.917
1857.011
1855.105
1853.199
1851.293
1849.387
1847.481
1845.575
1843.669
1841.763
1839.857
1837.951
1836.045
1834.139
1832.233
1830.327
1828.421
1826.515
1824.609
1822.703
1820.797
1818.891
1816.985
1815.079
1813.173
1811.267
1809.361
1807.455
1805.549
1803.643
1801.737
1799.831
1797.925
1796.019
1794.113
1792.207
1790.301
1788.395
1786.489
1784.583
1782.677
1780.771
1778.865
1776.959
1775.053
1773.147
1771.241
1769.335
1767.429
1765.523
1763.617
1761.711
1759.805
1757.899
1755.993
1754.087
1752.181
1750.275
1748.369
1746.463
1744.557
1742.651
1740.745
1738.839
1736.933
1735.027
1733.121
1731.215
1729.309
1727.403
1725.497
1723.591
1721.685
1719.779
1717.873
1715.967
1714.061
1712.155
1710.249
1708.343
1706.437
1704.531
1702.625
1700.719
1698.813
1696.907
1695.001
1693.095
1691.189
1689.283
1687.377
1685.471
1683.565
1681.659
1679.753
1677.847
1675.941
1674.035
1672.129
1670.223
1668.317
1666.411
1664.505
1662.599
1660.693
1658.787
1656.881
1654.975
1653.069
1651.163
1649.257
1647.351
1645.445
1643.539
1641.633
1639.727
1637.821
1635.915
1634.009
1632.103
1630.197
1628.291
1626.385
1624.479
1622.573
1620.667
1618.761
1616.855
1614.949
1613.043
1611.137
1609.231
1607.325
1605.419
1603.513
1601.607
1601.387
1601.167
1600.947
1600.727
1600.507
1600.287
1600.067
1599.847
1599.627
1599.407
1599.187
1598.967
1598.747
1598.527
1598.307
1598.087
1597.867
1597.647
1597.427
1597.207
1596.987
1596.767
1596.547
1596.327
1596.107
1595.887
1595.667
1595.447
1595.227
1595.007
1594.787
1594.567
1594.347
1594.127
1593.907
1593.687
1593.467
1593.247
1593.027
1592.807
1592.587
1592.367
1592.147
1591.927
1591.707
1591.487
1591.267
1591.047
1590.827
1590.607
1590.387
1590.167
1589.947
1589.727
1589.507
1589.287
1589.067
1588.847
1588.627
1588.407
1588.187
1587.967
1587.747
1587.527
1587.307
1587.087
1586.867
1586.647
1586.427
1586.207
1585.987
1585.767
1585.547
1585.327
1585.107
1584.887
1584.667
1584.447
1584.227
1584.007
1583.787
1583.567
1583.347
1583.127
1582.907
1582.687
1582.467
1582.247
1582.027
1581.807
1581.587
1581.367
1581.147
1580.927
1580.707
1580.487
1580.267
1580.047
1579.827
1579.607
1579.387
1579.167
1578.947
1578.727
1578.507
1578.287
1578.067
1577.847
1577.627
1577.407
1577.187
1576.967
1576.747
1576.527
1576.307
1576.087
1575.867
1575.647
1575.427
1575.207
1574.987
1574.767
1574.547
1574.327
1574.107
1573.887
1573.667
1573.447
1573.227
1573.007
1572.787
1572.567
1572.347
1572.127
1571.907
1571.687
1571.467
1571.247
1571.027
1570.807
1570.587
1570.367
1570.147
1569.927
1569.707
1569.487
1569.267
1569.047
1568.827
1568.607
1568.387
1568.167
1567.947
1567.727
1567.507
1567.287
1567.067
1566.847
1566.627
1566.407
1566.187
1565.967
1565.747
1565.527
1565.307
1565.087
1564.867
1564.647
1564.427
1564.207
1563.987
1563.767
1563.547
1563.327
1563.107
1562.887
1562.667
1562.447
1562.227
1562.007
1561.787
1561.567
1561.347
1561.127
1560.907
1560.687
1560.467
1560.247
1560.027
1559.807
1559.587
1559.367
1559.147
1558.927
1558.707
1558.487
1558.267
1558.047
1557.827
1557.607
1560.881
1564.156
1567.430
1570.705
1573.979
1577.254
1580.528
1583.803
1587.077
1590.352
1593.626
1596.901
1600.175
1603.450
1606.724
1609.999
1613.273
1616.548
1619.822
1623.097
1626.371
1629.646
1632.920
1636.195
1639.469
1642.744
1646.018
1649.293
1652.567
1655.842
1659.116
1662.391
1665.665
1668.940
1672.214
1675.489
1678.763
1682.038
1685.312
1688.587
1691.861
1695.136
1698.410
1701.685
1704.959
1708.234
1711.508
1714.783
1718.057
1721.332
1724.606
1727.881
1731.155
1734.430
1737.704
1740.979
1744.253
1747.528
1750.802
1754.077
1757.351
1760.626
1763.900
1767.175
1770.449
1773.724
1776.998
1780.273
1783.547
1786.822
1790.096
1793.371
1796.645
1799.920
1803.194
1806.469
1809.743
1813.018
1816.292
1819.567
1822.841
1826.116
1829.390
1832.665
1835.939
1839.214
1842.488
1845.763
1849.037
1852.312
1855.586
1858.861
1862.135
1865.410
1868.684
1871.959
1875.233
1878.508
1881.782
1885.057
1888.331
1891.606
1894.880
1898.155
1901.429
1904.704
1907.978
1911.253
1914.527
1917.802
1921.076
1924.351
1927.625
1930.900
1934.174
1937.449
1940.723
1943.998
1947.272
1950.547
1953.821
1957.096
1960.370
1963.645
1966.919
1970.194
1973.468
1976.743
1980.017
1983.292
1986.566
1989.841
1993.115
1996.390
1999.664
2002.939
2006.213
2009.488
2012.762
2016.037
2019.311
2022.586
2025.860
2029.135
2032.409
2035.684
2038.958
2042.233
2045.507
2048.782
2052.056
2055.331
2058.605
2061.880
2065.154
2068.429
2071.703
2074.978
2078.252
2081.527
2084.801
2088.076
2091.350
2094.625
2097.899
2101.174
2104.448
2107.723
2110.997
2114.272
2117.546
2120.821
2124.095
2127.370
2130.644
2133.919
2137.193
2140.468
2143.742
2147.017
2150.291
2153.566
2156.840
2160.115
2163.389
2166.664
2169.938
2173.213
2176.487
2179.762
2183.036
2186.311
2189.585
2192.860
2196.134
2199.409
2202.683
2205.958
2209.232
2212.507
2210.381
2208.255
2206.129
2204.003
2201.877
2199.751
2197.625
2195.499
2193.373
2191.247
2189.121
2186.995
2184.869
2182.743
2180.617
2178.491
2176.365
2174.239
2172.113
2169.987
2167.861
2165.735
2163.609
2161.483
2159.357
2157.231
2155.105
2152.979
2150.853
2148.727
2146.601
2144.475
2142.349
2140.223
2138.097
2135.971
2133.845
2131.719
2129.593
2127.467
2125.341
2123.215
2121.089
2118.963
2116.837
2114.711
2112.585
2110.459
2108.333
2106.207
2104.081
2101.955
2099.829
2097.703
2095.577
2093.451
2091.325
2089.199
2087.073
2084.947
2082.821
2080.695
2078.569
2076.443
2074.317
2072.191
2070.065
2067.939
2065.813
2063.687
2061.561
2059.435
2057.309
2055.183
2053.057
2050.931
2048.805
2046.679
2044.553
2042.427
2040.301
2038.175
2036.049
2033.923
2031.797
2029.671
2027.545
2025.419
2023.293
2021.167
2019.041
2016.915
2014.789
2012.663
2010.537
2008.411
2006.285
2004.159
2002.033
1999.907
1997.781
1995.655
1993.529
1991.403
1989.277
1987.151
1985.025
1982.899
1980.773
1978.647
1976.521
1974.395
1972.269
1970.143
1968.017
1965.891
1963.765
1961.639
1959.513
1957.387
1955.261
1953.135
1951.009
1948.883
1946.757
1944.631
1942.505
1940.379
1938.253
1936.127
1934.001
1931.875
1929.749
1927.623
1925.497
1923.371
1921.245
1919.119
1916.993
1914.867
1912.741
1910.615
1908.489
1906.363
1904.237
1902.111
1899.985
1897.859
1895.733
1893.607
1891.481
1889.355
1887.229
1885.103
1882.977
1880.851
1878.725
1876.599
1874.473
1872.347
1870.221
1868.095
1865.969
1863.843
1861.717
1859.591
1857.465
1855.339
1853.213
1851.087
1848.961
1846.835
1844.709
1842.583
1840.457
1838.331
1836.205
1834.079
1831.953
1829.827
1827.701
1825.575
1823.449
1821.323
1819.197
1817.071
1814.945
1812.819
1810.693
1808.567
1806.441
1804.315
1802.189
1800.063
1797.937
1795.811
1793.685
1791.559
1789.433
110.907
110.907
110.907
110.907
110.907
110.907
110.907
110.907
110.907
110.907
110.907
110.907
110.907
110.907
110.907
110.907
110.907
110.907
110.907
110.907
110.907
110.907
110.907
110.907
110.907
110.907
110.907
110.907
110.907
110.907
110.907
110.907
110.907
110.907
110.907
110.907
110.907
110.907
110.907
110.907
110.907
110.907
110.907
110.907
110.907
110.907
110.907
110.907
110.907
110.907
110.907
110.907
110.907
110.907
110.907
110.907
110.907
110.907
110.907
110.907
110.907
110.907
110.907
110.907
110.907
110.907
110.907
110.907
110.907
110.907
110.907
110.907
110.907
110.907
110.907
110.907
110.907
110.907
110.907
110.907
110.907
110.907
110.907
110.907
110.907
110.907
110.907
110.907
110.907
110.907
110.907
110.907
110.907
110.907
110.907
110.907
110.907
110.907
110.907
110.907
110.907
110.907
110.907
110.907
110.907
110.907
110.907
110.907
110.907
110.907
110.907
110.907
110.907
110.907
110.907
110.907
110.907
110.907
110.907
110.907
110.907
110.907
110.907
110.907
110.907
110.907
110.907
110.907
110.907
110.907
110.907
110.907
110.907
110.907
110.907
110.907
110.907
110.907
110.907
110.907
110.907
110.907
110.907
110.907
110.907
110.907
110.907
110.907
110.907
110.907
110.907
110.907
110.907
110.907
110.907
110.907
110.907
110.907
110.907
110.907
110.907
110.907
110.907
110.907
110.907
110.907
110.907
110.907
110.907
110.907
110.907
110.907
