2229.111
2227.889
2226.667
2225.445
2224.223
2223.001
2221.779
2220.557
2219.335
2218.113
2216.891
2215.669
2214.447
2213.225
2212.003
2210.781
2209.559
2208.337
2207.115
2205.893
2204.671
2203.449
2202.227
2201.005
2199.783
2198.561
2197.339
2196.117
2194.895
2193.673
2192.451
2191.229
2190.007
2188.785
2187.563
2186.341
2185.119
2183.897
2182.675
2181.453
2180.231
2179.009
2177.787
2176.565
2175.343
2174.121
2172.899
2171.677
2170.455
2169.233
2168.011
2166.789
2165.567
2164.345
2163.123
2161.901
2160.679
2159.457
2158.235
2157.013
2155.791
2154.569
2153.347
2152.125
2150.903
2149.681
2148.459
2147.237
2146.015
2144.793
2143.571
2142.349
2141.127
2139.905
2138.683
2137.461
2136.239
2135.017
2133.795
2132.573
2131.351
2130.129
2128.907
2127.685
2126.463
2125.241
2124.019
2122.797
2121.575
2120.353
2119.131
2117.909
2116.687
2115.465
2114.243
2113.021
2111.799
2110.577
2109.355
2108.133
2106.911
2105.689
2104.467
2103.245
2102.023
2100.801
2099.579
2098.357
2097.135
2095.913
2094.691
2093.469
2092.247
2091.025
2089.803
2088.581
2087.359
2086.137
2084.915
2083.693
2082.471
2081.249
2080.027
2078.805
2077.583
2076.361
2075.139
2073.917
2072.695
2071.473
2070.251
2069.029
2067.807
2066.585
2065.363
2064.141
2062.919
2061.697
2060.475
2061.160
2061.844
2062.529
2063.213
2063.898
2064.582
2065.267
2065.951
2066.636
2067.320
2068.005
2068.689
2069.374
2070.058
2070.743
2071.427
2072.112
2072.796
2073.481
2074.165
2074.850
2075.534
2076.219
2076.903
2077.588
2078.272
2078.957
2079.641
2080.326
2081.010
2081.695
2082.379
2083.064
2083.748
2084.433
2085.117
2085.802
2086.486
2087.171
2087.855
2088.540
2089.224
2089.909
2090.593
2091.278
2091.962
2092.647
2093.331
2094.016
2094.700
2095.385
2096.069
2096.754
2097.438
2098.123
2098.807
2099.492
2100.176
2100.861
2101.545
2102.230
2102.914
2103.599
2104.283
2104.968
2105.652
2106.337
2107.021
2107.706
2108.390
2109.075
2109.759
2110.444
2111.128
2111.813
2112.497
2113.182
2113.866
2114.551
2115.235
2115.920
2116.604
2117.289
2117.973
2118.658
2119.342
2120.027
2120.711
2121.396
2122.080
2122.765
2123.449
2124.134
2124.818
2125.503
2126.187
2126.872
2127.556
2128.241
2128.925
2129.610
2130.294
2130.979
2131.663
2132.348
2133.032
2133.717
2134.401
2135.086
2135.770
2136.455
2137.139
2137.824
2138.508
2139.193
2139.877
2140.562
2141.246
2141.931
2142.615
2143.300
2143.984
2144.669
2145.353
2146.038
2146.722
2147.407
2148.091
2148.776
2149.460
2150.145
2150.829
2151.514
2152.198
2152.883
2153.567
2154.252
2154.936
2155.621
2156.305
2156.990
2157.674
2158.359
2159.043
2159.728
2160.412
2161.097
2161.781
2162.466
2163.150
2163.835
2164.519
2165.204
2165.888
2166.573
2167.257
2167.942
2168.626
2169.311
2169.995
2170.680
2171.364
2172.049
2172.733
2173.418
2174.102
2174.787
2175.471
2176.156
2176.840
2177.525
2178.209
2178.894
2179.578
2180.263
2180.947
2181.632
2182.316
2183.001
2183.685
2184.370
2185.054
2185.739
2186.423
2187.108
2187.792
2188.477
2189.161
2189.846
2190.530
2191.215
2191.899
2192.584
2193.268
2193.953
2194.637
2195.322
2196.006
2196.691
2197.375
2198.646
2199.917
2201.188
2202.459
2203.730
2205.001
2206.272
2207.543
2208.814
2210.085
2211.356
2212.627
2213.898
2215.169
2216.440
2217.711
2218.982
2220.253
2221.524
2222.795
2224.066
2225.337
2226.608
2227.879
2229.150
2230.421
2231.692
2232.963
2234.234
2235.505
2236.776
2238.047
2239.318
2240.589
2241.860
2243.131
2244.402
2245.673
2246.944
2248.215
2249.486
2250.757
2252.028
2253.299
2254.570
2255.841
2257.112
2258.383
2259.654
2260.925
2262.196
2263.467
2264.738
2266.009
2267.280
2268.551
2269.822
2271.093
2272.364
2273.635
2274.906
2276.177
2277.448
2278.719
2279.990
2281.261
2282.532
2283.803
2285.074
2286.345
2287.616
2288.887
2290.158
2291.429
2292.700
2293.971
2295.242
2296.513
2297.784
2299.055
2300.326
2301.597
2302.868
2304.139
2305.410
2306.681
2307.952
2309.223
2310.494
2311.765
2313.036
2314.307
2315.578
2316.849
2318.120
2319.391
2320.662
2321.933
2323.204
2324.475
2325.746
2327.017
2328.288
2329.559
2330.830
2332.101
2333.372
2334.643
2335.914
2337.185
2338.456
2339.727
2340.998
2342.269
2343.540
2344.811
2346.082
2347.353
2348.624
2349.895
2351.166
2352.437
2353.708
2354.979
2356.250
2357.521
2358.792
2360.063
2361.334
2362.605
2363.876
2365.147
2366.418
2367.689
2368.960
2370.231
2371.502
2372.773
2374.044
2375.315
2376.586
2377.857
2379.128
2380.399
2381.670
2382.941
2384.212
2385.483
2386.754
2388.025
2389.296
2390.567
2391.838
2393.109
2394.380
2395.651
2396.922
2398.193
2399.464
2400.735
2402.006
2403.277
2404.548
2405.819
2407.090
2408.361
2409.632
2410.903
2412.174
2413.445
2414.716
2415.987
2417.258
2418.529
2419.800
2421.071
2422.342
2423.613
2424.884
2426.155
2427.426
2428.697
2429.968
2431.239
2432.510
2433.781
2435.052
2436.323
2437.594
2438.865
2440.136
2441.407
2442.678
2443.949
2445.220
2446.491
2447.762
2449.033
2450.304
2451.575
2450.842
2450.108
2449.375
2448.641
2447.908
2447.174
2446.441
2445.707
2444.974
2444.240
2443.507
2442.773
2442.040
2441.306
2440.573
2439.839
2439.106
2438.372
2437.639
2436.905
2436.172
2435.438
2434.705
2433.971
2433.238
2432.504
2431.771
2431.037
2430.304
2429.570
2428.837
2428.103
2427.370
2426.636
2425.903
2425.169
2424.436
2423.702
2422.969
2422.235
2421.502
2420.768
2420.035
2419.301
2418.568
2417.834
2417.101
2416.367
2415.634
2414.900
2414.167
2413.433
2412.700
2411.966
2411.233
2410.499
2409.766
2409.032
2408.299
2407.565
2406.832
2406.098
2405.365
2404.631
2403.898
2403.164
2402.431
2401.697
2400.964
2400.230
2399.497
2398.763
2398.030
2397.296
2396.563
2395.829
2395.096
2394.362
2393.629
2392.895
2392.162
2391.428
2390.695
2389.961
2389.228
2388.494
2387.761
2387.027
2386.294
2385.560
2384.827
2384.093
2383.360
2382.626
2381.893
2381.159
2380.426
2379.692
2378.959
2378.225
2377.492
2376.758
2376.025
2375.291
2374.558
2373.824
2373.091
2372.357
2371.624
2370.890
2370.157
2369.423
2368.690
2367.956
2367.223
2366.489
2365.756
2365.022
2364.289
2363.555
2362.822
2362.088
2361.355
2360.621
2359.888
2359.154
2358.421
2357.687
2356.954
2356.220
2355.487
2354.753
2354.020
2353.286
2352.553
2351.819
2351.086
2350.352
2349.619
2348.885
2348.152
2347.418
2346.685
2345.951
2345.218
2344.484
2343.751
2343.017
2342.284
2341.550
2340.817
2340.083
2339.350
2338.616
2337.883
2337.149
2336.416
2335.682
2334.949
2334.215
2333.482
2332.748
2332.015
2331.281
2330.548
2329.814
2329.081
2328.347
2327.614
2326.880
2326.147
2325.413
2324.680
2323.946
2323.213
2322.479
2321.746
2321.012
2320.279
2319.545
2318.812
2318.078
2317.345
2316.611
2315.878
2315.144
2314.411
2313.677
2312.944
2312.210
2311.477
2310.743
2310.010
2309.276
2308.543
2307.809
2307.076
2306.342
2305.609
95.675
95.627
95.578
95.530
95.481
95.433
95.384
95.336
95.287
95.239
95.190
95.142
95.093
95.045
94.996
94.948
94.899
94.851
94.802
94.754
94.705
94.657
94.608
94.560
94.511
94.463
94.414
94.366
94.317
94.269
94.220
94.172
94.123
94.075
94.026
93.978
93.929
93.881
93.832
93.784
93.735
93.687
93.638
93.590
93.541
93.493
93.444
93.396
93.347
93.299
93.250
93.202
93.153
93.105
93.056
93.008
92.959
92.911
92.862
92.814
92.765
92.717
92.668
92.620
92.571
92.523
92.474
92.426
92.377
92.329
92.280
92.232
92.183
92.135
92.086
92.038
91.989
91.941
91.892
91.844
91.795
91.747
91.698
91.650
91.601
91.553
91.504
91.456
91.407
91.359
91.310
91.262
91.213
91.165
91.116
91.068
91.019
90.971
90.922
90.874
90.825
90.777
90.728
90.680
90.631
90.583
90.534
90.486
90.437
90.389
90.340
90.292
90.243
90.195
90.146
90.098
90.049
90.001
89.952
89.904
89.855
89.807
89.758
89.710
89.661
89.613
89.564
89.516
89.467
89.419
89.370
89.322
89.273
89.225
89.176
89.128
89.079
89.031
88.982
88.934
88.885
88.837
88.788
88.740
88.691
88.643
88.594
88.546
88.497
88.449
88.400
88.352
88.303
88.255
88.206
88.158
88.109
88.061
88.012
87.964
87.915
87.867
87.818
87.770
87.721
87.673
87.624
87.576
87.527
87.479
87.430
87.382
87.333
87.285
87.236
87.188
87.139
87.091
87.042
86.994
86.945
86.897
86.848
86.800
86.751
86.703
86.654
86.606
86.557
86.509
86.460
86.412
86.363
86.315
86.266
86.218
86.169
86.121
86.072
86.024
85.975
85.975
85.975
85.975
85.975
85.975
85.975
85.975
85.975
85.975
85.975
85.975
85.975
85.975
85.975
85.975
85.975
85.975
85.975
85.975
85.975
85.975
85.975
85.975
85.975
85.975
85.975
85.975
85.975
85.975
85.975
85.975
85.975
85.975
85.975
85.975
85.975
85.975
85.975
85.975
85.975
85.975
85.975
85.975
85.975
85.975
85.975
85.975
85.975
85.975
85.975
85.975
85.975
85.975
85.975
85.975
85.975
85.975
85.975
85.975
85.975
85.975
85.975
85.975
85.975
85.975
85.975
85.975
85.975
85.975
85.975
85.975
85.975
85.975
85.975
85.975
85.975
85.975
85.975
85.975
85.975
85.975
85.975
85.975
85.975
85.975
85.975
85.975
85.975
85.975
85.975
85.975
85.975
85.975
85.975
85.975
85.975
85.975
85.975
85.975
85.975
85.975
85.975
85.975
85.975
85.975
85.975
85.975
85.975
85.975
85.975
85.975
85.975
85.975
85.975
85.975
85.975
85.975
85.975
85.975
85.975
85.975
85.975
85.975
85.975
85.975
85.975
85.975
85.975
85.975
85.975
85.975
85.975
85.975
85.975
85.975
85.975
85.975
85.975
85.975
85.975
85.975
85.975
85.975
85.975
85.975
85.975
85.975
85.975
85.975
85.975
85.975
85.975
85.975
85.975
85.975
85.975
85.975
85.975
85.975
85.975
85.975
85.975
85.975
85.975
85.975
85.975
85.975
85.975
85.975
85.975
85.975
85.975
85.975
85.975
85.975
85.975
85.975
85.975
85.975
85.975
85.975
85.975
85.975
85.975
85.975
85.975
85.975
85.975
85.975
85.975
85.975
85.975
85.975
85.975
85.975
85.975
85.975
85.975
85.975
85.975
85.951
85.926
85.902
85.877
85.853
85.828
85.804
85.779
85.755
85.730
85.706
85.681
85.657
85.632
85.608
85.583
85.559
85.534
85.510
85.485
85.461
85.436
85.412
85.387
85.363
85.338
85.314
85.289
85.265
85.240
85.216
85.191
85.167
85.142
85.118
85.093
85.069
85.044
85.020
84.995
84.971
84.946
84.922
84.897
84.873
84.848
84.824
84.799
84.775
84.750
84.726
84.701
84.677
84.652
84.628
84.603
84.579
84.554
84.530
84.505
84.481
84.456
84.432
84.407
84.383
84.358
84.334
84.309
84.285
84.260
84.236
84.211
84.187
84.162
84.138
84.113
84.089
84.064
84.040
84.015
83.991
83.966
83.942
83.917
83.893
83.868
83.844
83.819
83.795
83.770
83.746
83.721
83.697
83.672
83.648
83.623
83.599
83.574
83.550
83.525
83.501
83.476
83.452
83.427
83.403
83.378
83.354
83.329
83.305
83.280
83.256
83.231
83.207
83.182
83.158
83.133
83.109
83.084
83.060
83.035
83.011
82.986
82.962
82.937
82.913
82.888
82.864
82.839
82.815
82.790
82.766
82.741
82.717
82.692
82.668
82.643
82.619
82.594
82.570
82.545
82.521
82.496
82.472
82.447
82.423
82.398
82.374
82.349
82.325
82.300
82.276
82.251
82.227
82.202
82.178
82.153
82.129
82.104
82.080
82.055
82.031
82.006
81.982
81.957
81.933
81.908
81.884
81.859
81.835
81.810
81.786
81.761
81.737
81.712
81.688
81.663
81.639
81.614
81.590
81.565
81.541
81.516
81.492
81.467
81.443
81.418
81.394
81.369
81.345
81.320
81.296
81.271
81.247
81.222
81.198
81.173
81.149
81.124
81.100
81.075
81.100
81.124
81.149
81.173
81.198
81.222
81.247
81.271
81.296
81.320
81.345
81.369
81.394
81.418
81.443
81.467
81.492
81.516
81.541
81.565
81.590
81.614
81.639
81.663
81.688
81.712
81.737
81.761
81.786
81.810
81.835
81.859
81.884
81.908
81.933
81.957
81.982
82.006
82.031
82.055
82.080
82.104
82.129
82.153
82.178
82.202
82.227
82.251
82.276
82.300
82.325
82.349
82.374
82.398
82.423
82.447
82.472
82.496
82.521
82.545
82.570
82.594
82.619
82.643
82.668
82.692
82.717
82.741
82.766
82.790
82.815
82.839
82.864
82.888
82.913
82.937
82.962
82.986
83.011
83.035
83.060
83.084
83.109
83.133
83.158
83.182
83.207
83.231
83.256
83.280
83.305
83.329
83.354
83.378
83.403
83.427
83.452
83.476
83.501
83.525
83.550
83.574
83.599
83.623
83.648
83.672
83.697
83.721
83.746
83.770
83.795
83.819
83.844
83.868
83.893
83.917
83.942
83.966
83.991
84.015
84.040
84.064
84.089
84.113
84.138
84.162
84.187
84.211
84.236
84.260
84.285
84.309
84.334
84.358
84.383
84.407
84.432
84.456
84.481
84.505
84.530
84.554
84.579
84.603
84.628
84.652
84.677
84.701
84.726
84.750
84.775
84.799
84.824
84.848
84.873
84.897
84.922
84.946
84.971
84.995
85.020
85.044
85.069
85.093
85.118
85.142
85.167
85.191
85.216
85.240
85.265
85.289
85.314
85.338
85.363
85.387
85.412
85.436
85.461
85.485
85.510
85.534
85.559
85.583
85.608
85.632
85.657
85.681
85.706
85.730
85.755
85.779
85.804
85.828
85.853
85.877
85.902
85.926
85.951
85.975
85.975
85.975
85.975
85.975
85.975
85.975
85.975
85.975
85.975
85.975
85.975
85.975
85.975
85.975
85.975
85.975
85.975
85.975
85.975
85.975
85.975
85.975
85.975
85.975
85.975
85.975
85.975
85.975
85.975
85.975
85.975
85.975
85.975
85.975
85.975
85.975
85.975
85.975
85.975
85.975
85.975
85.975
85.975
85.975
85.975
85.975
85.975
85.975
85.975
85.975
85.975
85.975
85.975
85.975
85.975
85.975
85.975
85.975
85.975
85.975
85.975
85.975
85.975
85.975
85.975
85.975
85.975
85.975
85.975
85.975
85.975
85.975
85.975
85.975
85.975
85.975
85.975
85.975
85.975
85.975
85.975
85.975
85.975
85.975
85.975
85.975
85.975
85.975
85.975
85.975
85.975
85.975
85.975
85.975
85.975
85.975
85.975
85.975
85.975
85.975
85.975
85.975
85.975
85.975
85.975
85.975
85.975
85.975
85.975
85.975
85.975
85.975
85.975
85.975
85.975
85.975
85.975
85.975
85.975
85.975
85.975
85.975
85.975
85.975
85.975
85.975
85.975
85.975
85.975
85.975
85.975
85.975
85.975
85.975
85.975
85.975
85.975
85.975
85.975
85.975
85.975
85.975
85.975
85.975
85.975
85.975
85.975
85.975
85.975
85.975
85.975
85.975
85.975
85.975
85.975
85.975
85.975
85.975
85.975
85.975
85.975
85.975
85.975
85.975
85.975
85.975
85.975
85.975
85.975
85.975
85.975
85.975
85.975
85.975
85.975
85.975
85.975
85.975
85.975
85.975
85.975
85.975
85.975
85.975
85.975
85.975
85.975
85.975
85.975
85.975
85.975
85.975
85.975
85.975
85.975
85.975
85.975
85.975
85.975
85.975
85.975
85.975
85.975
85.975
85.975
85.975
85.975
85.975
85.975
85.975
85.975
85.975
85.975
85.975
85.975
85.975
85.975
85.975
85.975
85.975
85.975
85.975
85.975
85.975
85.975
85.975
85.975
85.975
85.975
85.975
85.975
85.975
85.975
85.975
85.975
85.975
85.975
85.975
85.975
85.975
85.975
85.975
85.975
85.975
85.975
85.975
85.975
85.975
85.975
85.975
85.975
85.975
85.975
85.975
85.975
85.975
85.975
85.975
85.975
85.975
85.975
85.975
85.975
85.975
85.975
85.975
85.975
85.975
85.975
85.975
85.975
85.975
85.975
85.975
85.975
85.975
85.975
85.975
85.975
85.975
85.975
85.975
85.975
85.975
85.975
85.975
85.975
85.975
85.975
85.975
85.975
85.975
85.975
85.975
85.975
85.975
85.975
85.975
85.975
85.975
85.975
85.975
85.975
85.975
85.975
85.975
85.975
85.975
85.975
85.975
85.975
85.975
85.975
85.975
85.975
85.975
85.975
85.975
85.975
85.975
85.975
85.975
85.975
85.975
85.975
85.975
85.975
85.975
85.975
85.975
85.975
85.975
85.975
85.975
85.975
85.975
85.975
85.975
85.975
85.975
85.975
85.975
85.975
85.975
85.975
85.975
85.975
85.975
85.975
85.975
85.975
85.975
85.975
85.975
85.975
85.975
85.975
85.975
85.975
85.975
85.975
85.975
85.975
85.975
85.975
85.975
85.975
85.975
85.975
85.975
85.975
85.975
85.975
85.975
85.975
85.975
85.975
85.975
85.975
85.975
85.975
85.975
85.975
85.975
85.975
85.975
85.975
85.975
85.975
85.975
85.975
85.975
85.975
85.975
85.975
85.975
85.975
85.975
85.975
85.975
85.975
85.975
85.975
85.975
85.975
85.975
85.975
85.975
85.975
85.975
85.975
85.975
85.975
85.975
85.975
85.975
85.975
85.975
85.975
85.975
85.975
85.975
85.975
85.975
85.975
85.975
85.975
85.975
85.975
85.975
85.975
85.975
85.975
85.975
85.975
85.975
85.975
85.975
85.975
85.975
85.975
85.975
85.975
85.975
85.975
85.975
85.975
85.975
85.975
85.975
85.975
85.975
85.975
85.975
85.975
85.975
85.975
85.975
85.975
85.975
85.975
