706.837
713.949
721.060
728.172
735.283
742.395
749.506
756.618
763.729
770.841
777.952
785.064
792.175
799.287
806.398
813.510
820.621
827.733
834.844
841.956
849.067
856.179
863.290
870.402
877.513
884.625
891.736
898.848
905.959
913.071
920.182
927.294
934.405
941.517
948.628
955.740
962.851
969.963
977.074
984.186
991.297
998.409
1005.520
1012.632
1019.743
1026.855
1033.966
1041.078
1048.189
1055.301
1062.412
1069.524
1076.635
1083.747
1090.858
1097.970
1105.081
1112.193
1119.304
1126.416
1133.527
1140.639
1147.750
1154.862
1161.973
1169.085
1176.196
1183.308
1190.419
1197.531
1204.642
1211.754
1218.865
1225.977
1233.088
1240.200
1247.311
1254.423
1261.534
1268.646
1275.757
1282.869
1289.980
1297.092
1304.203
1311.315
1318.426
1325.538
1332.649
1339.761
1346.872
1353.984
1361.095
1368.207
1375.318
1382.430
1389.541
1396.653
1403.764
1410.876
1417.987
1425.099
1432.210
1439.322
1446.433
1453.545
1460.656
1467.768
1474.879
1481.991
1489.102
1496.214
1503.325
1510.437
1517.548
1524.660
1531.771
1538.883
1545.994
1553.106
1560.217
1567.329
1574.440
1581.552
1588.663
1595.775
1602.886
1609.998
1617.109
1624.221
1631.332
1638.444
1645.555
1652.667
1659.778
1666.890
1674.001
1681.113
1686.954
1692.795
1698.636
1704.477
1710.318
1716.159
1722.000
1727.841
1733.682
1739.523
1745.364
1751.205
1757.046
1762.887
1768.728
1774.569
1780.410
1786.251
1792.092
1797.933
1803.774
1809.615
1815.456
1821.297
1827.138
1832.979
1838.820
1844.661
1850.502
1856.343
1862.184
1868.025
1873.866
1879.707
1885.548
1891.389
1897.230
1903.071
1908.912
1914.753
1920.594
1926.435
1932.276
1938.117
1943.958
1949.799
1955.640
1961.481
1967.322
1973.163
1979.004
1984.845
1990.686
1996.527
2002.368
2008.209
2014.050
2019.891
2025.732
2031.573
2037.414
2043.255
2049.096
2054.937
2060.778
2066.619
2072.460
2078.301
2084.142
2089.983
2095.824
2101.665
2107.506
2113.347
2119.188
2125.029
2130.870
2136.711
2142.552
2148.393
2154.234
2160.075
2165.916
2171.757
2177.598
2183.439
2189.280
2195.121
2200.962
2206.803
2212.644
2218.485
2224.326
2230.167
2236.008
2241.849
2247.690
2253.531
2259.372
2265.213
2271.054
2276.895
2282.736
2288.577
2294.418
2300.259
2306.100
2311.941
2317.782
2323.623
2329.464
2335.305
2341.146
2346.987
2352.828
2358.669
2364.510
2370.351
2376.192
2382.033
2387.874
2393.715
2399.556
2405.397
2411.238
2417.079
2422.920
2428.761
2434.602
2440.443
2446.284
2452.125
2457.966
2463.807
2469.648
2475.489
2481.330
2487.171
2493.012
2498.853
2504.694
2510.535
2516.376
2522.217
2528.058
2533.899
2539.740
2545.581
2551.422
2557.263
2563.104
2568.945
2574.786
2580.627
2586.468
2592.309
2598.150
2603.991
2609.832
2615.673
2621.514
2627.355
2633.196
2639.037
2644.878
2650.719
2656.560
2662.401
2668.242
2674.083
2679.924
2685.765
2691.606
2697.447
2703.288
2709.129
2714.970
2720.811
2726.652
2732.493
2738.334
2744.175
2750.016
2755.857
2761.698
2767.539
2773.380
2779.221
2785.062
2790.903
2796.744
2802.585
2808.426
2814.267
2820.108
2825.949
2831.790
2837.631
2843.472
2849.313
2848.482
2847.651
2846.820
2845.989
2845.158
2844.327
2843.496
2842.665
2841.834
2841.003
2840.172
2839.341
2838.510
2837.679
2836.848
2836.017
2835.186
2834.355
2833.524
2832.693
2831.862
2831.031
2830.200
2829.369
2828.538
2827.707
2826.876
2826.045
2825.214
2824.383
2823.552
2822.721
2821.890
2821.059
2820.228
2819.397
2818.566
2817.735
2816.904
2816.073
2815.242
2814.411
2813.580
2812.749
2811.918
2811.087
2810.256
2809.425
2808.594
2807.763
2806.932
2806.101
2805.270
2804.439
2803.608
2802.777
2801.946
2801.115
2800.284
2799.453
2798.622
2797.791
2796.960
2796.129
2795.298
2794.467
2793.636
2792.805
2791.974
2791.143
2790.312
2789.481
2788.650
2787.819
2786.988
2786.157
2785.326
2784.495
2783.664
2782.833
2782.002
2781.171
2780.340
2779.509
2778.678
2777.847
2777.016
2776.185
2775.354
2774.523
2773.692
2772.861
2772.030
2771.199
2770.368
2769.537
2768.706
2767.875
2767.044
2766.213
2765.382
2764.551
2763.720
2762.889
2762.058
2761.227
2760.396
2759.565
2758.734
2757.903
2757.072
2756.241
2755.410
2754.579
2753.748
2752.917
2752.086
2751.255
2750.424
2749.593
2748.762
2747.931
2747.100
2746.269
2745.438
2744.607
2743.776
2742.945
2742.114
2741.283
2740.452
2739.621
2738.790
2737.959
2737.128
2736.297
2735.466
2734.635
2733.804
2732.973
2732.142
2731.311
2730.480
2729.649
2728.818
2727.987
2727.156
2726.325
2725.494
2724.663
2723.832
2723.001
2722.170
2721.339
2720.508
2719.677
2718.846
2718.015
2717.184
2716.353
2715.522
2714.691
2713.860
2713.029
2712.198
2711.367
2710.536
2709.705
2708.874
2708.043
2707.212
2706.381
2705.550
2704.719
2703.888
2703.057
2702.226
2701.395
2700.564
2699.733
2698.902
2698.071
2697.240
2696.409
2695.578
2694.747
2693.916
2693.085
2692.254
2691.423
2690.592
2689.761
2688.930
2688.099
2687.268
2686.437
2685.606
2684.775
2683.944
2683.113
2677.370
2671.627
2665.884
2660.141
2654.398
2648.655
2642.912
2637.169
2631.426
2625.683
2619.940
2614.197
2608.454
2602.711
2596.968
2591.225
2585.482
2579.739
2573.996
2568.253
2562.510
2556.767
2551.024
2545.281
2539.538
2533.795
2528.052
2522.309
2516.566
2510.823
2505.080
2499.337
2493.594
2487.851
2482.108
2476.365
2470.622
2464.879
2459.136
2453.393
2447.650
2441.907
2436.164
2430.421
2424.678
2418.935
2413.192
2407.449
2401.706
2395.963
2390.220
2384.477
2378.734
2372.991
2367.248
2361.505
2355.762
2350.019
2344.276
2338.533
2332.790
2327.047
2321.304
2315.561
2309.818
2304.075
2298.332
2292.589
2286.846
2281.103
2275.360
2269.617
2263.874
2258.131
2252.388
2246.645
2240.902
2235.159
2229.416
2223.673
2217.930
2212.187
2206.444
2200.701
2194.958
2189.215
2183.472
2177.729
2171.986
2166.243
2160.500
2154.757
2149.014
2143.271
2137.528
2131.785
2126.042
2120.299
2114.556
2108.813
2103.070
2097.327
2091.584
2085.841
2080.098
2074.355
2068.612
2062.869
2057.126
2051.383
2045.640
2039.897
2034.154
2028.411
2022.668
2016.925
2011.182
2005.439
1999.696
1993.953
1988.210
1982.467
1976.724
1970.981
1965.238
1959.495
1953.752
1948.009
1942.266
1936.523
1930.780
1925.037
1919.294
1913.551
1907.808
1902.065
1896.322
1890.579
1884.836
1879.093
1873.350
1867.607
1861.864
1856.121
1850.378
1844.635
1838.892
1833.149
1827.406
1821.663
1815.920
1810.177
1804.434
1798.691
1792.948
1787.205
1781.462
1775.719
1769.976
1764.233
1758.490
1752.747
1747.004
1741.261
1735.518
1729.775
1724.032
1718.289
1712.546
1706.803
1701.060
1695.317
1689.574
1683.831
1678.088
1672.345
1666.602
1660.859
1655.116
1649.373
1643.630
1637.887
1632.144
1626.401
1620.658
1614.915
1609.172
1603.429
1597.686
1591.943
1586.200
1580.457
1574.714
1568.971
1563.228
1557.485
1551.742
1545.999
1540.256
1534.513
1537.128
1539.743
1542.358
1544.973
1547.588
1550.203
1552.818
1555.433
1558.048
1560.663
1563.278
1565.893
1568.508
1571.123
1573.738
1576.353
1578.968
1581.583
1584.198
1586.813
1589.428
1592.043
1594.658
1597.273
1599.888
1602.503
1605.118
1607.733
1610.348
1612.963
1615.578
1618.193
1620.808
1623.423
1626.038
1628.653
1631.268
1633.883
1636.498
1639.113
1641.728
1644.343
1646.958
1649.573
1652.188
1654.803
1657.418
1660.033
1662.648
1665.263
1667.878
1670.493
1673.108
1675.723
1678.338
1680.953
1683.568
1686.183
1688.798
1691.413
1694.028
1696.643
1699.258
1701.873
1704.488
1707.103
1709.718
1712.333
1714.948
1717.563
1720.178
1722.793
1725.408
1728.023
1730.638
1733.253
1735.868
1738.483
1741.098
1743.713
1746.328
1748.943
1751.558
1754.173
1756.788
1759.403
1762.018
1764.633
1767.248
1769.863
1772.478
1775.093
1777.708
1780.323
1782.938
1785.553
1788.168
1790.783
1793.398
1796.013
1798.628
1801.243
1803.858
1806.473
1809.088
1811.703
1814.318
1816.933
1819.548
1822.163
1824.778
1827.393
1830.008
1832.623
1835.238
1837.853
1840.468
1843.083
1845.698
1848.313
1850.928
1853.543
1856.158
1858.773
1861.388
1864.003
1866.618
1869.233
1871.848
1874.463
1877.078
1879.693
1882.308
1884.923
1887.538
1890.153
1892.768
1895.383
1897.998
1900.613
1903.228
1905.843
1908.458
1911.073
1913.688
1916.303
1918.918
1921.533
1924.148
1926.763
1929.378
1931.993
1934.608
1937.223
1939.838
1942.453
1945.068
1947.683
1950.298
1952.913
1955.528
1958.143
1960.758
1963.373
1965.988
1968.603
1971.218
1973.833
1976.448
1979.063
1981.678
1984.293
1986.908
1989.523
1992.138
1994.753
1997.368
1999.983
2002.598
2005.213
2007.828
2010.443
2013.058
2015.673
2018.288
2020.903
2023.518
2026.133
2028.748
2031.363
2033.978
2036.593
2039.208
2041.823
2044.438
2047.053
2049.668
2052.283
2054.898
2057.513
2059.101
2060.690
2062.278
2063.867
2065.455
2067.044
2068.632
2070.221
2071.809
2073.398
2074.986
2076.575
2078.163
2079.752
2081.340
2082.929
2084.517
2086.106
2087.694
2089.283
2090.871
2092.460
2094.048
2095.637
2097.225
2098.814
2100.402
2101.991
2103.579
2105.168
2106.756
2108.345
2109.933
2111.522
2113.110
2114.699
2116.287
2117.876
2119.464
2121.053
2122.641
2124.230
2125.818
2127.407
2128.995
2130.584
2132.172
2133.761
2135.349
2136.938
2138.526
2140.115
2141.703
2143.292
2144.880
2146.469
2148.057
2149.646
2151.234
2152.823
2154.411
2156.000
2157.588
2159.177
2160.765
2162.354
2163.942
2165.531
2167.119
2168.708
2170.296
2171.885
2173.473
2175.062
2176.650
2178.239
2179.827
2181.416
2183.004
2184.593
2186.181
2187.770
2189.358
2190.947
2192.535
2194.124
2195.712
2197.301
2198.889
2200.478
2202.066
2203.655
2205.243
2206.832
2208.420
2210.009
2211.597
2213.186
2214.774
2216.363
2217.951
2219.540
2221.128
2222.717
2224.305
2225.894
2227.482
2229.071
2230.659
2232.248
2233.836
2235.425
2237.013
2238.602
2240.190
2241.779
2243.367
2244.956
2246.544
2248.133
2249.721
2251.310
2252.898
2254.487
2256.075
2257.664
2259.252
2260.841
2262.429
2264.018
2265.606
2267.195
2268.783
2270.372
2271.960
2273.549
2275.137
2276.726
2278.314
2279.903
2281.491
2283.080
2284.668
2286.257
2287.845
2289.434
2291.022
2292.611
2294.199
2295.788
2297.376
2298.965
2300.553
2302.142
2303.730
2305.319
2306.907
2308.496
2310.084
2311.673
2313.261
2314.850
2316.438
2318.027
2319.615
2321.204
2322.792
2324.381
2325.969
2327.558
2329.146
2330.735
2332.323
2333.912
2335.500
2337.089
2338.677
2340.266
2341.854
2343.443
2345.031
2346.620
2348.208
2349.797
2351.385
2352.974
2354.562
2356.151
2357.739
2359.328
2360.916
2362.505
2364.093
2365.682
2367.270
2368.859
2370.447
2372.036
2373.624
2375.213
2373.477
2371.742
2370.006
2368.271
2366.535
2364.800
2363.064
2361.329
2359.593
2357.858
2356.122
2354.387
2352.651
2350.916
2349.180
2347.445
2345.709
2343.974
2342.238
2340.503
2338.767
2337.032
2335.296
2333.561
2331.825
2330.090
2328.354
2326.619
2324.883
2323.148
2321.412
2319.677
2317.941
2316.206
2314.470
2312.735
2310.999
2309.264
2307.528
2305.793
2304.057
2302.322
2300.586
2298.851
2297.115
2295.380
2293.644
2291.909
2290.173
2288.438
2286.702
2284.967
2283.231
2281.496
2279.760
2278.025
2276.289
2274.554
2272.818
2271.083
2269.347
2267.612
2265.876
2264.141
2262.405
2260.670
2258.934
2257.199
2255.463
2253.728
2251.992
2250.257
2248.521
2246.786
2245.050
2243.315
2241.579
2239.844
2238.108
2236.373
2234.637
2232.902
2231.166
2229.431
2227.695
2225.960
2224.224
2222.489
2220.753
2219.018
2217.282
2215.547
2213.811
2212.076
2210.340
2208.605
2206.869
2205.134
2203.398
2201.663
2199.927
2198.192
2196.456
2194.721
2192.985
2191.250
2189.514
2187.779
2186.043
2184.308
2182.572
2180.837
2179.101
2177.366
2175.630
2173.895
2172.159
2170.424
2168.688
2166.953
2165.217
2163.482
2161.746
2160.011
2158.275
2156.540
2154.804
2153.069
2151.333
2149.598
2147.862
2146.127
2144.391
2142.656
2140.920
2139.185
2137.449
2135.714
2133.978
2132.243
2130.507
2128.772
2127.036
2125.301
2123.565
2121.830
2120.094
2118.359
2116.623
2114.888
2113.152
2111.417
2109.681
2107.946
2106.210
2104.475
2102.739
2101.004
2099.268
2097.533
2095.797
2094.062
2092.326
2090.591
2088.855
2087.120
2085.384
2083.649
2081.913
2080.178
2078.442
2076.707
2074.971
2073.236
2071.500
2069.765
2068.029
2066.294
2064.558
2062.823
2061.087
2059.352
2057.616
2055.881
2054.145
2052.410
2050.674
2048.939
2047.203
2045.468
2043.732
2041.997
2040.261
2038.526
2036.790
2035.055
2033.319
2031.584
2029.848
2028.113
2031.999
2035.885
2039.771
2043.657
2047.543
2051.429
2055.315
2059.201
2063.087
2066.973
2070.859
2074.745
2078.631
2082.517
2086.403
2090.289
2094.175
2098.061
2101.947
2105.833
2109.719
2113.605
2117.491
2121.377
2125.263
2129.149
2133.035
2136.921
2140.807
2144.693
2148.579
2152.465
2156.351
2160.237
2164.123
2168.009
2171.895
2175.781
2179.667
2183.553
2187.439
2191.325
2195.211
2199.097
2202.983
2206.869
2210.755
2214.641
2218.527
2222.413
2226.299
2230.185
2234.071
2237.957
2241.843
2245.729
2249.615
2253.501
2257.387
2261.273
2265.159
2269.045
2272.931
2276.817
2280.703
2284.589
2288.475
2292.361
2296.247
2300.133
2304.019
2307.905
2311.791
2315.677
2319.563
2323.449
2327.335
2331.221
2335.107
2338.993
2342.879
2346.765
2350.651
2354.537
2358.423
2362.309
2366.195
2370.081
2373.967
2377.853
2381.739
2385.625
2389.511
2393.397
2397.283
2401.169
2405.055
2408.941
2412.827
2416.713
2420.599
2424.485
2428.371
2432.257
2436.143
2440.029
2443.915
2447.801
2451.687
2455.573
2459.459
2463.345
2467.231
2471.117
2475.003
2478.889
2482.775
2486.661
2490.547
2494.433
2498.319
2502.205
2506.091
2509.977
2513.863
2517.749
2521.635
2525.521
2529.407
2533.293
2537.179
2541.065
2544.951
2548.837
2552.723
2556.609
2560.495
2564.381
2568.267
2572.153
2576.039
2579.925
2583.811
2587.697
2591.583
2595.469
2599.355
2603.241
2607.127
2611.013
2614.899
2618.785
2622.671
2626.557
2630.443
2634.329
2638.215
2642.101
2645.987
2649.873
2653.759
2657.645
2661.531
2665.417
2669.303
2673.189
2677.075
2680.961
2684.847
2688.733
2692.619
2696.505
2700.391
2704.277
2708.163
2712.049
2715.935
2719.821
2723.707
2727.593
2731.479
2735.365
2739.251
2743.137
2747.023
2750.909
2754.795
2758.681
2762.567
2766.453
2770.339
2774.225
2778.111
2781.997
2785.883
2789.769
2793.655
2797.541
2801.427
2805.313
2803.822
2802.331
2800.840
2799.349
2797.858
2796.367
2794.876
2793.385
2791.894
2790.403
2788.912
2787.421
2785.930
2784.439
2782.948
2781.457
2779.966
2778.475
2776.984
2775.493
2774.002
2772.511
2771.020
2769.529
2768.038
2766.547
2765.056
2763.565
2762.074
2760.583
2759.092
2757.601
2756.110
2754.619
2753.128
2751.637
2750.146
2748.655
2747.164
2745.673
2744.182
2742.691
2741.200
2739.709
2738.218
2736.727
2735.236
2733.745
2732.254
2730.763
2729.272
2727.781
2726.290
2724.799
2723.308
2721.817
2720.326
2718.835
2717.344
2715.853
2714.362
2712.871
2711.380
2709.889
2708.398
2706.907
2705.416
2703.925
2702.434
2700.943
2699.452
2697.961
2696.470
2694.979
2693.488
2691.997
2690.506
2689.015
2687.524
2686.033
2684.542
2683.051
2681.560
2680.069
2678.578
2677.087
2675.596
2674.105
2672.614
2671.123
2669.632
2668.141
2666.650
2665.159
2663.668
2662.177
2660.686
2659.195
2657.704
2656.213
2654.722
2653.231
2651.740
2650.249
2648.758
2647.267
2645.776
2644.285
2642.794
2641.303
2639.812
2638.321
2636.830
2635.339
2633.848
2632.357
2630.866
2629.375
2627.884
2626.393
2624.902
2623.411
2621.920
2620.429
2618.938
2617.447
2615.956
2614.465
2612.974
2611.483
2609.992
2608.501
2607.010
2605.519
2604.028
2602.537
2601.046
2599.555
2598.064
2596.573
2595.082
2593.591
2592.100
2590.609
2589.118
2587.627
2586.136
2584.645
2583.154
2581.663
2580.172
2578.681
2577.190
2575.699
2574.208
2572.717
2571.226
2569.735
2568.244
2566.753
2565.262
2563.771
2562.280
2560.789
2559.298
2557.807
2556.316
2554.825
2553.334
2551.843
2550.352
2548.861
2547.370
2545.879
2544.388
2542.897
2541.406
2539.915
2538.424
2536.933
2535.442
2533.951
2532.460
2530.969
2529.478
2527.987
2526.496
2525.005
2523.514
2522.023
2520.532
2519.041
2517.550
2516.059
2514.568
2513.077
2511.586
2510.095
2508.604
2507.113
2504.303
2501.493
2498.683
2495.873
2493.063
2490.253
2487.443
2484.633
2481.823
2479.013
2476.203
2473.393
2470.583
2467.773
2464.963
2462.153
2459.343
2456.533
2453.723
2450.913
2448.103
2445.293
2442.483
2439.673
2436.863
2434.053
2431.243
2428.433
2425.623
2422.813
2420.003
2417.193
2414.383
2411.573
2408.763
2405.953
2403.143
2400.333
2397.523
2394.713
2391.903
2389.093
2386.283
2383.473
2380.663
2377.853
2375.043
2372.233
2369.423
2366.613
2363.803
2360.993
2358.183
2355.373
2352.563
2349.753
2346.943
2344.133
2341.323
2338.513
2335.703
2332.893
2330.083
2327.273
2324.463
2321.653
2318.843
2316.033
2313.223
2310.413
2307.603
2304.793
2301.983
2299.173
2296.363
2293.553
2290.743
2287.933
2285.123
2282.313
2279.503
2276.693
2273.883
2271.073
2268.263
2265.453
2262.643
2259.833
2257.023
2254.213
2251.403
2248.593
2245.783
2242.973
2240.163
2237.353
2234.543
2231.733
2228.923
2226.113
2223.303
2220.493
2217.683
2214.873
2212.063
2209.253
2206.443
2203.633
2200.823
2198.013
2195.203
2192.393
2189.583
2186.773
2183.963
2181.153
2178.343
2175.533
2172.723
2169.913
2167.103
2164.293
2161.483
2158.673
2155.863
2153.053
2150.243
2147.433
2144.623
2141.813
2139.003
2136.193
2133.383
2130.573
2127.763
2124.953
2122.143
2119.333
2116.523
2113.713
2110.903
2108.093
2105.283
2102.473
2099.663
2096.853
2094.043
2091.233
2088.423
2085.613
2082.803
2079.993
2077.183
2074.373
2071.563
2068.753
2065.943
2063.133
2060.323
2057.513
2054.703
2051.893
2049.083
2046.273
2043.463
2040.653
2037.843
2035.033
2032.223
2029.413
2026.603
2023.793
2020.983
2018.173
2015.363
2012.553
2009.743
2006.933
2004.123
2001.313
1998.503
1995.693
1992.883
1990.073
1987.263
1984.453
1981.643
1978.833
1976.023
1973.213
1970.403
1967.593
1964.783
1961.973
1959.163
1956.353
1953.543
1950.733
1947.923
92.713
92.713
92.713
92.713
92.713
92.713
92.713
92.713
92.713
92.713
92.713
92.713
92.713
92.713
92.713
92.713
92.713
92.713
92.713
92.713
92.713
92.713
92.713
92.713
92.713
92.713
92.713
92.713
92.713
92.713
92.713
92.713
92.713
92.713
92.713
92.713
92.713
92.713
92.713
92.713
92.713
92.713
92.713
92.713
92.713
92.713
92.713
92.713
92.713
92.713
92.713
92.713
92.713
92.713
92.713
92.713
92.713
92.713
92.713
92.713
92.713
92.713
92.713
