1921.857
1921.442
1921.026
1920.611
1920.195
1919.780
1919.364
1918.949
1918.533
1918.118
1917.702
1917.287
1916.871
1916.456
1916.040
1915.625
1915.209
1914.794
1914.378
1913.963
1913.547
1913.132
1912.716
1912.301
1911.885
1911.470
1911.054
1910.639
1910.223
1909.808
1909.392
1908.977
1908.561
1908.146
1907.730
1907.315
1906.899
1906.484
1906.068
1905.653
1905.237
1904.822
1904.406
1903.991
1903.575
1903.160
1902.744
1902.329
1901.913
1901.498
1901.082
1900.667
1900.251
1899.836
1899.420
1899.005
1898.589
1898.174
1897.758
1897.343
1896.927
1896.512
1896.096
1895.681
1895.265
1894.850
1894.434
1894.019
1893.603
1893.188
1892.772
1892.357
1891.941
1891.526
1891.110
1890.695
1890.279
1889.864
1889.448
1889.033
1888.617
1888.202
1887.786
1887.371
1886.955
1886.540
1886.124
1885.709
1885.293
1884.878
1884.462
1884.047
1883.631
1883.216
1882.800
1882.385
1881.969
1881.554
1881.138
1880.723
1880.307
1879.892
1879.476
1879.061
1878.645
1878.230
1877.814
1877.399
1876.983
1876.568
1876.152
1875.737
1875.321
1874.906
1874.490
1874.075
1873.659
1873.244
1872.828
1872.413
1871.997
1871.582
1871.166
1870.751
1870.335
1869.920
1869.504
1869.089
1868.673
1873.170
1877.666
1882.163
1886.659
1891.156
1895.652
1900.149
1904.645
1909.142
1913.638
1918.135
1922.631
1927.128
1931.624
1936.121
1940.617
1945.114
1949.610
1954.107
1958.603
1963.100
1967.596
1972.093
1976.589
1981.086
1985.582
1990.079
1994.575
1999.072
2003.568
2008.065
2012.561
2017.058
2021.554
2026.051
2030.547
2035.044
2039.540
2044.037
2048.533
2053.030
2057.526
2062.023
2066.519
2071.016
2075.512
2080.009
2084.505
2089.002
2093.498
2097.995
2102.491
2106.988
2111.484
2115.981
2120.477
2124.974
2129.470
2133.967
2138.463
2142.960
2147.456
2151.953
2156.449
2160.946
2165.442
2169.939
2174.435
2178.932
2183.428
2187.925
2192.421
2196.918
2201.414
2205.911
2210.407
2214.904
2219.400
2223.897
2228.393
2232.890
2237.386
2241.883
2246.379
2250.876
2255.372
2259.869
2264.365
2268.862
2273.358
2277.855
2282.351
2286.848
2291.344
2295.841
2300.337
2304.834
2309.330
2313.827
2318.323
2322.820
2327.316
2331.813
2336.309
2340.806
2345.302
2349.799
2354.295
2358.792
2363.288
2367.785
2372.281
2376.778
2381.274
2385.771
2390.267
2394.764
2399.260
2403.757
2408.253
2412.750
2417.246
2421.743
2426.239
2430.736
2435.232
2439.729
2444.225
2448.722
2453.218
2457.715
2462.211
2466.708
2471.204
2475.701
2480.197
2484.694
2489.190
2493.687
2498.183
2502.680
2507.176
2511.673
2516.169
2520.666
2525.162
2529.659
2534.155
2538.652
2543.148
2547.645
2552.141
2556.638
2561.134
2565.631
2570.127
2574.624
2579.120
2583.617
2588.113
2592.610
2597.106
2601.603
2606.099
2610.596
2615.092
2619.589
2624.085
2628.582
2633.078
2637.575
2642.071
2646.568
2651.064
2655.561
2660.057
2664.554
2669.050
2673.547
2678.043
2682.540
2687.036
2691.533
2696.029
2700.526
2705.022
2709.519
2714.015
2718.512
2723.008
2727.505
2732.001
2736.498
2740.994
2745.491
2749.987
2754.484
2758.980
2763.477
2767.973
2763.330
2758.687
2754.044
2749.401
2744.758
2740.115
2735.472
2730.829
2726.186
2721.543
2716.900
2712.257
2707.614
2702.971
2698.328
2693.685
2689.042
2684.399
2679.756
2675.113
2670.470
2665.827
2661.184
2656.541
2651.898
2647.255
2642.612
2637.969
2633.326
2628.683
2624.040
2619.397
2614.754
2610.111
2605.468
2600.825
2596.182
2591.539
2586.896
2582.253
2577.610
2572.967
2568.324
2563.681
2559.038
2554.395
2549.752
2545.109
2540.466
2535.823
2531.180
2526.537
2521.894
2517.251
2512.608
2507.965
2503.322
2498.679
2494.036
2489.393
2484.750
2480.107
2475.464
2470.821
2466.178
2461.535
2456.892
2452.249
2447.606
2442.963
2438.320
2433.677
2429.034
2424.391
2419.748
2415.105
2410.462
2405.819
2401.176
2396.533
2391.890
2387.247
2382.604
2377.961
2373.318
2368.675
2364.032
2359.389
2354.746
2350.103
2345.460
2340.817
2336.174
2331.531
2326.888
2322.245
2317.602
2312.959
2308.316
2303.673
2299.030
2294.387
2289.744
2285.101
2280.458
2275.815
2271.172
2266.529
2261.886
2257.243
2252.600
2247.957
2243.314
2238.671
2234.028
2229.385
2224.742
2220.099
2215.456
2210.813
2206.170
2201.527
2196.884
2192.241
2187.598
2182.955
2178.312
2173.669
2169.026
2164.383
2159.740
2155.097
2150.454
2145.811
2141.168
2136.525
2131.882
2127.239
2122.596
2117.953
2113.310
2108.667
2104.024
2099.381
2094.738
2090.095
2085.452
2080.809
2076.166
2071.523
2066.880
2062.237
2057.594
2052.951
2048.308
2043.665
2039.022
2034.379
2029.736
2025.093
2020.450
2015.807
2011.164
2006.521
2001.878
1997.235
1992.592
1987.949
1983.306
1978.663
1974.020
1969.377
1964.734
1960.091
1955.448
1950.805
1946.162
1941.519
1936.876
1932.233
1927.590
1922.947
1918.304
1913.661
1909.018
1904.375
1899.732
1895.089
1890.446
1885.803
1881.160
1876.517
1871.874
1867.231
1862.588
1857.945
1853.302
1848.659
1844.016
1839.373
1841.695
1844.016
1846.338
1848.659
1850.981
1853.302
1855.624
1857.945
1860.267
1862.588
1864.910
1867.231
1869.553
1871.874
1874.196
1876.517
1878.839
1881.160
1883.482
1885.803
1888.125
1890.446
1892.768
1895.089
1897.411
1899.732
1902.054
1904.375
1906.697
1909.018
1911.340
1913.661
1915.983
1918.304
1920.626
1922.947
1925.269
1927.590
1929.912
1932.233
1934.555
1936.876
1939.198
1941.519
1943.841
1946.162
1948.484
1950.805
1953.127
1955.448
1957.770
1960.091
1962.413
1964.734
1967.056
1969.377
1971.699
1974.020
1976.342
1978.663
1980.985
1983.306
1985.628
1987.949
1990.271
1992.592
1994.914
1997.235
1999.557
2001.878
2004.200
2006.521
2008.843
2011.164
2013.486
2015.807
2018.129
2020.450
2022.772
2025.093
2027.415
2029.736
2032.058
2034.379
2036.701
2039.022
2041.344
2043.665
2045.987
2048.308
2050.630
2052.951
2055.273
2057.594
2059.916
2062.237
2064.559
2066.880
2069.202
2071.523
2073.845
2076.166
2078.488
2080.809
2083.131
2085.452
2087.774
2090.095
2092.417
2094.738
2097.060
2099.381
2101.703
2104.024
2106.346
2108.667
2110.989
2113.310
2115.632
2117.953
2120.275
2122.596
2124.918
2127.239
2129.561
2131.882
2134.204
2136.525
2138.847
2141.168
2143.490
2145.811
2148.133
2150.454
2152.776
2155.097
2157.419
2159.740
2162.062
2164.383
2166.705
2169.026
2171.348
2173.669
2175.991
2178.312
2180.634
2182.955
2185.277
2187.598
2189.920
2192.241
2194.563
2196.884
2199.206
2201.527
2203.849
2206.170
2208.492
2210.813
2213.135
2215.456
2217.778
2220.099
2222.421
2224.742
2227.064
2229.385
2231.707
2234.028
2236.350
2238.671
2240.993
2243.314
2245.636
2247.957
2250.279
2252.600
2254.922
2257.243
2259.565
2261.886
2264.208
2266.529
2268.851
2271.172
2273.494
2275.815
2278.137
2280.458
2282.780
2285.101
2287.423
2289.744
2292.066
2294.387
2296.709
2299.030
2301.352
2303.673
2303.576
2303.478
2303.381
2303.283
2303.186
2303.088
2302.991
2302.893
2302.796
2302.698
2302.601
2302.503
2302.406
2302.308
2302.211
2302.113
2302.016
2301.918
2301.821
2301.723
2301.626
2301.528
2301.431
2301.333
2301.236
2301.138
2301.041
2300.943
2300.846
2300.748
2300.651
2300.553
2300.456
2300.358
2300.261
2300.163
2300.066
2299.968
2299.871
2299.773
2299.676
2299.578
2299.481
2299.383
2299.286
2299.188
2299.091
2298.993
2298.896
2298.798
2298.701
2298.603
2298.506
2298.408
2298.311
2298.213
2298.116
2298.018
2297.921
2297.823
2297.726
2297.628
2297.531
2297.433
2297.336
2297.238
2297.141
2297.043
2296.946
2296.848
2296.751
2296.653
2296.556
2296.458
2296.361
2296.263
2296.166
2296.068
2295.971
2295.873
2295.776
2295.678
2295.581
2295.483
2295.386
2295.288
2295.191
2295.093
2294.996
2294.898
2294.801
2294.703
2294.606
2294.508
2294.411
2294.313
2294.216
2294.118
2294.021
2293.923
2293.826
2293.728
2293.631
2293.533
2293.436
2293.338
2293.241
2293.143
2293.046
2292.948
2292.851
2292.753
2292.656
2292.558
2292.461
2292.363
2292.266
2292.168
2292.071
2291.973
2291.876
2291.778
2291.681
2291.583
2291.486
2291.388
2291.291
2291.193
2291.096
2290.998
2290.901
2290.803
2290.706
2290.608
2290.511
2290.413
2290.316
2290.218
2290.121
2290.023
2289.926
2289.828
2289.731
2289.633
2289.536
2289.438
2289.341
2289.243
2289.146
2289.048
2288.951
2288.853
2288.756
2288.658
2288.561
2288.463
2288.366
2288.268
2288.171
2288.073
2287.976
2287.878
2287.781
2287.683
2287.586
2287.488
2287.391
2287.293
2287.196
2287.098
2287.001
2286.903
2286.806
2286.708
2286.611
2286.513
2286.416
2286.318
2286.221
2286.123
2286.026
2285.928
2285.831
2285.733
2285.636
2285.538
2285.441
2285.343
2285.246
2285.148
2285.051
2284.953
2284.856
2284.758
2284.661
2284.563
2284.466
2284.368
2284.271
2284.173
2280.581
2276.988
2273.396
2269.803
2266.211
2262.618
2259.026
2255.433
2251.841
2248.248
2244.656
2241.063
2237.471
2233.878
2230.286
2226.693
2223.101
2219.508
2215.916
2212.323
2208.731
2205.138
2201.546
2197.953
2194.361
2190.768
2187.176
2183.583
2179.991
2176.398
2172.806
2169.213
2165.621
2162.028
2158.436
2154.843
2151.251
2147.658
2144.066
2140.473
2136.881
2133.288
2129.696
2126.103
2122.511
2118.918
2115.326
2111.733
2108.141
2104.548
2100.956
2097.363
2093.771
2090.178
2086.586
2082.993
2079.401
2075.808
2072.216
2068.623
2065.031
2061.438
2057.846
2054.253
2050.661
2047.068
2043.476
2039.883
2036.291
2032.698
2029.106
2025.513
2021.921
2018.328
2014.736
2011.143
2007.551
2003.958
2000.366
1996.773
1993.181
1989.588
1985.996
1982.403
1978.811
1975.218
1971.626
1968.033
1964.441
1960.848
1957.256
1953.663
1950.071
1946.478
1942.886
1939.293
1935.701
1932.108
1928.516
1924.923
1921.331
1917.738
1914.146
1910.553
1906.961
1903.368
1899.776
1896.183
1892.591
1888.998
1885.406
1881.813
1878.221
1874.628
1871.036
1867.443
1863.851
1860.258
1856.666
1853.073
1849.481
1845.888
1842.296
1838.703
1835.111
1831.518
1827.926
1824.333
1820.741
1817.148
1813.556
1809.963
1806.371
1802.778
1799.186
1795.593
1792.001
1788.408
1784.816
1781.223
1777.631
1774.038
1770.446
1766.853
1763.261
1759.668
1756.076
1752.483
1748.891
1745.298
1741.706
1738.113
1734.521
1730.928
1727.336
1723.743
1720.151
1716.558
1712.966
1709.373
1705.781
1702.188
1698.596
1695.003
1691.411
1687.818
1684.226
1680.633
1677.041
1673.448
1669.856
1666.263
1662.671
1659.078
1655.486
1651.893
1648.301
1644.708
1641.116
1637.523
1633.931
1630.338
1626.746
1623.153
1619.561
1615.968
1612.376
1608.783
1605.191
1601.598
1598.006
1594.413
1590.821
1587.228
1583.636
1580.043
1576.451
1572.858
1569.266
1565.673
1567.433
1569.192
1570.952
1572.711
1574.471
1576.230
1577.990
1579.749
1581.509
1583.268
1585.028
1586.787
1588.547
1590.306
1592.066
1593.825
1595.585
1597.344
1599.104
1600.863
1602.623
1604.382
1606.142
1607.901
1609.661
1611.420
1613.180
1614.939
1616.699
1618.458
1620.218
1621.977
1623.737
1625.496
1627.256
1629.015
1630.775
1632.534
1634.294
1636.053
1637.813
1639.572
1641.332
1643.091
1644.851
1646.610
1648.370
1650.129
1651.889
1653.648
1655.408
1657.167
1658.927
1660.686
1662.446
1664.205
1665.965
1667.724
1669.484
1671.243
1673.003
1674.762
1676.522
1678.281
1680.041
1681.800
1683.560
1685.319
1687.079
1688.838
1690.598
1692.357
1694.117
1695.876
1697.636
1699.395
1701.155
1702.914
1704.674
1706.433
1708.193
1709.952
1711.712
1713.471
1715.231
1716.990
1718.750
1720.509
1722.269
1724.028
1725.788
1727.547
1729.307
1731.066
1732.826
1734.585
1736.345
1738.104
1739.864
1741.623
1743.383
1745.142
1746.902
1748.661
1750.421
1752.180
1753.940
1755.699
1757.459
1759.218
1760.978
1762.737
1764.497
1766.256
1768.016
1769.775
1771.535
1773.294
1775.054
1776.813
1778.573
1780.332
1782.092
1783.851
1785.611
1787.370
1789.130
1790.889
1792.649
1794.408
1796.168
1797.927
1799.687
1801.446
1803.206
1804.965
1806.725
1808.484
1810.244
1812.003
1813.763
1815.522
1817.282
1819.041
1820.801
1822.560
1824.320
1826.079
1827.839
1829.598
1831.358
1833.117
1834.877
1836.636
1838.396
1840.155
1841.915
1843.674
1845.434
1847.193
1848.953
1850.712
1852.472
1854.231
1855.991
1857.750
1859.510
1861.269
1863.029
1864.788
1866.548
1868.307
1870.067
1871.826
1873.586
1875.345
1877.105
1878.864
1880.624
1882.383
1884.143
1885.902
1887.662
1889.421
1891.181
1892.940
1894.700
1896.459
1898.219
1899.978
1901.738
1903.497
1905.257
1907.016
1908.776
1910.535
1912.295
1914.054
1915.814
1917.573
1914.054
1910.535
1907.016
1903.497
1899.978
1896.459
1892.940
1889.421
1885.902
1882.383
1878.864
1875.345
1871.826
1868.307
1864.788
1861.269
1857.750
1854.231
1850.712
1847.193
1843.674
1840.155
1836.636
1833.117
1829.598
1826.079
1822.560
1819.041
1815.522
1812.003
1808.484
1804.965
1801.446
1797.927
1794.408
1790.889
1787.370
1783.851
1780.332
1776.813
1773.294
1769.775
1766.256
1762.737
1759.218
1755.699
1752.180
1748.661
1745.142
1741.623
1738.104
1734.585
1731.066
1727.547
1724.028
1720.509
1716.990
1713.471
1709.952
1706.433
1702.914
1699.395
1695.876
1692.357
1688.838
1685.319
1681.800
1678.281
1674.762
1671.243
1667.724
1664.205
1660.686
1657.167
1653.648
1650.129
1646.610
1643.091
1639.572
1636.053
1632.534
1629.015
1625.496
1621.977
1618.458
1614.939
1611.420
1607.901
1604.382
1600.863
1597.344
1593.825
1590.306
1586.787
1583.268
1579.749
1576.230
1572.711
1569.192
1565.673
1562.154
1558.635
1555.116
1551.597
1548.078
1544.559
1541.040
1537.521
1534.002
1530.483
1526.964
1523.445
1519.926
1516.407
1512.888
1509.369
1505.850
1502.331
1498.812
1495.293
1491.774
1488.255
1484.736
1481.217
1477.698
1474.179
1470.660
1467.141
1463.622
1460.103
1456.584
1453.065
1449.546
1446.027
1442.508
1438.989
1435.470
1431.951
1428.432
1424.913
1421.394
1417.875
1414.356
1410.837
1407.318
1403.799
1400.280
1396.761
1393.242
1389.723
1386.204
1382.685
1379.166
1375.647
1372.128
1368.609
1365.090
1361.571
1358.052
1354.533
1351.014
1347.495
1343.976
1340.457
1336.938
1333.419
1329.900
1326.381
1322.862
1319.343
1315.824
1312.305
1308.786
1305.267
1301.748
1298.229
1294.710
1291.191
1287.672
1284.153
1280.634
1277.115
1273.596
1270.077
1266.558
1263.039
1259.520
1256.001
1252.482
1248.963
1245.444
1241.925
1238.406
1234.887
1231.368
1227.849
1224.330
1220.811
1217.292
79.873
79.873
79.873
79.873
79.873
79.873
79.873
79.873
79.873
79.873
79.873
79.873
79.873
79.873
79.873
79.873
79.873
79.873
79.873
79.873
79.873
79.873
79.873
79.873
79.873
79.873
79.873
79.873
79.873
79.873
79.873
79.873
79.873
79.873
79.873
79.873
79.873
79.873
79.873
79.873
79.873
79.873
79.873
79.873
79.873
79.873
79.873
79.873
79.873
79.873
79.873
79.873
79.873
79.873
79.873
79.873
79.873
79.873
79.873
79.873
79.873
79.873
79.873
79.873
79.873
79.873
79.873
79.873
79.873
79.873
79.873
79.873
79.873
79.873
79.873
79.873
79.873
79.873
79.873
79.873
79.873
79.873
79.873
79.873
79.873
79.873
79.873
79.873
79.873
79.873
79.873
79.873
79.873
79.873
79.873
79.873
79.873
79.873
79.873
79.873
79.873
79.873
79.873
79.873
79.873
79.873
79.873
79.873
79.873
79.873
79.873
79.873
79.873
79.873
79.873
79.873
79.873
79.873
79.873
79.873
79.873
79.873
79.873
79.873
79.873
79.873
79.873
79.873
79.873
79.873
79.873
79.873
79.873
79.873
79.873
79.873
79.873
79.873
79.873
79.873
79.873
79.873
79.873
79.873
79.873
79.873
79.873
79.873
79.873
79.873
79.873
79.873
79.873
79.873
79.873
79.873
79.873
79.873
79.873
79.873
79.873
79.873
79.873
79.873
79.873
79.873
79.873
79.873
79.873
79.873
79.873
79.873
79.873
79.873
79.873
79.873
79.873
79.873
79.873
79.873
79.873
79.873
79.873
79.873
79.873
79.873
79.873
79.873
79.873
79.873
79.873
79.873
79.873
79.873
79.873
79.873
79.873
79.873
79.873
79.873
79.873
79.873
79.873
79.873
79.873
79.873
79.873
79.873
79.873
79.873
79.873
79.873
79.873
79.873
79.873
79.873
79.873
79.873
79.873
79.873
79.873
79.873
79.873
79.873
79.873
79.873
79.873
79.873
79.873
79.873
79.873
79.873
79.873
79.873
79.873
79.873
79.873
79.873
79.873
79.873
79.873
79.873
79.873
79.873
79.873
79.873
79.873
79.873
79.873
79.873
79.873
79.873
79.873
79.873
79.873
79.873
79.873
79.873
79.873
79.873
79.873
79.873
79.873
79.873
79.873
79.873
79.873
79.873
79.873
79.873
79.873
79.873
79.873
79.873
79.873
79.873
79.873
79.873
79.873
79.873
79.873
79.873
79.873
79.873
79.873
79.873
79.873
79.873
79.873
79.873
79.873
79.873
79.873
79.873
79.873
79.873
79.873
79.873
79.873
79.873
79.873
79.873
79.873
79.873
79.873
79.873
79.873
79.873
79.873
79.873
79.873
79.873
79.873
79.873
79.873
79.873
79.873
79.873
79.873
79.873
79.873
79.873
79.873
79.873
79.873
79.873
79.873
79.873
79.873
79.873
79.873
79.873
79.873
79.873
79.873
79.873
79.873
79.873
79.873
79.873
79.873
79.873
79.873
79.873
79.873
79.873
79.873
79.873
79.873
79.873
79.873
79.873
79.873
79.873
79.873
79.873
79.873
79.873
79.873
79.873
79.873
79.873
79.873
79.873
79.873
79.873
79.873
79.873
79.873
79.873
79.873
79.873
79.873
79.873
79.873
79.873
79.873
79.873
79.873
79.873
79.873
79.873
79.873
79.873
79.873
79.873
79.873
79.873
79.873
79.873
79.873
79.873
79.873
79.873
79.873
79.873
79.873
79.873
79.873
79.873
79.873
79.873
79.873
79.873
79.873
79.873
79.873
79.873
79.873
79.873
79.873
79.873
79.873
79.873
79.873
79.873
79.873
79.873
79.873
79.873
79.873
79.873
79.873
79.873
79.873
79.873
79.873
79.873
79.873
79.873
79.873
79.873
79.873
79.873
79.873
79.873
79.873
79.873
79.873
79.873
79.873
79.873
79.873
79.873
79.873
79.873
79.873
79.873
79.873
79.873
79.873
79.873
79.873
79.873
79.873
79.873
79.873
79.873
79.873
79.873
79.873
79.873
79.873
79.873
79.873
79.873
79.873
79.873
79.873
79.873
79.873
79.873
