2373.353
2377.849
2382.346
2386.842
2391.339
2395.835
2400.332
2404.828
2409.325
2413.821
2418.318
2422.814
2427.311
2431.807
2436.304
2440.800
2445.297
2449.793
2454.290
2458.786
2463.283
2467.779
2472.276
2476.772
2481.269
2485.765
2490.262
2494.758
2499.255
2503.751
2508.248
2512.744
2517.241
2521.737
2526.234
2530.730
2535.227
2539.723
2544.220
2548.716
2553.213
2557.709
2562.206
2566.702
2571.199
2575.695
2580.192
2584.688
2589.185
2593.681
2598.178
2602.674
2607.171
2611.667
2616.164
2620.660
2625.157
2629.653
2634.150
2638.646
2643.143
2647.639
2652.136
2656.632
2661.129
2665.625
2670.122
2674.618
2679.115
2683.611
2688.108
2692.604
2697.101
2701.597
2706.094
2710.590
2715.087
2719.583
2724.080
2728.576
2733.073
2737.569
2742.066
2746.562
2751.059
2755.555
2760.052
2764.548
2769.045
2773.541
2778.038
2782.534
2787.031
2791.527
2796.024
2800.520
2795.877
2791.234
2786.591
2781.948
2777.305
2772.662
2768.019
2763.376
2758.733
2754.090
2749.447
2744.804
2740.161
2735.518
2730.875
2726.232
2721.589
2716.946
2712.303
2707.660
2703.017
2698.374
2693.731
2689.088
2684.445
2679.802
2675.159
2670.516
2665.873
2661.230
2656.587
2651.944
2647.301
2642.658
2638.015
2633.372
2628.729
2624.086
2619.443
2614.800
2610.157
2605.514
2600.871
2596.228
2591.585
2586.942
2582.299
2577.656
2573.013
2568.370
2563.727
2559.084
2554.441
2549.798
2545.155
2540.512
2535.869
2531.226
2526.583
2521.940
2517.297
2512.654
2508.011
2503.368
2498.725
2494.082
2489.439
2484.796
2480.153
2475.510
2470.867
2466.224
2461.581
2456.938
2452.295
2447.652
2443.009
2438.366
2433.723
2429.080
2424.437
2419.794
2415.151
2410.508
2405.865
2401.222
2396.579
2391.936
2387.293
2382.650
2378.007
2373.364
2368.721
2364.078
2359.435
2354.792
2350.149
2345.506
2340.863
2336.220
2331.577
2326.934
2322.291
2317.648
2313.005
2308.362
2303.719
2299.076
2294.433
2289.790
2285.147
2280.504
2275.861
2271.218
2266.575
2261.932
2257.289
2252.646
2248.003
2243.360
2238.717
2234.074
2229.431
2224.788
2220.145
2215.502
2210.859
2206.216
2201.573
2196.930
2192.287
2187.644
2183.001
2178.358
2173.715
2169.072
2164.429
2159.786
2155.143
2150.500
2145.857
2141.214
2136.571
2131.928
2127.285
2122.642
2117.999
2113.356
2108.713
2104.070
2099.427
2094.784
2090.141
2085.498
2080.855
2076.212
2071.569
2066.926
2062.283
2057.640
2052.997
2048.354
2043.711
2039.068
2034.425
2029.782
2025.139
2020.496
2015.853
2011.210
2006.567
2001.924
1997.281
1992.638
1987.995
1983.352
1978.709
1974.066
1969.423
1964.780
1960.137
1955.494
1950.851
1946.208
1941.565
1936.922
1932.279
1927.636
1922.993
1918.350
1913.707
1909.064
1904.421
1899.778
1895.135
1890.492
1885.849
1881.206
1876.563
1871.920
1874.242
1876.563
1878.885
1881.206
1883.528
1885.849
1888.171
1890.492
1892.814
1895.135
1897.457
1899.778
1902.100
1904.421
1906.743
1909.064
1911.386
1913.707
1916.029
1918.350
1920.672
1922.993
1925.315
1927.636
1929.958
1932.279
1934.601
1936.922
1939.244
1941.565
1943.887
1946.208
1948.530
1950.851
1953.173
1955.494
1957.816
1960.137
1962.459
1964.780
1967.102
1969.423
1971.745
1974.066
1976.388
1978.709
1981.031
1983.352
1985.674
1987.995
1990.317
1992.638
1994.960
1997.281
1999.603
2001.924
2004.246
2006.567
2008.889
2011.210
2013.532
2015.853
2018.175
2020.496
2022.818
2025.139
2027.461
2029.782
2032.104
2034.425
2036.747
2039.068
2041.390
2043.711
2046.033
2048.354
2050.676
2052.997
2055.319
2057.640
2059.962
2062.283
2064.605
2066.926
2069.248
2071.569
2073.891
2076.212
2078.534
2080.855
2083.177
2085.498
2087.820
2090.141
2092.463
2094.784
2097.106
2099.427
2101.749
2104.070
2106.392
2108.713
2111.035
2113.356
2115.678
2117.999
2120.321
2122.642
2124.964
2127.285
2129.607
2131.928
2134.250
2136.571
2138.893
2141.214
2143.536
2145.857
2148.179
2150.500
2152.822
2155.143
2157.465
2159.786
2162.108
2164.429
2166.751
2169.072
2171.394
2173.715
2176.037
2178.358
2180.680
2183.001
2185.323
2187.644
2189.966
2192.287
2194.609
2196.930
2199.252
2201.573
2203.895
2206.216
2208.538
2210.859
2213.181
2215.502
2217.824
2220.145
2222.467
2224.788
2227.110
2229.431
2231.753
2234.074
2236.396
2238.717
2241.039
2243.360
2245.682
2248.003
2250.325
2252.646
2254.968
2257.289
2259.611
2261.932
2264.254
2266.575
2268.897
2271.218
2273.540
2275.861
2278.183
2280.504
2282.826
2285.147
2287.469
2289.790
2292.112
2294.433
2296.755
2299.076
2301.398
2303.719
2306.041
2308.362
2310.684
2313.005
2315.327
2317.648
2319.970
2322.291
2324.613
2326.934
2329.256
2331.577
2333.899
2336.220
2336.123
2336.025
2335.928
2335.830
2335.733
2335.635
2335.538
2335.440
2335.343
2335.245
2335.148
2335.050
2334.953
2334.855
2334.758
2334.660
2334.563
2334.465
2334.368
2334.270
2334.173
2334.075
2333.978
2333.880
2333.783
2333.685
2333.588
2333.490
2333.393
2333.295
2333.198
2333.100
2333.003
2332.905
2332.808
2332.710
2332.613
2332.515
2332.418
2332.320
2332.223
2332.125
2332.028
2331.930
2331.833
2331.735
2331.638
2331.540
2331.443
2331.345
2331.248
2331.150
2331.053
2330.955
2330.858
2330.760
2330.663
2330.565
2330.468
2330.370
2330.273
2330.175
2330.078
2329.980
2329.883
2329.785
2329.688
2329.590
2329.493
2329.395
2329.298
2329.200
2329.103
2329.005
2328.908
2328.810
2328.713
2328.615
2328.518
2328.420
2328.323
2328.225
2328.128
2328.030
2327.933
2327.835
2327.738
2327.640
2327.543
2327.445
2327.348
2327.250
2327.153
2327.055
2326.958
2326.860
2326.763
2326.665
2326.568
2326.470
2326.373
2326.275
2326.178
2326.080
2325.983
2325.885
2325.788
2325.690
2325.593
2325.495
2325.398
2325.300
2325.203
2325.105
2325.008
2324.910
2324.813
2324.715
2324.618
2324.520
2324.423
2324.325
2324.228
2324.130
2324.033
2323.935
2323.838
2323.740
2323.643
2323.545
2323.448
2323.350
2323.253
2323.155
2323.058
2322.960
2322.863
2322.765
2322.668
2322.570
2322.473
2322.375
2322.278
2322.180
2322.083
2321.985
2321.888
2321.790
2321.693
2321.595
2321.498
2321.400
2321.303
2321.205
2321.108
2321.010
2320.913
2320.815
2320.718
2320.620
2320.523
2320.425
2320.328
2320.230
2320.133
2320.035
2319.938
2319.840
2319.743
2319.645
2319.548
2319.450
2319.353
2319.255
2319.158
2319.060
2318.963
2318.865
2318.768
2318.670
2318.573
2318.475
2318.378
2318.280
2318.183
2318.085
2317.988
2317.890
2317.793
2317.695
2317.598
2317.500
2317.403
2317.305
2317.208
2317.110
2317.013
2316.915
2316.818
2316.720
2313.128
2309.535
2305.943
2302.350
2298.758
2295.165
2291.573
2287.980
2284.388
2280.795
2277.203
2273.610
2270.018
2266.425
2262.833
2259.240
2255.648
2252.055
2248.463
2244.870
2241.278
2237.685
2234.093
2230.500
2226.908
2223.315
2219.723
2216.130
2212.538
2208.945
2205.353
2201.760
2198.168
2194.575
2190.983
2187.390
2183.798
2180.205
2176.613
2173.020
2169.428
2165.835
2162.243
2158.650
2155.058
2151.465
2147.873
2144.280
2140.688
2137.095
2133.503
2129.910
2126.318
2122.725
2119.133
2115.540
2111.948
2108.355
2104.763
2101.170
2097.578
2093.985
2090.393
2086.800
2083.208
2079.615
2076.023
2072.430
2068.838
2065.245
2061.653
2058.060
2054.468
2050.875
2047.283
2043.690
2040.098
2036.505
2032.913
2029.320
2025.728
2022.135
2018.543
2014.950
2011.358
2007.765
2004.173
2000.580
1996.988
1993.395
1989.803
1986.210
1982.618
1979.025
1975.433
1971.840
1968.248
1964.655
1961.063
1957.470
1953.878
1950.285
1946.693
1943.100
1939.508
1935.915
1932.323
1928.730
1925.138
1921.545
1917.953
1914.360
1910.768
1907.175
1903.583
1899.990
1896.398
1892.805
1889.213
1885.620
1882.028
1878.435
1874.843
1871.250
1867.658
1864.065
1860.473
1856.880
1853.288
1849.695
1846.103
1842.510
1838.918
1835.325
1831.733
1828.140
1824.548
1820.955
1817.363
1813.770
1810.178
1806.585
1802.993
1799.400
1795.808
1792.215
1788.623
1785.030
1781.438
1777.845
1774.253
1770.660
1767.068
1763.475
1759.883
1756.290
1752.698
1749.105
1745.513
1741.920
1738.328
1734.735
1731.143
1727.550
1723.958
1720.365
1716.773
1713.180
1709.588
1705.995
1702.403
1698.810
1695.218
1691.625
1688.033
1684.440
1680.848
1677.255
1673.663
1670.070
1666.478
1662.885
1659.293
1655.700
1652.108
1648.515
1644.923
1641.330
1637.738
1634.145
1630.553
1626.960
1623.368
1619.775
1616.183
1612.590
1608.998
1605.405
1601.813
1598.220
1599.980
1601.739
1603.499
1605.258
1607.018
1608.777
1610.537
1612.296
1614.056
1615.815
1617.575
1619.334
1621.094
1622.853
1624.613
1626.372
1628.132
1629.891
1631.651
1633.410
1635.170
1636.929
1638.689
1640.448
1642.208
1643.967
1645.727
1647.486
1649.246
1651.005
1652.765
1654.524
1656.284
1658.043
1659.803
1661.562
1663.322
1665.081
1666.841
1668.600
1670.360
1672.119
1673.879
1675.638
1677.398
1679.157
1680.917
1682.676
1684.436
1686.195
1687.955
1689.714
1691.474
1693.233
1694.993
1696.752
1698.512
1700.271
1702.031
1703.790
1705.550
1707.309
1709.069
1710.828
1712.588
1714.347
1716.107
1717.866
1719.626
1721.385
1723.145
1724.904
1726.664
1728.423
1730.183
1731.942
1733.702
1735.461
1737.221
1738.980
1740.740
1742.499
1744.259
1746.018
1747.778
1749.537
1751.297
1753.056
1754.816
1756.575
1758.335
1760.094
1761.854
1763.613
1765.373
1767.132
1768.892
1770.651
1772.411
1774.170
1775.930
1777.689
1779.449
1781.208
1782.968
1784.727
1786.487
1788.246
1790.006
1791.765
1793.525
1795.284
1797.044
1798.803
1800.563
1802.322
1804.082
1805.841
1807.601
1809.360
1811.120
1812.879
1814.639
1816.398
1818.158
1819.917
1821.677
1823.436
1825.196
1826.955
1828.715
1830.474
1832.234
1833.993
1835.753
1837.512
1839.272
1841.031
1842.791
1844.550
1846.310
1848.069
1849.829
1851.588
1853.348
1855.107
1856.867
1858.626
1860.386
1862.145
1863.905
1865.664
1867.424
1869.183
1870.943
1872.702
1874.462
1876.221
1877.981
1879.740
1881.500
1883.259
1885.019
1886.778
1888.538
1890.297
1892.057
1893.816
1895.576
1897.335
1899.095
1900.854
1902.614
1904.373
1906.133
1907.892
1909.652
1911.411
1913.171
1914.930
1916.690
1918.449
1920.209
1921.968
1923.728
1925.487
1927.247
1929.006
1930.766
1932.525
1934.285
1936.044
1937.804
1939.563
1941.323
1943.082
1944.842
1946.601
1948.361
1950.120
1946.601
1943.082
1939.563
1936.044
1932.525
1929.006
1925.487
1921.968
1918.449
1914.930
1911.411
1907.892
1904.373
1900.854
1897.335
1893.816
1890.297
1886.778
1883.259
1879.740
1876.221
1872.702
1869.183
1865.664
1862.145
1858.626
1855.107
1851.588
1848.069
1844.550
1841.031
1837.512
1833.993
1830.474
1826.955
1823.436
1819.917
1816.398
1812.879
1809.360
1805.841
1802.322
1798.803
1795.284
1791.765
1788.246
1784.727
1781.208
1777.689
1774.170
1770.651
1767.132
1763.613
1760.094
1756.575
1753.056
1749.537
1746.018
1742.499
1738.980
1735.461
1731.942
1728.423
1724.904
1721.385
1717.866
1714.347
1710.828
1707.309
1703.790
1700.271
1696.752
1693.233
1689.714
1686.195
1682.676
1679.157
1675.638
1672.119
1668.600
1665.081
1661.562
1658.043
1654.524
1651.005
1647.486
1643.967
1640.448
1636.929
1633.410
1629.891
1626.372
1622.853
1619.334
1615.815
1612.296
1608.777
1605.258
1601.739
1598.220
1594.701
1591.182
1587.663
1584.144
1580.625
1577.106
1573.587
1570.068
1566.549
1563.030
1559.511
1555.992
1552.473
1548.954
1545.435
1541.916
1538.397
1534.878
1531.359
1527.840
1524.321
1520.802
1517.283
1513.764
1510.245
1506.726
1503.207
1499.688
1496.169
1492.650
1489.131
1485.612
1482.093
1478.574
1475.055
1471.536
1468.017
1464.498
1460.979
1457.460
1453.941
1450.422
1446.903
1443.384
1439.865
1436.346
1432.827
1429.308
1425.789
1422.270
1418.751
1415.232
1411.713
1408.194
1404.675
1401.156
1397.637
1394.118
1390.599
1387.080
1383.561
1380.042
1376.523
1373.004
1369.485
1365.966
1362.447
1358.928
1355.409
1351.890
1348.371
1344.852
1341.333
1337.814
1334.295
1330.776
1327.257
1323.738
1320.219
1316.700
1313.181
1309.662
1306.143
1302.624
1299.105
1295.586
1292.067
1288.548
1285.029
1281.510
1277.991
1274.472
1270.953
1267.434
1263.915
1260.396
1256.877
1253.358
1249.839
1246.320
1241.481
1236.642
1231.803
1226.964
1222.125
1217.286
1212.447
1207.608
1202.769
1197.930
1193.091
1188.252
1183.413
1178.574
1173.735
1168.896
1164.057
1159.218
1154.379
1149.540
1144.701
1139.862
1135.023
1130.184
1125.345
1120.506
1115.667
1110.828
1105.989
1101.150
1096.311
1091.472
1086.633
1081.794
1076.955
1072.116
1067.277
1062.438
1057.599
1052.760
1047.921
1043.082
1038.243
1033.404
1028.565
1023.726
1018.887
1014.048
1009.209
1004.370
999.531
994.692
989.853
985.014
980.175
975.336
970.497
965.658
960.819
955.980
951.141
946.302
941.463
936.624
931.785
926.946
922.107
917.268
912.429
907.590
902.751
897.912
893.073
888.234
883.395
878.556
873.717
868.878
864.039
859.200
854.361
849.522
844.683
839.844
835.005
830.166
825.327
820.488
815.649
810.810
805.971
801.132
796.293
791.454
786.615
781.776
776.937
772.098
767.259
762.420
757.581
752.742
747.903
743.064
738.225
733.386
728.547
723.708
718.869
714.030
709.191
704.352
699.513
694.674
689.835
684.996
680.157
675.318
670.479
665.640
660.801
655.962
651.123
646.284
641.445
636.606
631.767
626.928
622.089
617.250
612.411
607.572
602.733
597.894
593.055
588.216
583.377
578.538
573.699
568.860
564.021
559.182
554.343
549.504
544.665
539.826
534.987
530.148
525.309
520.470
515.631
510.792
505.953
501.114
496.275
491.436
486.597
481.758
476.919
472.080
467.241
462.402
457.563
452.724
447.885
443.046
438.207
433.368
428.529
423.690
418.851
414.012
409.173
404.334
399.495
394.656
389.817
384.978
380.139
375.300
370.461
365.622
360.783
355.944
351.105
346.266
341.427
336.588
331.749
326.910
322.071
317.232
312.393
307.554
302.715
297.876
293.037
288.198
283.359
278.520
278.154
277.787
277.421
277.054
276.688
276.321
275.955
275.588
275.222
274.855
274.489
274.122
273.756
273.389
273.023
272.656
272.290
271.923
271.557
271.190
270.824
270.457
270.091
269.724
269.358
268.991
268.625
268.258
267.892
267.525
267.159
266.792
266.426
266.059
265.693
265.326
264.960
264.593
264.227
263.860
263.494
263.127
262.761
262.394
262.028
261.661
261.295
260.928
260.562
260.195
259.829
259.462
259.096
258.729
258.363
257.996
257.630
257.263
256.897
256.530
256.164
255.797
255.431
255.064
254.698
254.331
253.965
253.598
253.232
252.865
252.499
252.132
251.766
251.399
251.033
250.666
250.300
249.933
249.567
249.200
248.834
248.467
248.101
247.734
247.368
247.001
246.635
246.268
245.902
245.535
245.169
244.802
244.436
244.069
243.703
243.336
242.970
242.603
242.237
241.870
241.504
241.137
240.771
240.404
240.038
239.671
239.305
238.938
238.572
238.205
237.839
237.472
237.106
236.739
236.373
236.006
235.640
235.273
234.907
234.540
234.174
233.807
233.441
233.074
232.708
232.341
231.975
231.608
231.242
230.875
230.509
230.142
229.776
229.409
229.043
228.676
228.310
227.943
227.577
227.210
226.844
226.477
226.111
225.744
225.378
225.011
224.645
224.278
223.912
223.545
223.179
222.812
222.446
222.079
221.713
221.346
220.980
220.613
220.247
219.880
219.514
219.147
218.781
218.414
218.048
217.681
217.315
216.948
216.582
216.215
215.849
215.482
215.116
214.749
214.383
214.016
213.650
213.283
212.917
212.550
212.184
211.817
211.451
211.084
210.718
210.351
209.985
209.618
209.252
208.885
208.519
208.152
207.786
207.419
207.053
206.686
206.320
205.953
205.587
112.420
112.420
112.420
112.420
112.420
112.420
112.420
112.420
112.420
112.420
112.420
112.420
112.420
112.420
112.420
112.420
112.420
112.420
112.420
112.420
112.420
112.420
112.420
112.420
112.420
112.420
112.420
112.420
112.420
112.420
112.420
112.420
112.420
112.420
112.420
112.420
112.420
112.420
112.420
112.420
112.420
112.420
112.420
112.420
112.420
112.420
112.420
112.420
112.420
112.420
112.420
112.420
112.420
112.420
112.420
112.420
112.420
112.420
112.420
112.420
112.420
112.420
112.420
112.420
112.420
112.420
112.420
112.420
112.420
112.420
112.420
112.420
112.420
112.420
112.420
112.420
112.420
112.420
112.420
112.420
112.420
112.420
112.420
112.420
112.420
112.420
112.420
112.420
112.420
112.420
112.420
112.420
112.420
112.420
112.420
112.420
112.420
112.420
112.420
112.420
112.420
112.420
112.420
112.420
112.420
112.420
112.420
112.420
112.420
112.420
112.420
112.420
112.420
112.420
112.420
112.420
112.420
112.420
112.420
112.420
112.420
112.420
112.420
112.420
112.420
112.420
112.420
112.420
112.420
112.420
112.420
112.420
112.420
112.420
112.420
112.420
112.420
112.420
112.420
112.420
112.420
112.420
112.420
112.420
112.420
112.420
112.420
112.420
112.420
112.420
112.420
112.420
112.420
112.420
112.420
112.420
112.420
112.420
112.420
112.420
112.420
112.420
112.420
112.420
112.420
112.420
112.420
112.420
112.420
112.420
112.420
112.420
112.420
112.420
112.420
112.420
112.420
112.420
112.420
112.420
112.420
112.420
112.420
112.420
112.420
112.420
112.420
112.420
112.420
112.420
112.420
112.420
112.420
112.420
112.420
112.420
112.420
112.420
112.420
112.420
112.420
112.420
112.420
112.420
112.420
112.420
112.420
112.420
112.420
112.420
112.420
112.420
112.420
112.420
112.420
112.420
112.420
112.420
112.420
112.420
112.420
112.420
112.420
112.420
112.420
112.420
112.420
112.420
112.420
112.420
112.420
112.420
112.420
112.420
112.420
112.420
112.420
112.420
112.420
112.420
112.420
112.420
112.420
112.420
112.420
112.420
112.420
112.420
112.420
112.420
112.420
112.420
112.420
112.420
112.420
112.420
112.420
112.420
112.420
112.420
112.420
112.420
112.420
112.420
112.420
112.420
112.420
112.420
112.420
112.420
112.420
112.420
112.420
112.420
112.420
112.420
112.420
112.420
112.420
112.420
112.420
112.420
112.420
112.420
112.420
112.420
112.420
112.420
112.420
112.420
112.420
112.420
112.420
112.420
112.420
112.420
112.420
112.420
112.420
112.420
112.420
112.420
112.420
112.420
112.420
