1728.310
1726.086
1723.862
1721.638
1719.414
1717.190
1714.966
1712.742
1710.518
1708.294
1706.070
1703.846
1701.622
1699.398
1697.174
1699.496
1701.817
1704.139
1706.460
1708.782
1711.103
1713.425
1715.746
1718.068
1720.389
1722.711
1725.032
1727.354
1729.675
1731.997
1734.318
1736.640
1738.961
1741.283
1743.604
1745.926
1748.247
1750.569
1752.890
1755.212
1757.533
1759.855
1762.176
1764.498
1766.819
1769.141
1771.462
1773.784
1776.105
1778.427
1780.748
1783.070
1785.391
1787.713
1790.034
1792.356
1794.677
1796.999
1799.320
1801.642
1803.963
1806.285
1808.606
1810.928
1813.249
1815.571
1817.892
1820.214
1822.535
1824.857
1827.178
1829.500
1831.821
1834.143
1836.464
1838.786
1841.107
1843.429
1845.750
1848.072
1850.393
1852.715
1855.036
1857.358
1859.679
1862.001
1864.322
1866.644
1868.965
1871.287
1873.608
1875.930
1878.251
1880.573
1882.894
1885.216
1887.537
1889.859
1892.180
1894.502
1896.823
1899.145
1901.466
1903.788
1906.109
1908.431
1910.752
1913.074
1915.395
1917.717
1920.038
1922.360
1924.681
1927.003
1929.324
1931.646
1933.967
1936.289
1938.610
1940.932
1943.253
1945.575
1947.896
1950.218
1952.539
1954.861
1957.182
1959.504
1961.825
1964.147
1966.468
1968.790
1971.111
1973.433
1975.754
1978.076
1980.397
1982.719
1985.040
1987.362
1989.683
1992.005
1994.326
1996.648
1998.969
2001.291
2003.612
2005.934
2008.255
2010.577
2012.898
2015.220
2017.541
2019.863
2022.184
2024.506
2026.827
2029.149
2031.470
2033.792
2036.113
2038.435
2040.756
2043.078
2045.399
2047.721
2050.042
2052.364
2054.685
2057.007
2059.328
2061.650
2063.971
2066.293
2068.614
2070.936
2073.257
2075.579
2077.900
2080.222
2082.543
2084.865
2087.186
2089.508
2091.829
2094.151
2096.472
2098.794
2101.115
2103.437
2105.758
2108.080
2110.401
2112.723
2115.044
2117.366
2119.687
2122.009
2124.330
2126.652
2128.973
2131.295
2133.616
2135.938
2138.259
2140.581
2142.902
2145.224
2147.545
2149.867
2152.188
2154.510
2156.831
2159.153
2161.474
2164.896
2168.317
2171.739
2175.160
2178.582
2182.003
2185.425
2188.846
2192.268
2195.689
2199.111
2202.532
2205.954
2209.375
2212.797
2216.218
2219.640
2223.061
2226.483
2229.904
2233.326
2236.747
2240.169
2243.590
2247.012
2250.433
2253.855
2257.276
2260.698
2264.119
2267.541
2270.962
2274.384
2277.805
2281.227
2284.648
2288.070
2291.491
2294.913
2298.334
2301.756
2305.177
2308.599
2312.020
2315.442
2318.863
2322.285
2325.706
2329.128
2332.549
2335.971
2339.392
2342.814
2346.235
2349.657
2353.078
2356.500
2359.921
2363.343
2366.764
2370.186
2373.607
2377.029
2380.450
2383.872
2387.293
2390.715
2394.136
2397.558
2400.979
2404.401
2407.822
2411.244
2414.665
2418.087
2421.508
2424.930
2428.351
2431.773
2435.194
2438.616
2442.037
2445.459
2448.880
2452.302
2455.723
2459.145
2462.566
2465.988
2469.409
2472.831
2476.252
2479.674
2483.095
2486.517
2489.938
2493.360
2496.781
2500.203
2503.624
2507.046
2510.467
2513.889
2517.310
2520.732
2524.153
2527.575
2530.996
2534.418
2537.839
2541.261
2544.682
2548.104
2551.525
2554.947
2558.368
2561.790
2565.211
2568.633
2572.054
2575.476
2578.897
2582.319
2585.740
2589.162
2592.583
2596.005
2599.426
2602.848
2606.269
2609.691
2613.112
2616.534
2619.955
2623.377
2626.798
2630.220
2633.641
2637.063
2640.484
2643.906
2647.327
2650.749
2654.170
2657.592
2661.013
2664.435
2667.856
2671.278
2674.699
2678.121
2681.542
2684.964
2688.385
2691.807
2695.228
2698.650
2702.071
2705.493
2708.914
2712.336
2715.757
2719.179
2722.600
2726.022
2729.443
2732.865
2736.286
2739.708
2743.129
2746.551
2749.972
2753.394
2756.815
2760.237
2763.658
2767.080
2770.501
2773.923
2777.344
2780.766
2784.187
2787.609
2791.030
2794.452
2797.873
2801.295
2804.716
2808.138
2811.559
2814.981
2818.402
2821.824
2825.245
2828.667
2832.088
2835.510
2838.931
2842.353
94.074
94.074
94.074
94.074
94.074
94.074
94.074
94.074
94.074
94.074
94.074
94.074
94.074
94.074
94.074
94.074
94.074
94.074
94.074
94.074
94.074
94.074
94.074
94.074
94.074
94.074
94.074
94.074
94.074
94.074
94.074
94.074
94.074
94.074
94.074
94.074
94.074
94.074
94.074
94.074
94.074
94.074
94.074
94.074
94.074
94.074
94.074
94.074
94.074
94.074
94.074
94.074
94.074
94.074
94.074
94.074
94.074
94.074
94.074
94.074
94.074
94.074
94.074
94.074
94.074
94.074
94.074
94.074
94.074
94.074
94.074
94.074
94.074
94.074
94.074
94.074
94.074
94.074
94.074
94.074
94.074
94.074
94.074
94.074
94.074
94.074
94.074
94.074
94.074
94.074
94.074
94.074
94.074
94.074
94.074
94.074
94.074
94.074
94.074
94.074
94.074
94.074
94.074
94.074
94.074
94.074
94.074
94.074
94.074
94.074
94.074
94.074
94.074
94.074
94.074
94.074
94.074
94.074
94.074
94.074
94.074
94.074
94.074
94.074
94.074
94.074
94.074
94.074
94.074
94.074
94.074
94.074
94.074
94.074
94.074
94.074
94.074
94.074
94.074
94.074
94.074
94.074
94.074
94.074
94.074
94.074
94.074
94.074
94.074
94.074
94.074
94.074
94.074
94.074
94.074
94.074
94.074
94.074
94.074
94.074
94.074
94.074
94.074
94.074
94.074
94.074
94.074
94.074
94.074
94.074
94.074
94.074
94.074
94.074
94.074
94.074
94.074
94.074
94.074
94.074
94.074
94.074
94.074
94.074
94.074
94.074
94.074
94.074
94.074
94.074
94.074
94.074
94.074
94.074
94.074
94.074
94.074
94.074
94.074
94.074
94.074
94.050
94.025
94.001
93.976
93.952
93.927
93.903
93.878
93.854
93.829
93.805
93.780
93.756
93.731
93.707
93.682
93.658
93.633
93.609
93.584
93.560
93.535
93.511
93.486
93.462
93.437
93.413
93.388
93.364
93.339
93.315
93.290
93.266
93.241
93.217
93.192
93.168
93.143
93.119
93.094
93.070
93.045
93.021
92.996
92.972
92.947
92.923
92.898
92.874
92.849
92.825
92.800
92.776
92.751
92.727
92.702
92.678
92.653
92.629
92.604
92.580
92.555
92.531
92.506
92.482
92.457
92.433
92.408
92.384
92.359
92.335
92.310
92.286
92.261
92.237
92.212
92.188
92.163
92.139
92.114
92.090
92.065
92.041
92.016
91.992
91.967
91.943
91.918
91.894
91.869
91.845
91.820
91.796
91.771
91.747
91.722
91.698
91.673
91.649
91.624
91.600
91.575
91.551
91.526
91.502
91.477
91.453
91.428
91.404
91.379
91.355
91.330
91.306
91.281
91.257
91.232
91.208
91.183
91.159
91.134
91.110
91.085
91.061
91.036
91.012
90.987
90.963
90.938
90.914
90.889
90.865
90.840
90.816
90.791
90.767
90.742
90.718
90.693
90.669
90.644
90.620
90.595
90.571
90.546
90.522
90.497
90.473
90.448
90.424
90.399
90.375
90.350
90.326
90.301
90.277
90.252
90.228
90.203
90.179
90.154
90.130
90.105
90.081
90.056
90.032
90.007
89.983
89.958
89.934
89.909
89.885
89.860
89.836
89.811
89.787
89.762
89.738
89.713
89.689
89.664
89.640
89.615
89.591
89.566
89.542
89.517
89.493
89.468
89.444
89.419
89.395
89.370
89.346
89.321
89.297
89.272
89.248
89.223
89.199
89.174
89.174
89.174
89.174
89.174
89.174
89.174
89.174
89.174
89.174
89.174
89.174
89.174
89.174
89.174
89.174
89.174
89.174
89.174
89.174
89.174
89.174
89.174
89.174
89.174
89.174
89.174
89.174
89.174
89.174
89.174
89.174
89.174
89.174
89.174
89.174
89.174
89.174
89.174
89.174
89.174
89.174
89.174
89.174
89.174
89.174
89.174
89.174
89.174
89.174
89.174
89.174
89.174
89.174
89.174
89.174
89.174
89.174
89.174
89.174
89.174
89.174
89.174
89.174
89.174
89.174
89.174
89.174
89.174
89.174
89.174
89.174
89.174
89.174
89.174
89.174
89.174
89.174
89.174
89.174
89.174
89.174
89.174
89.174
89.174
89.174
89.174
89.174
89.174
89.174
89.174
89.174
89.174
89.174
89.174
89.174
89.174
89.174
89.174
89.174
89.174
89.174
89.174
89.174
89.174
89.174
89.174
89.174
89.174
89.174
89.174
89.174
89.174
89.174
89.174
89.174
89.174
89.174
89.174
89.174
89.174
89.174
89.174
89.174
89.174
89.174
89.174
89.174
89.174
89.174
89.174
89.174
89.174
89.174
89.174
89.174
89.174
89.174
89.174
89.174
89.174
89.174
89.174
89.174
89.174
89.174
89.174
89.174
89.174
89.174
89.174
89.174
89.174
89.174
89.174
89.174
89.174
89.174
89.174
89.174
89.174
89.174
89.174
89.174
89.174
89.174
89.174
89.174
89.174
89.174
89.174
89.174
89.174
89.174
89.174
89.174
89.174
89.174
89.174
89.174
89.174
89.174
89.174
89.174
89.174
89.174
89.174
89.174
89.174
89.174
89.174
89.174
89.174
89.174
89.174
89.174
89.174
89.174
89.174
89.174
89.174
89.199
89.223
89.248
89.272
89.297
89.321
89.346
89.370
89.395
89.419
89.444
89.468
89.493
89.517
89.542
89.566
89.591
89.615
89.640
89.664
89.689
89.713
89.738
89.762
89.787
89.811
89.836
89.860
89.885
89.909
89.934
89.958
89.983
90.007
90.032
90.056
90.081
90.105
90.130
90.154
90.179
90.203
90.228
90.252
90.277
90.301
90.326
90.350
90.375
90.399
90.424
90.448
90.473
90.497
90.522
90.546
90.571
90.595
90.620
90.644
90.669
90.693
90.718
90.742
90.767
90.791
90.816
90.840
90.865
90.889
90.914
90.938
90.963
90.987
91.012
91.036
91.061
91.085
91.110
91.134
91.159
91.183
91.208
91.232
91.257
91.281
91.306
91.330
91.355
91.379
91.404
91.428
91.453
91.477
91.502
91.526
91.551
91.575
91.600
91.624
91.649
91.673
91.698
91.722
91.747
91.771
91.796
91.820
91.845
91.869
91.894
91.918
91.943
91.967
91.992
92.016
92.041
92.065
92.090
92.114
92.139
92.163
92.188
92.212
92.237
92.261
92.286
92.310
92.335
92.359
92.384
92.408
92.433
92.457
92.482
92.506
92.531
92.555
92.580
92.604
92.629
92.653
92.678
92.702
92.727
92.751
92.776
92.800
92.825
92.849
92.874
92.898
92.923
92.947
92.972
92.996
93.021
93.045
93.070
93.094
93.119
93.143
93.168
93.192
93.217
93.241
93.266
93.290
93.315
93.339
93.364
93.388
93.413
93.437
93.462
93.486
93.511
93.535
93.560
93.584
93.609
93.633
93.658
93.682
93.707
93.731
93.756
93.780
93.805
93.829
93.854
93.878
93.903
93.927
93.952
93.976
94.001
94.025
94.050
94.074
94.050
94.025
94.001
93.976
93.952
93.927
93.903
93.878
93.854
93.829
93.805
93.780
93.756
93.731
93.707
93.682
93.658
93.633
93.609
93.584
93.560
93.535
93.511
93.486
93.462
93.437
93.413
93.388
93.364
93.339
93.315
93.290
93.266
93.241
93.217
93.192
93.168
93.143
93.119
93.094
93.070
93.045
93.021
92.996
92.972
92.947
92.923
92.898
92.874
92.849
92.825
92.800
92.776
92.751
92.727
92.702
92.678
92.653
92.629
92.604
92.580
92.555
92.531
92.506
92.482
92.457
92.433
92.408
92.384
92.359
92.335
92.310
92.286
92.261
92.237
92.212
92.188
92.163
92.139
92.114
92.090
92.065
92.041
92.016
91.992
91.967
91.943
91.918
91.894
91.869
91.845
91.820
91.796
91.771
91.747
91.722
91.698
91.673
91.649
91.624
91.600
91.575
91.551
91.526
91.502
91.477
91.453
91.428
91.404
91.379
91.355
91.330
91.306
91.281
91.257
91.232
91.208
91.183
91.159
91.134
91.110
91.085
91.061
91.036
91.012
90.987
90.963
90.938
90.914
90.889
90.865
90.840
90.816
90.791
90.767
90.742
90.718
90.693
90.669
90.644
90.620
90.595
90.571
90.546
90.522
90.497
90.473
90.448
90.424
90.399
90.375
90.350
90.326
90.301
90.277
90.252
90.228
90.203
90.179
90.154
90.130
90.105
90.081
90.056
90.032
90.007
89.983
89.958
89.934
89.909
89.885
89.860
89.836
89.811
89.787
89.762
89.738
89.713
89.689
89.664
89.640
89.615
89.591
89.566
89.542
89.517
89.493
89.468
89.444
89.419
89.395
89.370
89.346
89.321
89.297
89.272
89.248
89.223
89.199
89.174
89.199
89.223
89.248
89.272
89.297
89.321
89.346
89.370
89.395
89.419
89.444
89.468
89.493
89.517
89.542
89.566
89.591
89.615
89.640
89.664
89.689
89.713
89.738
89.762
89.787
89.811
89.836
89.860
89.885
89.909
89.934
89.958
89.983
90.007
90.032
90.056
90.081
90.105
90.130
90.154
90.179
90.203
90.228
90.252
90.277
90.301
90.326
90.350
90.375
90.399
90.424
90.448
90.473
90.497
90.522
90.546
90.571
90.595
90.620
90.644
90.669
90.693
90.718
90.742
90.767
90.791
90.816
90.840
90.865
90.889
90.914
90.938
90.963
90.987
91.012
91.036
91.061
91.085
91.110
91.134
91.159
91.183
91.208
91.232
91.257
91.281
91.306
91.330
91.355
91.379
91.404
91.428
91.453
91.477
91.502
91.526
91.551
91.575
91.600
91.624
91.649
91.673
91.698
91.722
91.747
91.771
91.796
91.820
91.845
91.869
91.894
91.918
91.943
91.967
91.992
92.016
92.041
92.065
92.090
92.114
92.139
92.163
92.188
92.212
92.237
92.261
92.286
92.310
92.335
92.359
92.384
92.408
92.433
92.457
92.482
92.506
92.531
92.555
92.580
92.604
92.629
92.653
92.678
92.702
92.727
92.751
92.776
92.800
92.825
92.849
92.874
92.898
92.923
92.947
92.972
92.996
93.021
93.045
93.070
93.094
93.119
93.143
93.168
93.192
93.217
93.241
93.266
93.290
93.315
93.339
93.364
93.388
93.413
93.437
93.462
93.486
93.511
93.535
93.560
93.584
93.609
93.633
93.658
93.682
93.707
93.731
93.756
93.780
93.805
93.829
93.854
93.878
93.903
93.927
93.952
93.976
94.001
94.025
94.050
94.074
94.074
94.074
94.074
94.074
94.074
94.074
94.074
94.074
94.074
94.074
94.074
94.074
94.074
94.074
94.074
94.074
94.074
94.074
94.074
94.074
94.074
94.074
94.074
94.074
94.074
94.074
94.074
94.074
94.074
94.074
94.074
94.074
94.074
94.074
94.074
94.074
94.074
94.074
94.074
94.074
94.074
94.074
94.074
94.074
94.074
94.074
94.074
94.074
94.074
94.074
94.074
94.074
94.074
94.074
94.074
94.074
94.074
94.074
94.074
94.074
94.074
94.074
94.074
94.074
94.074
94.074
94.074
94.074
94.074
94.074
94.074
94.074
94.074
94.074
94.074
94.074
94.074
94.074
94.074
94.074
94.074
94.074
94.074
94.074
94.074
94.074
94.074
94.074
94.074
94.074
94.074
94.074
94.074
94.074
94.074
94.074
94.074
94.074
94.074
94.074
94.074
94.074
94.074
94.074
94.074
94.074
94.074
94.074
94.074
94.074
94.074
94.074
94.074
94.074
94.074
94.074
94.074
94.074
94.074
94.074
94.074
94.074
94.074
94.074
94.074
94.074
94.074
94.074
94.074
94.074
94.074
94.074
94.074
94.074
94.074
94.074
94.074
94.074
94.074
94.074
94.074
94.074
94.074
94.074
94.074
94.074
94.074
94.074
94.074
94.074
94.074
94.074
94.074
94.074
94.074
94.074
94.074
94.074
94.074
94.074
94.074
94.074
94.074
94.074
94.074
94.074
94.074
94.074
94.074
94.074
94.074
94.074
94.074
94.074
94.074
94.074
94.074
94.074
94.074
94.074
94.074
94.074
94.074
94.074
94.074
94.074
94.074
94.074
94.074
94.074
94.074
94.074
94.074
94.074
94.074
94.074
94.074
94.074
94.074
94.074
94.050
94.025
94.001
93.976
93.952
93.927
93.903
93.878
93.854
93.829
93.805
93.780
93.756
93.731
93.707
93.682
93.658
93.633
93.609
93.584
93.560
93.535
93.511
93.486
93.462
93.437
93.413
93.388
93.364
93.339
93.315
93.290
93.266
93.241
93.217
93.192
93.168
93.143
93.119
93.094
93.070
93.045
93.021
92.996
92.972
92.947
92.923
92.898
92.874
92.849
92.825
92.800
92.776
92.751
92.727
92.702
92.678
92.653
92.629
92.604
92.580
92.555
92.531
92.506
92.482
92.457
92.433
92.408
92.384
92.359
92.335
92.310
92.286
92.261
92.237
92.212
92.188
92.163
92.139
92.114
92.090
92.065
92.041
92.016
91.992
91.967
91.943
91.918
91.894
91.869
91.845
91.820
91.796
91.771
91.747
91.722
91.698
91.673
91.649
91.624
91.600
91.575
91.551
91.526
91.502
91.477
91.453
91.428
91.404
91.379
91.355
91.330
91.306
91.281
91.257
91.232
91.208
91.183
91.159
91.134
91.110
91.085
91.061
91.036
91.012
90.987
90.963
90.938
90.914
90.889
90.865
90.840
90.816
90.791
90.767
90.742
90.718
90.693
90.669
90.644
90.620
90.595
90.571
90.546
90.522
90.497
90.473
90.448
90.424
90.399
90.375
90.350
90.326
90.301
90.277
90.252
90.228
90.203
90.179
90.154
90.130
90.105
90.081
90.056
90.032
90.007
89.983
89.958
89.934
89.909
89.885
89.860
89.836
89.811
89.787
89.762
89.738
89.713
89.689
89.664
89.640
89.615
89.591
89.566
89.542
