1792.036
1794.259
1796.483
1798.706
1800.930
1803.153
1805.377
1807.600
1809.824
1812.047
1814.271
1816.494
1818.718
1820.941
1823.165
1825.388
1827.612
1829.835
1832.059
1834.282
1836.506
1838.729
1840.953
1843.176
1845.400
1847.623
1849.847
1852.070
1854.294
1856.517
1858.741
1860.964
1863.188
1865.411
1867.635
1869.858
1872.082
1874.305
1876.529
1878.752
1880.976
1883.199
1885.423
1887.646
1889.870
1892.093
1894.317
1896.540
1898.764
1900.987
1903.211
1905.434
1907.658
1909.881
1912.105
1914.328
1916.552
1918.775
1920.999
1923.222
1925.446
1927.669
1929.893
1932.116
1934.340
1936.563
1938.787
1941.010
1943.234
1945.457
1947.681
1949.904
1952.128
1954.351
1956.575
1958.798
1961.022
1963.245
1965.469
1967.692
1969.916
1972.139
1974.363
1976.586
1978.810
1981.033
1983.257
1985.480
1987.704
1989.927
1992.151
1994.374
1996.598
1998.821
2001.045
2003.268
2005.492
2007.715
2009.939
2012.162
2014.386
2016.609
2018.833
2021.056
2023.280
2025.503
2027.727
2029.950
2032.174
2034.397
2036.621
2038.844
2041.068
2043.291
2045.515
2047.738
2049.962
2052.185
2054.409
2056.632
2058.856
2061.079
2063.303
2065.526
2067.750
2069.973
2072.197
2074.420
2076.644
2078.867
2081.091
2083.314
2085.538
2087.761
2089.985
2092.208
2094.432
2096.655
2098.879
2101.102
2103.326
2105.549
2107.773
2109.996
2112.220
2114.443
2116.667
2118.890
2121.114
2123.337
2125.561
2127.784
2130.008
2132.231
2134.455
2136.678
2138.902
2141.125
2143.349
2145.572
2147.796
2150.019
2152.243
2154.466
2156.690
2158.913
2161.137
2163.360
2165.584
2167.807
2167.025
2166.243
2165.461
2164.679
2163.897
2163.115
2162.333
2161.551
2160.769
2159.987
2159.205
2158.423
2157.641
2156.859
2156.077
2155.295
2154.513
2153.731
2152.949
2152.167
2151.385
2150.603
2149.821
2149.039
2148.257
2147.475
2146.693
2145.911
2145.129
2144.347
2143.565
2142.783
2142.001
2141.219
2140.437
2139.655
2138.873
2138.091
2137.309
2136.527
2135.745
2134.963
2134.181
2133.399
2132.617
2131.835
2131.053
2130.271
2129.489
2128.707
2127.925
2127.143
2126.361
2125.579
2124.797
2124.015
2123.233
2122.451
2121.669
2120.887
2120.105
2119.323
2118.541
2117.759
2116.977
2116.195
2115.413
2114.631
2113.849
2113.067
2112.285
2111.503
2110.721
2109.939
2109.157
2108.375
2107.593
2106.811
2106.029
2105.247
2104.465
2103.683
2102.901
2102.119
2101.337
2100.555
2099.773
2098.991
2098.209
2097.427
2096.645
2095.863
2095.081
2094.299
2093.517
2092.735
2091.953
2091.171
2090.389
2089.607
2088.825
2088.043
2087.261
2086.479
2085.697
2084.915
2084.133
2083.351
2082.569
2081.787
2081.005
2080.223
2079.441
2078.659
2077.877
2077.095
2076.313
2075.531
2074.749
2073.967
2073.185
2072.403
2071.621
2070.839
2070.057
2069.275
2068.493
2067.711
2066.929
2066.147
2065.365
2064.583
2063.801
2063.019
2062.237
2061.455
2060.673
2059.891
2059.109
2058.327
2057.545
2056.763
2055.981
2055.199
2054.417
2053.635
2052.853
2052.071
2051.289
2050.507
2049.725
2048.943
2048.161
2047.379
2046.597
2045.815
2045.033
2044.251
2043.469
2042.687
2041.905
2041.123
2040.341
2039.559
2038.777
2037.995
2037.213
2036.431
2035.649
2034.867
2034.085
2033.303
2032.521
2031.739
2030.957
2030.175
2029.393
2028.611
2027.829
2027.047
2026.265
2025.483
2024.701
2023.919
2023.137
2022.355
2021.573
2020.791
2020.009
2019.227
2018.445
2017.663
2016.881
2016.099
2015.317
2014.535
2013.753
2012.971
2012.189
2011.407
2010.039
2008.670
2007.302
2005.933
2004.565
2003.196
2001.828
2000.459
1999.091
1997.722
1996.354
1994.985
1993.617
1992.248
1990.880
1989.511
1988.143
1986.774
1985.406
1984.037
1982.669
1981.300
1979.932
1978.563
1977.195
1975.826
1974.458
1973.089
1971.721
1970.352
1968.984
1967.615
1966.247
1964.878
1963.510
1962.141
1960.773
1959.404
1958.036
1956.667
1955.299
1953.930
1952.562
1951.193
1949.825
1948.456
1947.088
1945.719
1944.351
1942.982
1941.614
1940.245
1938.877
1937.508
1936.140
1934.771
1933.403
1932.034
1930.666
1929.297
1927.929
1926.560
1925.192
1923.823
1922.455
1921.086
1919.718
1918.349
1916.981
1915.612
1914.244
1912.875
1911.507
1910.138
1908.770
1907.401
1906.033
1904.664
1903.296
1901.927
1900.559
1899.190
1897.822
1896.453
1895.085
1893.716
1892.348
1890.979
1889.611
1888.242
1886.874
1885.505
1884.137
1882.768
1881.400
1880.031
1878.663
1877.294
1875.926
1874.557
1873.189
1871.820
1870.452
1869.083
1867.715
1866.346
1864.978
1863.609
1862.241
1860.872
1859.504
1858.135
1856.767
1855.398
1854.030
1852.661
1851.293
1849.924
1848.556
1847.187
1845.819
1844.450
1843.082
1841.713
1840.345
1838.976
1837.608
1836.239
1834.871
1833.502
1832.134
1830.765
1829.397
1828.028
1826.660
1825.291
1823.923
1822.554
1821.186
1819.817
1818.449
1817.080
1815.712
1814.343
1812.975
1811.606
1810.238
1808.869
1807.501
1806.132
1804.764
1803.395
1802.027
1800.658
1799.290
1797.921
1796.553
1795.184
1793.816
1792.447
1791.079
1789.710
1788.342
1786.973
1785.605
1784.236
1782.868
1781.499
1780.131
1778.762
1777.394
1776.025
1774.657
1773.288
1771.920
1770.551
1769.183
1767.814
1766.446
1765.077
1763.709
1762.340
1760.972
1759.603
1758.235
1756.866
1755.498
1754.129
1752.761
1751.392
1750.024
1748.655
1747.287
1745.918
1744.550
1743.181
1741.813
1740.444
1739.076
1737.707
1739.834
1741.960
1744.087
1746.213
1748.340
1750.466
1752.593
1754.719
1756.846
1758.972
1761.099
1763.225
1765.352
1767.478
1769.605
1771.731
1773.858
1775.984
1778.111
1780.237
1782.364
1784.490
1786.617
1788.743
1790.870
1792.996
1795.123
1797.249
1799.376
1801.502
1803.629
1805.755
1807.882
1810.008
1812.135
1814.261
1816.388
1818.514
1820.641
1822.767
1824.894
1827.020
1829.147
1831.273
1833.400
1835.526
1837.653
1839.779
1841.906
1844.032
1846.159
1848.285
1850.412
1852.538
1854.665
1856.791
1858.918
1861.044
1863.171
1865.297
1867.424
1869.550
1871.677
1873.803
1875.930
1878.056
1880.183
1882.309
1884.436
1886.562
1888.689
1890.815
1892.942
1895.068
1897.195
1899.321
1901.448
1903.574
1905.701
1907.827
1909.954
1912.080
1914.207
1916.333
1918.460
1920.586
1922.713
1924.839
1926.966
1929.092
1931.219
1933.345
1935.472
1937.598
1939.725
1941.851
1943.978
1946.104
1948.231
1950.357
1952.484
1954.610
1956.737
1958.863
1960.990
1963.116
1965.243
1967.369
1969.496
1971.622
1973.749
1975.875
1978.002
1980.128
1982.255
1984.381
1986.508
1988.634
1990.761
1992.887
1995.014
1997.140
1999.267
2001.393
2003.520
2005.646
2007.773
2009.899
2012.026
2014.152
2016.279
2018.405
2020.532
2022.658
2024.785
2026.911
2029.038
2031.164
2033.291
2035.417
2037.544
2039.670
2041.797
2043.923
2046.050
2048.176
2050.303
2052.429
2054.556
2056.682
2058.809
2060.935
2063.062
2065.188
2067.315
2069.441
2071.568
2073.694
2075.821
2077.947
2080.074
2082.200
2084.327
2086.453
2088.580
2090.706
2092.833
2094.959
2097.086
2099.212
2101.339
2103.465
2105.592
2107.718
2109.845
2111.971
2114.098
2116.224
2118.351
2120.477
2122.604
2124.730
2126.857
2128.983
2131.110
2133.236
2135.363
2137.489
2139.616
2141.742
2143.869
2145.995
2148.122
2150.248
2152.375
2154.501
2156.628
2158.754
2160.881
2163.007
2159.415
2155.822
2152.230
2148.637
2145.045
2141.452
2137.860
2134.267
2130.675
2127.082
2123.490
2119.897
2116.305
2112.712
2109.120
2105.527
2101.935
2098.342
2094.750
2091.157
2087.565
2083.972
2080.380
2076.787
2073.195
2069.602
2066.010
2062.417
2058.825
2055.232
2051.640
2048.047
2044.455
2040.862
2037.270
2033.677
2030.085
2026.492
2022.900
2019.307
2015.715
2012.122
2008.530
2004.937
2001.345
1997.752
1994.160
1990.567
1986.975
1983.382
1979.790
1976.197
1972.605
1969.012
1965.420
1961.827
1958.235
1954.642
1951.050
1947.457
1943.865
1940.272
1936.680
1933.087
1929.495
1925.902
1922.310
1918.717
1915.125
1911.532
1907.940
1904.347
1900.755
1897.162
1893.570
1889.977
1886.385
1882.792
1879.200
1875.607
1872.015
1868.422
1864.830
1861.237
1857.645
1854.052
1850.460
1846.867
1843.275
1839.682
1836.090
1832.497
1828.905
1825.312
1821.720
1818.127
1814.535
1810.942
1807.350
1803.757
1800.165
1796.572
1792.980
1789.387
1785.795
1782.202
1778.610
1775.017
1771.425
1767.832
1764.240
1760.647
1757.055
1753.462
1749.870
1746.277
1742.685
1739.092
1735.500
1731.907
1728.315
1724.722
1721.130
1717.537
1713.945
1710.352
1706.760
1703.167
1699.575
1695.982
1692.390
1688.797
1685.205
1681.612
1678.020
1674.427
1670.835
1667.242
1663.650
1660.057
1656.465
1652.872
1649.280
1645.687
1642.095
1638.502
1634.910
1631.317
1627.725
1624.132
1620.540
1616.947
1613.355
1609.762
1606.170
1602.577
1598.985
1595.392
1591.800
1588.207
1584.615
1581.022
1577.430
1573.837
1570.245
1566.652
1563.060
1559.467
1555.875
1552.282
1548.690
1545.097
1541.505
1537.912
1534.320
1530.727
1527.135
1523.542
1519.950
1516.357
1512.765
1509.172
1505.580
1501.987
1498.395
1494.802
1491.210
1487.617
1484.025
1480.432
1476.840
1473.247
1469.655
1466.062
1462.470
1458.877
1455.285
1451.692
1448.100
1444.507
1444.825
1445.142
1445.460
1445.777
1446.095
1446.412
1446.730
1447.047
1447.365
1447.682
1448.000
1448.317
1448.635
1448.952
1449.270
1449.587
1449.905
1450.222
1450.540
1450.857
1451.175
1451.492
1451.810
1452.127
1452.445
1452.762
1453.080
1453.397
1453.715
1454.032
1454.350
1454.667
1454.985
1455.302
1455.620
1455.937
1456.255
1456.572
1456.890
1457.207
1457.525
1457.842
1458.160
1458.477
1458.795
1459.112
1459.430
1459.747
1460.065
1460.382
1460.700
1461.017
1461.335
1461.652
1461.970
1462.287
1462.605
1462.922
1463.240
1463.557
1463.875
1464.192
1464.510
1464.827
1465.145
1465.462
1465.780
1466.097
1466.415
1466.732
1467.050
1467.367
1467.685
1468.002
1468.320
1468.637
1468.955
1469.272
1469.590
1469.907
1470.225
1470.542
1470.860
1471.177
1471.495
1471.812
1472.130
1472.447
1472.765
1473.082
1473.400
1473.717
1474.035
1474.352
1474.670
1474.987
1475.305
1475.622
1475.940
1476.257
1476.575
1476.892
1477.210
1477.527
1477.845
1478.162
1478.480
1478.797
1479.115
1479.432
1479.750
1480.067
1480.385
1480.702
1481.020
1481.337
1481.655
1481.972
1482.290
1482.607
1482.925
1483.242
1483.560
1483.877
1484.195
1484.512
1484.830
1485.147
1485.465
1485.782
1486.100
1486.417
1486.735
1487.052
1487.370
1487.687
1488.005
1488.322
1488.640
1488.957
1489.275
1489.592
1489.910
1490.227
1490.545
1490.862
1491.180
1491.497
1491.815
1492.132
1492.450
1492.767
1493.085
1493.402
1493.720
1494.037
1494.355
1494.672
1494.990
1495.307
1495.625
1495.942
1496.260
1496.577
1496.895
1497.212
1497.530
1497.847
1498.165
1498.482
1498.800
1499.117
1499.435
1499.752
1500.070
1500.387
1500.705
1501.022
1501.340
1501.657
1501.975
1502.292
1502.610
1502.927
1503.245
1503.562
1503.880
1504.197
1504.515
1504.832
1505.150
1505.467
1505.785
1506.102
1506.420
1506.737
1507.055
1507.372
1507.690
1508.007
1502.753
1497.499
1492.245
1486.991
1481.737
1476.483
1471.229
1465.975
1460.721
1455.467
1450.213
1444.959
1439.705
1434.451
1429.197
1423.943
1418.689
1413.435
1408.181
1402.927
1397.673
1392.419
1387.165
1381.911
1376.657
1371.403
1366.149
1360.895
1355.641
1350.387
1345.133
1339.879
1334.625
1329.371
1324.117
1318.863
1313.609
1308.355
1303.101
1297.847
1292.593
1287.339
1282.085
1276.831
1271.577
1266.323
1261.069
1255.815
1250.561
1245.307
1240.053
1234.799
1229.545
1224.291
1219.037
1213.783
1208.529
1203.275
1198.021
1192.767
1187.513
1182.259
1177.005
1171.751
1166.497
1161.243
1155.989
1150.735
1145.481
1140.227
1134.973
1129.719
1124.465
1119.211
1113.957
1108.703
1103.449
1098.195
1092.941
1087.687
1082.433
1077.179
1071.925
1066.671
1061.417
1056.163
1050.909
1045.655
1040.401
1035.147
1029.893
1024.639
1019.385
1014.131
1008.877
1003.623
998.369
993.115
987.861
982.607
977.353
972.099
966.845
961.591
956.337
951.083
945.829
940.575
935.321
930.067
924.813
919.559
914.305
909.051
903.797
898.543
893.289
888.035
882.781
877.527
872.273
867.019
861.765
856.511
851.257
846.003
840.749
835.495
830.241
824.987
819.733
814.479
809.225
803.971
798.717
793.463
788.209
782.955
777.701
772.447
767.193
761.939
756.685
751.431
746.177
740.923
735.669
730.415
725.161
719.907
714.653
709.399
704.145
698.891
693.637
688.383
683.129
677.875
672.621
667.367
662.113
656.859
651.605
646.351
641.097
635.843
630.589
625.335
620.081
614.827
609.573
604.319
599.065
593.811
588.557
583.303
578.049
572.795
567.541
562.287
557.033
551.779
546.525
541.271
536.017
530.763
525.509
520.255
515.001
509.747
504.493
499.239
493.985
488.731
483.477
478.223
472.969
467.715
462.461
457.207
455.888
454.568
453.249
451.929
450.610
449.290
447.971
446.651
445.332
444.012
442.693
441.373
440.054
438.734
437.415
436.095
434.776
433.456
432.137
430.817
429.498
428.178
426.859
425.539
424.220
422.900
421.581
420.261
418.942
417.622
416.303
414.983
413.664
412.344
411.025
409.705
408.386
407.066
405.747
404.427
403.108
401.788
400.469
399.149
397.830
396.510
395.191
393.871
392.552
391.232
389.913
388.593
387.274
385.954
384.635
383.315
381.996
380.676
379.357
378.037
376.718
375.398
374.079
372.759
371.440
370.120
368.801
367.481
366.162
364.842
363.523
362.203
360.884
359.564
358.245
356.925
355.606
354.286
352.967
351.647
350.328
349.008
347.689
346.369
345.050
343.730
342.411
341.091
339.772
338.452
337.133
335.813
334.494
333.174
331.855
330.535
329.216
327.896
326.577
325.257
323.938
322.618
321.299
319.979
318.660
317.340
316.021
314.701
313.382
312.062
310.743
309.423
308.104
306.784
305.465
304.145
302.826
301.506
300.187
298.867
297.548
296.228
294.909
293.589
292.270
290.950
289.631
288.311
286.992
285.672
284.353
283.033
281.714
280.394
279.075
277.755
276.436
275.116
273.797
272.477
271.158
269.838
268.519
267.199
265.880
264.560
263.241
261.921
260.602
259.282
257.963
256.643
255.324
254.004
252.685
251.365
250.046
248.726
247.407
246.087
244.768
243.448
242.129
240.809
239.490
238.170
236.851
235.531
234.212
232.892
231.573
230.253
228.934
227.614
226.295
224.975
223.656
222.336
221.017
219.697
218.378
217.058
215.739
214.419
213.100
211.780
210.461
209.141
207.822
206.502
205.183
203.863
202.544
201.224
199.905
198.585
197.266
195.946
194.627
115.107
115.107
115.107
115.107
115.107
115.107
115.107
115.107
115.107
115.107
115.107
115.107
115.107
115.107
115.107
115.107
115.107
115.107
115.107
115.107
115.107
115.107
115.107
115.107
115.107
115.107
115.107
115.107
115.107
115.107
115.107
115.107
115.107
115.107
115.107
115.107
115.107
115.107
115.107
115.107
115.107
115.107
115.107
115.107
115.107
115.107
115.107
115.107
115.107
115.107
115.107
115.107
115.107
115.107
115.107
115.107
115.107
115.107
115.107
115.107
115.107
115.107
115.107
115.107
115.107
115.107
115.107
115.107
115.107
115.107
115.107
115.107
115.107
115.107
115.107
115.107
115.107
115.107
115.107
115.107
115.107
115.107
115.107
115.107
115.107
115.107
115.107
115.107
115.107
115.107
115.107
115.107
115.107
115.107
115.107
115.107
115.107
115.107
115.107
115.107
115.107
115.107
115.107
115.107
115.107
115.107
115.107
115.107
115.107
115.107
115.107
115.107
115.107
115.107
115.107
115.107
115.107
115.107
115.107
115.107
115.107
115.107
115.107
115.107
115.107
115.107
115.107
115.107
115.107
115.107
115.107
115.107
115.107
115.107
115.107
115.107
115.107
115.107
115.107
115.107
115.107
115.107
115.107
115.107
115.107
115.107
115.107
115.107
115.107
115.107
115.107
115.107
115.107
115.107
115.107
115.107
115.107
115.107
115.107
115.107
115.107
115.107
115.107
115.107
115.107
115.107
115.107
115.107
115.107
115.107
115.107
115.107
115.107
115.107
115.107
115.107
115.107
115.107
115.107
115.107
115.107
115.107
115.107
115.107
115.107
115.107
115.107
115.107
115.107
115.107
115.107
115.107
115.107
115.107
115.107
115.107
115.107
115.107
115.107
115.107
115.107
115.107
115.107
115.107
115.107
115.107
115.107
115.107
115.107
115.107
115.107
115.107
115.107
115.107
115.107
115.107
115.107
115.107
115.107
115.107
115.107
115.107
115.107
115.107
115.107
115.107
115.107
115.107
115.107
115.107
115.107
115.107
115.107
115.107
115.107
115.107
115.107
115.107
115.107
115.107
115.107
115.107
115.107
115.107
115.107
115.107
115.107
115.107
115.107
115.107
115.107
115.107
115.107
115.107
115.107
115.107
115.107
115.107
115.107
115.107
115.107
115.107
115.107
115.107
115.107
115.107
115.107
115.107
115.107
115.107
115.107
115.107
115.107
115.107
115.107
115.107
115.107
115.107
115.107
115.107
115.107
115.107
115.107
115.107
115.107
115.107
115.107
115.107
115.107
115.107
115.107
115.107
115.107
115.107
115.107
115.107
115.107
115.107
115.107
115.107
115.107
115.107
115.107
115.107
115.107
115.107
115.107
115.107
115.107
115.107
115.107
115.107
115.107
115.107
115.107
115.107
115.107
115.107
115.107
115.107
115.107
115.107
115.107
115.107
115.107
115.107
115.107
115.107
115.107
115.107
115.107
115.107
115.107
115.107
115.107
115.107
115.107
115.107
115.107
115.107
115.107
115.107
115.107
115.107
115.107
115.107
115.107
115.107
115.107
115.107
115.107
115.107
115.107
115.107
115.107
115.107
115.107
115.107
115.107
115.107
115.107
115.107
115.107
115.107
115.107
115.107
115.107
115.107
115.107
115.107
115.107
115.107
115.107
115.107
115.107
115.107
115.107
115.107
115.107
115.107
115.107
115.107
115.107
115.107
115.107
115.107
115.107
115.107
115.107
115.107
115.107
115.107
115.107
115.107
115.107
115.107
115.107
115.107
115.107
115.107
115.107
115.107
115.107
115.107
115.107
115.107
115.107
115.107
115.107
115.107
115.107
115.107
115.107
115.107
115.107
115.107
115.107
115.107
115.107
115.107
115.107
115.107
115.107
115.107
115.107
115.107
115.107
115.107
115.107
115.107
115.107
