1730.442
1732.763
1735.085
1737.406
1739.728
1742.049
1744.371
1746.692
1749.014
1751.335
1753.657
1755.978
1758.300
1760.621
1762.943
1765.264
1767.586
1769.907
1772.229
1774.550
1776.872
1779.193
1781.515
1783.836
1786.158
1788.479
1790.801
1793.122
1795.444
1797.765
1800.087
1802.408
1804.730
1807.051
1809.373
1811.694
1814.016
1816.337
1818.659
1820.980
1823.302
1825.623
1827.945
1830.266
1832.588
1834.909
1837.231
1839.552
1841.874
1844.195
1846.517
1848.838
1851.160
1853.481
1855.803
1858.124
1860.446
1862.767
1865.089
1867.410
1869.732
1872.053
1874.375
1876.696
1879.018
1881.339
1883.661
1885.982
1888.304
1890.625
1892.947
1895.268
1897.590
1899.911
1902.233
1904.554
1906.876
1909.197
1911.519
1913.840
1916.162
1918.483
1920.805
1923.126
1925.448
1927.769
1930.091
1932.412
1934.734
1937.055
1939.377
1941.698
1944.020
1946.341
1948.663
1950.984
1953.306
1955.627
1957.949
1960.270
1962.592
1964.913
1967.235
1969.556
1971.878
1974.199
1976.521
1978.842
1981.164
1983.485
1985.807
1988.128
1990.450
1992.771
1995.093
1997.414
1999.736
2002.057
2004.379
2006.700
2009.022
2011.343
2013.665
2015.986
2018.308
2020.629
2022.951
2025.272
2027.594
2029.915
2032.237
2034.558
2036.880
2039.201
2041.523
2043.844
2046.166
2048.487
2050.809
2053.130
2055.452
2057.773
2060.095
2062.416
2064.738
2067.059
2069.381
2071.702
2074.024
2076.345
2078.667
2080.988
2083.310
2085.631
2087.953
2090.274
2092.596
2094.917
2097.239
2099.560
2101.882
2104.203
2106.525
2108.846
2111.168
2113.489
2115.811
2118.132
2120.454
2122.775
2125.097
2127.418
2129.740
2132.061
2134.383
2136.704
2139.026
2141.347
2143.669
2145.990
2148.312
2150.633
2152.955
2155.276
2157.598
2159.919
2162.241
2164.562
2167.984
2171.405
2174.827
2178.248
2181.670
2185.091
2188.513
2191.934
2195.356
2198.777
2202.199
2205.620
2209.042
2212.463
2215.885
2219.306
2222.728
2226.149
2229.571
2232.992
2236.414
2239.835
2243.257
2246.678
2250.100
2253.521
2256.943
2260.364
2263.786
2267.207
2270.629
2274.050
2277.472
2280.893
2284.315
2287.736
2291.158
2294.579
2298.001
2301.422
2304.844
2308.265
2311.687
2315.108
2318.530
2321.951
2325.373
2328.794
2332.216
2335.637
2339.059
2342.480
2345.902
2349.323
2352.745
2356.166
2359.588
2363.009
2366.431
2369.852
2373.274
2376.695
2380.117
2383.538
2386.960
2390.381
2393.803
2397.224
2400.646
2404.067
2407.489
2410.910
2414.332
2417.753
2421.175
2424.596
2428.018
2431.439
2434.861
2438.282
2441.704
2445.125
2448.547
2451.968
2455.390
2458.811
2462.233
2465.654
2469.076
2472.497
2475.919
2479.340
2482.762
2486.183
2489.605
2493.026
2496.448
2499.869
2503.291
2506.712
2510.134
2513.555
2516.977
2520.398
2523.820
2527.241
2530.663
2534.084
2537.506
2540.927
2544.349
2547.770
2551.192
2554.613
2558.035
2561.456
2564.878
2568.299
2571.721
2575.142
2578.564
2581.985
2585.407
2588.828
2592.250
2595.671
2599.093
2602.514
2605.936
2609.357
2612.779
2616.200
2619.622
2623.043
2626.465
2629.886
2633.308
2636.729
2640.151
2643.572
2646.994
2650.415
2653.837
2657.258
2660.680
2664.101
2667.523
2670.944
2674.366
2677.787
2681.209
2684.630
2688.052
2691.473
2694.895
2698.316
2701.738
2705.159
2708.581
2712.002
2715.424
2718.845
2722.267
2725.688
2729.110
2732.531
2735.953
2739.374
2742.796
2746.217
2749.639
2753.060
2756.482
2759.903
2763.325
2766.746
2770.168
2773.589
2777.011
2780.432
2783.854
2787.275
2790.697
2794.118
2797.540
2800.961
2804.383
2807.804
2811.226
2814.647
2818.069
2821.490
2824.912
2828.333
2831.755
2835.176
2838.598
2842.019
2845.441
2848.862
2846.150
2843.437
2840.725
2838.012
2835.300
2832.587
2829.875
2827.162
2824.450
2821.737
2819.025
2816.312
2813.600
2810.887
2808.175
2805.462
2802.750
2800.037
2797.325
2794.612
2791.900
2789.187
2786.475
2783.762
2781.050
2778.337
2775.625
2772.912
2770.200
2767.487
2764.775
2762.062
2759.350
2756.637
2753.925
2751.212
2748.500
2745.787
2743.075
2740.362
2737.650
2734.937
2732.225
2729.512
2726.800
2724.087
2721.375
2718.662
2715.950
2713.237
2710.525
2707.812
2705.100
2702.387
2699.675
2696.962
2694.250
2691.537
2688.825
2686.112
2683.400
2680.687
2677.975
2675.262
2672.550
2669.837
2667.125
2664.412
2661.700
2658.987
2656.275
2653.562
2650.850
2648.137
2645.425
2642.712
2640.000
2637.287
2634.575
2631.862
2629.150
2626.437
2623.725
2621.012
2618.300
2615.587
2612.875
2610.162
2607.450
2604.737
2602.025
2599.312
2596.600
2593.887
2591.175
2588.462
2585.750
2583.037
2580.325
2577.612
2574.900
2572.187
2569.475
2566.762
2564.050
2561.337
2558.625
2555.912
2553.200
2550.487
2547.775
2545.062
2542.350
2539.637
2536.925
2534.212
2531.500
2528.787
2526.075
2523.362
2520.650
2517.937
2515.225
2512.512
2509.800
2507.087
2504.375
2501.662
2498.950
2496.237
2493.525
2490.812
2488.100
2485.387
2482.675
2479.962
2477.250
2474.537
2471.825
2469.112
2466.400
2463.687
2460.975
2458.262
2455.550
2452.837
2450.125
2447.412
2444.700
2441.987
2439.275
2436.562
2433.850
2431.137
2428.425
2425.712
2423.000
2420.287
2417.575
2414.862
2412.150
2409.437
2406.725
2404.012
2401.300
2398.587
2395.875
2393.162
2390.450
2387.737
2385.025
2382.312
2379.600
2376.887
2374.175
2371.462
2368.750
2366.037
2363.325
2360.612
2357.900
2355.187
2352.475
2349.762
2347.050
2344.337
2341.625
2338.912
2336.200
2333.487
2330.775
2328.062
2325.350
2322.637
2319.925
2317.212
2314.500
2311.787
2309.075
2306.362
2298.566
2290.770
2282.974
2275.178
2267.382
2259.586
2251.790
2243.994
2236.198
2228.402
2220.606
2212.810
2205.014
2197.218
2189.422
2181.626
2173.830
2166.034
2158.238
2150.442
2142.646
2134.850
2127.054
2119.258
2111.462
2103.666
2095.870
2088.074
2080.278
2072.482
2064.686
2056.890
2049.094
2041.298
2033.502
2025.706
2017.910
2010.114
2002.318
1994.522
1986.726
1978.930
1971.134
1963.338
1955.542
1947.746
1939.950
1932.154
1924.358
1916.562
1908.766
1900.970
1893.174
1885.378
1877.582
1869.786
1861.990
1854.194
1846.398
1838.602
1830.806
1823.010
1815.214
1807.418
1799.622
1791.826
1784.030
1776.234
1768.438
1760.642
1752.846
1745.050
1737.254
1729.458
1721.662
1713.866
1706.070
1698.274
1690.478
1682.682
1674.886
1667.090
1659.294
1651.498
1643.702
1635.906
1628.110
1620.314
1612.518
1604.722
1596.926
1589.130
1581.334
1573.538
1565.742
1557.946
1550.150
1542.354
1534.558
1526.762
1518.966
1511.170
1503.374
1495.578
1487.782
1479.986
1472.190
1464.394
1456.598
1448.802
1441.006
1433.210
1425.414
1417.618
1409.822
1402.026
1394.230
1386.434
1378.638
1370.842
1363.046
1355.250
1347.454
1339.658
1331.862
1324.066
1316.270
1308.474
1300.678
1292.882
1285.086
1277.290
1269.494
1261.698
1253.902
1246.106
1238.310
1230.514
1222.718
1214.922
1207.126
1199.330
1191.534
1183.738
1175.942
1168.146
1160.350
1152.554
1144.758
1136.962
1129.166
1121.370
1113.574
1105.778
1097.982
1090.186
1082.390
1074.594
1066.798
1059.002
1051.206
1043.410
1035.614
1027.818
1020.022
1012.226
1004.430
996.634
988.838
981.042
973.246
965.450
957.654
949.858
942.062
934.266
926.470
918.674
910.878
903.082
895.286
887.490
879.694
871.898
864.102
856.306
848.510
840.714
832.918
825.122
817.326
809.530
801.734
793.938
786.142
778.346
770.550
762.754
754.958
102.062
102.062
102.062
102.062
102.062
102.062
102.062
102.062
102.062
102.062
102.062
102.062
102.062
102.062
102.062
102.062
102.062
102.062
102.062
102.062
102.062
102.062
102.062
102.062
102.062
102.062
102.062
102.062
102.062
102.062
102.062
102.062
102.062
102.062
102.062
102.062
102.062
102.062
102.062
102.062
102.062
102.062
102.062
102.062
102.062
102.062
102.062
102.062
102.062
102.062
102.062
102.062
102.062
102.062
102.062
102.062
102.062
102.062
102.062
102.062
102.062
102.062
102.062
102.062
102.062
102.062
102.062
102.062
102.062
102.062
102.062
102.062
102.062
102.062
102.062
102.062
102.062
102.062
102.062
102.062
102.062
102.062
102.062
102.062
102.062
102.062
102.062
102.062
102.062
102.062
102.062
102.062
102.062
102.062
102.062
102.062
102.062
102.062
102.062
102.062
102.062
102.062
102.062
102.062
102.062
102.062
102.062
102.062
102.062
102.062
102.062
102.062
102.062
102.062
102.062
102.062
102.062
102.062
102.062
102.062
102.062
102.062
102.062
102.062
102.062
102.062
102.062
102.062
102.062
102.062
102.062
102.062
102.062
102.062
102.062
102.062
102.062
102.062
102.062
102.062
102.062
102.062
102.062
102.062
102.062
102.062
102.062
102.062
102.062
102.062
102.062
102.062
102.062
102.062
102.062
102.062
102.062
102.062
102.062
102.062
102.062
102.062
102.062
102.062
102.062
102.062
102.062
102.062
102.062
102.062
102.062
102.062
102.062
102.062
102.062
102.062
102.062
102.062
102.062
102.062
102.062
102.062
102.062
102.062
102.062
102.062
102.062
102.062
102.062
102.062
102.062
102.062
102.062
102.062
102.062
102.062
102.062
102.062
102.062
102.062
102.062
102.062
102.062
102.062
102.062
102.062
102.062
102.062
102.062
102.062
102.062
102.062
102.062
102.062
102.062
102.062
102.062
102.062
102.062
102.062
102.062
102.062
102.062
102.062
102.062
102.062
102.062
102.062
102.062
102.062
102.062
102.062
102.062
102.062
102.062
102.062
102.062
102.062
102.062
102.062
102.062
102.062
102.062
102.062
102.062
102.062
102.062
102.062
102.062
102.062
102.062
102.062
102.062
102.062
102.062
102.062
102.062
102.062
102.062
102.062
102.062
102.062
102.062
102.062
102.062
102.062
102.062
102.062
102.062
102.062
102.062
102.062
102.062
102.062
102.062
102.062
102.062
102.062
102.062
102.062
102.062
102.062
102.062
102.062
102.062
102.062
102.062
102.062
102.062
102.062
102.062
102.062
102.062
102.062
102.062
102.062
102.062
102.062
102.062
102.062
102.062
102.062
102.062
102.062
102.062
102.062
102.062
102.062
102.062
102.062
102.062
102.062
102.062
102.062
102.062
102.062
102.062
102.062
102.062
102.062
102.062
102.062
102.062
102.062
102.062
102.062
102.062
102.062
102.062
102.062
102.062
102.062
102.062
102.062
102.062
102.062
102.062
102.062
102.062
102.062
102.062
102.062
102.062
102.062
102.062
102.062
102.062
102.062
102.062
102.062
102.062
102.062
102.062
102.062
102.062
102.062
102.062
102.062
102.062
102.062
102.062
102.062
102.062
102.062
102.062
102.062
102.062
102.062
102.062
102.062
102.062
102.062
102.062
102.062
102.062
102.062
102.062
102.062
102.062
102.062
102.062
102.062
102.062
102.062
102.062
102.062
102.062
102.062
102.062
102.062
102.062
102.062
102.062
102.062
102.062
102.062
102.062
102.062
102.062
102.062
102.062
102.062
102.062
102.062
102.062
102.062
102.062
102.062
102.062
102.062
102.062
102.062
102.062
102.062
102.062
102.062
102.062
102.062
102.062
102.062
102.062
102.062
102.062
102.062
102.062
102.062
102.062
102.062
102.062
102.062
102.062
102.062
102.062
102.062
102.062
102.062
102.062
102.062
102.062
102.062
102.062
102.062
102.062
102.062
102.062
102.062
102.062
102.062
102.062
102.062
102.062
102.062
102.062
102.062
102.062
102.062
102.062
102.062
102.062
102.062
102.062
102.062
102.062
102.062
102.062
102.062
102.062
102.062
102.062
102.062
102.062
102.062
102.062
102.062
102.062
102.062
102.062
102.062
102.062
102.062
102.062
102.062
102.062
102.062
102.062
102.062
102.062
102.062
102.062
102.062
102.062
102.062
102.062
102.062
102.062
102.062
102.062
102.062
102.062
102.062
102.062
102.062
102.062
102.062
102.062
102.062
102.062
102.062
102.062
102.062
102.062
102.062
102.062
102.062
102.062
102.062
102.062
102.062
102.062
102.062
102.062
102.062
102.062
102.062
102.062
102.062
102.062
102.062
102.062
102.062
102.062
102.062
102.062
102.062
102.062
102.062
102.062
102.062
102.062
102.062
102.062
102.062
102.062
102.062
102.062
102.062
102.062
102.062
102.062
102.062
102.062
102.062
102.062
102.062
102.062
102.062
102.062
102.062
102.062
102.062
102.062
102.062
102.062
102.062
102.062
102.062
102.062
102.062
102.062
102.062
102.062
102.062
102.062
102.062
102.062
102.062
102.062
102.062
102.062
102.062
102.062
102.062
102.062
102.062
102.062
102.062
102.062
102.062
102.062
102.062
102.062
102.062
102.062
102.062
102.062
102.062
102.062
102.062
102.062
102.062
102.062
102.062
102.062
102.062
102.062
102.062
102.062
102.062
102.062
102.062
102.062
102.062
102.062
102.062
102.062
102.062
102.062
102.062
102.062
102.062
102.062
102.062
102.062
102.062
102.062
102.062
102.062
102.062
102.062
102.062
102.062
102.062
102.062
102.062
102.062
102.062
102.062
102.062
102.062
102.062
102.062
102.062
102.062
102.062
102.062
102.062
102.062
102.062
102.062
102.062
102.062
102.062
102.062
102.062
102.062
102.062
102.062
102.062
102.062
102.062
102.062
102.062
102.062
102.062
102.062
102.062
102.062
102.062
102.062
102.062
102.062
102.062
102.062
102.062
102.062
102.062
102.062
102.062
102.062
102.062
102.062
102.062
102.062
102.062
102.062
102.062
102.062
102.062
102.062
102.062
102.062
102.062
102.062
102.062
102.062
102.062
102.062
102.062
102.062
102.062
102.062
102.062
102.062
102.062
102.062
102.062
102.062
102.062
102.062
102.062
102.062
102.062
102.062
102.062
102.062
102.062
102.062
102.062
102.062
102.062
102.062
102.062
102.062
102.062
102.062
102.062
102.062
102.062
102.062
102.062
102.062
102.062
102.062
102.062
102.062
102.062
102.062
102.062
102.062
102.062
102.062
102.062
102.062
102.062
102.062
102.062
102.062
102.062
102.062
102.062
102.062
102.062
102.062
102.062
102.062
102.062
102.062
102.062
102.062
102.062
102.062
102.062
102.062
102.062
102.062
102.062
102.062
102.062
102.062
102.062
102.062
102.062
102.062
102.062
102.062
102.062
102.062
102.062
102.062
102.062
102.062
102.062
102.062
102.062
102.062
102.062
102.062
102.062
102.062
102.062
102.062
102.062
102.062
102.062
102.062
102.062
102.062
102.062
102.062
102.062
102.062
102.062
102.062
102.062
102.062
102.062
102.062
102.062
102.062
102.062
102.062
102.062
102.062
102.062
102.062
102.062
102.062
102.062
102.062
102.062
102.062
102.062
102.062
102.062
102.062
102.062
102.062
102.062
102.062
102.062
102.062
102.062
102.062
102.062
102.062
102.062
102.062
102.062
102.062
102.062
102.062
102.062
102.062
102.062
102.062
102.062
102.062
102.062
102.062
102.062
102.062
102.062
102.062
102.062
102.062
102.062
102.062
102.062
102.062
102.062
102.062
102.062
102.062
102.062
102.062
102.062
102.062
102.062
102.062
102.062
102.062
102.062
102.062
102.062
102.062
102.062
102.062
102.062
102.062
102.062
102.062
102.062
102.062
102.062
102.062
102.062
102.062
102.062
102.062
102.062
102.062
102.062
102.062
102.062
102.062
102.062
102.062
102.062
102.062
102.062
102.062
102.062
102.062
102.062
102.062
102.062
102.062
102.062
102.062
102.062
102.062
102.062
102.062
102.062
102.062
102.062
102.062
102.062
102.062
102.062
102.062
102.062
102.062
102.062
102.062
102.062
102.062
102.062
102.062
102.062
102.062
102.062
102.062
102.062
102.062
102.062
102.062
102.062
102.062
102.062
102.062
102.062
102.062
102.062
102.062
102.062
102.062
102.062
102.062
102.062
102.062
102.062
102.062
102.062
102.062
102.062
102.062
102.062
102.062
102.062
102.062
102.062
102.062
102.062
102.062
102.062
102.062
102.062
102.062
102.062
102.062
102.062
102.062
102.062
102.062
102.062
102.062
102.062
102.062
102.062
102.062
102.062
102.062
102.062
102.062
102.062
102.062
102.062
102.062
102.062
102.062
102.062
102.062
102.062
102.062
102.062
102.062
102.062
102.062
102.062
102.062
102.062
102.062
102.062
102.062
102.062
102.062
102.062
102.062
102.062
102.062
102.062
102.062
102.062
102.062
102.062
102.062
102.062
102.062
102.062
102.062
102.062
102.062
102.062
102.062
102.062
102.062
102.062
102.062
102.062
102.062
102.062
102.062
102.062
102.062
102.062
102.062
102.062
102.062
102.062
102.062
102.062
102.062
102.062
102.062
102.062
102.062
102.062
102.062
102.062
102.062
102.062
102.062
102.062
102.062
102.062
102.062
102.062
102.062
102.062
102.062
102.062
102.062
102.062
102.062
102.062
102.062
102.062
102.062
102.062
102.062
102.062
102.062
102.062
102.062
102.062
102.062
102.062
102.062
102.062
102.062
102.062
102.062
102.062
102.062
102.062
102.062
102.062
102.062
102.062
102.062
102.062
102.062
102.062
102.062
102.062
102.062
102.062
102.062
102.062
102.062
102.062
102.062
102.062
102.062
102.062
102.062
102.062
102.062
102.062
102.062
102.062
102.062
102.062
102.062
102.062
102.062
102.062
102.062
102.062
102.062
102.062
102.062
102.062
102.062
102.062
102.062
102.062
102.062
102.062
102.062
102.062
102.062
102.062
102.062
102.062
102.062
102.062
102.062
102.062
102.062
102.062
102.062
102.062
102.062
102.062
102.062
102.062
102.062
102.062
102.062
102.062
102.062
102.062
102.062
102.062
102.062
102.062
102.062
102.062
102.062
102.062
102.062
102.062
102.062
102.062
102.062
102.062
102.062
102.062
102.062
102.062
102.062
102.062
102.062
102.062
102.062
102.062
102.062
102.062
102.062
102.062
102.062
102.062
102.062
102.062
102.062
102.062
102.062
102.062
102.062
102.062
102.062
102.062
102.062
102.062
102.062
102.062
102.062
102.062
102.062
102.062
102.062
102.062
102.062
102.062
102.062
102.062
102.062
102.062
102.062
102.062
102.062
