1823.833
1820.876
1817.919
1814.962
1812.005
1809.048
1806.091
1803.134
1800.177
1797.220
1794.263
1791.306
1788.349
1785.392
1782.435
1779.478
1776.521
1773.564
1770.607
1767.650
1764.693
1761.736
1758.779
1755.822
1752.865
1749.908
1746.951
1743.994
1741.037
1738.080
1735.123
1732.166
1729.209
1726.252
1723.295
1720.338
1717.381
1714.424
83.967
83.967
83.967
83.967
83.967
83.967
83.967
83.967
83.967
83.967
83.967
83.967
83.967
83.967
83.967
83.967
83.967
83.967
83.967
83.967
83.967
83.967
83.967
83.967
83.967
83.967
83.967
83.967
83.967
83.967
83.967
83.967
83.967
83.967
83.967
83.967
83.967
83.967
83.967
83.967
83.967
83.967
83.967
83.967
83.967
83.967
83.967
83.967
83.967
83.967
83.967
83.967
83.967
83.967
83.967
83.967
83.967
83.967
83.967
83.967
83.967
83.967
83.967
83.967
83.967
83.967
83.967
83.967
83.967
83.967
83.967
83.967
83.967
83.967
83.967
83.967
83.967
83.967
83.967
83.967
83.967
83.967
83.967
83.967
83.967
83.967
83.967
83.967
83.967
83.967
83.967
83.967
83.967
83.967
83.967
83.967
83.967
83.967
83.967
83.967
83.967
83.967
83.967
83.967
83.967
83.967
83.967
83.967
83.967
83.967
83.967
83.967
83.967
83.967
83.967
83.967
83.967
83.967
83.967
83.967
83.967
83.967
83.967
83.967
83.967
83.967
83.967
83.967
83.967
83.967
83.967
83.967
83.967
83.967
83.967
83.967
83.967
83.967
83.967
83.967
83.967
83.967
83.967
83.967
83.967
83.967
83.967
83.967
83.967
83.967
83.967
83.967
83.967
83.967
83.967
83.967
83.967
83.967
83.967
83.967
83.967
83.967
83.967
83.967
83.967
83.967
83.967
83.967
83.967
83.967
83.967
83.967
83.967
83.967
83.967
83.967
83.967
83.967
83.967
83.967
83.967
83.967
83.967
83.967
83.967
83.967
83.967
83.967
83.967
83.967
83.967
83.967
83.967
83.967
83.967
83.967
83.967
83.967
83.967
83.967
83.967
83.967
83.967
83.967
83.967
83.967
83.967
83.967
83.967
83.967
83.967
83.967
83.967
83.967
83.967
83.967
83.967
83.967
83.967
83.967
83.967
83.967
83.967
83.967
83.967
83.967
83.967
83.967
83.967
83.967
83.967
83.967
83.967
83.967
83.967
83.967
83.967
83.967
83.967
83.967
83.967
83.967
83.967
83.967
83.967
83.967
83.967
83.967
83.967
83.967
83.967
83.967
83.967
83.967
83.967
83.967
83.967
83.967
83.967
83.967
83.967
83.967
83.967
83.967
83.967
83.967
83.967
83.967
83.967
83.967
83.967
83.967
83.967
83.967
83.967
83.967
83.967
83.967
83.967
83.967
83.967
83.967
83.967
83.967
83.967
83.967
83.967
83.967
83.967
83.967
83.967
83.967
83.967
83.967
83.967
83.967
83.967
83.967
83.967
83.967
83.967
83.967
83.967
83.967
83.967
83.967
83.967
83.967
83.967
83.967
83.967
83.967
83.967
83.967
83.967
83.967
83.967
83.967
83.967
83.967
83.967
83.967
83.967
83.967
83.967
83.967
83.967
83.967
83.967
83.967
83.967
83.967
83.967
83.967
83.967
83.967
83.967
83.967
83.967
83.967
83.967
83.967
83.967
83.967
83.967
83.967
83.967
83.967
83.967
83.967
83.967
83.967
83.967
83.967
83.967
83.967
83.967
83.967
83.967
83.967
83.967
83.967
83.967
83.967
83.967
83.967
83.967
83.967
83.967
83.967
83.967
83.967
83.967
83.967
83.967
83.967
83.967
83.967
83.967
83.967
83.967
83.967
83.967
83.967
83.967
83.967
83.967
83.967
83.967
83.967
83.967
83.967
83.967
83.967
83.967
83.967
83.967
83.967
83.967
83.967
83.967
83.967
83.967
83.967
83.967
83.967
83.967
83.967
83.967
83.967
83.967
83.967
83.967
83.967
83.967
83.967
83.967
83.967
83.967
83.967
83.967
83.967
83.967
83.967
83.967
83.967
83.967
83.967
83.967
83.967
83.967
83.967
83.967
83.967
83.967
83.967
83.967
83.967
83.967
83.967
83.967
83.967
83.967
83.967
83.967
83.967
83.967
83.967
83.967
83.967
83.967
83.967
83.967
83.967
83.967
83.967
83.967
83.967
83.967
83.967
83.967
83.967
83.967
83.967
83.967
83.967
83.967
83.967
83.967
83.967
83.967
83.967
83.967
83.967
83.967
83.967
83.967
83.967
83.967
83.967
83.967
83.967
83.967
83.967
83.967
83.967
83.967
83.967
83.967
83.967
83.967
83.967
83.967
83.967
83.967
83.967
83.967
83.967
83.967
83.967
83.967
83.967
83.967
83.967
83.967
83.967
83.967
83.967
83.967
83.967
83.967
83.967
83.967
83.967
83.967
83.967
83.967
83.967
83.967
83.967
83.967
83.967
83.967
83.967
83.967
83.967
83.967
83.967
83.967
83.967
83.967
83.967
83.967
83.967
83.967
83.967
83.967
83.967
83.967
83.967
83.967
83.967
83.967
83.967
83.967
83.967
83.967
83.967
83.967
83.967
83.967
83.967
83.967
83.967
83.967
83.967
83.967
83.967
83.967
83.967
83.967
83.967
83.967
83.967
83.967
83.967
83.967
83.967
83.967
83.967
83.967
83.967
83.967
83.967
83.967
83.967
83.967
83.967
83.967
83.967
83.967
83.967
83.967
83.967
83.967
83.967
83.967
83.967
83.967
83.967
83.967
83.967
83.967
83.967
83.967
83.967
83.967
83.967
83.967
83.967
83.967
83.967
83.967
83.967
83.967
83.967
83.967
83.967
83.967
83.967
83.967
83.967
83.967
83.967
83.967
83.967
83.967
83.967
83.967
83.967
83.967
83.967
83.967
83.967
83.967
83.967
83.967
83.967
83.967
83.967
83.967
83.967
83.967
83.967
83.967
83.967
83.967
83.967
83.967
83.967
83.967
83.967
83.967
83.967
83.967
83.967
83.967
83.967
83.967
83.967
83.967
83.967
83.967
83.967
83.967
83.967
83.967
83.967
83.967
83.967
83.967
83.967
83.967
83.967
83.967
83.967
83.967
83.967
83.967
83.967
83.967
83.967
83.967
83.967
83.967
83.967
83.967
83.967
83.967
83.967
83.967
83.967
83.967
83.967
83.967
83.967
83.967
83.967
83.967
83.967
83.967
83.967
83.967
83.967
83.967
83.967
83.967
83.967
83.967
83.967
83.967
83.967
83.967
83.967
83.967
83.967
83.967
83.967
83.967
83.967
83.967
83.967
83.967
83.967
83.967
83.967
83.967
83.967
83.967
83.967
83.967
83.967
83.967
83.967
83.967
83.967
83.967
83.967
83.967
83.967
83.967
83.967
83.967
83.967
83.967
83.967
83.967
83.967
83.967
83.967
83.967
83.967
83.967
83.967
83.967
83.967
83.967
83.967
83.967
83.967
83.967
83.967
83.967
83.967
83.967
83.967
83.967
83.967
83.967
83.967
83.967
83.967
83.967
83.967
83.967
83.967
83.967
83.967
83.967
83.967
83.967
83.967
83.967
83.967
83.967
83.967
83.967
83.967
83.967
83.967
83.967
83.967
83.967
83.967
83.967
83.967
83.967
83.967
83.967
83.967
83.967
83.967
83.967
83.967
83.967
83.967
83.967
83.967
83.967
83.967
83.967
83.967
83.967
83.967
83.967
83.967
83.967
83.967
83.967
83.967
83.967
83.967
83.967
83.967
83.967
83.967
83.967
83.967
83.967
83.967
83.967
83.967
83.967
83.967
83.967
83.967
83.967
83.967
83.967
83.967
83.967
83.967
83.967
83.967
83.967
83.967
83.967
83.967
83.967
83.967
83.967
83.967
83.967
83.967
83.967
83.967
83.967
83.967
83.967
83.967
83.967
83.967
83.967
83.967
83.967
83.967
83.967
83.967
83.967
83.967
83.967
83.967
83.967
83.967
83.967
83.967
83.967
83.967
83.967
83.967
83.967
83.967
83.967
83.967
83.967
83.967
83.967
83.967
83.967
83.967
83.967
83.967
83.967
83.967
83.967
83.967
83.967
83.967
83.967
83.967
83.967
83.967
83.967
83.967
83.967
83.967
83.967
83.967
83.967
83.967
83.967
83.967
83.967
83.967
83.967
83.967
83.967
83.967
83.967
83.967
83.967
83.967
83.967
83.967
83.967
83.967
83.967
83.967
83.967
83.967
83.967
83.967
83.967
83.967
83.967
83.967
83.967
83.967
83.967
83.967
83.967
83.967
83.967
83.967
83.967
83.967
83.967
83.967
83.967
83.967
83.967
83.967
83.967
83.967
83.967
83.967
83.967
83.967
83.967
83.967
83.967
83.967
83.967
83.967
83.967
83.967
83.967
83.967
83.967
83.967
83.967
83.967
83.967
83.967
83.967
83.967
83.967
83.967
83.967
83.967
83.967
83.967
83.967
83.967
83.967
83.967
83.967
83.967
83.967
83.967
83.967
83.967
83.967
83.967
83.967
83.967
83.967
83.967
83.967
83.967
83.967
83.967
83.967
83.967
83.967
83.967
83.967
83.967
83.967
83.967
83.967
83.943
83.918
83.894
83.869
83.845
83.820
83.796
83.771
83.747
83.722
83.698
83.673
83.649
83.624
83.600
83.575
83.551
83.526
83.502
83.477
83.453
83.428
83.404
83.379
83.355
83.330
83.306
83.281
83.257
83.232
83.208
83.183
83.159
83.134
83.110
83.085
83.061
83.036
83.012
82.987
82.963
82.938
82.914
82.889
82.865
82.840
82.816
82.791
82.767
82.742
82.718
82.693
82.669
82.644
82.620
82.595
82.571
82.546
82.522
82.497
82.473
82.448
82.424
82.399
82.375
82.350
82.326
82.301
82.277
82.252
82.228
82.203
82.179
82.154
82.130
82.105
82.081
82.056
82.032
82.007
81.983
81.958
81.934
81.909
81.885
81.860
81.836
81.811
81.787
81.762
81.738
81.713
81.689
81.664
81.640
81.615
81.591
81.566
81.542
81.517
81.493
81.468
81.444
81.419
81.395
81.370
81.346
81.321
81.297
81.272
81.248
81.223
81.199
81.174
81.150
81.125
81.101
81.076
81.052
81.027
81.003
80.978
80.954
80.929
80.905
80.880
80.856
80.831
80.807
80.782
80.758
80.733
80.709
80.684
80.660
80.635
80.611
80.586
80.562
80.537
80.513
80.488
80.464
80.439
80.415
80.390
80.366
80.341
80.317
80.292
80.268
80.243
80.219
80.194
80.170
80.145
80.121
80.096
80.072
80.047
80.023
79.998
79.974
79.949
79.925
79.900
79.876
79.851
79.827
79.802
79.778
79.753
79.729
79.704
79.680
79.655
79.631
79.606
79.582
79.557
79.533
79.508
79.484
79.459
79.435
79.410
79.386
79.361
79.337
79.312
79.288
79.263
79.239
79.214
79.190
79.165
79.141
79.116
79.092
79.067
79.140
79.213
79.286
79.359
79.432
79.505
79.578
79.651
79.724
79.797
79.870
79.943
80.016
80.089
80.162
80.235
80.308
80.381
80.454
80.527
80.600
80.673
80.746
80.819
80.892
80.965
81.038
81.111
81.184
81.257
81.330
81.403
81.476
81.549
81.622
81.695
81.768
81.841
81.914
81.987
82.060
82.133
82.206
82.279
82.352
82.425
82.498
82.571
82.644
82.717
82.790
82.863
82.936
83.009
83.082
83.155
83.228
83.301
83.374
83.447
83.520
83.593
83.666
83.739
83.812
83.885
83.958
84.031
84.104
84.177
84.250
84.323
84.396
84.469
84.542
84.615
84.688
84.761
84.834
84.907
84.980
85.053
85.126
85.199
85.272
85.345
85.418
85.491
85.564
85.637
85.710
85.783
85.856
85.929
86.002
86.075
86.148
86.221
86.294
86.367
86.440
86.513
86.586
86.659
86.732
86.805
86.878
86.951
87.024
87.097
87.170
87.243
87.316
87.389
87.462
87.535
87.608
87.681
87.754
87.827
87.900
87.973
88.046
88.119
88.192
88.265
88.338
88.411
88.484
88.557
88.630
88.703
88.776
88.849
88.922
88.995
89.068
89.141
89.214
89.287
89.360
89.433
89.506
89.579
89.652
89.725
89.798
89.871
89.944
90.017
90.090
90.163
90.236
90.309
90.382
90.455
90.528
90.601
90.674
90.747
90.820
90.893
90.966
91.039
91.112
91.185
91.258
91.331
91.404
91.477
91.550
91.623
91.696
91.769
91.842
91.915
91.988
92.061
92.134
92.207
92.280
92.353
92.426
92.499
92.572
92.645
92.718
92.791
92.864
92.937
93.010
93.083
93.156
93.229
93.302
93.375
93.448
93.521
93.594
93.667
93.619
93.570
93.522
93.473
93.425
93.376
93.328
93.279
93.231
93.182
93.134
93.085
93.037
92.988
92.940
92.891
92.843
92.794
92.746
92.697
92.649
92.600
92.552
92.503
92.455
92.406
92.358
92.309
92.261
92.212
92.164
92.115
92.067
92.018
91.970
91.921
91.873
91.824
91.776
91.727
91.679
91.630
91.582
91.533
91.485
91.436
91.388
91.339
91.291
91.242
91.194
91.145
91.097
91.048
91.000
90.951
90.903
90.854
90.806
90.757
90.709
90.660
90.612
90.563
90.515
90.466
90.418
90.369
90.321
90.272
90.224
90.175
90.127
90.078
90.030
89.981
89.933
89.884
89.836
89.787
89.739
89.690
89.642
89.593
89.545
89.496
89.448
89.399
89.351
89.302
89.254
89.205
89.157
89.108
89.060
89.011
88.963
88.914
88.866
88.817
88.769
88.720
88.672
88.623
88.575
88.526
88.478
88.429
88.381
88.332
88.284
88.235
88.187
88.138
88.090
88.041
87.993
87.944
87.896
87.847
87.799
87.750
87.702
87.653
87.605
87.556
87.508
87.459
87.411
87.362
87.314
87.265
87.217
87.168
87.120
87.071
87.023
86.974
86.926
86.877
86.829
86.780
86.732
86.683
86.635
86.586
86.538
86.489
86.441
86.392
86.344
86.295
86.247
86.198
86.150
86.101
86.053
86.004
85.956
85.907
85.859
85.810
85.762
85.713
85.665
85.616
85.568
85.519
85.471
85.422
85.374
85.325
85.277
85.228
85.180
85.131
85.083
85.034
84.986
84.937
84.889
84.840
84.792
84.743
84.695
84.646
84.598
84.549
84.501
84.452
84.404
84.355
84.307
84.258
84.210
84.161
84.113
84.064
84.016
83.967
83.967
83.967
83.967
83.967
83.967
83.967
83.967
83.967
83.967
83.967
83.967
83.967
83.967
83.967
83.967
83.967
83.967
83.967
83.967
83.967
83.967
83.967
83.967
83.967
83.967
83.967
83.967
83.967
83.967
83.967
83.967
83.967
83.967
83.967
83.967
83.967
83.967
83.967
83.967
83.967
83.967
83.967
83.967
83.967
83.967
83.967
83.967
83.967
83.967
83.967
83.967
83.967
83.967
83.967
83.967
83.967
83.967
83.967
83.967
83.967
83.967
83.967
83.967
83.967
83.967
83.967
83.967
83.967
83.967
83.967
83.967
83.967
83.967
83.967
83.967
83.967
83.967
83.967
83.967
83.967
83.967
83.967
83.967
83.967
83.967
83.967
83.967
83.967
83.967
83.967
83.967
83.967
83.967
83.967
83.967
83.967
83.967
83.967
83.967
83.967
83.967
83.967
83.967
83.967
83.967
83.967
83.967
83.967
83.967
83.967
83.967
83.967
83.967
83.967
83.967
83.967
83.967
83.967
83.967
83.967
83.967
83.967
83.967
83.967
83.967
83.967
83.967
83.967
83.967
83.967
83.967
83.967
83.967
83.967
83.967
83.967
83.967
83.967
83.967
83.967
83.967
83.967
83.967
83.967
83.967
83.967
83.967
83.967
83.967
83.967
83.967
83.967
83.967
83.967
83.967
83.967
83.967
83.967
83.967
83.967
83.967
83.967
83.967
83.967
83.967
83.967
83.967
83.967
83.967
83.967
83.967
83.967
83.967
83.967
83.967
83.967
83.967
83.967
83.967
83.967
83.967
83.967
83.967
83.967
83.967
83.967
83.967
83.967
83.967
83.967
83.967
83.967
83.967
83.967
83.967
83.967
83.967
83.967
83.967
83.967
83.967
83.967
83.967
83.967
83.967
83.967
83.967
83.967
83.967
83.967
83.967
83.967
83.967
83.967
83.967
83.967
83.967
83.967
83.967
83.967
83.967
83.967
83.967
83.967
83.967
83.967
83.967
83.967
83.967
83.967
83.967
83.967
83.967
83.967
83.967
83.967
83.967
83.967
83.967
83.967
83.967
83.967
83.967
83.967
83.967
83.967
83.967
83.967
83.967
83.967
83.967
83.967
83.967
83.967
83.967
83.967
83.967
83.967
83.967
83.967
83.967
83.967
83.967
83.967
83.967
83.967
83.967
83.967
83.967
83.967
83.967
83.967
83.967
83.967
83.967
83.967
83.967
83.967
83.967
83.967
83.967
83.967
83.967
83.967
83.967
83.967
83.967
83.967
83.967
83.967
83.967
83.967
83.967
83.967
83.967
83.967
83.967
83.967
83.967
83.967
83.967
83.967
83.967
83.967
83.967
83.967
83.967
83.967
83.967
83.967
83.967
83.967
83.967
83.967
83.967
83.967
83.967
83.967
83.967
83.967
83.967
83.967
83.967
83.967
83.967
83.967
83.967
83.967
83.967
83.967
83.967
83.967
83.967
83.967
83.967
83.967
83.967
83.967
83.967
83.967
83.967
83.967
83.967
83.967
83.967
83.967
83.967
83.967
83.967
83.967
83.967
83.967
83.967
83.967
83.967
83.967
83.967
83.967
83.967
83.967
83.967
