1749.113
1745.520
1741.928
1738.335
1734.743
1731.150
1727.558
1723.965
1720.373
1716.780
1713.188
1709.595
1706.003
1702.410
1698.818
1695.225
1691.633
1688.040
1684.448
1680.855
1677.263
1673.670
1670.078
1666.485
1662.893
1659.300
1655.708
1652.115
1648.523
1644.930
1641.338
1637.745
1634.153
1630.560
1626.968
1623.375
1619.783
1616.190
1612.598
1609.005
1605.413
1601.820
1598.228
1594.635
1591.043
1587.450
1583.858
1580.265
1576.673
1573.080
1569.488
1565.895
1567.655
1569.414
1571.174
1572.933
1574.693
1576.452
1578.212
1579.971
1581.731
1583.490
1585.250
1587.009
1588.769
1590.528
1592.288
1594.047
1595.807
1597.566
1599.326
1601.085
1602.845
1604.604
1606.364
1608.123
1609.883
1611.642
1613.402
1615.161
1616.921
1618.680
1620.440
1622.199
1623.959
1625.718
1627.478
1629.237
1630.997
1632.756
1634.516
1636.275
1638.035
1639.794
1641.554
1643.313
1645.073
1646.832
1648.592
1650.351
1652.111
1653.870
1655.630
1657.389
1659.149
1660.908
1662.668
1664.427
1666.187
1667.946
1669.706
1671.465
1673.225
1674.984
1676.744
1678.503
1680.263
1682.022
1683.782
1685.541
1687.301
1689.060
1690.820
1692.579
1694.339
1696.098
1697.858
1699.617
1701.377
1703.136
1704.896
1706.655
1708.415
1710.174
1711.934
1713.693
1715.453
1717.212
1718.972
1720.731
1722.491
1724.250
1726.010
1727.769
1729.529
1731.288
1733.048
1734.807
1736.567
1738.326
1740.086
1741.845
1743.605
1745.364
1747.124
1748.883
1750.643
1752.402
1754.162
1755.921
1757.681
1759.440
1761.200
1762.959
1764.719
1766.478
1768.238
1769.997
1771.757
1773.516
1775.276
1777.035
1778.795
1780.554
1782.314
1784.073
1785.833
1787.592
1789.352
1791.111
1792.871
1794.630
1796.390
1798.149
1799.909
1801.668
1803.428
1805.187
1806.947
1808.706
1810.466
1812.225
1813.985
1815.744
1817.504
1819.263
1821.023
1822.782
1824.542
1826.301
1828.061
1829.820
1831.580
1833.339
1835.099
1836.858
1838.618
1840.377
1842.137
1843.896
1845.656
1847.415
1849.175
1850.934
1852.694
1854.453
1856.213
1857.972
1859.732
1861.491
1863.251
1865.010
1866.770
1868.529
1870.289
1872.048
1873.808
1875.567
1877.327
1879.086
1880.846
1882.605
1884.365
1886.124
1887.884
1889.643
1891.403
1893.162
1894.922
1896.681
1898.441
1900.200
1901.960
1903.719
1905.479
1907.238
1908.998
1910.757
1912.517
1914.276
1916.036
1917.795
1914.276
1910.757
1907.238
1903.719
1900.200
1896.681
1893.162
1889.643
1886.124
1882.605
1879.086
1875.567
1872.048
1868.529
1865.010
1861.491
1857.972
1854.453
1850.934
1847.415
1843.896
1840.377
1836.858
1833.339
1829.820
1826.301
1822.782
1819.263
1815.744
1812.225
1808.706
1805.187
1801.668
1798.149
1794.630
1791.111
1787.592
1784.073
1780.554
1777.035
1773.516
1769.997
1766.478
1762.959
1759.440
1755.921
1752.402
1748.883
1745.364
1741.845
1738.326
1734.807
1731.288
1727.769
1724.250
1720.731
1717.212
1713.693
1710.174
1706.655
1703.136
1699.617
1696.098
1692.579
1689.060
1685.541
1682.022
1678.503
1674.984
1671.465
1667.946
1664.427
1660.908
1657.389
1653.870
1650.351
1646.832
1643.313
1639.794
1636.275
1632.756
1629.237
1625.718
1622.199
1618.680
1615.161
1611.642
1608.123
1604.604
1601.085
1597.566
1594.047
1590.528
1587.009
1583.490
1579.971
1576.452
1572.933
1569.414
1565.895
1562.376
1558.857
1555.338
1551.819
1548.300
1544.781
1541.262
1537.743
1534.224
1530.705
1527.186
1523.667
1520.148
1516.629
1513.110
1509.591
1506.072
1502.553
1499.034
1495.515
1491.996
1488.477
1484.958
1481.439
1477.920
1474.401
1470.882
1467.363
1463.844
1460.325
1456.806
1453.287
1449.768
1446.249
1442.730
1439.211
1435.692
1432.173
1428.654
1425.135
1421.616
1418.097
1414.578
1411.059
1407.540
1404.021
1400.502
1396.983
1393.464
1389.945
1386.426
1382.907
1379.388
1375.869
1372.350
1368.831
1365.312
1361.793
1358.274
1354.755
1351.236
1347.717
1344.198
1340.679
1337.160
1333.641
1330.122
1326.603
1323.084
1319.565
1316.046
1312.527
1309.008
1305.489
1301.970
1298.451
1294.932
1291.413
1287.894
1284.375
1280.856
1277.337
1273.818
1270.299
1266.780
1263.261
1259.742
1256.223
1252.704
1249.185
1245.666
1242.147
1238.628
1235.109
1231.590
1228.071
1224.552
1221.033
1217.514
1213.995
1209.156
1204.317
1199.478
1194.639
1189.800
1184.961
1180.122
1175.283
1170.444
1165.605
1160.766
1155.927
1151.088
1146.249
1141.410
1136.571
1131.732
1126.893
1122.054
1117.215
1112.376
1107.537
1102.698
1097.859
1093.020
1088.181
1083.342
1078.503
1073.664
1068.825
1063.986
1059.147
1054.308
1049.469
1044.630
1039.791
1034.952
1030.113
1025.274
1020.435
1015.596
1010.757
1005.918
1001.079
996.240
991.401
986.562
981.723
976.884
972.045
967.206
962.367
957.528
952.689
947.850
943.011
938.172
933.333
928.494
923.655
918.816
913.977
909.138
904.299
899.460
894.621
889.782
884.943
880.104
875.265
870.426
865.587
860.748
855.909
851.070
846.231
841.392
836.553
831.714
826.875
822.036
817.197
812.358
807.519
802.680
797.841
793.002
788.163
783.324
778.485
773.646
768.807
763.968
759.129
754.290
749.451
744.612
739.773
734.934
730.095
725.256
720.417
715.578
710.739
705.900
701.061
696.222
691.383
686.544
681.705
676.866
672.027
667.188
662.349
657.510
652.671
647.832
642.993
638.154
633.315
628.476
623.637
618.798
613.959
609.120
604.281
599.442
594.603
589.764
584.925
580.086
575.247
570.408
565.569
560.730
555.891
551.052
546.213
541.374
536.535
531.696
526.857
522.018
517.179
512.340
507.501
502.662
497.823
492.984
488.145
483.306
478.467
473.628
468.789
463.950
459.111
454.272
449.433
444.594
439.755
434.916
430.077
425.238
420.399
415.560
410.721
405.882
401.043
396.204
391.365
386.526
381.687
376.848
372.009
367.170
362.331
357.492
352.653
347.814
342.975
338.136
333.297
328.458
323.619
318.780
313.941
309.102
304.263
299.424
294.585
289.746
284.907
280.068
275.229
270.390
265.551
260.712
255.873
251.034
80.095
80.095
80.095
80.095
80.095
80.095
80.095
80.095
80.095
80.095
80.095
80.095
80.095
80.095
80.095
80.095
80.095
80.095
80.095
80.095
80.095
80.095
80.095
80.095
80.095
80.095
80.095
80.095
80.095
80.095
80.095
80.095
80.095
80.095
80.095
80.095
80.095
80.095
80.095
80.095
80.095
80.095
80.095
80.095
80.095
80.095
80.095
80.095
80.095
80.095
80.095
80.095
80.095
80.095
80.095
80.095
80.095
80.095
80.095
80.095
80.095
80.095
80.095
80.095
80.095
80.095
80.095
80.095
80.095
80.095
80.095
80.095
80.095
80.095
80.095
80.095
80.095
80.095
80.095
80.095
80.095
80.095
80.095
80.095
80.095
80.095
80.095
80.095
80.095
80.095
80.095
80.095
80.095
80.095
80.095
80.095
80.095
80.095
80.095
80.095
80.095
80.095
80.095
80.095
80.095
80.095
80.095
80.095
80.095
80.095
80.095
80.095
80.095
80.095
80.095
80.095
80.095
80.095
80.095
80.095
80.095
80.095
80.095
80.095
80.095
80.095
80.095
80.095
80.095
80.095
80.095
80.095
80.095
80.095
80.095
80.095
80.095
80.095
80.095
80.095
80.095
80.095
80.095
80.095
80.095
80.095
80.095
80.095
80.095
80.095
80.095
80.095
80.095
80.095
80.095
80.095
80.095
80.095
80.095
80.095
80.095
80.095
80.095
80.095
80.095
80.095
80.095
80.095
80.095
80.095
80.095
80.095
80.095
80.095
80.095
80.095
80.095
80.095
80.095
80.095
80.095
80.095
80.095
80.095
80.095
80.095
80.095
80.095
80.095
80.095
80.095
80.095
80.095
80.095
80.095
80.095
80.095
80.095
80.095
80.095
80.095
80.095
80.095
80.095
80.095
80.095
80.095
80.095
80.095
80.095
80.095
80.095
80.095
80.095
80.095
80.095
80.095
80.095
80.095
80.095
80.095
80.095
80.095
80.095
80.095
80.095
80.095
80.095
80.095
80.095
80.095
80.095
80.095
80.095
80.095
80.095
80.095
80.095
80.095
80.095
80.095
80.095
80.095
80.095
80.095
80.095
80.095
80.095
80.095
80.095
80.095
80.095
80.095
80.095
80.095
80.095
80.095
80.095
80.095
80.095
80.095
80.095
80.095
80.095
80.095
80.095
80.095
80.095
80.095
80.095
80.095
80.095
80.095
80.095
80.095
80.095
80.095
80.095
80.095
80.095
80.095
80.095
80.095
80.095
80.095
80.095
80.095
80.095
80.095
80.095
80.095
80.095
80.095
80.095
80.095
80.095
80.095
80.095
80.095
80.095
80.095
80.095
80.095
80.095
80.095
80.095
80.095
80.095
80.095
80.095
80.095
80.095
80.095
80.095
80.095
80.095
80.095
80.095
80.095
80.095
80.095
80.095
80.095
80.095
80.095
80.095
80.095
80.095
80.095
80.095
80.095
80.095
80.095
80.095
80.095
80.095
80.095
80.095
80.095
80.095
80.095
80.095
80.095
80.095
80.095
80.095
80.095
80.095
80.095
80.095
80.095
80.095
80.095
80.095
80.095
80.095
80.095
80.095
80.095
80.095
80.095
80.095
80.095
80.095
80.095
80.095
80.095
80.095
80.095
80.095
80.095
80.095
80.095
80.095
80.095
80.095
80.095
80.095
80.095
80.095
80.095
80.095
80.095
80.095
80.095
80.095
80.095
80.095
80.095
80.095
80.095
80.095
80.095
80.095
80.095
80.095
80.095
80.095
80.095
80.095
80.095
80.095
80.095
80.095
80.095
80.095
80.095
80.095
80.095
80.095
80.095
80.095
80.095
80.095
80.095
80.095
80.095
80.095
80.095
80.095
80.095
80.095
80.095
80.095
80.095
80.095
80.095
80.095
80.095
80.095
80.095
80.095
80.095
80.095
80.095
80.095
80.095
80.095
80.095
80.095
80.095
80.095
80.095
80.095
80.095
80.095
80.095
80.095
80.095
80.095
80.095
80.095
80.095
80.095
80.095
80.095
80.095
80.095
80.095
80.095
80.095
80.095
80.095
80.095
80.095
80.095
80.095
80.095
80.095
80.095
80.095
80.095
80.095
80.095
80.095
80.095
80.095
80.095
80.095
80.095
80.095
80.095
80.095
80.095
80.095
80.095
80.095
80.095
80.095
80.095
80.095
80.095
80.095
80.095
80.095
80.095
80.095
80.095
80.095
80.095
80.095
80.095
80.095
80.095
80.095
80.095
80.095
80.095
80.095
80.095
80.095
80.095
80.095
80.095
80.095
80.095
80.095
80.095
80.095
80.095
80.095
80.095
80.095
80.095
80.095
80.095
80.095
80.095
80.095
80.095
80.095
80.095
80.095
80.095
80.095
80.095
80.095
80.095
80.095
80.095
80.095
80.095
80.095
80.095
80.095
80.095
80.095
80.095
80.095
80.095
80.095
80.095
80.095
80.095
80.095
80.095
80.095
80.095
80.095
80.095
80.095
80.095
80.095
80.095
80.095
80.095
80.095
80.095
80.095
80.095
80.095
80.095
80.095
80.095
80.095
80.095
80.095
80.095
80.095
80.095
80.095
80.095
80.095
80.095
80.095
80.095
80.095
80.095
80.095
80.095
80.095
80.095
80.095
80.095
80.095
80.095
80.095
80.095
80.095
80.095
80.095
80.095
80.095
80.095
80.095
80.095
80.095
80.095
80.095
80.095
80.095
80.095
80.095
80.095
80.095
80.095
80.095
80.095
80.095
80.095
80.095
80.095
80.095
80.095
80.095
80.095
80.095
80.095
80.095
80.095
80.095
80.095
80.095
80.095
80.095
80.095
80.095
80.095
80.095
80.095
80.095
80.095
80.095
80.095
80.095
80.095
80.095
80.095
80.095
80.095
80.095
80.095
80.095
80.095
80.095
80.095
80.095
80.095
80.095
80.095
80.095
80.095
80.095
80.095
80.095
80.095
80.095
80.095
80.095
80.095
80.095
80.095
80.095
80.095
80.095
80.095
80.095
80.095
80.095
80.095
80.095
80.095
80.095
80.095
80.095
80.095
80.095
80.095
80.095
80.095
80.095
80.095
80.095
80.095
80.095
80.095
80.095
80.095
80.095
80.095
80.095
80.095
80.095
80.095
80.095
80.095
80.095
80.095
80.095
80.095
80.095
80.095
80.095
80.095
80.095
80.095
80.095
80.095
80.095
80.095
80.095
80.095
80.095
80.095
80.095
80.095
80.095
80.095
80.095
80.095
80.095
80.095
80.095
80.095
80.095
80.095
80.095
80.095
80.095
80.095
80.095
80.095
80.095
80.095
80.095
80.095
80.095
80.095
80.095
80.095
80.095
80.095
80.095
80.095
80.095
80.095
80.095
80.095
80.095
80.095
80.095
80.095
80.095
80.095
80.095
80.095
80.095
80.095
80.095
80.095
80.095
80.095
80.095
80.095
80.095
80.095
80.095
80.095
80.095
80.095
80.095
80.095
80.095
80.095
80.095
80.095
80.095
80.095
80.095
80.095
80.095
80.095
80.095
80.095
80.095
80.095
80.095
80.095
80.095
80.095
80.095
80.095
80.095
80.095
80.095
80.095
80.095
80.095
80.095
80.095
80.095
80.095
80.095
80.095
80.095
80.095
80.095
80.095
80.095
80.095
80.095
80.095
80.095
80.095
80.095
80.095
80.095
80.095
80.095
80.095
80.095
80.095
80.095
80.095
80.095
80.095
80.095
80.095
80.095
80.095
80.095
80.095
80.095
80.095
80.095
80.095
80.095
80.095
80.095
80.095
80.095
80.095
80.095
80.095
80.095
80.095
80.095
80.095
80.095
80.095
80.095
80.095
80.095
80.095
80.095
80.095
80.095
80.095
80.095
80.095
80.095
80.095
80.095
80.095
80.095
80.095
80.095
80.095
80.095
80.095
80.095
80.095
80.095
80.095
80.095
80.095
80.095
80.095
80.095
80.095
80.095
80.095
80.095
80.095
80.095
80.095
80.095
80.095
80.095
80.095
80.095
80.095
80.095
80.095
80.095
80.095
80.095
80.095
80.095
80.095
80.095
80.095
80.095
80.095
80.095
80.095
80.095
80.095
80.095
80.095
80.095
80.095
80.095
80.095
80.095
80.095
80.095
80.095
80.095
80.095
80.095
80.095
80.095
80.095
80.095
80.095
80.095
80.095
80.095
80.095
80.095
80.095
80.095
80.095
80.095
80.095
80.095
80.095
80.095
80.095
80.095
80.095
80.095
80.095
80.095
80.095
80.095
80.095
80.095
80.095
80.095
80.095
80.095
80.095
80.095
80.095
80.095
80.095
80.095
80.095
80.095
80.095
80.095
80.095
80.095
80.095
80.095
80.095
80.095
80.095
80.095
80.095
80.095
80.095
80.095
80.095
80.095
80.095
80.095
80.095
80.095
80.095
80.095
80.095
80.095
80.095
80.095
80.095
80.095
80.095
80.095
80.095
80.095
80.095
80.095
80.095
80.095
80.095
80.095
80.095
80.095
80.095
80.095
80.095
80.095
80.095
80.095
80.095
80.095
80.095
80.095
80.095
80.095
80.095
80.095
80.095
80.095
80.095
80.095
80.095
80.095
80.095
80.095
80.095
80.095
80.095
80.095
80.095
80.095
80.095
80.095
80.095
80.095
80.095
80.095
80.095
80.095
80.095
80.095
80.095
80.095
80.095
80.095
80.095
80.095
80.095
80.095
80.095
80.095
80.095
80.095
80.095
80.095
80.095
80.095
80.095
80.095
80.095
80.095
80.095
80.095
80.095
80.095
80.095
80.095
80.095
80.095
80.095
80.095
80.095
80.095
80.095
80.095
80.095
80.095
80.095
80.095
80.095
80.095
80.095
80.095
80.095
80.095
80.095
80.095
80.095
80.095
80.095
80.095
80.095
80.095
80.095
80.095
80.095
80.095
80.095
80.095
80.095
80.095
80.095
80.095
80.095
80.095
80.095
80.095
80.095
80.095
80.095
80.095
80.095
80.095
80.095
80.095
80.095
80.095
80.095
80.095
80.095
80.095
80.095
80.095
80.095
80.095
80.095
80.095
80.095
80.095
80.095
80.095
80.095
80.095
80.095
80.095
80.095
80.095
80.095
80.095
80.095
80.095
80.095
80.095
80.095
80.095
80.095
80.095
80.095
80.095
80.095
80.095
80.095
80.095
80.095
80.095
80.095
80.095
80.095
80.095
80.095
80.095
80.095
80.095
80.095
80.095
80.095
80.095
80.095
80.095
80.095
80.095
80.095
80.095
80.095
80.095
80.095
80.095
80.095
80.095
80.095
80.095
80.095
80.095
80.095
80.095
80.095
80.095
80.095
80.095
80.095
80.095
80.095
80.095
80.095
80.095
80.095
80.095
80.095
80.095
80.095
80.095
80.095
80.095
80.095
80.095
80.095
80.095
80.095
80.095
80.095
80.095
80.095
80.095
80.095
80.095
80.095
80.095
80.095
80.095
80.095
80.095
80.095
80.095
80.095
80.095
80.095
80.095
80.095
80.095
80.095
80.095
80.095
80.095
80.095
80.095
80.095
80.095
80.095
80.095
80.095
80.095
80.095
80.095
80.095
80.095
80.095
80.095
80.095
80.095
80.095
80.095
80.095
80.095
80.095
80.095
80.095
80.095
80.095
80.095
80.095
80.095
80.095
80.095
80.095
80.095
80.095
80.095
80.095
80.095
80.095
80.095
80.095
80.095
80.095
80.095
80.095
80.095
80.095
80.095
80.095
80.095
80.095
80.095
80.095
80.095
80.095
80.095
80.095
80.095
80.095
80.095
80.095
80.095
80.095
80.095
80.095
80.095
80.095
80.095
80.095
80.095
80.095
80.095
80.095
80.095
80.095
80.095
80.095
80.095
80.095
80.095
80.095
80.095
80.095
80.095
80.095
80.095
80.095
80.095
80.095
80.095
80.095
80.095
80.095
80.095
80.095
80.095
80.095
80.095
80.095
80.095
80.095
80.095
80.095
80.095
80.095
80.095
80.095
80.095
80.095
80.095
