1104.397
1109.309
1114.221
1119.133
1124.045
1128.957
1133.869
1138.781
1143.693
1148.605
1153.517
1158.429
1163.341
1168.253
1173.165
1178.077
1182.989
1187.901
1192.813
1197.725
1202.637
1207.549
1212.461
1217.373
1222.285
1227.197
1232.109
1237.021
1241.933
1246.845
1251.757
1256.669
1261.581
1266.493
1271.405
1276.317
1281.229
1286.141
1291.053
1295.965
1300.877
1305.789
1310.701
1315.613
1320.525
1325.437
1330.349
1335.261
1340.173
1345.085
1349.997
1354.909
1359.821
1364.733
1369.645
1374.557
1379.469
1384.381
1389.293
1394.205
1399.117
1404.029
1408.941
1413.853
1418.765
1423.677
1428.589
1433.501
1438.413
1443.325
1448.237
1453.149
1458.061
1462.973
1467.885
1470.353
1472.821
1475.289
1477.757
1480.225
1482.693
1485.161
1487.629
1490.097
1492.565
1495.033
1497.501
1499.969
1502.437
1504.905
1507.373
1509.841
1512.309
1514.777
1517.245
1519.713
1522.181
1524.649
1527.117
1529.585
1532.053
1534.521
1536.989
1539.457
1541.925
1544.393
1546.861
1549.329
1551.797
1554.265
1556.733
1559.201
1561.669
1564.137
1566.605
1569.073
1571.541
1574.009
1576.477
1578.945
1581.413
1583.881
1586.349
1588.817
1591.285
1593.753
1596.221
1598.689
1601.157
1603.625
1606.093
1608.561
1611.029
1613.497
1615.965
1618.433
1620.901
1623.369
1625.837
1628.305
1630.773
1633.241
1635.709
1638.177
1640.645
1643.113
1645.581
1648.049
1650.517
1652.985
1655.453
1657.921
1660.389
1662.857
1665.325
1667.793
1670.261
1672.729
1675.197
1677.665
1680.133
1682.601
1685.069
1687.537
1690.005
1692.473
1694.941
1697.409
1699.877
1702.345
1704.813
1707.281
1709.749
1712.217
1714.685
1717.153
1719.621
1722.089
1724.557
1727.025
1729.493
1731.961
1734.429
1736.897
1739.365
1741.833
1744.301
1746.769
1749.237
1751.705
1754.173
1756.641
1759.109
1761.577
1764.045
1766.513
1768.981
1771.449
1773.917
1776.385
1778.853
1781.321
1783.789
1786.257
1788.725
1791.193
1793.661
1796.129
1798.597
1801.065
1803.533
1806.001
1808.469
1810.937
1813.405
1815.873
1818.341
1820.809
1823.277
1825.745
1828.213
1830.681
1833.149
1835.617
1838.085
1840.553
1843.021
1845.489
1847.957
1850.425
1852.893
1855.361
1857.829
1860.297
1862.765
1865.233
1867.701
1870.169
1872.637
1875.105
1877.573
1880.041
1882.509
1884.977
1887.445
1889.913
1892.381
1894.849
1897.317
1899.785
1902.253
1904.721
1907.189
1909.657
1912.125
1914.593
1917.061
1919.529
1921.997
1924.465
1926.933
1929.401
1931.869
1934.337
1936.805
1939.273
1941.741
1944.209
1946.677
1949.145
1951.613
1954.081
1956.549
1959.017
1961.485
1961.069
1960.654
1960.238
1959.823
1959.407
1958.992
1958.576
1958.161
1957.745
1957.330
1956.914
1956.499
1956.083
1955.668
1955.252
1954.837
1954.421
1954.006
1953.590
1953.175
1952.759
1952.344
1951.928
1951.513
1951.097
1950.682
1950.266
1949.851
1949.435
1949.020
1948.604
1948.189
1947.773
1947.358
1946.942
1946.527
1946.111
1945.696
1945.280
1944.865
1944.449
1944.034
1943.618
1943.203
1942.787
1942.372
1941.956
1941.541
1941.125
1940.710
1940.294
1939.879
1939.463
1939.048
1938.632
1938.217
1937.801
1937.386
1936.970
1936.555
1936.139
1935.724
1935.308
1934.893
1934.477
1934.062
1933.646
1933.231
1932.815
1932.400
1931.984
1931.569
1931.153
1930.738
1930.322
1929.907
1929.491
1929.076
1928.660
1928.245
1927.829
1927.414
1926.998
1926.583
1926.167
1925.752
1925.336
1924.921
1924.505
1924.090
1923.674
1923.259
1922.843
1922.428
1922.012
1921.597
1921.181
1920.766
1920.350
1919.935
1919.519
1919.104
1918.688
1918.273
1917.857
1917.442
1917.026
1916.611
1916.195
1915.780
1915.364
1914.949
1914.533
1914.118
1913.702
1913.287
1912.871
1912.456
1912.040
1911.625
1911.209
1910.794
1910.378
1909.963
1909.547
1909.132
1908.716
1908.301
1907.885
1907.470
1907.054
1906.639
1906.223
1905.808
1905.392
1904.977
1904.561
1904.146
1903.730
1903.315
1902.899
1902.484
1902.068
1901.653
1901.237
1900.822
1900.406
1899.991
1899.575
1899.160
1898.744
1898.329
1897.913
1897.498
1897.082
1896.667
1896.251
1895.836
1895.420
1895.005
1894.589
1894.174
1893.758
1893.343
1892.927
1892.512
1892.096
1891.681
1891.265
1890.850
1890.434
1890.019
1889.603
1889.188
1888.772
1888.357
1887.941
1887.526
1887.110
1886.695
1886.279
1885.864
1885.448
1885.033
1884.617
1884.202
1883.786
1883.371
1882.955
1882.540
1882.124
1881.709
1881.293
1880.878
1880.462
1880.047
1879.631
1879.216
1878.800
1878.385
1882.881
1887.378
1891.874
1896.371
1900.867
1905.364
1909.860
1914.357
1918.853
1923.350
1927.846
1932.343
1936.839
1941.336
1945.832
1950.329
1954.825
1959.322
1963.818
1968.315
1972.811
1977.308
1981.804
1986.301
1990.797
1995.294
1999.790
2004.287
2008.783
2013.280
2017.776
2022.273
2026.769
2031.266
2035.762
2040.259
2044.755
2049.252
2053.748
2058.245
2062.741
2067.238
2071.734
2076.231
2080.727
2085.224
2089.720
2094.217
2098.713
2103.210
2107.706
2112.203
2116.699
2121.196
2125.692
2130.189
2134.685
2139.182
2143.678
2148.175
2152.671
2157.168
2161.664
2166.161
2170.657
2175.154
2179.650
2184.147
2188.643
2193.140
2197.636
2202.133
2206.629
2211.126
2215.622
2220.119
2224.615
2229.112
2233.608
2238.105
2242.601
2247.098
2251.594
2256.091
2260.587
2265.084
2269.580
2274.077
2278.573
2283.070
2287.566
2292.063
2296.559
2301.056
2305.552
2310.049
2314.545
2319.042
2323.538
2328.035
2332.531
2337.028
2341.524
2346.021
2350.517
2355.014
2359.510
2364.007
2368.503
2373.000
2377.496
2381.993
2386.489
2390.986
2395.482
2399.979
2404.475
2408.972
2413.468
2417.965
2422.461
2426.958
2431.454
2435.951
2440.447
2444.944
2449.440
2453.937
2458.433
2462.930
2467.426
2471.923
2476.419
2480.916
2485.412
2489.909
2494.405
2498.902
2503.398
2507.895
2512.391
2516.888
2521.384
2525.881
2530.377
2534.874
2539.370
2543.867
2548.363
2552.860
2557.356
2561.853
2566.349
2570.846
2575.342
2579.839
2584.335
2588.832
2593.328
2597.825
2602.321
2606.818
2611.314
2615.811
2620.307
2624.804
2629.300
2633.797
2638.293
2642.790
2647.286
2651.783
2656.279
2660.776
2665.272
2669.769
2674.265
2678.762
2683.258
2687.755
2692.251
2696.748
2701.244
2705.741
2710.237
2714.734
2719.230
2723.727
2728.223
2732.720
2737.216
2741.713
2746.209
2750.706
2755.202
2759.699
2764.195
2768.692
2773.188
2777.685
2773.042
2768.399
2763.756
2759.113
2754.470
2749.827
2745.184
2740.541
2735.898
2731.255
2726.612
2721.969
2717.326
2712.683
2708.040
2703.397
2698.754
2694.111
2689.468
2684.825
2680.182
2675.539
2670.896
2666.253
2661.610
2656.967
2652.324
2647.681
2643.038
2638.395
2633.752
2629.109
2624.466
2619.823
2615.180
2610.537
2605.894
2601.251
2596.608
2591.965
2587.322
2582.679
2578.036
2573.393
2568.750
2564.107
2559.464
2554.821
2550.178
2545.535
2540.892
2536.249
2531.606
2526.963
2522.320
2517.677
2513.034
2508.391
2503.748
2499.105
2494.462
2489.819
2485.176
2480.533
2475.890
2471.247
2466.604
2461.961
2457.318
2452.675
2448.032
2443.389
2438.746
2434.103
2429.460
2424.817
2420.174
2415.531
2410.888
2406.245
2401.602
2396.959
2392.316
2387.673
2383.030
2378.387
2373.744
2369.101
2364.458
2359.815
2355.172
2350.529
2345.886
2341.243
2336.600
2331.957
2327.314
2322.671
2318.028
2313.385
2308.742
2304.099
2299.456
2294.813
2290.170
2285.527
2280.884
2276.241
2271.598
2266.955
2262.312
2257.669
2253.026
2248.383
2243.740
2239.097
2234.454
2229.811
2225.168
2220.525
2215.882
2211.239
2206.596
2201.953
2197.310
2192.667
2188.024
2183.381
2178.738
2174.095
2169.452
2164.809
2160.166
2155.523
2150.880
2146.237
2141.594
2136.951
2132.308
2127.665
2123.022
2118.379
2113.736
2109.093
2104.450
2099.807
2095.164
2090.521
2085.878
2081.235
2076.592
2071.949
2067.306
2062.663
2058.020
2053.377
2048.734
2044.091
2039.448
2034.805
2030.162
2025.519
2020.876
2016.233
2011.590
2006.947
2002.304
1997.661
1993.018
1988.375
1983.732
1979.089
1974.446
1969.803
1965.160
1960.517
1955.874
1951.231
1946.588
1941.945
1937.302
1932.659
1928.016
1923.373
1918.730
1914.087
1909.444
1904.801
1900.158
1895.515
1890.872
1886.229
1881.586
1876.943
1872.300
1867.657
1863.014
1858.371
1853.728
1849.085
1851.406
1853.728
1856.049
1858.371
1860.692
1863.014
1865.335
1867.657
1869.978
1872.300
1874.621
1876.943
1879.264
1881.586
1883.907
1886.229
1888.550
1890.872
1893.193
1895.515
1897.836
1900.158
1902.479
1904.801
1907.122
1909.444
1911.765
1914.087
1916.408
1918.730
1921.051
1923.373
1925.694
1928.016
1930.337
1932.659
1934.980
1937.302
1939.623
1941.945
1944.266
1946.588
1948.909
1951.231
1953.552
1955.874
1958.195
1960.517
1962.838
1965.160
1967.481
1969.803
1972.124
1974.446
1976.767
1979.089
1981.410
1983.732
1986.053
1988.375
1990.696
1993.018
1995.339
1997.661
1999.982
2002.304
2004.625
2006.947
2009.268
2011.590
2013.911
2016.233
2018.554
2020.876
2023.197
2025.519
2027.840
2030.162
2032.483
2034.805
2037.126
2039.448
2041.769
2044.091
2046.412
2048.734
2051.055
2053.377
2055.698
2058.020
2060.341
2062.663
2064.984
2067.306
2069.627
2071.949
2074.270
2076.592
2078.913
2081.235
2083.556
2085.878
2088.199
2090.521
2092.842
2095.164
2097.485
2099.807
2102.128
2104.450
2106.771
2109.093
2111.414
2113.736
2116.057
2118.379
2120.700
2123.022
2125.343
2127.665
2129.986
2132.308
2134.629
2136.951
2139.272
2141.594
2143.915
2146.237
2148.558
2150.880
2153.201
2155.523
2157.844
2160.166
2162.487
2164.809
2167.130
2169.452
2171.773
2174.095
2176.416
2178.738
2181.059
2183.381
2185.702
2188.024
2190.345
2192.667
2194.988
2197.310
2199.631
2201.953
2204.274
2206.596
2208.917
2211.239
2213.560
2215.882
2218.203
2220.525
2222.846
2225.168
2227.489
2229.811
2232.132
2234.454
2236.775
2239.097
2241.418
2243.740
2246.061
2248.383
2250.704
2253.026
2255.347
2257.669
2259.990
2262.312
2264.633
2266.955
2269.276
2271.598
2273.919
2276.241
2278.562
2280.884
2283.205
2285.527
2287.848
2290.170
2292.491
2294.813
2297.134
2299.456
2301.777
2304.099
2306.420
2308.742
2311.063
2313.385
2313.287
2313.190
2313.092
2312.995
2312.897
2312.800
2312.702
2312.605
2312.507
2312.410
2312.312
2312.215
2312.117
2312.020
2311.922
2311.825
2311.727
2311.630
2311.532
2311.435
2311.337
2311.240
2311.142
2311.045
2310.947
2310.850
2310.752
2310.655
2310.557
2310.460
2310.362
2310.265
2310.167
2310.070
2309.972
2309.875
2309.777
2309.680
2309.582
2309.485
2309.387
2309.290
2309.192
2309.095
2308.997
2308.900
2308.802
2308.705
2308.607
2308.510
2308.412
2308.315
2308.217
2308.120
2308.022
2307.925
2307.827
2307.730
2307.632
2307.535
2307.437
2307.340
2307.242
2307.145
2307.047
2306.950
2306.852
2306.755
2306.657
2306.560
2306.462
2306.365
2306.267
2306.170
2306.072
2305.975
2305.877
2305.780
2305.682
2305.585
2305.487
2305.390
2305.292
2305.195
2305.097
2305.000
2304.902
2304.805
2304.707
2304.610
2304.512
2304.415
2304.317
2304.220
2304.122
2304.025
2303.927
2303.830
2303.732
2303.635
2303.537
2303.440
2303.342
2303.245
2303.147
2303.050
2302.952
2302.855
2302.757
2302.660
2302.562
2302.465
2302.367
2302.270
2302.172
2302.075
2301.977
2301.880
2301.782
2301.685
2301.587
2301.490
2301.392
2301.295
2301.197
2301.100
2301.002
2300.905
2300.807
2300.710
2300.612
2300.515
2300.417
2300.320
2300.222
2300.125
2300.027
2299.930
2299.832
2299.735
2299.637
2299.540
2299.442
2299.345
2299.247
2299.150
2299.052
2298.955
2298.857
2298.760
2298.662
2298.565
2298.467
2298.370
2298.272
2298.175
2298.077
2297.980
2297.882
2297.785
2297.687
2297.590
2297.492
2297.395
2297.297
2297.200
2297.102
2297.005
2296.907
2296.810
2296.712
2296.615
2296.517
2296.420
2296.322
2296.225
2296.127
2296.030
2295.932
2295.835
2295.737
2295.640
2295.542
2295.445
2295.347
2295.250
2295.152
2295.055
2294.957
2294.860
2294.762
2294.665
2294.567
2294.470
2294.372
2294.275
2294.177
2294.080
2293.982
2293.885
2290.292
2286.700
2283.107
2279.515
2275.922
2272.330
2268.737
2265.145
2261.552
2257.960
2254.367
2250.775
2247.182
2243.590
2239.997
2236.405
2232.812
2229.220
2225.627
2222.035
2218.442
2214.850
2211.257
2207.665
2204.072
2200.480
2196.887
2193.295
2189.702
2186.110
2182.517
2178.925
2175.332
2171.740
2168.147
2164.555
2160.962
2157.370
2153.777
2150.185
2146.592
2143.000
2139.407
2135.815
2132.222
2128.630
2125.037
2121.445
2117.852
2114.260
2110.667
2107.075
2103.482
2099.890
2096.297
2092.705
2089.112
2085.520
2081.927
2078.335
2074.742
2071.150
2067.557
2063.965
2060.372
2056.780
2053.187
2049.595
2046.002
2042.410
2038.817
2035.225
2031.632
2028.040
2024.447
2020.855
2017.262
2013.670
2010.077
2006.485
2002.892
1999.300
1995.707
1992.115
1988.522
1984.930
1981.337
1977.745
1974.152
1970.560
1966.967
1963.375
1959.782
1956.190
1952.597
1949.005
1945.412
1941.820
1938.227
1934.635
1931.042
1927.450
1923.857
1920.265
1916.672
1913.080
1909.487
1905.895
1902.302
1898.710
1895.117
1891.525
1887.932
1884.340
1880.747
1877.155
1873.562
1869.970
1866.377
1862.785
1859.192
1855.600
1852.007
1848.415
1844.822
1841.230
1837.637
1834.045
1830.452
1826.860
1823.267
1819.675
1816.082
1812.490
1808.897
1805.305
1801.712
1798.120
1794.527
1790.935
1787.342
1783.750
1780.157
1776.565
1772.972
1769.380
1765.787
1762.195
1758.602
1755.010
1751.417
1747.825
1744.232
1740.640
1737.047
1733.455
1729.862
1726.270
1722.677
1719.085
1715.492
1711.900
1708.307
1704.715
1701.122
1697.530
1693.937
1690.345
1686.752
1683.160
1679.567
1675.975
1672.382
1668.790
1665.197
1661.605
1658.012
1654.420
1650.827
1647.235
1643.642
1640.050
1636.457
1632.865
1629.272
1625.680
1622.087
1618.495
1614.902
1611.310
1607.717
1604.125
1600.532
1596.940
1593.347
1589.755
1586.162
1582.570
1578.977
1575.385
1577.144
1578.904
1580.663
1582.423
1584.182
1585.942
1587.701
1589.461
1591.220
1592.980
1594.739
1596.499
1598.258
1600.018
1601.777
1603.537
1605.296
1607.056
1608.815
1610.575
1612.334
1614.094
1615.853
1617.613
1619.372
1621.132
1622.891
1624.651
1626.410
1628.170
1629.929
1631.689
1633.448
1635.208
1636.967
1638.727
1640.486
1642.246
1644.005
1645.765
1647.524
1649.284
1651.043
1652.803
1654.562
1656.322
1658.081
1659.841
1661.600
1663.360
1665.119
1666.879
1668.638
1670.398
1672.157
1673.917
1675.676
1677.436
1679.195
1680.955
1682.714
1684.474
1686.233
1687.993
1689.752
1691.512
1693.271
1695.031
1696.790
1698.550
1700.309
1702.069
1703.828
1705.588
1707.347
1709.107
1710.866
1712.626
1714.385
1716.145
1717.904
1719.664
1721.423
1723.183
1724.942
1726.702
1728.461
1730.221
1731.980
1733.740
1735.499
1737.259
1739.018
1740.778
1742.537
1744.297
1746.056
1747.816
1749.575
1751.335
1753.094
1754.854
1756.613
1758.373
1760.132
1761.892
1763.651
1765.411
1767.170
1768.930
1770.689
1772.449
1774.208
1775.968
1777.727
1779.487
1781.246
1783.006
1784.765
1786.525
1788.284
1790.044
1791.803
1793.563
1795.322
1797.082
1798.841
1800.601
1802.360
1804.120
1805.879
1807.639
1809.398
1811.158
1812.917
1814.677
1816.436
1818.196
1819.955
1821.715
1823.474
1825.234
1826.993
1828.753
1830.512
1832.272
1834.031
1835.791
1837.550
1839.310
1841.069
1842.829
1844.588
1846.348
1848.107
1849.867
1851.626
1853.386
1855.145
1856.905
1858.664
1860.424
1862.183
1863.943
1865.702
1867.462
1869.221
1870.981
1872.740
1874.500
1876.259
1878.019
1879.778
1881.538
1883.297
1885.057
1886.816
1888.576
1890.335
1892.095
1893.854
1895.614
1897.373
1899.133
1900.892
1902.652
1904.411
1906.171
1907.930
1909.690
1911.449
1913.209
1914.968
1916.728
1918.487
1920.247
1922.006
1923.766
1925.525
1927.285
1923.766
1920.247
1916.728
1913.209
1909.690
1906.171
1902.652
1899.133
1895.614
1892.095
1888.576
1885.057
1881.538
1878.019
1874.500
1870.981
1867.462
1863.943
1860.424
1856.905
1853.386
1849.867
1846.348
1842.829
1839.310
1835.791
1832.272
1828.753
1825.234
1821.715
1818.196
1814.677
1811.158
1807.639
1804.120
1800.601
1797.082
1793.563
1790.044
1786.525
1783.006
1779.487
1775.968
1772.449
1768.930
1765.411
1761.892
1758.373
1754.854
1751.335
1747.816
1744.297
1740.778
1737.259
1733.740
1730.221
1726.702
1723.183
1719.664
1716.145
1712.626
1709.107
1705.588
1702.069
1698.550
1695.031
1691.512
1687.993
1684.474
1680.955
1677.436
1673.917
1670.398
1666.879
1663.360
1659.841
1656.322
1652.803
1649.284
1645.765
1642.246
1638.727
1635.208
1631.689
1628.170
1624.651
1621.132
1617.613
1614.094
1610.575
1607.056
1603.537
1600.018
1596.499
1592.980
1589.461
1585.942
1582.423
1578.904
1575.385
1571.866
1568.347
1564.828
1561.309
1557.790
1554.271
1550.752
1547.233
1543.714
1540.195
1536.676
1533.157
1529.638
1526.119
1522.600
1519.081
1515.562
1512.043
1508.524
1505.005
1501.486
1497.967
1494.448
1490.929
1487.410
1483.891
1480.372
1476.853
1473.334
1469.815
1466.296
1462.777
1459.258
1455.739
1452.220
1448.701
1445.182
1441.663
1438.144
1434.625
1431.106
1427.587
1424.068
1420.549
1417.030
1413.511
1409.992
1406.473
1402.954
1399.435
1395.916
1392.397
1388.878
1385.359
1381.840
1378.321
1374.802
1371.283
1367.764
1364.245
1360.726
1357.207
1353.688
1350.169
1346.650
1343.131
1339.612
1336.093
1332.574
1329.055
1325.536
1322.017
1318.498
1314.979
1311.460
1307.941
1304.422
1300.903
1297.384
1293.865
1290.346
1286.827
1283.308
1279.789
1276.270
1272.751
1269.232
1265.713
1262.194
1258.675
1255.156
1251.637
1248.118
1244.599
1241.080
1237.561
1234.042
1230.523
1227.004
84.685
84.709
84.734
84.758
84.783
84.807
84.832
84.856
84.881
84.905
84.930
84.954
84.979
85.003
85.028
85.052
85.077
85.101
85.126
85.150
85.175
85.199
85.224
85.248
85.273
85.297
85.322
85.346
85.371
85.395
85.420
85.444
85.469
85.493
85.518
85.542
85.567
85.591
85.616
85.640
85.665
85.689
85.714
85.738
85.763
85.787
85.812
85.836
85.861
85.885
85.910
85.934
85.959
85.983
86.008
86.032
86.057
86.081
86.106
86.130
86.155
86.179
86.204
86.228
86.253
86.277
86.302
86.326
86.351
86.375
86.400
86.424
86.449
86.473
86.498
86.522
86.547
86.571
86.596
86.620
86.645
86.669
86.694
86.718
86.743
86.767
86.792
86.816
86.841
86.865
86.890
86.914
86.939
86.963
86.988
87.012
87.037
87.061
87.086
87.110
87.135
87.159
87.184
87.208
87.233
87.257
87.282
87.306
87.331
87.355
87.380
87.404
87.429
87.453
87.478
87.502
87.527
87.551
87.576
87.600
87.625
87.649
87.674
87.698
87.723
87.747
