1904.361
1902.919
1901.477
1900.035
1898.593
1897.151
1895.709
1894.267
1892.825
1891.383
1889.941
1888.499
1887.057
1885.615
1884.173
1882.731
1881.289
1879.847
1878.405
1876.963
1875.521
1874.079
1872.637
1871.195
1869.753
1868.311
1866.869
1865.427
1863.985
1862.543
1861.101
1859.659
1858.217
1856.775
1855.333
1853.891
1852.449
1851.007
1849.565
1848.123
1846.681
1845.239
1843.797
1842.355
1840.913
1839.471
1838.029
1840.399
1842.770
1845.140
1847.511
1849.881
1852.252
1854.622
1856.993
1859.363
1861.734
1864.104
1866.475
1868.845
1871.216
1873.586
1875.957
1878.327
1880.698
1883.068
1885.439
1887.809
1890.180
1892.550
1894.921
1897.291
1899.662
1902.032
1904.403
1906.773
1909.144
1911.514
1913.885
1916.255
1918.626
1920.996
1923.367
1925.737
1928.108
1930.478
1932.849
1935.219
1937.590
1939.960
1942.331
1944.701
1947.072
1949.442
1951.813
1954.183
1956.554
1958.924
1961.295
1963.665
1966.036
1968.406
1970.777
1973.147
1975.518
1977.888
1980.259
1982.629
1985.000
1987.370
1989.741
1992.111
1994.482
1996.852
1999.223
2001.593
2003.964
2006.334
2008.705
2011.075
2013.446
2015.816
2018.187
2020.557
2022.928
2025.298
2027.669
2030.039
2032.410
2034.780
2037.151
2039.521
2041.892
2044.262
2046.633
2049.003
2051.374
2053.744
2056.115
2058.485
2060.856
2063.226
2065.597
2067.967
2070.338
2072.708
2075.079
2077.449
2079.820
2082.190
2084.561
2086.931
2089.302
2091.672
2094.043
2096.413
2098.784
2101.154
2103.525
2105.895
2108.266
2110.636
2113.007
2115.377
2117.748
2120.118
2122.489
2124.859
2127.230
2129.600
2131.971
2134.341
2136.712
2139.082
2141.453
2143.823
2146.194
2148.564
2150.935
2153.305
2155.676
2158.046
2160.417
2162.787
2165.158
2167.528
2169.899
2172.269
2174.640
2177.010
2179.381
2181.751
2184.122
2186.492
2188.863
2191.233
2193.604
2195.974
2198.345
2200.715
2203.086
2205.456
2207.827
2210.197
2212.568
2214.938
2217.309
2219.679
2222.050
2224.420
2226.791
2229.161
2231.532
2233.902
2236.273
2238.643
2241.014
2243.384
2245.755
2248.125
2250.496
2252.866
2255.237
2257.607
2259.978
2262.348
2264.719
2267.089
2269.460
2271.830
2274.201
2276.571
2278.942
2281.312
2283.683
2286.053
2288.424
2290.794
2293.165
2295.535
2297.906
2300.276
2302.647
2305.017
2307.388
2309.758
2312.129
2311.274
2310.419
2309.564
2308.709
2307.854
2306.999
2306.144
2305.289
2304.434
2303.579
2302.724
2301.869
2301.014
2300.159
2299.304
2298.449
2297.594
2296.739
2295.884
2295.029
2294.174
2293.319
2292.464
2291.609
2290.754
2289.899
2289.044
2288.189
2287.334
2286.479
2285.624
2284.769
2283.914
2283.059
2282.204
2281.349
2280.494
2279.639
2278.784
2277.929
2277.074
2276.219
2275.364
2274.509
2273.654
2272.799
2271.944
2271.089
2270.234
2269.379
2268.524
2267.669
2266.814
2265.959
2265.104
2264.249
2263.394
2262.539
2261.684
2260.829
2259.974
2259.119
2258.264
2257.409
2256.554
2255.699
2254.844
2253.989
2253.134
2252.279
2251.424
2250.569
2249.714
2248.859
2248.004
2247.149
2246.294
2245.439
2244.584
2243.729
2242.874
2242.019
2241.164
2240.309
2239.454
2238.599
2237.744
2236.889
2236.034
2235.179
2234.324
2233.469
2232.614
2231.759
2230.904
2230.049
2229.194
2228.339
2227.484
2226.629
2225.774
2224.919
2224.064
2223.209
2222.354
2221.499
2220.644
2219.789
2218.934
2218.079
2217.224
2216.369
2215.514
2214.659
2213.804
2212.949
2212.094
2211.239
2210.384
2209.529
2208.674
2207.819
2206.964
2206.109
2205.254
2204.399
2203.544
2202.689
2201.834
2200.979
2200.124
2199.269
2198.414
2197.559
2196.704
2195.849
2194.994
2194.139
2193.284
2192.429
2191.574
2190.719
2189.864
2189.009
2188.154
2187.299
2186.444
2185.589
2184.734
2183.879
2183.024
2182.169
2181.314
2180.459
2179.604
2178.749
2177.894
2177.039
2176.184
2175.329
2174.474
2173.619
2172.764
2171.909
2171.054
2170.199
2169.344
2168.489
2167.634
2166.779
2165.924
2165.069
2164.214
2163.359
2162.504
2161.649
2160.794
2159.939
2159.084
2158.229
2157.374
2156.519
2155.664
2154.809
2153.954
2153.099
2152.244
2151.389
2150.534
2149.679
2148.824
2147.969
2147.114
2146.259
2145.404
2144.549
2143.694
2142.839
2141.984
2141.129
2138.905
2136.681
2134.457
2132.233
2130.009
2127.785
2125.561
2123.337
2121.113
2118.889
2116.665
2114.441
2112.217
2109.993
2107.769
2105.545
2103.321
2101.097
2098.873
2096.649
2094.425
2092.201
2089.977
2087.753
2085.529
2083.305
2081.081
2078.857
2076.633
2074.409
2072.185
2069.961
2067.737
2065.513
2063.289
2061.065
2058.841
2056.617
2054.393
2052.169
2049.945
2047.721
2045.497
2043.273
2041.049
2038.825
2036.601
2034.377
2032.153
2029.929
2027.705
2025.481
2023.257
2021.033
2018.809
2016.585
2014.361
2012.137
2009.913
2007.689
2005.465
2003.241
2001.017
1998.793
1996.569
1994.345
1992.121
1989.897
1987.673
1985.449
1983.225
1981.001
1978.777
1976.553
1974.329
1972.105
1969.881
1967.657
1965.433
1963.209
1960.985
1958.761
1956.537
1954.313
1952.089
1949.865
1947.641
1945.417
1943.193
1940.969
1938.745
1936.521
1934.297
1932.073
1929.849
1927.625
1925.401
1923.177
1920.953
1918.729
1916.505
1914.281
1912.057
1909.833
1907.609
1905.385
1903.161
1900.937
1898.713
1896.489
1894.265
1892.041
1889.817
1887.593
1885.369
1883.145
1880.921
1878.697
1876.473
1874.249
1872.025
1869.801
1867.577
1865.353
1863.129
1860.905
1858.681
1856.457
1854.233
1852.009
1849.785
1847.561
1845.337
1843.113
1840.889
1838.665
1836.441
1834.217
1831.993
1829.769
1827.545
1825.321
1823.097
1820.873
1818.649
1816.425
1814.201
1811.977
1809.753
1807.529
1805.305
1803.081
1800.857
1798.633
1796.409
1794.185
1791.961
1789.737
1787.513
1785.289
1783.065
1780.841
1778.617
1776.393
1774.169
1771.945
1769.721
1767.497
1765.273
1763.049
1760.825
1758.601
1756.377
1754.153
1751.929
1749.705
1747.481
1745.257
1743.033
1740.809
1738.585
1736.361
1734.137
1731.913
1729.689
1727.465
1725.241
1723.017
1720.793
1718.569
1716.345
1714.121
1711.897
1709.673
1707.449
1705.225
1703.001
1700.777
1698.553
1696.329
1698.650
1700.972
1703.293
1705.615
1707.936
1710.258
1712.579
1714.901
1717.222
1719.544
1721.865
1724.187
1726.508
1728.830
1731.151
1733.473
1735.794
1738.116
1740.437
1742.759
1745.080
1747.402
1749.723
1752.045
1754.366
1756.688
1759.009
1761.331
1763.652
1765.974
1768.295
1770.617
1772.938
1775.260
1777.581
1779.903
1782.224
1784.546
1786.867
1789.189
1791.510
1793.832
1796.153
1798.475
1800.796
1803.118
1805.439
1807.761
1810.082
1812.404
1814.725
1817.047
1819.368
1821.690
1824.011
1826.333
1828.654
1830.976
1833.297
1835.619
1837.940
1840.262
1842.583
1844.905
1847.226
1849.548
1851.869
1854.191
1856.512
1858.834
1861.155
1863.477
1865.798
1868.120
1870.441
1872.763
1875.084
1877.406
1879.727
1882.049
1884.370
1886.692
1889.013
1891.335
1893.656
1895.978
1898.299
1900.621
1902.942
1905.264
1907.585
1909.907
1912.228
1914.550
1916.871
1919.193
1921.514
1923.836
1926.157
1928.479
1930.800
1933.122
1935.443
1937.765
1940.086
1942.408
1944.729
1947.051
1949.372
1951.694
1954.015
1956.337
1958.658
1960.980
1963.301
1965.623
1967.944
1970.266
1972.587
1974.909
1977.230
1979.552
1981.873
1984.195
1986.516
1988.838
1991.159
1993.481
1995.802
1998.124
2000.445
2002.767
2005.088
2007.410
2009.731
2012.053
2014.374
2016.696
2019.017
2021.339
2023.660
2025.982
2028.303
2030.625
2032.946
2035.268
2037.589
2039.911
2042.232
2044.554
2046.875
2049.197
2051.518
2053.840
2056.161
2058.483
2060.804
2063.126
2065.447
2067.769
2070.090
2072.412
2074.733
2077.055
2079.376
2081.698
2084.019
2086.341
2088.662
2090.984
2093.305
2095.627
2097.948
2100.270
2102.591
2104.913
2107.234
2109.556
2111.877
2114.199
2116.520
2118.842
2121.163
2123.485
2125.806
2128.128
2130.449
2132.771
2135.092
2137.414
2139.735
2142.057
2144.378
2146.700
2149.021
2151.343
2153.664
2155.986
2158.307
2160.629
2164.050
2167.472
2170.893
2174.315
2177.736
2181.158
2184.579
2188.001
2191.422
2194.844
2198.265
2201.687
2205.108
2208.530
2211.951
2215.373
2218.794
2222.216
2225.637
2229.059
2232.480
2235.902
2239.323
2242.745
2246.166
2249.588
2253.009
2256.431
2259.852
2263.274
2266.695
2270.117
2273.538
2276.960
2280.381
2283.803
2287.224
2290.646
2294.067
2297.489
2300.910
2304.332
2307.753
2311.175
2314.596
2318.018
2321.439
2324.861
2328.282
2331.704
2335.125
2338.547
2341.968
2345.390
2348.811
2352.233
2355.654
2359.076
2362.497
2365.919
2369.340
2372.762
2376.183
2379.605
2383.026
2386.448
2389.869
2393.291
2396.712
2400.134
2403.555
2406.977
2410.398
2413.820
2417.241
2420.663
2424.084
2427.506
2430.927
2434.349
2437.770
2441.192
2444.613
2448.035
2451.456
2454.878
2458.299
2461.721
2465.142
2468.564
2471.985
2475.407
2478.828
2482.250
2485.671
2489.093
2492.514
2495.936
2499.357
2502.779
2506.200
2509.622
2513.043
2516.465
2519.886
2523.308
2526.729
2530.151
2533.572
2536.994
2540.415
2543.837
2547.258
2550.680
2554.101
2557.523
2560.944
2564.366
2567.787
2571.209
2574.630
2578.052
2581.473
2584.895
2588.316
2591.738
2595.159
2598.581
2602.002
2605.424
2608.845
2612.267
2615.688
2619.110
2622.531
2625.953
2629.374
2632.796
2636.217
2639.639
2643.060
2646.482
2649.903
2653.325
2656.746
2660.168
2663.589
2667.011
2670.432
2673.854
2677.275
2680.697
2684.118
2687.540
2690.961
2694.383
2697.804
2701.226
2704.647
2708.069
2711.490
2714.912
2718.333
2721.755
2725.176
2728.598
2732.019
2735.441
2738.862
2742.284
2745.705
2749.127
2752.548
2755.970
2759.391
2762.813
2766.234
2769.656
2773.077
2776.499
2779.920
2783.342
2786.763
2790.185
2793.606
2797.028
2800.449
2803.871
2807.292
2810.714
2814.135
2817.557
2820.978
2824.400
2827.821
2831.243
2834.664
2838.086
2841.507
2844.929
2842.216
2839.504
2836.791
2834.079
2831.366
2828.654
2825.941
2823.229
2820.516
2817.804
2815.091
2812.379
2809.666
2806.954
2804.241
2801.529
2798.816
2796.104
2793.391
2790.679
2787.966
2785.254
2782.541
2779.829
2777.116
2774.404
2771.691
2768.979
2766.266
2763.554
2760.841
2758.129
2755.416
2752.704
2749.991
2747.279
2744.566
2741.854
2739.141
2736.429
2733.716
2731.004
2728.291
2725.579
2722.866
2720.154
2717.441
2714.729
2712.016
2709.304
2706.591
2703.879
2701.166
2698.454
2695.741
2693.029
2690.316
2687.604
2684.891
2682.179
2679.466
2676.754
2674.041
2671.329
2668.616
2665.904
2663.191
2660.479
2657.766
2655.054
2652.341
2649.629
2646.916
2644.204
2641.491
2638.779
2636.066
2633.354
2630.641
2627.929
2625.216
2622.504
2619.791
2617.079
2614.366
2611.654
2608.941
2606.229
2603.516
2600.804
2598.091
2595.379
2592.666
2589.954
2587.241
2584.529
2581.816
2579.104
2576.391
2573.679
2570.966
2568.254
2565.541
2562.829
2560.116
2557.404
2554.691
2551.979
2549.266
2546.554
2543.841
2541.129
2538.416
2535.704
2532.991
2530.279
2527.566
2524.854
2522.141
2519.429
2516.716
2514.004
2511.291
2508.579
2505.866
2503.154
2500.441
2497.729
2495.016
2492.304
2489.591
2486.879
2484.166
2481.454
2478.741
2476.029
2473.316
2470.604
2467.891
2465.179
2462.466
2459.754
2457.041
2454.329
2451.616
2448.904
2446.191
2443.479
2440.766
2438.054
2435.341
2432.629
2429.916
2427.204
2424.491
2421.779
2419.066
2416.354
2413.641
2410.929
2408.216
2405.504
2402.791
2400.079
2397.366
2394.654
2391.941
2389.229
2386.516
2383.804
2381.091
2378.379
2375.666
2372.954
2370.241
2367.529
2364.816
2362.104
2359.391
2356.679
2353.966
2351.254
2348.541
2345.829
2343.116
2340.404
2337.691
2334.979
2332.266
2329.554
2326.841
2324.129
2321.416
2318.704
2315.991
2313.279
2310.566
2307.854
2305.141
98.129
98.129
98.129
98.129
98.129
98.129
98.129
98.129
98.129
98.129
98.129
98.129
98.129
98.129
98.129
98.129
98.129
98.129
98.129
98.129
98.129
98.129
98.129
98.129
98.129
98.129
98.129
98.129
98.129
98.129
98.129
98.129
98.129
98.129
98.129
98.129
98.129
98.129
98.129
98.129
98.129
98.129
98.129
98.129
98.129
98.129
98.129
98.129
98.129
98.129
98.129
98.129
98.129
98.129
98.129
98.129
98.129
98.129
98.129
98.129
98.129
98.129
98.129
98.129
98.129
98.129
98.129
98.129
98.129
98.129
98.129
98.129
98.129
98.129
98.129
98.129
98.129
98.129
98.129
98.129
98.129
98.129
98.129
98.129
98.129
98.129
98.129
98.129
98.129
98.129
98.129
98.129
98.129
98.129
98.129
98.129
98.129
98.129
98.129
98.129
98.129
98.129
98.129
98.129
98.129
98.129
98.129
98.129
98.129
98.129
98.129
98.129
98.129
98.129
98.129
98.129
98.129
98.129
98.129
98.129
98.129
98.129
98.129
98.129
98.129
98.129
98.129
98.129
98.129
98.129
98.129
98.129
98.129
98.129
98.129
98.129
98.129
98.129
98.129
98.129
98.129
98.129
98.129
98.129
98.129
98.129
98.129
98.129
98.129
98.129
98.129
98.129
98.129
98.129
98.129
98.129
98.129
98.129
98.129
98.129
98.129
98.129
98.129
98.129
98.129
98.129
98.129
98.129
98.129
98.129
98.129
98.129
98.129
98.129
98.129
98.129
98.129
98.129
98.129
98.129
98.129
98.129
98.129
98.129
98.129
98.129
98.129
98.129
98.129
98.129
98.129
98.129
98.129
98.129
98.129
98.129
98.129
98.129
98.129
98.129
98.129
98.129
98.129
98.129
98.129
98.129
98.129
98.129
98.129
98.129
98.129
98.129
98.129
98.129
98.129
98.129
98.129
98.129
98.129
98.129
98.129
98.129
98.129
98.129
98.129
98.129
98.129
98.129
98.129
98.129
98.129
98.129
98.129
98.129
98.129
98.129
98.129
98.129
98.129
98.129
98.129
98.129
98.129
98.129
98.129
98.129
98.129
98.129
98.129
98.129
98.129
98.129
98.129
98.129
98.129
98.129
98.129
98.129
98.129
98.129
98.129
98.129
98.129
98.129
98.129
98.129
98.129
98.129
98.129
98.129
98.129
98.129
98.129
98.129
98.129
98.129
98.129
98.129
98.129
98.129
98.129
98.129
98.129
98.129
98.129
98.129
98.129
98.129
98.129
98.129
98.129
98.129
98.129
98.129
98.129
98.129
98.129
98.129
98.129
98.129
98.129
98.129
98.129
98.129
98.129
98.129
98.129
98.129
98.129
98.129
98.129
98.129
98.129
98.129
98.129
98.129
98.129
98.129
98.129
98.129
98.129
98.129
98.129
98.129
98.129
98.129
98.129
98.129
98.129
98.129
98.129
98.129
98.129
98.129
98.129
98.129
98.129
98.129
98.129
98.129
98.129
98.129
98.129
98.129
98.129
98.129
98.129
98.129
98.129
98.129
98.129
98.129
98.129
98.129
98.129
98.129
98.129
98.129
98.129
98.129
98.129
98.129
98.129
98.129
98.129
98.129
98.129
98.129
98.129
98.129
98.129
98.129
98.129
98.129
98.129
98.129
98.129
98.129
98.129
98.129
98.129
98.129
98.129
98.129
98.129
98.129
98.129
98.129
98.129
98.129
98.129
98.129
98.129
98.129
98.129
98.129
98.129
98.129
98.129
98.129
98.129
98.129
98.129
98.129
98.129
98.129
98.129
98.129
98.129
98.129
98.129
98.129
98.129
98.129
98.129
98.129
98.129
98.129
98.129
98.129
98.129
98.129
98.129
98.129
98.129
98.129
98.129
98.129
98.129
98.129
98.129
98.129
98.129
98.129
98.129
98.129
98.129
98.129
98.129
98.129
98.129
98.129
98.129
98.129
98.129
98.129
98.129
98.129
98.129
98.129
98.129
98.129
98.129
98.129
98.129
98.129
98.129
98.129
98.129
98.129
98.129
98.129
98.129
98.129
98.129
98.129
98.129
98.129
98.129
98.129
98.129
98.129
98.129
98.129
98.129
98.129
98.129
98.129
98.129
98.129
98.129
98.129
98.129
98.129
98.129
98.129
98.129
98.129
98.129
98.129
98.129
98.129
98.129
98.129
98.129
98.129
98.129
98.129
98.129
98.129
98.129
98.129
98.129
98.129
98.129
98.129
98.129
98.129
98.129
98.129
98.129
98.129
98.129
98.129
98.129
98.129
98.129
98.129
98.129
98.129
98.129
98.129
98.129
98.129
98.129
98.129
98.129
98.129
98.129
98.129
98.129
98.129
98.129
98.129
98.129
98.129
98.129
98.129
98.129
98.129
98.129
98.129
98.129
98.129
98.129
98.129
98.129
98.129
98.129
98.129
98.129
98.129
98.129
98.129
98.129
98.129
98.129
98.129
98.129
98.129
98.129
98.129
98.129
98.129
98.129
98.129
98.129
98.129
98.129
98.129
98.129
98.129
98.129
98.129
98.129
98.129
98.129
98.129
98.129
98.129
98.129
98.129
98.129
98.129
98.129
98.129
98.129
98.129
98.129
98.129
98.129
98.129
98.129
98.129
98.129
98.129
98.129
98.129
98.129
98.129
98.129
98.129
98.129
98.129
98.129
98.129
98.129
98.129
98.129
98.129
98.129
98.129
98.129
98.129
98.129
98.129
98.129
98.129
98.129
98.129
98.129
98.129
98.129
98.129
98.129
98.129
98.129
98.129
98.129
98.129
98.129
98.129
98.129
98.129
98.129
98.129
98.129
98.129
98.129
98.129
98.129
98.129
98.129
98.129
98.129
98.129
98.129
98.129
98.129
98.129
98.129
98.129
98.129
98.129
98.129
98.129
98.129
98.129
98.129
98.129
98.129
98.129
98.129
98.129
98.129
98.129
98.129
98.129
98.129
98.129
98.129
98.129
98.129
98.129
98.129
98.129
98.129
98.129
98.129
98.129
98.129
98.129
98.129
98.129
98.129
98.129
98.129
98.129
98.129
98.129
98.129
98.129
98.129
98.129
98.129
98.129
98.129
98.129
98.129
98.129
98.129
98.129
98.129
98.129
98.129
98.129
98.129
98.129
98.129
98.129
98.129
98.129
98.129
98.129
98.129
98.129
98.129
98.129
98.129
98.129
98.129
98.129
98.129
98.129
98.129
98.129
98.129
98.129
98.129
98.129
98.129
98.129
98.129
98.129
98.129
98.129
98.129
98.129
98.129
98.129
98.129
98.129
98.129
98.129
98.129
98.129
98.129
98.129
98.129
98.129
98.129
98.129
98.129
98.129
