2202.198
2202.540
2202.882
2203.224
2203.566
2203.908
2204.250
2204.592
2204.934
2205.276
2205.618
2205.960
2206.302
2206.644
2206.986
2207.328
2207.670
2208.012
2208.354
2208.696
2209.038
2209.380
2209.722
2210.064
2210.406
2210.748
2211.090
2211.432
2211.774
2212.116
2212.458
2212.800
2213.142
2213.484
2213.826
2214.168
2214.510
2214.852
2215.194
2215.536
2215.878
2216.220
2216.562
2216.904
2217.246
2217.588
2217.930
2218.272
2218.614
2218.956
2219.298
2219.640
2219.982
2220.324
2220.666
2221.008
2221.350
2221.692
2222.034
2222.376
2222.718
2223.060
2223.402
2223.744
2224.086
2224.428
2224.770
2225.112
2225.454
2225.796
2226.138
2226.480
2226.822
2227.164
2227.506
2227.848
2228.190
2228.532
2228.874
2229.216
2229.558
2229.900
2230.242
2230.584
2230.926
2231.268
2231.610
2231.952
2232.294
2232.636
2232.978
2233.320
2233.662
2234.004
2234.346
2234.688
2235.030
2235.372
2235.714
2236.056
2236.398
2236.740
2237.082
2237.424
2237.766
2238.108
2238.450
2238.792
2239.134
2239.476
2239.818
2240.160
2240.502
2240.844
2241.186
2241.528
2241.870
2242.212
2242.554
2242.896
2243.238
2243.580
2243.922
2244.264
2244.606
2244.948
2245.290
2245.632
2245.974
2246.316
2246.658
2247.000
2247.342
2247.684
2248.026
2248.368
2248.710
2245.582
2242.454
2239.326
2236.198
2233.070
2229.942
2226.814
2223.686
2220.558
2217.430
2214.302
2211.174
2208.046
2204.918
2201.790
2198.662
2195.534
2192.406
2189.278
2186.150
2183.022
2179.894
2176.766
2173.638
2170.510
2167.382
2164.254
2161.126
2157.998
2154.870
2151.742
2148.614
2145.486
2142.358
2139.230
2136.102
2132.974
2129.846
2126.718
2123.590
2120.462
2117.334
2114.206
2111.078
2107.950
2104.822
2101.694
2098.566
2095.438
2092.310
2089.182
2086.054
2082.926
2079.798
2076.670
2073.542
2070.414
2067.286
2064.158
2061.030
2057.902
2054.774
2051.646
2048.518
2045.390
2042.262
2039.134
2036.006
2032.878
2029.750
2026.622
2023.494
2020.366
2017.238
2014.110
2010.982
2007.854
2004.726
2001.598
1998.470
1995.342
1992.214
1989.086
1985.958
1982.830
1979.702
1976.574
1973.446
1970.318
1967.190
1964.062
1960.934
1957.806
1954.678
1951.550
1948.422
1945.294
1942.166
1939.038
1935.910
1932.782
1929.654
1926.526
1923.398
1920.270
1917.142
1914.014
1910.886
1907.758
1904.630
1901.502
1898.374
1895.246
1892.118
1888.990
1885.862
1882.734
1879.606
1876.478
1873.350
1870.222
1867.094
1863.966
1860.838
1857.710
1854.582
1851.454
1848.326
1845.198
1842.070
1838.942
1835.814
1832.686
1829.558
1826.430
1823.302
1820.174
1817.046
1813.918
1810.790
1807.662
1804.534
1801.406
1798.278
1795.150
1792.022
1788.894
1785.766
1782.638
1779.510
1776.382
1773.254
1770.126
1766.998
1763.870
1760.742
1757.614
1754.486
1751.358
1748.230
1745.102
1741.974
1738.846
1735.718
1732.590
1729.462
1726.334
1723.206
1720.078
1716.950
1713.822
1710.694
1707.566
1704.438
1701.310
1698.182
1695.054
1691.926
1688.798
1685.670
1682.542
1679.414
1676.286
1673.158
1670.030
1666.902
1663.774
1660.646
1657.518
1654.390
1651.262
1648.134
1645.006
1641.878
1638.750
1635.622
1632.494
1629.366
1626.238
1623.110
1627.118
1631.126
1635.134
1639.142
1643.150
1647.158
1651.166
1655.174
1659.182
1663.190
1667.198
1671.206
1675.214
1679.222
1683.230
1687.238
1691.246
1695.254
1699.262
1703.270
1707.278
1711.286
1715.294
1719.302
1723.310
1727.318
1731.326
1735.334
1739.342
1743.350
1747.358
1751.366
1755.374
1759.382
1763.390
1767.398
1771.406
1775.414
1779.422
1783.430
1787.438
1791.446
1795.454
1799.462
1803.470
1807.478
1811.486
1815.494
1819.502
1823.510
1827.518
1831.526
1835.534
1839.542
1843.550
1847.558
1851.566
1855.574
1859.582
1863.590
1867.598
1871.606
1875.614
1879.622
1883.630
1887.638
1891.646
1895.654
1899.662
1903.670
1907.678
1911.686
1915.694
1919.702
1923.710
1927.718
1931.726
1935.734
1939.742
1943.750
1947.758
1951.766
1955.774
1959.782
1963.790
1967.798
1971.806
1975.814
1979.822
1983.830
1987.838
1991.846
1995.854
1999.862
2003.870
2007.878
2011.886
2015.894
2019.902
2023.910
2027.918
2031.926
2035.934
2039.942
2043.950
2047.958
2051.966
2055.974
2059.982
2063.990
2067.998
2072.006
2076.014
2080.022
2084.030
2088.038
2092.046
2096.054
2100.062
2104.070
2108.078
2112.086
2116.094
2120.102
2124.110
2128.118
2132.126
2136.134
2140.142
2144.150
2148.158
2152.166
2156.174
2160.182
2164.190
2168.198
2172.206
2176.214
2180.222
2184.230
2188.238
2192.246
2196.254
2200.262
2204.270
2208.278
2212.286
2216.294
2220.302
2224.310
2228.318
2232.326
2236.334
2240.342
2244.350
2248.358
2252.366
2256.374
2260.382
2264.390
2268.398
2272.406
2276.414
2280.422
2284.430
2288.438
2292.446
2296.454
2300.462
2304.470
2308.478
2312.486
2316.494
2320.502
2324.510
2328.518
2332.526
2336.534
2340.542
2344.550
2348.558
2352.566
2356.574
2360.582
2364.590
2368.598
2372.606
2376.614
2380.622
2384.630
2388.638
2392.646
2396.654
2400.662
2404.670
2408.678
2412.686
2416.694
2420.702
2424.710
2422.241
2419.773
2417.304
2414.836
2412.367
2409.899
2407.430
2404.962
2402.493
2400.025
2397.556
2395.088
2392.619
2390.151
2387.682
2385.214
2382.745
2380.277
2377.808
2375.340
2372.871
2370.403
2367.934
2365.466
2362.997
2360.529
2358.060
2355.592
2353.123
2350.655
2348.186
2345.718
2343.249
2340.781
2338.312
2335.844
2333.375
2330.907
2328.438
2325.970
2323.501
2321.033
2318.564
2316.096
2313.627
2311.159
2308.690
2306.222
2303.753
2301.285
2298.816
2296.348
2293.879
2291.411
2288.942
2286.474
2284.005
2281.537
2279.068
2276.600
2274.131
2271.663
2269.194
2266.726
2264.257
2261.789
2259.320
2256.852
2254.383
2251.915
2249.446
2246.978
2244.509
2242.041
2239.572
2237.104
2234.635
2232.167
2229.698
2227.230
2224.761
2222.293
2219.824
2217.356
2214.887
2212.419
2209.950
2207.482
2205.013
2202.545
2200.076
2197.608
2195.139
2192.671
2190.202
2187.734
2185.265
2182.797
2180.328
2177.860
2175.391
2172.923
2170.454
2167.986
2165.517
2163.049
2160.580
2158.112
2155.643
2153.175
2150.706
2148.238
2145.769
2143.301
2140.832
2138.364
2135.895
2133.427
2130.958
2128.490
2126.021
2123.553
2121.084
2118.616
2116.147
2113.679
2111.210
2108.742
2106.273
2103.805
2101.336
2098.868
2096.399
2093.931
2091.462
2088.994
2086.525
2084.057
2081.588
2079.120
2076.651
2074.183
2071.714
2069.246
2066.777
2064.309
2061.840
2059.372
2056.903
2054.435
2051.966
2049.498
2047.029
2044.561
2042.092
2039.624
2037.155
2034.687
2032.218
2029.750
2027.281
2024.813
2022.344
2019.876
2017.407
2014.939
2012.470
2010.002
2007.533
2005.065
2002.596
2000.128
1997.659
1995.191
1992.722
1990.254
1987.785
1985.317
1982.848
1980.380
1977.911
1975.443
1972.974
1970.506
1968.037
1965.569
1963.100
1960.632
1958.163
1955.695
1953.226
1950.758
1948.289
1945.821
1943.352
1940.884
1938.415
1935.947
1933.478
1931.010
1929.837
1928.664
1927.491
1926.318
1925.145
1923.972
1922.799
1921.626
1920.453
1919.280
1918.107
1916.934
1915.761
1914.588
1913.415
1912.242
1911.069
1909.896
1908.723
1907.550
1906.377
1905.204
1904.031
1902.858
1901.685
1900.512
1899.339
1898.166
1896.993
1895.820
1894.647
1893.474
1892.301
1891.128
1889.955
1888.782
1887.609
1886.436
1885.263
1884.090
1882.917
1881.744
1880.571
1879.398
1878.225
1877.052
1875.879
1874.706
1873.533
1872.360
1871.187
1870.014
1868.841
1867.668
1866.495
1865.322
1864.149
1862.976
1861.803
1860.630
1859.457
1858.284
1857.111
1855.938
1854.765
1853.592
1852.419
1851.246
1850.073
1848.900
1847.727
1846.554
1845.381
1844.208
1843.035
1841.862
1840.689
1839.516
1838.343
1837.170
1835.997
1834.824
1833.651
1832.478
1831.305
1830.132
1828.959
1827.786
1826.613
1825.440
1824.267
1823.094
1821.921
1820.748
1819.575
1818.402
1817.229
1816.056
1814.883
1813.710
1812.537
1811.364
1810.191
1809.018
1807.845
1806.672
1805.499
1804.326
1803.153
1801.980
1800.807
1799.634
1798.461
1797.288
1796.115
1794.942
1793.769
1792.596
1791.423
1790.250
1789.077
1787.904
1786.731
1785.558
1784.385
1783.212
1782.039
1780.866
1779.693
1778.520
1777.347
1776.174
1775.001
1773.828
1772.655
1771.482
1770.309
1769.136
1767.963
1766.790
1765.617
1764.444
1763.271
1762.098
1760.925
1759.752
1758.579
1757.406
1756.233
1755.060
1753.887
1752.714
1751.541
1750.368
1749.195
1748.022
1746.849
1745.676
1744.503
1743.330
1742.157
1740.984
1739.811
1738.638
1737.465
1736.292
1735.119
1733.946
1732.773
1731.600
1730.427
1729.254
1728.081
1726.908
1725.735
1724.562
1723.389
1722.216
1721.043
1719.870
1718.697
1717.524
1716.351
1715.178
1714.005
1712.832
1711.659
1710.486
1709.313
1708.140
1706.967
1705.794
1704.621
1703.448
1702.275
1701.102
1699.929
1698.756
1697.583
1696.410
1693.355
1690.301
1687.246
1684.192
1681.137
1678.083
1675.028
1671.974
1668.919
1665.865
1662.810
1659.756
1656.701
1653.647
1650.592
1647.538
1644.483
1641.429
1638.374
1635.320
1632.265
1629.211
1626.156
1623.102
1620.047
1616.993
1613.938
1610.884
1607.829
1604.775
1601.720
1598.666
1595.611
1592.557
1589.502
1586.448
1583.393
1580.339
1577.284
1574.230
1571.175
1568.121
1565.066
1562.012
1558.957
1555.903
1552.848
1549.794
1546.739
1543.685
1540.630
1537.576
1534.521
1531.467
1528.412
1525.358
1522.303
1519.249
1516.194
1513.140
1510.085
1507.031
1503.976
1500.922
1497.867
1494.813
1491.758
1488.704
1485.649
1482.595
1479.540
1476.486
1473.431
1470.377
1467.322
1464.268
1461.213
1458.159
1455.104
1452.050
1448.995
1445.941
1442.886
1439.832
1436.777
1433.723
1430.668
1427.614
1424.559
1421.505
1418.450
1415.396
1412.341
1409.287
1406.232
1403.178
1400.123
1397.069
1394.014
1390.960
1387.905
1384.851
1381.796
1378.742
1375.687
1372.633
1369.578
1366.524
1363.469
1360.415
1357.360
1354.306
1351.251
1348.197
1345.142
1342.088
1339.033
1335.979
1332.924
1329.870
1326.815
1323.761
1320.706
1317.652
1314.597
1311.543
1308.488
1305.434
1302.379
1299.325
1296.270
1293.216
1290.161
1287.107
1284.052
1280.998
1277.943
1274.889
1271.834
1268.780
1265.725
1262.671
1259.616
1256.562
1253.507
1250.453
1247.398
1244.344
1241.289
1238.235
1235.180
1232.126
1229.071
1226.017
1222.962
1219.908
1216.853
1213.799
1210.744
1207.690
1204.635
1201.581
1198.526
1195.472
1192.417
1189.363
1186.308
1183.254
1180.199
1177.145
1174.090
1171.036
1167.981
1164.927
1161.872
1158.818
1155.763
1152.709
1149.654
1146.600
1143.545
1140.491
1137.436
1134.382
1131.327
1128.273
1125.218
1122.164
1119.109
1116.055
1113.000
1109.946
1106.891
1103.837
1100.782
1097.728
1094.673
1091.619
1088.564
1085.510
1088.980
1092.450
1095.920
1099.390
1102.860
1106.330
1109.800
1113.270
1116.740
1120.210
1123.680
1127.150
1130.620
1134.090
1137.560
1141.030
1144.500
1147.970
1151.440
1154.910
1158.380
1161.850
1165.320
1168.790
1172.260
1175.730
1179.200
1182.670
1186.140
1189.610
1193.080
1196.550
1200.020
1203.490
1206.960
1210.430
1213.900
1217.370
1220.840
1224.310
1227.780
1231.250
1234.720
1238.190
1241.660
1245.130
1248.600
1252.070
1255.540
1259.010
1262.480
1265.950
1269.420
1272.890
1276.360
1279.830
1283.300
1286.770
1290.240
1293.710
1297.180
1300.650
1304.120
1307.590
1311.060
1314.530
1318.000
1321.470
1324.940
1328.410
1331.880
1335.350
1338.820
1342.290
1345.760
1349.230
1352.700
1356.170
1359.640
1363.110
1366.580
1370.050
1373.520
1376.990
1380.460
1383.930
1387.400
1390.870
1394.340
1397.810
1401.280
1404.750
1408.220
1411.690
1415.160
1418.630
1422.100
1425.570
1429.040
1432.510
1435.980
1439.450
1442.920
1446.390
1449.860
1453.330
1456.800
1460.270
1463.740
1467.210
1470.680
1474.150
1477.620
1481.090
1484.560
1488.030
1491.500
1494.970
1498.440
1501.910
1505.380
1508.850
1512.320
1515.790
1519.260
1522.730
1526.200
1529.670
1533.140
1536.610
1540.080
1543.550
1547.020
1550.490
1553.960
1557.430
1560.900
1564.370
1567.840
1571.310
1574.780
1578.250
1581.720
1585.190
1588.660
1592.130
1595.600
1599.070
1602.540
1606.010
1609.480
1612.950
1616.420
1619.890
1623.360
1626.830
1630.300
1633.770
1637.240
1640.710
1644.180
1647.650
1651.120
1654.590
1658.060
1661.530
1665.000
1668.470
1671.940
1675.410
1678.880
1682.350
1685.820
1689.290
1692.760
1696.230
1699.700
1703.170
1706.640
1710.110
1713.580
1717.050
1720.520
1723.990
1727.460
1730.930
1734.400
1737.870
1741.340
1744.810
1748.280
1751.750
1755.220
1758.690
1762.160
1765.630
1769.100
1772.570
1776.040
1779.510
1772.618
1765.727
1758.835
1751.944
1745.052
1738.161
1731.269
1724.378
1717.486
1710.595
1703.703
1696.812
1689.920
1683.029
1676.137
1669.246
1662.354
1655.463
1648.571
1641.680
1634.788
1627.897
1621.005
1614.114
1607.222
1600.331
1593.439
1586.548
1579.656
1572.765
1565.873
1558.982
1552.090
1545.199
1538.307
1531.416
1524.524
1517.633
1510.741
1503.850
1496.958
1490.067
1483.175
1476.284
1469.392
1462.501
1455.609
1448.718
1441.826
1434.935
1428.043
1421.152
1414.260
1407.369
1400.477
1393.586
1386.694
1379.803
1372.911
1366.020
1359.128
1352.237
1345.345
1338.454
1331.562
1324.671
1317.779
1310.888
1303.996
1297.105
1290.213
1283.322
1276.430
1269.539
1262.647
1255.756
1248.864
1241.973
1235.081
1228.190
1221.298
1214.407
1207.515
1200.624
1193.732
1186.841
1179.949
1173.058
1166.166
1159.275
1152.383
1145.492
1138.600
1131.709
1124.817
1117.926
1111.034
1104.143
1097.251
1090.360
1083.468
1076.577
1069.685
1062.794
1055.902
1049.011
1042.119
1035.228
1028.336
1021.445
1014.553
1007.662
1000.770
993.879
986.987
980.096
973.204
966.313
959.421
952.530
945.638
938.747
931.855
924.964
918.072
911.181
904.289
897.398
890.506
883.615
876.723
869.832
862.940
856.049
849.157
842.266
835.374
828.483
821.591
814.700
807.808
800.917
794.025
787.134
780.242
773.351
766.459
759.568
752.676
745.785
738.893
732.002
725.110
718.219
711.327
704.436
697.544
690.653
683.761
676.870
669.978
663.087
656.195
649.304
642.412
635.521
628.629
621.738
614.846
607.955
601.063
594.172
587.280
580.389
573.497
566.606
559.714
552.823
545.931
539.040
532.148
525.257
518.365
511.474
504.582
497.691
490.799
483.908
477.016
470.125
463.233
456.342
449.450
442.559
435.667
428.776
421.884
414.993
408.101
401.210
400.061
398.913
397.764
396.616
395.467
394.319
393.170
392.022
390.873
389.725
388.576
387.428
386.279
385.131
383.982
382.834
381.685
380.537
379.388
378.240
377.091
375.943
374.794
373.646
372.497
371.349
370.200
369.052
367.903
366.755
365.606
364.458
363.309
362.161
361.012
359.864
358.715
357.567
356.418
355.270
354.121
352.973
351.824
350.676
349.527
348.379
347.230
346.082
344.933
343.785
342.636
341.488
340.339
339.191
338.042
336.894
335.745
334.597
333.448
332.300
331.151
330.003
328.854
327.706
326.557
325.409
324.260
323.112
321.963
320.815
319.666
318.518
317.369
316.221
315.072
313.924
312.775
311.627
310.478
309.330
308.181
307.033
305.884
304.736
303.587
302.439
301.290
300.142
298.993
297.845
296.696
295.548
294.399
293.251
292.102
290.954
289.805
288.657
287.508
286.360
285.211
284.063
282.914
281.766
280.617
279.469
278.320
277.172
276.023
274.875
273.726
272.578
271.429
270.281
269.132
267.984
266.835
265.687
264.538
263.390
262.241
261.093
259.944
258.796
257.647
256.499
255.350
254.202
253.053
251.905
250.756
249.608
248.459
247.311
246.162
245.014
243.865
242.717
241.568
240.420
239.271
238.123
236.974
235.826
234.677
233.529
232.380
231.232
230.083
228.935
227.786
226.638
225.489
224.341
223.192
222.044
220.895
219.747
218.598
217.450
216.301
215.153
214.004
212.856
211.707
210.559
209.410
208.262
207.113
205.965
204.816
203.668
202.519
201.371
200.222
199.074
197.925
196.777
195.628
194.480
193.331
192.183
191.034
189.886
188.737
187.589
186.440
185.292
184.143
182.995
181.846
180.698
179.549
178.401
177.252
176.104
174.955
173.807
172.658
98.210
98.210
98.210
98.210
98.210
98.210
98.210
98.210
98.210
98.210
98.210
98.210
98.210
98.210
98.210
98.210
98.210
98.210
98.210
98.210
98.210
98.210
98.210
98.210
98.210
98.210
98.210
98.210
98.210
98.210
98.210
98.210
98.210
98.210
98.210
98.210
98.210
98.210
98.210
98.210
98.210
98.210
98.210
98.210
98.210
98.210
98.210
98.210
98.210
98.210
98.210
98.210
98.210
98.210
98.210
98.210
98.210
98.210
98.210
98.210
98.210
98.210
98.210
98.210
98.210
98.210
98.210
98.210
98.210
98.210
98.210
98.210
98.210
98.210
98.210
98.210
98.210
98.210
98.210
98.210
98.210
98.210
98.210
98.210
98.210
98.210
98.210
98.210
98.210
98.210
98.210
98.210
98.210
98.210
98.210
98.210
98.210
98.210
98.210
98.210
98.210
98.210
98.210
98.210
98.210
98.210
98.210
98.210
98.210
98.210
98.210
98.210
98.210
98.210
98.210
98.210
98.210
98.210
98.210
98.210
98.210
98.210
98.210
98.210
98.210
98.210
98.210
98.210
98.210
98.210
98.210
98.210
98.210
98.210
98.210
98.210
98.210
98.210
98.210
98.210
98.210
98.210
98.210
98.210
98.210
98.210
98.210
98.210
98.210
98.210
98.210
98.210
98.210
98.210
98.210
98.210
98.210
98.210
98.210
98.210
98.210
98.210
98.210
98.210
98.210
98.210
98.210
98.210
98.210
98.210
98.210
98.210
98.210
98.210
98.210
98.210
98.210
98.210
98.210
98.210
98.210
98.210
98.210
98.210
98.210
98.210
98.210
98.210
98.210
98.210
98.210
98.210
98.210
98.210
98.210
98.210
98.210
98.210
98.210
98.210
98.210
98.210
98.210
98.210
98.210
98.210
98.210
98.210
98.210
98.210
98.210
98.210
98.210
98.210
98.210
98.210
98.210
98.210
98.210
98.210
98.210
98.210
98.210
98.210
98.210
98.210
98.210
98.210
98.210
98.210
98.210
98.210
98.210
98.210
98.210
98.210
98.210
98.210
98.210
98.210
98.210
98.210
98.210
98.210
98.210
98.210
98.210
98.210
98.210
98.210
98.210
98.210
98.210
98.210
98.210
98.210
98.210
98.210
98.210
98.210
98.210
98.210
98.210
98.210
