2060.564
2056.971
2053.379
2049.786
2046.194
2042.601
2039.009
2035.416
2031.824
2028.231
2024.639
2021.046
2017.454
2013.861
2010.269
2006.676
2003.084
1999.491
1995.899
1992.306
1988.714
1985.121
1981.529
1977.936
1974.344
1970.751
1967.159
1963.566
1959.974
1956.381
1952.789
1949.196
1945.604
1942.011
1938.419
1934.826
1931.234
1927.641
1924.049
1920.456
1916.864
1913.271
1909.679
1906.086
1902.494
1898.901
1895.309
1891.716
1888.124
1884.531
1880.939
1877.346
1873.754
1870.161
1866.569
1862.976
1859.384
1855.791
1852.199
1848.606
1845.014
1841.421
1837.829
1834.236
1830.644
1827.051
1823.459
1819.866
1816.274
1812.681
1809.089
1805.496
1801.904
1798.311
1794.719
1791.126
1787.534
1783.941
1780.349
1776.756
1773.164
1769.571
1765.979
1762.386
1758.794
1755.201
1751.609
1748.016
1744.424
1740.831
1737.239
1733.646
1730.054
1726.461
1722.869
1719.276
1715.684
1712.091
1708.499
1704.906
1701.314
1697.721
1694.129
1690.536
1686.944
1683.351
1679.759
1676.166
1672.574
1668.981
1665.389
1661.796
1658.204
1654.611
1651.019
1647.426
1643.834
1640.241
1636.649
1633.056
1629.464
1625.871
1622.279
1618.686
1615.094
1611.501
1607.909
1604.316
1600.724
1597.131
1593.539
1589.946
1586.354
1582.761
1584.521
1586.280
1588.040
1589.799
1591.559
1593.318
1595.078
1596.837
1598.597
1600.356
1602.116
1603.875
1605.635
1607.394
1609.154
1610.913
1612.673
1614.432
1616.192
1617.951
1619.711
1621.470
1623.230
1624.989
1626.749
1628.508
1630.268
1632.027
1633.787
1635.546
1637.306
1639.065
1640.825
1642.584
1644.344
1646.103
1647.863
1649.622
1651.382
1653.141
1654.901
1656.660
1658.420
1660.179
1661.939
1663.698
1665.458
1667.217
1668.977
1670.736
1672.496
1674.255
1676.015
1677.774
1679.534
1681.293
1683.053
1684.812
1686.572
1688.331
1690.091
1691.850
1693.610
1695.369
1697.129
1698.888
1700.648
1702.407
1704.167
1705.926
1707.686
1709.445
1711.205
1712.964
1714.724
1716.483
1718.243
1720.002
1721.762
1723.521
1725.281
1727.040
1728.800
1730.559
1732.319
1734.078
1735.838
1737.597
1739.357
1741.116
1742.876
1744.635
1746.395
1748.154
1749.914
1751.673
1753.433
1755.192
1756.952
1758.711
1760.471
1762.230
1763.990
1765.749
1767.509
1769.268
1771.028
1772.787
1774.547
1776.306
1778.066
1779.825
1781.585
1783.344
1785.104
1786.863
1788.623
1790.382
1792.142
1793.901
1795.661
1797.420
1799.180
1800.939
1802.699
1804.458
1806.218
1807.977
1809.737
1811.496
1813.256
1815.015
1816.775
1818.534
1820.294
1822.053
1823.813
1825.572
1827.332
1829.091
1830.851
1832.610
1834.370
1836.129
1837.889
1839.648
1841.408
1843.167
1844.927
1846.686
1848.446
1850.205
1851.965
1853.724
1855.484
1857.243
1859.003
1860.762
1862.522
1864.281
1866.041
1867.800
1869.560
1871.319
1873.079
1874.838
1876.598
1878.357
1880.117
1881.876
1883.636
1885.395
1887.155
1888.914
1890.674
1892.433
1894.193
1895.952
1897.712
1899.471
1901.231
1902.990
1904.750
1906.509
1908.269
1910.028
1911.788
1913.547
1915.307
1917.066
1918.826
1920.585
1922.345
1924.104
1925.864
1927.623
1929.383
1931.142
1932.902
1934.661
1931.142
1927.623
1924.104
1920.585
1917.066
1913.547
1910.028
1906.509
1902.990
1899.471
1895.952
1892.433
1888.914
1885.395
1881.876
1878.357
1874.838
1871.319
1867.800
1864.281
1860.762
1857.243
1853.724
1850.205
1846.686
1843.167
1839.648
1836.129
1832.610
1829.091
1825.572
1822.053
1818.534
1815.015
1811.496
1807.977
1804.458
1800.939
1797.420
1793.901
1790.382
1786.863
1783.344
1779.825
1776.306
1772.787
1769.268
1765.749
1762.230
1758.711
1755.192
1751.673
1748.154
1744.635
1741.116
1737.597
1734.078
1730.559
1727.040
1723.521
1720.002
1716.483
1712.964
1709.445
1705.926
1702.407
1698.888
1695.369
1691.850
1688.331
1684.812
1681.293
1677.774
1674.255
1670.736
1667.217
1663.698
1660.179
1656.660
1653.141
1649.622
1646.103
1642.584
1639.065
1635.546
1632.027
1628.508
1624.989
1621.470
1617.951
1614.432
1610.913
1607.394
1603.875
1600.356
1596.837
1593.318
1589.799
1586.280
1582.761
1579.242
1575.723
1572.204
1568.685
1565.166
1561.647
1558.128
1554.609
1551.090
1547.571
1544.052
1540.533
1537.014
1533.495
1529.976
1526.457
1522.938
1519.419
1515.900
1512.381
1508.862
1505.343
1501.824
1498.305
1494.786
1491.267
1487.748
1484.229
1480.710
1477.191
1473.672
1470.153
1466.634
1463.115
1459.596
1456.077
1452.558
1449.039
1445.520
1442.001
1438.482
1434.963
1431.444
1427.925
1424.406
1420.887
1417.368
1413.849
1410.330
1406.811
1403.292
1399.773
1396.254
1392.735
1389.216
1385.697
1382.178
1378.659
1375.140
1371.621
1368.102
1364.583
1361.064
1357.545
1354.026
1350.507
1346.988
1343.469
1339.950
1336.431
1332.912
1329.393
1325.874
1322.355
1318.836
1315.317
1311.798
1308.279
1304.760
1301.241
1297.722
1294.203
1290.684
1287.165
1283.646
1280.127
1276.608
1273.089
1269.570
1266.051
1262.532
1259.013
1255.494
1251.975
1248.456
1244.937
1241.418
1237.899
1234.380
1230.861
1226.022
1221.183
1216.344
1211.505
1206.666
1201.827
1196.988
1192.149
1187.310
1182.471
1177.632
1172.793
1167.954
1163.115
1158.276
1153.437
1148.598
1143.759
1138.920
1134.081
1129.242
1124.403
1119.564
1114.725
1109.886
1105.047
1100.208
1095.369
1090.530
1085.691
1080.852
1076.013
1071.174
1066.335
1061.496
1056.657
1051.818
1046.979
1042.140
1037.301
1032.462
1027.623
1022.784
1017.945
1013.106
1008.267
1003.428
998.589
993.750
988.911
984.072
979.233
974.394
969.555
964.716
959.877
955.038
950.199
945.360
940.521
935.682
930.843
926.004
921.165
916.326
911.487
906.648
901.809
896.970
892.131
887.292
882.453
877.614
872.775
867.936
863.097
858.258
853.419
848.580
843.741
838.902
834.063
829.224
824.385
819.546
814.707
809.868
805.029
800.190
795.351
790.512
785.673
780.834
775.995
771.156
766.317
761.478
756.639
751.800
746.961
742.122
737.283
732.444
727.605
722.766
717.927
713.088
708.249
703.410
698.571
693.732
688.893
684.054
679.215
674.376
669.537
664.698
659.859
655.020
650.181
645.342
640.503
635.664
630.825
625.986
621.147
616.308
611.469
606.630
601.791
596.952
592.113
587.274
582.435
577.596
572.757
567.918
563.079
558.240
553.401
548.562
543.723
538.884
534.045
529.206
524.367
519.528
514.689
509.850
505.011
500.172
495.333
490.494
485.655
480.816
475.977
471.138
466.299
461.460
456.621
451.782
446.943
442.104
437.265
432.426
427.587
422.748
417.909
413.070
408.231
403.392
398.553
393.714
388.875
384.036
379.197
374.358
369.519
364.680
359.841
355.002
350.163
345.324
340.485
335.646
330.807
325.968
321.129
316.290
311.451
306.612
301.773
296.934
292.095
287.256
282.417
277.578
272.739
267.900
106.661
106.613
106.564
106.516
106.467
106.419
106.370
106.322
106.273
106.225
106.176
106.128
106.079
106.031
105.982
105.934
105.885
105.837
105.788
105.740
105.691
105.643
105.594
105.546
105.497
105.449
105.400
105.352
105.303
105.255
105.206
105.158
105.109
105.061
105.012
104.964
104.915
104.867
104.818
104.770
104.721
104.673
104.624
104.576
104.527
104.479
104.430
104.382
104.333
104.285
104.236
104.188
104.139
104.091
104.042
103.994
103.945
103.897
103.848
103.800
103.751
103.703
103.654
103.606
103.557
103.509
103.460
103.412
103.363
103.315
103.266
103.218
103.169
103.121
103.072
103.024
102.975
102.927
102.878
102.830
102.781
102.733
102.684
102.636
102.587
102.539
102.490
102.442
102.393
102.345
102.296
102.248
102.199
102.151
102.102
102.054
102.005
101.957
101.908
101.860
101.811
101.763
101.714
101.666
101.617
101.569
101.520
101.472
101.423
101.375
101.326
101.278
101.229
101.181
101.132
101.084
101.035
100.987
100.938
100.890
100.841
100.793
100.744
100.696
100.647
100.599
100.550
100.502
100.453
100.405
100.356
100.308
100.259
100.211
100.162
100.114
100.065
100.017
99.968
99.920
99.871
99.823
99.774
99.726
99.677
99.629
99.580
99.532
99.483
99.435
99.386
99.338
99.289
99.241
99.192
99.144
99.095
99.047
98.998
98.950
98.901
98.853
98.804
98.756
98.707
98.659
98.610
98.562
98.513
98.465
98.416
98.368
98.319
98.271
98.222
98.174
98.125
98.077
98.028
97.980
97.931
97.883
97.834
97.786
97.737
97.689
97.640
97.592
97.543
97.495
97.446
97.398
97.349
97.301
97.252
97.204
97.155
97.107
97.058
97.010
96.961
96.961
96.961
96.961
96.961
96.961
96.961
96.961
96.961
96.961
96.961
96.961
96.961
96.961
96.961
96.961
96.961
96.961
96.961
96.961
96.961
96.961
96.961
96.961
96.961
96.961
96.961
96.961
96.961
96.961
96.961
96.961
96.961
96.961
96.961
96.961
96.961
96.961
96.961
96.961
96.961
96.961
96.961
96.961
96.961
96.961
96.961
96.961
96.961
96.961
96.961
96.961
96.961
96.961
96.961
96.961
96.961
96.961
96.961
96.961
96.961
96.961
96.961
96.961
96.961
96.961
96.961
96.961
96.961
96.961
96.961
96.961
96.961
96.961
96.961
96.961
96.961
96.961
96.961
96.961
96.961
96.961
96.961
96.961
96.961
96.961
96.961
96.961
96.961
96.961
96.961
96.961
96.961
96.961
96.961
96.961
96.961
96.961
96.961
96.961
96.961
96.961
96.961
96.961
96.961
96.961
96.961
96.961
96.961
96.961
96.961
96.961
96.961
96.961
96.961
96.961
96.961
96.961
96.961
96.961
96.961
96.961
96.961
96.961
96.961
96.961
96.961
96.961
96.961
96.961
96.961
96.961
96.961
96.961
96.961
96.961
96.961
96.961
96.961
96.961
96.961
96.961
96.961
96.961
96.961
96.961
96.961
96.961
96.961
96.961
96.961
96.961
96.961
96.961
96.961
96.961
96.961
96.961
96.961
96.961
96.961
96.961
96.961
96.961
96.961
96.961
96.961
96.961
96.961
96.961
96.961
96.961
96.961
96.961
96.961
96.961
96.961
96.961
96.961
96.961
96.961
96.961
96.961
96.961
96.961
96.961
96.961
96.961
96.961
96.961
96.961
96.961
96.961
96.961
96.961
96.961
96.961
96.961
96.961
96.961
96.961
96.937
96.912
96.888
96.863
96.839
96.814
96.790
96.765
96.741
96.716
96.692
96.667
96.643
96.618
96.594
96.569
96.545
96.520
96.496
96.471
96.447
96.422
96.398
96.373
96.349
96.324
96.300
96.275
96.251
96.226
96.202
96.177
96.153
96.128
96.104
96.079
96.055
96.030
96.006
95.981
95.957
95.932
95.908
95.883
95.859
95.834
95.810
95.785
95.761
95.736
95.712
95.687
95.663
95.638
95.614
95.589
95.565
95.540
95.516
95.491
95.467
95.442
95.418
95.393
95.369
95.344
95.320
95.295
95.271
95.246
95.222
95.197
95.173
95.148
95.124
95.099
95.075
95.050
95.026
95.001
94.977
94.952
94.928
94.903
94.879
94.854
94.830
94.805
94.781
94.756
94.732
94.707
94.683
94.658
94.634
94.609
94.585
94.560
94.536
94.511
94.487
94.462
94.438
94.413
94.389
94.364
94.340
94.315
94.291
94.266
94.242
94.217
94.193
94.168
94.144
94.119
94.095
94.070
94.046
94.021
93.997
93.972
93.948
93.923
93.899
93.874
93.850
93.825
93.801
93.776
93.752
93.727
93.703
93.678
93.654
93.629
93.605
93.580
93.556
93.531
93.507
93.482
93.458
93.433
93.409
93.384
93.360
93.335
93.311
93.286
93.262
93.237
93.213
93.188
93.164
93.139
93.115
93.090
93.066
93.041
93.017
92.992
92.968
92.943
92.919
92.894
92.870
92.845
92.821
92.796
92.772
92.747
92.723
92.698
92.674
92.649
92.625
92.600
92.576
92.551
92.527
92.502
92.478
92.453
92.429
92.404
92.380
92.355
92.331
92.306
92.282
92.257
92.233
92.208
92.184
92.159
92.135
92.110
92.086
92.061
92.086
92.110
92.135
92.159
92.184
92.208
92.233
92.257
92.282
92.306
92.331
92.355
92.380
92.404
92.429
92.453
92.478
92.502
92.527
92.551
92.576
92.600
92.625
92.649
92.674
92.698
92.723
92.747
92.772
92.796
92.821
92.845
92.870
92.894
92.919
92.943
92.968
92.992
93.017
93.041
93.066
93.090
93.115
93.139
93.164
93.188
93.213
93.237
93.262
93.286
93.311
93.335
93.360
93.384
93.409
93.433
93.458
93.482
93.507
93.531
93.556
93.580
93.605
93.629
93.654
93.678
93.703
93.727
93.752
93.776
93.801
93.825
93.850
93.874
93.899
93.923
93.948
93.972
93.997
94.021
94.046
94.070
94.095
94.119
94.144
94.168
94.193
94.217
94.242
94.266
94.291
94.315
94.340
94.364
94.389
94.413
94.438
94.462
94.487
94.511
94.536
94.560
94.585
94.609
94.634
94.658
94.683
94.707
94.732
94.756
94.781
94.805
94.830
94.854
94.879
94.903
94.928
94.952
94.977
95.001
95.026
95.050
95.075
95.099
95.124
95.148
95.173
95.197
95.222
95.246
95.271
95.295
95.320
95.344
95.369
95.393
95.418
95.442
95.467
95.491
95.516
95.540
95.565
95.589
95.614
95.638
95.663
95.687
95.712
95.736
95.761
95.785
95.810
95.834
95.859
95.883
95.908
95.932
95.957
95.981
96.006
96.030
96.055
96.079
96.104
96.128
96.153
96.177
96.202
96.226
96.251
96.275
96.300
96.324
96.349
96.373
96.398
96.422
96.447
96.471
96.496
96.520
96.545
96.569
96.594
96.618
96.643
96.667
96.692
96.716
96.741
96.765
96.790
96.814
96.839
96.863
96.888
96.912
96.937
96.961
96.961
96.961
96.961
96.961
96.961
96.961
96.961
96.961
96.961
96.961
96.961
96.961
96.961
96.961
96.961
96.961
96.961
96.961
96.961
96.961
96.961
96.961
96.961
96.961
96.961
96.961
96.961
96.961
96.961
96.961
96.961
96.961
96.961
96.961
96.961
96.961
96.961
96.961
96.961
96.961
96.961
96.961
96.961
96.961
96.961
96.961
96.961
96.961
96.961
96.961
96.961
96.961
96.961
96.961
96.961
96.961
96.961
96.961
96.961
96.961
96.961
96.961
96.961
96.961
96.961
96.961
96.961
96.961
96.961
96.961
96.961
96.961
96.961
96.961
96.961
96.961
96.961
96.961
96.961
96.961
96.961
96.961
96.961
96.961
96.961
96.961
96.961
96.961
96.961
96.961
96.961
96.961
96.961
96.961
96.961
96.961
96.961
96.961
96.961
96.961
96.961
96.961
96.961
96.961
96.961
96.961
96.961
96.961
96.961
96.961
96.961
96.961
96.961
96.961
96.961
96.961
96.961
96.961
96.961
96.961
96.961
96.961
96.961
96.961
96.961
96.961
96.961
96.961
96.961
96.961
96.961
96.961
96.961
96.961
96.961
96.961
96.961
96.961
96.961
96.961
96.961
96.961
96.961
96.961
96.961
96.961
96.961
96.961
96.961
96.961
96.961
96.961
96.961
96.961
96.961
96.961
96.961
96.961
96.961
96.961
96.961
96.961
96.961
96.961
96.961
96.961
96.961
96.961
96.961
96.961
96.961
96.961
96.961
96.961
96.961
96.961
96.961
96.961
96.961
96.961
96.961
96.961
96.961
96.961
96.961
96.961
96.961
96.961
96.961
96.961
96.961
96.961
96.961
96.961
96.961
96.961
96.961
96.961
96.961
96.961
96.961
96.961
96.961
96.961
96.961
96.961
96.961
96.961
96.961
96.961
96.961
96.961
96.961
96.961
96.961
96.961
96.961
96.961
96.961
96.961
96.961
96.961
96.961
96.961
96.961
96.961
96.961
96.961
96.961
96.961
96.961
96.961
96.961
96.961
96.961
96.961
96.961
96.961
96.961
96.961
96.961
96.961
96.961
96.961
96.961
96.961
96.961
96.961
96.961
96.961
96.961
96.961
96.961
96.961
96.961
96.961
96.961
96.961
96.961
96.961
96.961
96.961
96.961
96.961
96.961
96.961
96.961
96.961
96.961
96.961
96.961
96.961
96.961
96.961
96.961
96.961
96.961
96.961
96.961
96.961
96.961
96.961
96.961
96.961
96.961
96.961
96.961
96.961
96.961
96.961
96.961
96.961
96.961
96.961
96.961
96.961
96.961
96.961
96.961
96.961
96.961
96.961
96.961
96.961
96.961
96.961
96.961
96.961
96.961
96.961
96.961
96.961
96.961
96.961
96.961
96.961
96.961
96.961
96.961
96.961
96.961
96.961
96.961
96.961
96.961
96.961
96.961
96.961
96.961
96.961
96.961
96.961
96.961
96.961
96.961
96.961
96.961
96.961
96.961
96.961
96.961
96.961
96.961
96.961
96.961
96.961
96.961
96.961
96.961
96.961
96.961
96.961
96.961
96.961
96.961
96.961
96.961
96.961
96.961
96.961
96.961
96.961
96.961
96.961
96.961
96.961
96.961
96.961
96.961
96.961
96.961
96.961
96.961
96.961
96.961
96.961
96.961
96.961
96.961
96.961
96.961
96.961
96.961
96.961
96.961
96.961
96.961
96.961
96.961
96.961
96.961
96.961
96.961
96.961
96.961
96.961
96.961
96.961
96.961
96.961
96.961
96.961
96.961
96.961
96.961
96.961
96.961
96.961
96.961
96.961
96.961
96.961
96.961
96.961
96.961
96.961
96.961
96.961
96.961
96.961
96.961
96.961
96.961
96.961
96.961
96.961
96.961
96.961
96.961
96.961
96.961
96.961
96.961
96.961
96.961
96.961
96.961
96.961
96.961
96.961
96.961
96.961
96.961
96.961
96.961
96.961
96.961
96.961
96.961
96.961
96.961
96.961
96.961
96.961
96.961
96.961
96.961
96.961
96.961
96.961
96.961
96.961
96.961
96.961
96.961
96.961
