2064.558
2063.776
2062.994
2062.212
2061.430
2060.648
2059.866
2059.084
2058.302
2057.520
2056.738
2055.956
2055.174
2054.392
2053.610
2052.828
2052.046
2051.264
2050.482
2049.700
2048.918
2048.136
2047.354
2046.572
2045.790
2045.008
2044.226
2043.444
2042.662
2041.880
2041.098
2040.316
2039.534
2038.752
2037.970
2037.188
2036.406
2035.624
2034.842
2034.060
2033.278
2032.496
2031.714
2030.932
2030.150
2029.368
2028.586
2027.804
2027.022
2026.240
2025.458
2024.676
2023.894
2023.112
2022.330
2021.548
2020.766
2019.984
2019.202
2018.420
2017.638
2016.856
2016.074
2015.292
2014.510
2013.728
2012.946
2012.164
2011.382
2010.600
2009.818
2008.449
2007.081
2005.712
2004.344
2002.975
2001.607
2000.238
1998.870
1997.501
1996.133
1994.764
1993.396
1992.027
1990.659
1989.290
1987.922
1986.553
1985.185
1983.816
1982.448
1981.079
1979.711
1978.342
1976.974
1975.605
1974.237
1972.868
1971.500
1970.131
1968.763
1967.394
1966.026
1964.657
1963.289
1961.920
1960.552
1959.183
1957.815
1956.446
1955.078
1953.709
1952.341
1950.972
1949.604
1948.235
1946.867
1945.498
1944.130
1942.761
1941.393
1940.024
1938.656
1937.287
1935.919
1934.550
1933.182
1931.813
1930.445
1929.076
1927.708
1926.339
1924.971
1923.602
1922.234
1920.865
1919.497
1918.128
1916.760
1915.391
1914.023
1912.654
1911.286
1909.917
1908.549
1907.180
1905.812
1904.443
1903.075
1901.706
1900.338
1898.969
1897.601
1896.232
1894.864
1893.495
1892.127
1890.758
1889.390
1888.021
1886.653
1885.284
1883.916
1882.547
1881.179
1879.810
1878.442
1877.073
1875.705
1874.336
1872.968
1871.599
1870.231
1868.862
1867.494
1866.125
1864.757
1863.388
1862.020
1860.651
1859.283
1857.914
1856.546
1855.177
1853.809
1852.440
1851.072
1849.703
1848.335
1846.966
1845.598
1844.229
1842.861
1841.492
1840.124
1838.755
1837.387
1836.018
1834.650
1833.281
1831.913
1830.544
1829.176
1827.807
1826.439
1825.070
1823.702
1822.333
1820.965
1819.596
1818.228
1816.859
1815.491
1814.122
1812.754
1811.385
1810.017
1808.648
1807.280
1805.911
1804.543
1803.174
1801.806
1800.437
1799.069
1797.700
1796.332
1794.963
1793.595
1792.226
1790.858
1789.489
1788.121
1786.752
1785.384
1784.015
1782.647
1781.278
1779.910
1778.541
1777.173
1775.804
1774.436
1773.067
1771.699
1770.330
1768.962
1767.593
1766.225
1764.856
1763.488
1762.119
1760.751
1759.382
1758.014
1756.645
1755.277
1753.908
1752.540
1751.171
1749.803
1748.434
1747.066
1745.697
1744.329
1742.960
1741.592
1740.223
1738.855
1737.486
1736.118
1738.244
1740.371
1742.497
1744.624
1746.750
1748.877
1751.003
1753.130
1755.256
1757.383
1759.509
1761.636
1763.762
1765.889
1768.015
1770.142
1772.268
1774.395
1776.521
1778.648
1780.774
1782.901
1785.027
1787.154
1789.280
1791.407
1793.533
1795.660
1797.786
1799.913
1802.039
1804.166
1806.292
1808.419
1810.545
1812.672
1814.798
1816.925
1819.051
1821.178
1823.304
1825.431
1827.557
1829.684
1831.810
1833.937
1836.063
1838.190
1840.316
1842.443
1844.569
1846.696
1848.822
1850.949
1853.075
1855.202
1857.328
1859.455
1861.581
1863.708
1865.834
1867.961
1870.087
1872.214
1874.340
1876.467
1878.593
1880.720
1882.846
1884.973
1887.099
1889.226
1891.352
1893.479
1895.605
1897.732
1899.858
1901.985
1904.111
1906.238
1908.364
1910.491
1912.617
1914.744
1916.870
1918.997
1921.123
1923.250
1925.376
1927.503
1929.629
1931.756
1933.882
1936.009
1938.135
1940.262
1942.388
1944.515
1946.641
1948.768
1950.894
1953.021
1955.147
1957.274
1959.400
1961.527
1963.653
1965.780
1967.906
1970.033
1972.159
1974.286
1976.412
1978.539
1980.665
1982.792
1984.918
1987.045
1989.171
1991.298
1993.424
1995.551
1997.677
1999.804
2001.930
2004.057
2006.183
2008.310
2010.436
2012.563
2014.689
2016.816
2018.942
2021.069
2023.195
2025.322
2027.448
2029.575
2031.701
2033.828
2035.954
2038.081
2040.207
2042.334
2044.460
2046.587
2048.713
2050.840
2052.966
2055.093
2057.219
2059.346
2061.472
2063.599
2065.725
2067.852
2069.978
2072.105
2074.231
2076.358
2078.484
2080.611
2082.737
2084.864
2086.990
2089.117
2091.243
2093.370
2095.496
2097.623
2099.749
2101.876
2104.002
2106.129
2108.255
2110.382
2112.508
2114.635
2116.761
2118.888
2121.014
2123.141
2125.267
2127.394
2129.520
2131.647
2133.773
2135.900
2138.026
2140.153
2142.279
2144.406
2146.532
2148.659
2150.785
2152.912
2155.038
2157.165
2159.291
2161.418
2157.825
2154.233
2150.640
2147.048
2143.455
2139.863
2136.270
2132.678
2129.085
2125.493
2121.900
2118.308
2114.715
2111.123
2107.530
2103.938
2100.345
2096.753
2093.160
2089.568
2085.975
2082.383
2078.790
2075.198
2071.605
2068.013
2064.420
2060.828
2057.235
2053.643
2050.050
2046.458
2042.865
2039.273
2035.680
2032.088
2028.495
2024.903
2021.310
2017.718
2014.125
2010.533
2006.940
2003.348
1999.755
1996.163
1992.570
1988.978
1985.385
1981.793
1978.200
1974.608
1971.015
1967.423
1963.830
1960.238
1956.645
1953.053
1949.460
1945.868
1942.275
1938.683
1935.090
1931.498
1927.905
1924.313
1920.720
1917.128
1913.535
1909.943
1906.350
1902.758
1899.165
1895.573
1891.980
1888.388
1884.795
1881.203
1877.610
1874.018
1870.425
1866.833
1863.240
1859.648
1856.055
1852.463
1848.870
1845.278
1841.685
1838.093
1834.500
1830.908
1827.315
1823.723
1820.130
1816.538
1812.945
1809.353
1805.760
1802.168
1798.575
1794.983
1791.390
1787.798
1784.205
1780.613
1777.020
1773.428
1769.835
1766.243
1762.650
1759.058
1755.465
1751.873
1748.280
1744.688
1741.095
1737.503
1733.910
1730.318
1726.725
1723.133
1719.540
1715.948
1712.355
1708.763
1705.170
1701.578
1697.985
1694.393
1690.800
1687.208
1683.615
1680.023
1676.430
1672.838
1669.245
1665.653
1662.060
1658.468
1654.875
1651.283
1647.690
1644.098
1640.505
1636.913
1633.320
1629.728
1626.135
1622.543
1618.950
1615.358
1611.765
1608.173
1604.580
1600.988
1597.395
1593.803
1590.210
1586.618
1583.025
1579.433
1575.840
1572.248
1568.655
1565.063
1561.470
1557.878
1554.285
1550.693
1547.100
1543.508
1539.915
1536.323
1532.730
1529.138
1525.545
1521.953
1518.360
1514.768
1511.175
1507.583
1503.990
1500.398
1496.805
1493.213
1489.620
1486.028
1482.435
1478.843
1475.250
1471.658
1468.065
1464.473
1460.880
1457.288
1453.695
1450.103
1446.510
1442.918
1443.235
1443.553
1443.870
1444.188
1444.505
1444.823
1445.140
1445.458
1445.775
1446.093
1446.410
1446.728
1447.045
1447.363
1447.680
1447.998
1448.315
1448.633
1448.950
1449.268
1449.585
1449.903
1450.220
1450.538
1450.855
1451.173
1451.490
1451.808
1452.125
1452.443
1452.760
1453.078
1453.395
1453.713
1454.030
1454.348
1454.665
1454.983
1455.300
1455.618
1455.935
1456.253
1456.570
1456.888
1457.205
1457.523
1457.840
1458.158
1458.475
1458.793
1459.110
1459.428
1459.745
1460.063
1460.380
1460.698
1461.015
1461.333
1461.650
1461.968
1462.285
1462.603
1462.920
1463.238
1463.555
1463.873
1464.190
1464.508
1464.825
1465.143
1465.460
1465.778
1466.095
1466.413
1466.730
1467.048
1467.365
1467.683
1468.000
1468.318
1468.635
1468.953
1469.270
1469.588
1469.905
1470.223
1470.540
1470.858
1471.175
1471.493
1471.810
1472.128
1472.445
1472.763
1473.080
1473.398
1473.715
1474.033
1474.350
1474.668
1474.985
1475.303
1475.620
1475.938
1476.255
1476.573
1476.890
1477.208
1477.525
1477.843
1478.160
1478.478
1478.795
1479.113
1479.430
1479.748
1480.065
1480.383
1480.700
1481.018
1481.335
1481.653
1481.970
1482.288
1482.605
1482.923
1483.240
1483.558
1483.875
1484.193
1484.510
1484.828
1485.145
1485.463
1485.780
1486.098
1486.415
1486.733
1487.050
1487.368
1487.685
1488.003
1488.320
1488.638
1488.955
1489.273
1489.590
1489.908
1490.225
1490.543
1490.860
1491.178
1491.495
1491.813
1492.130
1492.448
1492.765
1493.083
1493.400
1493.718
1494.035
1494.353
1494.670
1494.988
1495.305
1495.623
1495.940
1496.258
1496.575
1496.893
1497.210
1497.528
1497.845
1498.163
1498.480
1498.798
1499.115
1499.433
1499.750
1500.068
1500.385
1500.703
1501.020
1501.338
1501.655
1501.973
1502.290
1502.608
1502.925
1503.243
1503.560
1503.878
1504.195
1504.513
1504.830
1505.148
1505.465
1505.783
1506.100
1506.418
1501.164
1495.910
1490.656
1485.402
1480.148
1474.894
1469.640
1464.386
1459.132
1453.878
1448.624
1443.370
1438.116
1432.862
1427.608
1422.354
1417.100
1411.846
1406.592
1401.338
1396.084
1390.830
1385.576
1380.322
1375.068
1369.814
1364.560
1359.306
1354.052
1348.798
1343.544
1338.290
1333.036
1327.782
1322.528
1317.274
1312.020
1306.766
1301.512
1296.258
1291.004
1285.750
1280.496
1275.242
1269.988
1264.734
1259.480
1254.226
1248.972
1243.718
1238.464
1233.210
1227.956
1222.702
1217.448
1212.194
1206.940
1201.686
1196.432
1191.178
1185.924
1180.670
1175.416
1170.162
1164.908
1159.654
1154.400
1149.146
1143.892
1138.638
1133.384
1128.130
1122.876
1117.622
1112.368
1107.114
1101.860
1096.606
1091.352
1086.098
1080.844
1075.590
1070.336
1065.082
1059.828
1054.574
1049.320
1044.066
1038.812
1033.558
1028.304
1023.050
1017.796
1012.542
1007.288
1002.034
996.780
991.526
986.272
981.018
975.764
970.510
965.256
960.002
954.748
949.494
944.240
938.986
933.732
928.478
923.224
917.970
912.716
907.462
902.208
896.954
891.700
886.446
881.192
875.938
870.684
865.430
860.176
854.922
849.668
844.414
839.160
833.906
828.652
823.398
818.144
812.890
807.636
802.382
797.128
791.874
786.620
781.366
776.112
770.858
765.604
760.350
755.096
749.842
744.588
739.334
734.080
728.826
723.572
718.318
713.064
707.810
702.556
697.302
692.048
686.794
681.540
676.286
671.032
665.778
660.524
655.270
650.016
644.762
639.508
634.254
629.000
623.746
618.492
613.238
607.984
602.730
597.476
592.222
586.968
581.714
576.460
571.206
565.952
560.698
555.444
550.190
544.936
539.682
534.428
529.174
523.920
518.666
513.412
508.158
502.904
497.650
492.396
487.142
481.888
476.634
471.380
466.126
460.872
108.618
108.618
108.618
108.618
108.618
108.618
108.618
108.618
108.618
108.618
108.618
108.618
108.618
108.618
108.618
108.618
108.618
108.618
108.618
108.618
108.618
108.618
108.618
108.618
108.618
108.618
108.618
108.618
108.618
108.618
108.618
108.618
108.618
108.618
108.618
108.618
108.618
108.618
108.618
108.618
108.618
108.618
108.618
108.618
108.618
108.618
108.618
108.618
108.618
108.618
108.618
108.618
108.618
108.618
108.618
108.618
108.618
108.618
108.618
108.618
108.618
108.618
108.618
108.618
108.618
108.618
108.618
108.618
108.618
108.618
108.618
108.618
108.618
108.618
108.618
108.618
108.618
108.618
108.618
108.618
108.618
108.618
108.618
108.618
108.618
108.618
108.618
108.618
108.618
108.618
108.618
108.618
108.618
108.618
108.618
108.618
108.618
108.618
108.618
108.618
108.618
108.618
108.618
108.618
108.618
108.618
108.618
108.618
108.618
108.618
108.618
108.618
108.618
108.618
108.618
108.618
108.618
108.618
108.618
108.618
108.618
108.618
108.618
108.618
108.618
108.618
108.618
108.618
108.618
108.618
108.618
108.618
108.618
108.618
108.618
108.618
108.618
108.618
108.618
108.618
108.618
108.618
108.618
108.618
108.618
108.618
108.618
108.618
108.618
108.618
108.618
108.618
108.618
108.618
108.618
108.618
108.618
108.618
108.618
108.618
108.618
108.618
108.618
108.618
108.618
108.618
108.618
108.618
108.618
108.618
108.618
108.618
108.618
108.618
108.618
108.618
108.618
108.618
108.618
108.618
108.618
108.618
108.618
108.618
108.618
108.618
108.618
108.618
108.618
108.618
108.618
108.618
108.618
108.618
108.618
108.618
108.618
108.618
108.618
108.618
108.618
108.618
108.618
108.618
108.618
108.618
108.618
108.618
108.618
108.618
108.618
108.618
108.618
108.618
108.618
108.618
108.618
108.618
108.618
108.618
108.618
108.618
108.618
108.618
108.618
108.618
108.618
108.618
108.618
108.618
108.618
108.618
108.618
108.618
108.618
108.618
108.618
108.618
108.618
108.618
108.618
108.618
108.618
108.618
108.618
108.618
108.618
108.618
108.618
108.618
108.618
108.618
108.618
108.618
108.618
108.618
108.618
108.618
108.618
108.618
108.618
108.618
108.618
108.618
108.618
108.618
108.618
108.618
108.618
108.618
108.618
108.618
108.618
108.618
108.618
108.618
108.618
108.618
108.618
108.618
108.618
108.618
108.618
108.618
108.618
108.618
108.618
108.618
108.618
108.618
108.618
108.618
108.618
108.618
108.618
108.618
108.618
108.618
108.618
108.618
108.618
108.618
108.618
108.618
108.618
108.618
108.618
108.618
108.618
108.618
108.618
108.618
108.618
108.618
108.618
108.618
108.618
108.618
108.618
108.618
108.618
108.618
108.618
108.618
108.618
108.618
108.618
108.618
108.618
108.618
108.618
108.618
108.618
108.618
108.618
108.618
108.618
108.618
108.618
108.618
108.618
108.618
108.618
108.618
108.618
108.618
108.618
108.618
108.618
108.618
108.618
108.618
108.618
108.618
108.618
108.618
108.618
108.618
108.618
108.618
108.618
108.618
108.618
108.618
108.618
108.618
108.618
108.618
108.618
108.618
108.618
108.618
108.618
108.618
108.618
108.618
108.618
108.618
108.618
108.618
108.618
108.618
108.618
108.618
108.618
108.618
108.618
108.618
108.618
108.618
108.618
108.618
108.618
108.618
108.618
108.618
108.618
108.618
108.618
108.618
108.618
108.618
108.618
108.618
108.618
108.618
108.618
108.618
108.618
108.618
108.618
108.618
108.618
108.618
108.618
108.618
108.618
108.618
108.618
108.618
108.618
108.618
108.618
108.618
108.618
108.618
108.618
108.618
108.618
108.618
108.618
108.618
108.618
108.618
108.618
108.618
108.618
108.618
108.618
108.618
108.618
108.618
108.618
108.618
108.618
108.618
108.618
108.618
108.618
108.618
108.618
108.618
108.618
108.618
108.618
108.618
108.618
108.618
108.618
108.618
108.618
108.618
108.618
108.618
108.618
108.618
108.618
108.618
108.618
108.618
108.618
108.618
108.618
108.618
108.618
108.618
108.618
108.618
108.618
108.618
108.618
108.618
108.618
108.618
108.618
108.618
108.618
108.618
108.618
108.618
108.618
108.618
108.618
108.618
108.618
108.618
108.618
108.618
108.618
108.618
108.618
108.618
108.618
108.618
108.618
108.618
108.618
108.618
108.618
108.618
108.618
108.618
108.618
108.618
108.618
108.618
108.618
108.618
108.618
108.618
108.618
108.618
108.618
108.618
108.618
108.618
108.618
108.618
108.618
108.618
108.618
108.618
108.618
108.618
108.618
108.618
108.618
108.618
108.618
108.618
108.618
108.618
108.618
108.618
108.618
108.618
108.618
108.618
108.618
108.618
108.618
108.618
108.618
108.618
108.618
108.618
108.618
108.618
108.618
108.618
108.618
108.618
108.618
108.618
108.618
108.618
108.618
108.618
108.618
108.618
108.618
108.618
108.618
108.618
108.618
108.618
108.618
108.618
108.618
108.618
108.618
108.618
108.618
108.618
108.618
108.618
108.618
108.618
108.618
108.618
108.618
108.618
108.618
108.618
108.618
108.618
108.618
108.618
108.618
108.618
108.618
108.618
108.618
108.618
108.618
108.618
108.618
108.618
108.618
108.618
108.618
108.618
108.618
108.618
108.618
108.618
108.618
108.618
108.618
108.618
108.618
108.618
108.618
108.618
108.618
108.618
108.618
108.618
108.618
108.618
108.618
108.618
108.618
108.618
108.618
108.618
108.618
108.618
108.618
108.618
108.618
108.618
108.618
108.618
108.618
108.618
108.618
108.618
108.618
108.618
108.618
108.618
108.618
108.618
108.618
108.618
108.618
108.618
108.618
108.618
108.618
108.618
108.618
108.618
108.618
108.618
108.618
108.618
108.618
108.618
108.618
108.618
108.618
108.618
108.618
108.618
108.618
108.618
108.618
108.618
108.618
108.618
108.618
108.618
108.618
108.618
108.618
108.618
108.618
108.618
108.618
108.618
108.618
108.618
108.618
108.618
108.618
108.618
108.618
108.618
108.618
108.618
108.618
108.618
108.618
108.618
108.618
108.618
108.618
108.618
108.618
108.618
108.618
108.618
108.618
108.618
108.618
108.618
108.618
108.618
108.618
108.618
108.618
108.618
108.618
108.618
108.618
108.618
108.618
108.618
108.618
108.618
108.618
108.618
108.618
108.618
108.618
108.618
108.618
108.618
108.618
108.618
108.618
108.618
108.618
108.618
108.618
108.618
108.618
108.618
108.618
108.618
108.618
108.618
108.618
108.618
108.618
108.618
108.618
108.618
108.618
108.618
108.618
108.618
108.618
108.618
108.618
108.618
108.618
108.618
108.618
108.618
108.618
108.618
108.618
108.618
108.618
108.618
108.618
108.618
108.618
108.618
108.618
108.618
108.618
108.618
108.618
108.618
108.618
108.618
108.618
108.618
108.618
108.618
108.618
108.618
108.618
108.618
108.618
108.618
108.618
108.618
108.618
108.618
108.618
108.618
108.618
108.618
108.618
108.618
108.618
108.618
108.618
108.618
108.618
108.618
108.618
108.618
108.618
108.618
108.618
108.618
108.618
108.618
108.618
108.618
108.618
108.618
108.618
108.618
108.618
108.618
108.618
108.618
108.618
108.618
108.618
108.618
108.618
108.618
108.618
108.618
108.618
108.618
108.618
108.618
108.618
108.618
108.618
108.618
108.618
108.618
108.618
108.618
108.618
108.618
108.618
108.618
108.618
108.618
108.618
108.618
108.618
108.618
108.618
108.618
108.618
108.618
108.618
108.618
108.618
108.618
108.618
108.618
108.618
108.618
108.618
108.618
108.618
108.618
108.618
108.618
108.618
108.618
108.618
108.618
108.618
108.618
108.618
108.618
108.618
108.618
108.618
108.618
108.618
108.618
108.618
108.618
108.618
108.618
108.618
108.618
108.618
108.618
108.618
108.618
108.618
108.618
108.618
108.618
108.618
108.618
108.618
108.618
108.618
108.618
108.618
108.618
108.618
108.618
108.618
108.618
108.618
108.618
108.618
108.618
108.618
108.618
108.618
108.618
