2069.386
2070.461
2071.536
2072.611
2073.686
2074.761
2075.836
2076.911
2077.986
2079.061
2080.136
2081.211
2082.286
2083.361
2084.436
2085.511
2086.586
2087.661
2088.736
2089.811
2090.886
2091.961
2093.036
2094.111
2095.186
2096.261
2097.336
2098.411
2099.486
2100.561
2101.636
2102.711
2103.786
2104.861
2105.936
2107.011
2108.086
2109.161
2110.236
2111.311
2112.386
2113.461
2114.536
2115.611
2116.686
2117.761
2118.836
2119.911
2120.986
2122.061
2123.136
2124.211
2125.286
2126.361
2127.436
2128.511
2129.586
2130.661
2131.736
2132.811
2133.886
2134.961
2136.036
2137.111
2138.186
2139.261
2140.336
2141.411
2142.486
2143.561
2144.636
2145.711
2146.786
2147.861
2148.936
2150.011
2151.086
2152.161
2153.236
2154.311
2155.386
2156.461
2157.536
2158.611
2159.686
2160.761
2161.836
2162.911
2163.986
2165.061
2166.136
2167.211
2168.286
2169.361
2170.436
2171.511
2172.586
2173.661
2174.736
2175.811
2176.886
2177.961
2179.036
2180.111
2181.186
2182.261
2183.336
2184.411
2185.486
2186.561
2187.636
2188.711
2189.786
2190.861
2191.936
2193.011
2194.086
2195.161
2196.236
2197.311
2196.920
2196.529
2196.138
2195.747
2195.356
2194.965
2194.574
2194.183
2193.792
2193.401
2193.010
2192.619
2192.228
2191.837
2191.446
2191.055
2190.664
2190.273
2189.882
2189.491
2189.100
2188.709
2188.318
2187.927
2187.536
2187.145
2186.754
2186.363
2185.972
2185.581
2185.190
2184.799
2184.408
2184.017
2183.626
2183.235
2182.844
2182.453
2182.062
2181.671
2181.280
2180.889
2180.498
2180.107
2179.716
2179.325
2178.934
2178.543
2178.152
2177.761
2177.370
2176.979
2176.588
2176.197
2175.806
2175.415
2175.024
2174.633
2174.242
2173.851
2173.460
2173.069
2172.678
2172.287
2171.896
2171.505
2171.114
2170.723
2170.332
2169.941
2169.550
2169.159
2168.768
2168.377
2167.986
2167.595
2167.204
2166.813
2166.422
2166.031
2165.640
2165.249
2164.858
2164.467
2164.076
2163.685
2163.294
2162.903
2162.512
2162.121
2161.730
2161.339
2160.948
2160.557
2160.166
2159.775
2159.384
2158.993
2158.602
2158.211
2157.820
2157.429
2157.038
2156.647
2156.256
2155.865
2155.474
2155.083
2154.692
2154.301
2153.910
2153.519
2153.128
2152.737
2152.346
2151.955
2151.564
2151.173
2150.782
2150.391
2150.000
2149.609
2149.218
2148.827
2148.436
2148.045
2147.654
2147.263
2146.872
2146.481
2146.090
2145.699
2145.308
2144.917
2144.526
2144.135
2143.744
2143.353
2142.962
2142.571
2142.180
2141.789
2141.398
2141.007
2140.616
2140.225
2139.834
2139.443
2139.052
2138.661
2138.270
2137.879
2137.488
2137.097
2136.706
2136.315
2135.924
2135.533
2135.142
2134.751
2134.360
2133.969
2133.578
2133.187
2132.796
2132.405
2132.014
2131.623
2131.232
2130.841
2130.450
2130.059
2129.668
2129.277
2128.886
2128.495
2128.104
2127.713
2127.322
2126.931
2126.540
2126.149
2125.758
2125.367
2124.976
2124.585
2124.194
2123.803
2123.412
2123.021
2122.630
2122.239
2121.848
2121.457
2121.066
2120.675
2120.284
2119.893
2119.502
2119.111
2118.378
2117.645
2116.912
2116.179
2115.446
2114.713
2113.980
2113.247
2112.514
2111.781
2111.048
2110.315
2109.582
2108.849
2108.116
2107.383
2106.650
2105.917
2105.184
2104.451
2103.718
2102.985
2102.252
2101.519
2100.786
2100.053
2099.320
2098.587
2097.854
2097.121
2096.388
2095.655
2094.922
2094.189
2093.456
2092.723
2091.990
2091.257
2090.524
2089.791
2089.058
2088.325
2087.592
2086.859
2086.126
2085.393
2084.660
2083.927
2083.194
2082.461
2081.728
2080.995
2080.262
2079.529
2078.796
2078.063
2077.330
2076.597
2075.864
2075.131
2074.398
2073.665
2072.932
2072.199
2071.466
2070.733
2070.000
2069.267
2068.534
2067.801
2067.068
2066.335
2065.602
2064.869
2064.136
2063.403
2062.670
2061.937
2061.204
2060.471
2059.738
2059.005
2058.272
2057.539
2056.806
2056.073
2055.340
2054.607
2053.874
2053.141
2052.408
2051.675
2050.942
2050.209
2049.476
2048.743
2048.010
2047.277
2046.544
2045.811
2045.078
2044.345
2043.612
2042.879
2042.146
2041.413
2040.680
2039.947
2039.214
2038.481
2037.748
2037.015
2036.282
2035.549
2034.816
2034.083
2033.350
2032.617
2031.884
2031.151
2030.418
2029.685
2028.952
2028.219
2027.486
2026.753
2026.020
2025.287
2024.554
2023.821
2023.088
2022.355
2021.622
2020.889
2020.156
2019.423
2018.690
2017.957
2017.224
2016.491
2015.758
2015.025
2014.292
2013.559
2012.826
2012.093
2011.360
2010.627
2009.894
2009.161
2008.428
2007.695
2006.962
2006.229
2005.496
2004.763
2004.030
2003.297
2002.564
2001.831
2001.098
2000.365
1999.632
1998.899
1998.166
1997.433
1996.700
1995.967
1995.234
1994.501
1993.768
1993.035
1992.302
1991.569
1990.836
1990.103
1989.370
1988.637
1987.904
1987.171
1986.438
1985.705
1984.972
1984.239
1983.506
1982.773
1982.040
1981.307
1980.574
1979.841
1979.108
1978.375
1977.642
1976.909
1976.176
1975.443
1974.710
1973.977
1973.244
1972.511
1970.605
1968.699
1966.793
1964.887
1962.981
1961.075
1959.169
1957.263
1955.357
1953.451
1951.545
1949.639
1947.733
1945.827
1943.921
1942.015
1940.109
1938.203
1936.297
1934.391
1932.485
1930.579
1928.673
1926.767
1924.861
1922.955
1921.049
1919.143
1917.237
1915.331
1913.425
1911.519
1909.613
1907.707
1905.801
1903.895
1901.989
1900.083
1898.177
1896.271
1894.365
1892.459
1890.553
1888.647
1886.741
1884.835
1882.929
1881.023
1879.117
1877.211
1875.305
1873.399
1871.493
1869.587
1867.681
1865.775
1863.869
1861.963
1860.057
1858.151
1856.245
1854.339
1852.433
1850.527
1848.621
1846.715
1844.809
1842.903
1840.997
1839.091
1837.185
1835.279
1833.373
1831.467
1829.561
1827.655
1825.749
1823.843
1821.937
1820.031
1818.125
1816.219
1814.313
1812.407
1810.501
1808.595
1806.689
1804.783
1802.877
1800.971
1799.065
1797.159
1795.253
1793.347
1791.441
1789.535
1787.629
1785.723
1783.817
1781.911
1780.005
1778.099
1776.193
1774.287
1772.381
1770.475
1768.569
1766.663
1764.757
1762.851
1760.945
1759.039
1757.133
1755.227
1753.321
1751.415
1749.509
1747.603
1745.697
1743.791
1741.885
1739.979
1738.073
1736.167
1734.261
1732.355
1730.449
1728.543
1726.637
1724.731
1722.825
1720.919
1719.013
1717.107
1715.201
1713.295
1711.389
1709.483
1707.577
1705.671
1703.765
1701.859
1699.953
1698.047
1696.141
1694.235
1692.329
1690.423
1688.517
1686.611
1684.705
1682.799
1680.893
1678.987
1677.081
1675.175
1673.269
1671.363
1669.457
1667.551
1665.645
1663.739
1661.833
1659.927
1658.021
1656.115
1654.209
1652.303
1650.397
1648.491
1646.585
1644.679
1642.773
1640.867
1638.961
1637.055
1635.149
1633.243
1631.337
1629.431
1627.525
1625.619
1623.713
1621.807
1619.901
1617.995
1616.089
1614.183
1612.277
1610.371
1608.465
1606.559
1604.653
1602.747
1600.841
1598.935
1597.029
1595.123
1593.217
1591.311
1591.091
1590.871
1590.651
1590.431
1590.211
1589.991
1589.771
1589.551
1589.331
1589.111
1588.891
1588.671
1588.451
1588.231
1588.011
1587.791
1587.571
1587.351
1587.131
1586.911
1586.691
1586.471
1586.251
1586.031
1585.811
1585.591
1585.371
1585.151
1584.931
1584.711
1584.491
1584.271
1584.051
1583.831
1583.611
1583.391
1583.171
1582.951
1582.731
1582.511
1582.291
1582.071
1581.851
1581.631
1581.411
1581.191
1580.971
1580.751
1580.531
1580.311
1580.091
1579.871
1579.651
1579.431
1579.211
1578.991
1578.771
1578.551
1578.331
1578.111
1577.891
1577.671
1577.451
1577.231
1577.011
1576.791
1576.571
1576.351
1576.131
1575.911
1575.691
1575.471
1575.251
1575.031
1574.811
1574.591
1574.371
1574.151
1573.931
1573.711
1573.491
1573.271
1573.051
1572.831
1572.611
1572.391
1572.171
1571.951
1571.731
1571.511
1571.291
1571.071
1570.851
1570.631
1570.411
1570.191
1569.971
1569.751
1569.531
1569.311
1569.091
1568.871
1568.651
1568.431
1568.211
1567.991
1567.771
1567.551
1567.331
1567.111
1566.891
1566.671
1566.451
1566.231
1566.011
1565.791
1565.571
1565.351
1565.131
1564.911
1564.691
1564.471
1564.251
1564.031
1563.811
1563.591
1563.371
1563.151
1562.931
1562.711
1562.491
1562.271
1562.051
1561.831
1561.611
1561.391
1561.171
1560.951
1560.731
1560.511
1560.291
1560.071
1559.851
1559.631
1559.411
1559.191
1558.971
1558.751
1558.531
1558.311
1558.091
1557.871
1557.651
1557.431
1557.211
1556.991
1556.771
1556.551
1556.331
1556.111
1555.891
1555.671
1555.451
1555.231
1555.011
1554.791
1554.571
1554.351
1554.131
1553.911
1553.691
1553.471
1553.251
1553.031
1552.811
1552.591
1552.371
1552.151
1551.931
1551.711
1551.491
1551.271
1551.051
1550.831
1550.611
1550.391
1550.171
1549.951
1549.731
1549.511
1549.291
1549.071
1548.851
1548.631
1548.411
1548.191
1547.971
1547.751
1547.531
1547.311
1550.586
1553.860
1557.135
1560.409
1563.684
1566.958
1570.233
1573.507
1576.782
1580.056
1583.331
1586.605
1589.880
1593.154
1596.429
1599.703
1602.978
1606.252
1609.527
1612.801
1616.076
1619.350
1622.625
1625.899
1629.174
1632.448
1635.723
1638.997
1642.272
1645.546
1648.821
1652.095
1655.370
1658.644
1661.919
1665.193
1668.468
1671.742
1675.017
1678.291
1681.566
1684.840
1688.115
1691.389
1694.664
1697.938
1701.213
1704.487
1707.762
1711.036
1714.311
1717.585
1720.860
1724.134
1727.409
1730.683
1733.958
1737.232
1740.507
1743.781
1747.056
1750.330
1753.605
1756.879
1760.154
1763.428
1766.703
1769.977
1773.252
1776.526
1779.801
1783.075
1786.350
1789.624
1792.899
1796.173
1799.448
1802.722
1805.997
1809.271
1812.546
1815.820
1819.095
1822.369
1825.644
1828.918
1832.193
1835.467
1838.742
1842.016
1845.291
1848.565
1851.840
1855.114
1858.389
1861.663
1864.938
1868.212
1871.487
1874.761
1878.036
1881.310
1884.585
1887.859
1891.134
1894.408
1897.683
1900.957
1904.232
1907.506
1910.781
1914.055
1917.330
1920.604
1923.879
1927.153
1930.428
1933.702
1936.977
1940.251
1943.526
1946.800
1950.075
1953.349
1956.624
1959.898
1963.173
1966.447
1969.722
1972.996
1976.271
1979.545
1982.820
1986.094
1989.369
1992.643
1995.918
1999.192
2002.467
2005.741
2009.016
2012.290
2015.565
2018.839
2022.114
2025.388
2028.663
2031.937
2035.212
2038.486
2041.761
2045.035
2048.310
2051.584
2054.859
2058.133
2061.408
2064.682
2067.957
2071.231
2074.506
2077.780
2081.055
2084.329
2087.604
2090.878
2094.153
2097.427
2100.702
2103.976
2107.251
2110.525
2113.800
2117.074
2120.349
2123.623
2126.898
2130.172
2133.447
2136.721
2139.996
2143.270
2146.545
2149.819
2153.094
2156.368
2159.643
2162.917
2166.192
2169.466
2172.741
2176.015
2179.290
2182.564
2185.839
2189.113
2192.388
2195.662
2198.937
2202.211
2200.085
2197.959
2195.833
2193.707
2191.581
2189.455
2187.329
2185.203
2183.077
2180.951
2178.825
2176.699
2174.573
2172.447
2170.321
2168.195
2166.069
2163.943
2161.817
2159.691
2157.565
2155.439
2153.313
2151.187
2149.061
2146.935
2144.809
2142.683
2140.557
2138.431
2136.305
2134.179
2132.053
2129.927
2127.801
2125.675
2123.549
2121.423
2119.297
2117.171
2115.045
2112.919
2110.793
2108.667
2106.541
2104.415
2102.289
2100.163
2098.037
2095.911
2093.785
2091.659
2089.533
2087.407
2085.281
2083.155
2081.029
2078.903
2076.777
2074.651
2072.525
2070.399
2068.273
2066.147
2064.021
2061.895
2059.769
2057.643
2055.517
2053.391
2051.265
2049.139
2047.013
2044.887
2042.761
2040.635
2038.509
2036.383
2034.257
2032.131
2030.005
2027.879
2025.753
2023.627
2021.501
2019.375
2017.249
2015.123
2012.997
2010.871
2008.745
2006.619
2004.493
2002.367
2000.241
1998.115
1995.989
1993.863
1991.737
1989.611
1987.485
1985.359
1983.233
1981.107
1978.981
1976.855
1974.729
1972.603
1970.477
1968.351
1966.225
1964.099
1961.973
1959.847
1957.721
1955.595
1953.469
1951.343
1949.217
1947.091
1944.965
1942.839
1940.713
1938.587
1936.461
1934.335
1932.209
1930.083
1927.957
1925.831
1923.705
1921.579
1919.453
1917.327
1915.201
1913.075
1910.949
1908.823
1906.697
1904.571
1902.445
1900.319
1898.193
1896.067
1893.941
1891.815
1889.689
1887.563
1885.437
1883.311
1881.185
1879.059
1876.933
1874.807
1872.681
1870.555
1868.429
1866.303
1864.177
1862.051
1859.925
1857.799
1855.673
1853.547
1851.421
1849.295
1847.169
1845.043
1842.917
1840.791
1838.665
1836.539
1834.413
1832.287
1830.161
1828.035
1825.909
1823.783
1821.657
1819.531
1817.405
1815.279
1813.153
1811.027
1808.901
1806.775
1804.649
1802.523
1800.397
1798.271
1796.145
1794.019
1791.893
1789.767
1787.641
1785.515
1783.389
1781.263
1779.137
1777.011
1775.985
1774.958
1773.932
1772.905
1771.879
1770.852
1769.826
1768.799
1767.773
1766.746
1765.720
1764.693
1763.667
1762.640
1761.614
1760.587
1759.561
1758.534
1757.508
1756.481
1755.455
1754.428
1753.402
1752.375
1751.349
1750.322
1749.296
1748.269
1747.243
1746.216
1745.190
1744.163
1743.137
1742.110
1741.084
1740.057
1739.031
1738.004
1736.978
1735.951
1734.925
1733.898
1732.872
1731.845
1730.819
1729.792
1728.766
1727.739
1726.713
1725.686
1724.660
1723.633
1722.607
1721.580
1720.554
1719.527
1718.501
1717.474
1716.448
1715.421
1714.395
1713.368
1712.342
1711.315
1710.289
1709.262
1708.236
1707.209
1706.183
1705.156
1704.130
1703.103
1702.077
1701.050
1700.024
1698.997
1697.971
1696.944
1695.918
1694.891
1693.865
1692.838
1691.812
1690.785
1689.759
1688.732
1687.706
1686.679
1685.653
1684.626
1683.600
1682.573
1681.547
1680.520
1679.494
1678.467
1677.441
1676.414
1675.388
1674.361
1673.335
1672.308
1671.282
1670.255
1669.229
1668.202
1667.176
1666.149
1665.123
1664.096
1663.070
1662.043
1661.017
1659.990
1658.964
1657.937
1656.911
1655.884
1654.858
1653.831
1652.805
1651.778
1650.752
1649.725
1648.699
1647.672
1646.646
1645.619
1644.593
1643.566
1642.540
1641.513
1640.487
1639.460
1638.434
1637.407
1636.381
1635.354
1634.328
1633.301
1632.275
1631.248
1630.222
1629.195
1628.169
1627.142
1626.116
1625.089
1624.063
1623.036
1622.010
1620.983
1619.957
1618.930
1617.904
1616.877
1615.851
1614.824
1613.798
1612.771
1611.745
1610.718
1609.692
1608.665
1607.639
1606.612
1605.586
1604.559
1603.533
1602.506
1601.480
1600.453
1599.427
1598.400
1597.374
1596.347
1595.321
1594.294
1593.268
1592.241
1591.215
1590.188
1589.162
1588.135
1587.109
1586.082
1585.056
1584.029
1583.003
1581.976
1580.950
1579.923
1578.897
1577.870
1576.844
1575.817
1574.791
1573.764
1572.738
105.411
105.363
105.314
105.266
105.217
105.169
105.120
105.072
105.023
104.975
104.926
104.878
104.829
104.781
104.732
104.684
104.635
104.587
104.538
104.490
104.441
104.393
104.344
104.296
104.247
104.199
104.150
104.102
104.053
104.005
103.956
103.908
103.859
103.811
103.762
103.714
103.665
103.617
103.568
103.520
103.471
103.423
103.374
103.326
103.277
103.229
103.180
103.132
103.083
103.035
102.986
102.938
102.889
102.841
102.792
102.744
102.695
102.647
102.598
102.550
102.501
102.453
102.404
102.356
102.307
102.259
102.210
102.162
102.113
102.065
102.016
101.968
101.919
101.871
101.822
101.774
101.725
101.677
101.628
101.580
101.531
101.483
101.434
101.386
101.337
101.289
101.240
101.192
101.143
101.095
101.046
100.998
100.949
100.901
100.852
100.804
100.755
100.707
100.658
100.610
100.561
100.513
100.464
100.416
100.367
100.319
100.270
100.222
100.173
100.125
100.076
100.028
99.979
99.931
99.882
99.834
99.785
99.737
99.688
99.640
99.591
99.543
99.494
99.446
99.397
99.349
99.300
99.252
99.203
99.155
99.106
99.058
99.009
98.961
98.912
98.864
98.815
98.767
98.718
98.670
98.621
98.573
98.524
98.476
98.427
98.379
98.330
98.282
98.233
98.185
98.136
98.088
98.039
97.991
97.942
97.894
97.845
97.797
97.748
97.700
97.651
97.603
97.554
97.506
97.457
97.409
97.360
97.312
97.263
97.215
97.166
97.118
97.069
97.021
96.972
96.924
96.875
96.827
96.778
96.730
96.681
96.633
96.584
96.536
96.487
96.439
96.390
96.342
96.293
96.245
96.196
96.148
96.099
96.051
96.002
95.954
95.905
95.857
95.808
95.760
95.711
95.687
95.662
95.638
95.613
95.589
95.564
95.540
95.515
95.491
95.466
95.442
95.417
95.393
95.368
95.344
95.319
95.295
95.270
95.246
95.221
95.197
95.172
95.148
95.123
95.099
95.074
95.050
95.025
95.001
94.976
94.952
94.927
94.903
94.878
94.854
94.829
94.805
94.780
94.756
94.731
94.707
94.682
94.658
94.633
94.609
94.584
94.560
94.535
94.511
94.486
94.462
94.437
94.413
94.388
94.364
94.339
94.315
94.290
94.266
94.241
94.217
94.192
94.168
94.143
94.119
94.094
94.070
94.045
94.021
93.996
93.972
93.947
93.923
93.898
93.874
93.849
93.825
93.800
93.776
93.751
93.727
93.702
93.678
93.653
93.629
93.604
93.580
93.555
93.531
93.506
93.482
93.457
93.433
93.408
93.384
93.359
93.335
93.310
93.286
93.261
93.237
93.212
93.188
93.163
93.139
93.114
93.090
93.065
93.041
93.016
92.992
92.967
92.943
92.918
92.894
92.869
92.845
92.820
92.796
92.771
92.747
92.722
92.698
92.673
92.649
92.624
92.600
92.575
92.551
92.526
92.502
92.477
92.453
92.428
92.404
92.379
92.355
92.330
92.306
92.281
92.257
92.232
92.208
92.183
92.159
92.134
92.110
92.085
92.061
92.036
92.012
91.987
91.963
91.938
91.914
91.889
91.865
91.840
91.816
91.791
91.767
91.742
91.718
91.693
91.669
91.644
91.620
91.595
91.571
91.546
91.522
91.497
91.473
91.448
91.424
91.399
91.375
91.350
91.326
91.301
91.277
91.252
91.228
91.203
91.179
91.154
91.130
91.105
91.081
91.056
91.032
91.007
90.983
90.958
90.934
90.909
90.885
90.860
90.836
90.811
90.836
90.860
90.885
90.909
90.934
90.958
90.983
91.007
91.032
91.056
91.081
91.105
91.130
91.154
91.179
91.203
91.228
91.252
91.277
91.301
91.326
91.350
91.375
91.399
91.424
91.448
91.473
91.497
91.522
91.546
91.571
91.595
91.620
91.644
91.669
91.693
91.718
91.742
91.767
91.791
91.816
91.840
91.865
91.889
91.914
91.938
91.963
91.987
92.012
92.036
92.061
92.085
92.110
92.134
92.159
92.183
92.208
92.232
92.257
92.281
92.306
92.330
92.355
92.379
92.404
92.428
92.453
92.477
92.502
92.526
92.551
92.575
92.600
92.624
92.649
92.673
92.698
92.722
92.747
92.771
