2027.921
2027.628
2027.335
2027.042
2026.749
2026.456
2026.163
2025.870
2025.577
2025.284
2024.991
2024.698
2024.405
2024.112
2023.819
2023.526
2023.233
2022.940
2022.647
2022.354
2022.061
2021.768
2021.475
2021.182
2020.889
2020.596
2020.303
2020.010
2019.717
2019.424
2019.131
2018.838
2018.545
2018.252
2017.959
2017.666
2017.373
2017.080
2016.787
2016.494
2016.201
2015.908
2015.615
2015.322
2015.029
2014.736
2014.443
2014.150
2013.857
2013.564
2013.271
2012.978
2012.685
2012.392
2012.099
2011.806
2011.513
2011.220
2010.927
2010.634
2010.341
2010.048
2009.755
2009.462
2009.169
2008.876
2008.583
2008.290
2007.997
2007.704
2007.411
2007.118
2006.825
2006.532
80.539
80.515
80.490
80.466
80.441
80.417
80.392
80.368
80.343
80.319
80.294
80.270
80.245
80.221
80.196
80.172
80.147
80.123
80.098
80.074
80.049
80.025
80.000
79.976
79.951
79.927
79.902
79.878
79.853
79.829
79.804
79.780
79.755
79.731
79.706
79.682
79.657
79.633
79.608
79.584
79.559
79.535
79.510
79.486
79.461
79.437
79.412
79.388
79.363
79.339
79.314
79.290
79.265
79.241
79.216
79.192
79.167
79.143
79.118
79.094
79.069
79.045
79.020
78.996
78.971
78.947
78.922
78.898
78.873
78.849
78.824
78.800
78.775
78.751
78.726
78.702
78.677
78.653
78.628
78.604
78.579
78.555
78.530
78.506
78.481
78.457
78.432
78.408
78.383
78.359
78.334
78.310
78.285
78.261
78.236
78.212
78.187
78.163
78.138
78.114
78.089
78.065
78.040
78.016
77.991
77.967
77.942
77.918
77.893
77.869
77.844
77.820
77.795
77.771
77.746
77.722
77.697
77.673
77.648
77.624
77.599
77.575
77.550
77.526
77.501
77.477
77.452
77.428
77.403
77.379
77.354
77.330
77.305
77.281
77.256
77.232
77.207
77.183
77.158
77.134
77.109
77.085
77.060
77.036
77.011
76.987
76.962
76.938
76.913
76.889
76.864
76.840
76.815
76.791
76.766
76.742
76.717
76.693
76.668
76.644
76.619
76.595
76.570
76.546
76.521
76.497
76.472
76.448
76.423
76.399
76.374
76.350
76.325
76.301
76.276
76.252
76.227
76.203
76.178
76.154
76.129
76.105
76.080
76.056
76.031
76.007
75.982
75.958
75.933
75.909
75.884
75.860
75.835
75.811
75.786
75.762
75.737
75.713
75.688
75.664
75.639
75.639
75.639
75.639
75.639
75.639
75.639
75.639
75.639
75.639
75.639
75.639
75.639
75.639
75.639
75.639
75.639
75.639
75.639
75.639
75.639
75.639
75.639
75.639
75.639
75.639
75.639
75.639
75.639
75.639
75.639
75.639
75.639
75.639
75.639
75.639
75.639
75.639
75.639
75.639
75.639
75.639
75.639
75.639
75.639
75.639
75.639
75.639
75.639
75.639
75.639
75.639
75.639
75.639
75.639
75.639
75.639
75.639
75.639
75.639
75.639
75.639
75.639
75.639
75.639
75.639
75.639
75.639
75.639
75.639
75.639
75.639
75.639
75.639
75.639
75.639
75.639
75.639
75.639
75.639
75.639
75.639
75.639
75.639
75.639
75.639
75.639
75.639
75.639
75.639
75.639
75.639
75.639
75.639
75.639
75.639
75.639
75.639
75.639
75.639
75.639
75.639
75.639
75.639
75.639
75.639
75.639
75.639
75.639
75.639
75.639
75.639
75.639
75.639
75.639
75.639
75.639
75.639
75.639
75.639
75.639
75.639
75.639
75.639
75.639
75.639
75.639
75.639
75.639
75.639
75.639
75.639
75.639
75.639
75.639
75.639
75.639
75.639
75.639
75.639
75.639
75.639
75.639
75.639
75.639
75.639
75.639
75.639
75.639
75.639
75.639
75.639
75.639
75.639
75.639
75.639
75.639
75.639
75.639
75.639
75.639
75.639
75.639
75.639
75.639
75.639
75.639
75.639
75.639
75.639
75.639
75.639
75.639
75.639
75.639
75.639
75.639
75.639
75.639
75.639
75.639
75.639
75.639
75.639
75.639
75.639
75.639
75.639
75.639
75.639
75.639
75.639
75.639
75.639
75.639
75.639
75.639
75.639
75.639
75.639
75.639
75.639
75.639
75.639
75.639
75.639
75.639
75.639
75.639
75.639
75.639
75.639
75.639
75.639
75.639
75.639
75.639
75.639
75.639
75.639
75.639
75.639
75.639
75.639
75.639
75.639
75.639
75.639
75.639
75.639
75.639
75.639
75.639
75.639
75.639
75.639
75.639
75.639
75.639
75.639
75.639
75.639
75.639
75.639
75.639
75.639
75.639
75.639
75.639
75.639
75.639
75.639
75.639
75.639
75.639
75.639
75.639
75.639
75.639
75.639
75.639
75.639
75.639
75.639
75.639
75.639
75.639
75.639
75.639
75.639
75.639
75.639
75.639
75.639
75.639
75.639
75.639
75.639
75.639
75.639
75.639
75.639
75.639
75.639
75.639
75.639
75.639
75.639
75.639
75.639
75.639
75.639
75.639
75.639
75.639
75.639
75.639
75.639
75.639
75.639
75.639
75.639
75.639
75.639
75.639
75.639
75.639
75.639
75.639
75.639
75.639
75.639
75.639
75.639
75.639
75.639
75.639
75.639
75.639
75.639
75.639
75.639
75.639
75.639
75.639
75.639
75.639
75.639
75.639
75.639
75.639
75.639
75.639
75.639
75.639
75.639
75.639
75.639
75.639
75.639
75.639
75.639
75.639
75.639
75.639
75.639
75.639
75.639
75.639
75.639
75.639
75.639
75.639
75.639
75.639
75.639
75.639
75.639
75.639
75.639
75.639
75.639
75.639
75.639
75.639
75.639
75.639
75.639
75.639
75.639
75.639
75.639
75.639
75.639
75.639
75.639
75.639
75.639
75.639
75.639
75.639
75.639
75.639
75.639
75.639
75.639
75.639
75.639
75.639
75.639
75.639
75.639
75.639
75.639
75.639
75.639
75.639
75.639
75.639
75.639
75.639
75.664
75.688
75.713
75.737
75.762
75.786
75.811
75.835
75.860
75.884
75.909
75.933
75.958
75.982
76.007
76.031
76.056
76.080
76.105
76.129
76.154
76.178
76.203
76.227
76.252
76.276
76.301
76.325
76.350
76.374
76.399
76.423
76.448
76.472
76.497
76.521
76.546
76.570
76.595
76.619
76.644
76.668
76.693
76.717
76.742
76.766
76.791
76.815
76.840
76.864
76.889
76.913
76.938
76.962
76.987
77.011
77.036
77.060
77.085
77.109
77.134
77.158
77.183
77.207
77.232
77.256
77.281
77.305
77.330
77.354
77.379
77.403
77.428
77.452
77.477
77.501
77.526
77.550
77.575
77.599
77.624
77.648
77.673
77.697
77.722
77.746
77.771
77.795
77.820
77.844
77.869
77.893
77.918
77.942
77.967
77.991
78.016
78.040
78.065
78.089
78.114
78.138
78.163
78.187
78.212
78.236
78.261
78.285
78.310
78.334
78.359
78.383
78.408
78.432
78.457
78.481
78.506
78.530
78.555
78.579
78.604
78.628
78.653
78.677
78.702
78.726
78.751
78.775
78.800
78.824
78.849
78.873
78.898
78.922
78.947
78.971
78.996
79.020
79.045
79.069
79.094
79.118
79.143
79.167
79.192
79.216
79.241
79.265
79.290
79.314
79.339
79.363
79.388
79.412
79.437
79.461
79.486
79.510
79.535
79.559
79.584
79.608
79.633
79.657
79.682
79.706
79.731
79.755
79.780
79.804
79.829
79.853
79.878
79.902
79.927
79.951
79.976
80.000
80.025
80.049
80.074
80.098
80.123
80.147
80.172
80.196
80.221
80.245
80.270
80.294
80.319
80.343
80.368
80.392
80.417
80.441
80.466
80.490
80.515
80.539
80.515
80.490
80.466
80.441
80.417
80.392
80.368
80.343
80.319
80.294
80.270
80.245
80.221
80.196
80.172
80.147
80.123
80.098
80.074
80.049
80.025
80.000
79.976
79.951
79.927
79.902
79.878
79.853
79.829
79.804
79.780
79.755
79.731
79.706
79.682
79.657
79.633
79.608
79.584
79.559
79.535
79.510
79.486
79.461
79.437
79.412
79.388
79.363
79.339
79.314
79.290
79.265
79.241
79.216
79.192
79.167
79.143
79.118
79.094
79.069
79.045
79.020
78.996
78.971
78.947
78.922
78.898
78.873
78.849
78.824
78.800
78.775
78.751
78.726
78.702
78.677
78.653
78.628
78.604
78.579
78.555
78.530
78.506
78.481
78.457
78.432
78.408
78.383
78.359
78.334
78.310
78.285
78.261
78.236
78.212
78.187
78.163
78.138
78.114
78.089
78.065
78.040
78.016
77.991
77.967
77.942
77.918
77.893
77.869
77.844
77.820
77.795
77.771
77.746
77.722
77.697
77.673
77.648
77.624
77.599
77.575
77.550
77.526
77.501
77.477
77.452
77.428
77.403
77.379
77.354
77.330
77.305
77.281
77.256
77.232
77.207
77.183
77.158
77.134
77.109
77.085
77.060
77.036
77.011
76.987
76.962
76.938
76.913
76.889
76.864
76.840
76.815
76.791
76.766
76.742
76.717
76.693
76.668
76.644
76.619
76.595
76.570
76.546
76.521
76.497
76.472
76.448
76.423
76.399
76.374
76.350
76.325
76.301
76.276
76.252
76.227
76.203
76.178
76.154
76.129
76.105
76.080
76.056
76.031
76.007
75.982
75.958
75.933
75.909
75.884
75.860
75.835
75.811
75.786
75.762
75.737
75.713
75.688
75.664
75.639
75.639
75.639
75.639
75.639
75.639
75.639
75.639
75.639
75.639
75.639
75.639
75.639
75.639
75.639
75.639
75.639
75.639
75.639
75.639
75.639
75.639
75.639
75.639
75.639
75.639
75.639
75.639
75.639
75.639
75.639
75.639
75.639
75.639
75.639
75.639
75.639
75.639
75.639
75.639
75.639
75.639
75.639
75.639
75.639
75.639
75.639
75.639
75.639
75.639
75.639
75.639
75.639
75.639
75.639
75.639
75.639
75.639
75.639
75.639
75.639
75.639
75.639
75.639
75.639
75.639
75.639
75.639
75.639
75.639
75.639
75.639
75.639
75.639
75.639
75.639
75.639
75.639
75.639
75.639
75.639
75.639
75.639
75.639
75.639
75.639
75.639
75.639
75.639
75.639
75.639
75.639
75.639
75.639
75.639
75.639
75.639
75.639
75.639
75.639
75.639
75.639
75.639
75.639
75.639
75.639
75.639
75.639
75.639
75.639
75.639
75.639
75.639
75.639
75.639
75.639
75.639
75.639
75.639
75.639
75.639
75.639
75.639
75.639
75.639
75.639
75.639
75.639
75.639
75.639
75.639
75.639
75.639
75.639
75.639
75.639
75.639
75.639
75.639
75.639
75.639
75.639
75.639
75.639
75.639
75.639
75.639
75.639
75.639
75.639
75.639
75.639
75.639
75.639
75.639
75.639
75.639
75.639
75.639
75.639
75.639
75.639
75.639
75.639
75.639
75.639
75.639
75.639
75.639
75.639
75.639
75.639
75.639
75.639
75.639
75.639
75.639
75.639
75.639
75.639
75.639
75.639
75.639
75.639
75.639
75.639
75.639
75.639
75.639
75.639
75.639
75.639
75.639
75.639
75.639
75.639
75.639
75.639
75.639
75.639
75.639
75.639
75.639
75.639
75.639
75.639
75.639
75.639
75.639
75.639
75.639
75.639
75.639
75.639
75.639
75.639
75.639
75.639
75.639
75.639
75.639
75.639
75.639
75.639
75.639
75.639
75.639
75.639
75.639
75.639
75.639
75.639
75.639
75.639
75.639
75.639
75.639
75.639
75.639
75.639
75.639
75.639
75.639
75.639
75.639
75.639
75.639
75.639
75.639
75.639
75.639
75.639
75.639
75.639
75.639
75.639
75.639
75.639
75.639
75.639
75.639
75.639
75.639
75.639
75.639
75.639
75.639
75.639
75.639
75.639
75.639
75.639
75.639
75.639
75.639
75.639
75.639
75.639
75.639
75.639
75.639
75.639
75.639
75.639
75.639
75.639
75.639
75.639
75.639
75.639
75.639
75.639
75.639
75.639
75.639
75.639
75.639
75.639
75.639
75.639
75.639
75.639
75.639
75.639
75.639
75.639
75.639
75.639
75.639
75.639
75.639
75.639
75.639
75.639
75.639
75.639
75.639
75.639
75.639
75.639
75.639
75.639
75.639
75.639
75.639
75.639
75.639
75.639
75.639
75.639
75.639
75.639
75.639
75.639
75.639
75.639
75.639
75.639
75.639
75.639
75.639
75.639
75.639
75.639
75.639
75.639
75.639
75.639
75.639
75.639
75.639
75.639
75.639
75.639
75.639
75.639
75.639
75.639
75.639
75.639
75.639
75.639
75.639
75.639
75.639
75.639
75.639
75.639
75.639
75.639
75.639
75.639
75.639
75.639
75.639
75.639
75.639
75.639
75.639
75.639
75.639
75.639
75.639
75.639
75.639
75.639
75.639
75.639
75.639
75.639
75.639
75.639
75.639
75.639
75.639
75.639
75.639
75.639
75.639
75.639
75.639
75.639
75.639
75.639
75.639
75.639
75.639
75.639
75.639
75.639
75.639
75.639
75.639
75.639
75.639
75.639
75.639
75.639
75.639
75.639
75.639
75.639
75.639
75.639
75.639
75.639
75.639
75.639
75.639
75.639
75.639
75.639
75.639
75.639
75.639
75.639
75.639
75.639
75.639
75.639
75.639
75.639
75.639
75.639
75.639
75.639
75.639
75.639
75.639
75.639
75.639
75.639
75.639
75.639
75.639
75.639
75.639
75.639
75.639
75.639
75.639
75.639
75.639
75.639
75.639
75.639
75.639
75.639
75.639
75.639
75.639
75.639
75.639
75.639
75.639
75.639
75.639
75.639
75.639
75.639
75.639
75.639
75.639
75.639
75.639
75.639
75.639
75.639
75.639
75.639
75.639
75.639
75.639
75.639
75.639
75.639
75.639
75.639
75.639
75.639
75.639
75.639
75.639
75.639
75.639
75.639
75.639
75.639
75.639
75.639
75.639
75.639
75.639
75.639
75.639
75.639
75.639
75.639
75.639
75.639
75.639
75.639
75.639
75.639
75.639
75.639
75.639
75.639
75.639
75.639
75.639
75.639
75.639
75.639
75.639
75.639
75.639
75.639
75.639
75.639
75.639
75.639
75.639
75.639
75.639
75.639
75.639
75.639
75.639
75.639
75.639
75.639
75.639
75.639
75.639
75.639
75.639
75.639
75.639
75.639
75.639
75.639
75.639
75.639
75.639
75.639
75.639
75.639
75.639
75.639
75.639
75.639
75.639
75.639
75.639
75.639
75.639
75.639
75.639
75.639
75.639
75.639
75.639
75.639
75.639
75.639
75.639
75.639
75.639
75.639
75.639
75.639
75.639
75.639
75.639
75.639
75.639
75.639
75.639
75.639
85.339
85.291
85.242
85.194
85.145
85.097
85.048
85.000
84.951
84.903
84.854
84.806
84.757
84.709
84.660
84.612
84.563
84.515
84.466
84.418
84.369
84.321
84.272
84.224
84.175
84.127
84.078
84.030
83.981
83.933
83.884
83.836
83.787
83.739
83.690
83.642
83.593
83.545
83.496
83.448
83.399
83.351
83.302
83.254
83.205
83.157
83.108
83.060
83.011
82.963
82.914
82.866
82.817
82.769
82.720
82.672
82.623
82.575
82.526
82.478
82.429
82.381
82.332
82.284
82.235
82.187
82.138
82.090
82.041
81.993
81.944
81.896
81.847
81.799
81.750
81.702
81.653
81.605
81.556
81.508
81.459
81.411
81.362
81.314
81.265
81.217
81.168
81.120
81.071
81.023
80.974
80.926
80.877
80.829
80.780
80.732
80.683
80.635
80.586
80.538
80.489
80.441
80.392
80.344
80.295
80.247
80.198
80.150
80.101
80.053
80.004
79.956
79.907
79.859
79.810
79.762
79.713
79.665
79.616
79.568
79.519
79.471
79.422
79.374
79.325
79.277
79.228
79.180
79.131
79.083
79.034
78.986
78.937
78.889
78.840
78.792
78.743
78.695
78.646
78.598
78.549
78.501
78.452
78.404
78.355
78.307
78.258
78.210
78.161
78.113
78.064
78.016
77.967
77.919
77.870
77.822
77.773
77.725
77.676
77.628
77.579
77.531
77.482
77.434
77.385
77.337
77.288
77.240
77.191
77.143
77.094
77.046
76.997
76.949
76.900
76.852
76.803
76.755
76.706
76.658
76.609
76.561
76.512
76.464
76.415
76.367
76.318
76.270
76.221
76.173
76.124
76.076
76.027
75.979
75.930
75.882
75.833
75.785
75.736
75.688
75.639
75.615
75.590
75.566
75.541
75.517
75.492
75.468
75.443
75.419
75.394
75.370
75.345
75.321
75.296
75.272
75.247
75.223
75.198
75.174
75.149
75.125
75.100
75.076
75.051
75.027
75.002
74.978
74.953
74.929
74.904
74.880
74.855
74.831
74.806
74.782
74.757
74.733
74.708
74.684
74.659
74.635
74.610
74.586
74.561
74.537
74.512
74.488
74.463
74.439
74.414
74.390
74.365
74.341
74.316
74.292
74.267
74.243
74.218
74.194
74.169
74.145
74.120
74.096
74.071
74.047
74.022
73.998
73.973
73.949
73.924
73.900
73.875
73.851
73.826
73.802
73.777
73.753
73.728
73.704
73.679
73.655
73.630
73.606
73.581
73.557
73.532
73.508
73.483
73.459
73.434
73.410
73.385
73.361
73.336
73.312
73.287
73.263
73.238
73.214
73.189
73.165
73.140
73.116
73.091
73.067
73.042
73.018
72.993
72.969
72.944
72.920
72.895
72.871
72.846
72.822
72.797
72.773
72.748
72.724
72.699
72.675
72.650
72.626
72.601
72.577
