2446.669
2449.284
2451.899
2454.514
2457.129
2459.744
2462.359
2464.974
2467.589
2470.204
2472.819
2475.434
2478.049
2480.664
2483.279
2485.894
2488.509
2491.124
2493.739
2496.354
2498.969
2501.584
2504.199
2506.814
2509.429
2512.044
2514.659
2517.274
2519.889
2522.504
2525.119
2527.734
2530.349
2532.964
2535.579
2538.194
2540.809
2543.424
2546.039
2548.654
2551.269
2553.884
2556.499
2559.114
2561.729
2564.344
2566.959
2569.574
2572.189
2574.804
2577.419
2580.034
2582.649
2585.264
2587.879
2590.494
2593.109
2595.724
2598.339
2600.954
2603.569
2606.184
2608.799
2611.414
2614.029
2616.644
2619.259
2621.874
2624.489
2621.996
2619.504
2617.011
2614.519
2612.026
2609.534
2607.041
2604.549
2602.056
2599.564
2597.071
2594.579
2592.086
2589.594
2587.101
2584.609
2582.116
2579.624
2577.131
2574.639
2572.146
2569.654
2567.161
2564.669
2562.176
2559.684
2557.191
2554.699
2552.206
2549.714
2547.221
2544.729
2542.236
2539.744
2537.251
2534.759
2532.266
2529.774
2527.281
2524.789
2522.296
2519.804
2517.311
2514.819
2512.326
2509.834
2507.341
2504.849
2502.356
2499.864
2497.371
2494.879
2492.386
2489.894
2487.401
2484.909
2482.416
2479.924
2477.431
2474.939
2472.446
2469.954
2467.461
2464.969
2462.476
2459.984
2457.491
2454.999
2452.506
2450.014
2447.521
2445.029
2442.536
2440.044
2437.551
2435.059
2432.566
2430.074
2427.581
2425.089
2422.596
2420.104
2417.611
2415.119
2412.626
2410.134
2407.641
2405.149
2402.656
2400.164
2397.671
2395.179
2392.686
2390.194
2387.701
2385.209
2382.716
2380.224
2377.731
2375.239
2372.746
2370.254
2367.761
2365.269
2362.776
2360.284
2357.791
2355.299
2352.806
2350.314
2347.821
2345.329
2342.836
2340.344
2337.851
2335.359
2332.866
2330.374
2327.881
2325.389
2322.896
2320.404
2317.911
2315.419
2312.926
2310.434
2307.941
2305.449
2302.956
2300.464
2297.971
2295.479
2292.986
2290.494
2288.001
2285.509
2283.016
2280.524
2278.031
2275.539
2273.046
2270.554
2268.061
2265.569
2263.076
2260.584
2258.091
2255.599
2253.106
2250.614
2248.121
2245.629
2243.136
2240.644
2238.151
2235.659
2233.166
2230.674
2228.181
2225.689
2223.196
2220.704
2218.211
2215.719
2213.226
2210.734
2208.241
2205.749
2203.256
2200.764
2198.271
2195.779
2193.286
2190.794
2188.301
2185.809
2183.316
2180.824
2178.331
2175.839
2173.346
2170.854
2168.361
2165.869
2163.376
2160.884
2158.391
2155.899
2153.406
2150.914
2148.421
2145.929
2143.436
2140.944
2138.451
2135.959
2133.466
2130.974
2128.481
87.889
87.864
87.840
87.815
87.791
87.766
87.742
87.717
87.693
87.668
87.644
87.619
87.595
87.570
87.546
87.521
87.497
87.472
87.448
87.423
87.399
87.374
87.350
87.325
87.301
87.276
87.252
87.227
87.203
87.178
87.154
87.129
87.105
87.080
87.056
87.031
87.007
86.982
86.958
86.933
86.909
86.884
86.860
86.835
86.811
86.786
86.762
86.737
86.713
86.688
86.664
86.639
86.615
86.590
86.566
86.541
86.517
86.492
86.468
86.443
86.419
86.394
86.370
86.345
86.321
86.296
86.272
86.247
86.223
86.198
86.174
86.149
86.125
86.100
86.076
86.051
86.027
86.002
85.978
85.953
85.929
85.904
85.880
85.855
85.831
85.806
85.782
85.757
85.733
85.708
85.684
85.659
85.635
85.610
85.586
85.561
85.537
85.512
85.488
85.463
85.439
85.414
85.390
85.365
85.341
85.316
85.292
85.267
85.243
85.218
85.194
85.169
85.145
85.120
85.096
85.071
85.047
85.022
84.998
84.973
84.949
84.924
84.900
84.875
84.851
84.826
84.802
84.777
84.753
84.728
84.704
84.679
84.655
84.630
84.606
84.581
84.557
84.532
84.508
84.483
84.459
84.434
84.410
84.385
84.361
84.336
84.312
84.287
84.263
84.238
84.214
84.189
84.165
84.140
84.116
84.091
84.067
84.042
84.018
83.993
83.969
83.944
83.920
83.895
83.871
83.846
83.822
83.797
83.773
83.748
83.724
83.699
83.675
83.650
83.626
83.601
83.577
83.552
83.528
83.503
83.479
83.454
83.430
83.405
83.381
83.356
83.332
83.307
83.283
83.258
83.234
83.209
83.185
83.160
83.136
83.111
83.087
83.062
83.038
83.013
82.989
83.013
83.038
83.062
83.087
83.111
83.136
83.160
83.185
83.209
83.234
83.258
83.283
83.307
83.332
83.356
83.381
83.405
83.430
83.454
83.479
83.503
83.528
83.552
83.577
83.601
83.626
83.650
83.675
83.699
83.724
83.748
83.773
83.797
83.822
83.846
83.871
83.895
83.920
83.944
83.969
83.993
84.018
84.042
84.067
84.091
84.116
84.140
84.165
84.189
84.214
84.238
84.263
84.287
84.312
84.336
84.361
84.385
84.410
84.434
84.459
84.483
84.508
84.532
84.557
84.581
84.606
84.630
84.655
84.679
84.704
84.728
84.753
84.777
84.802
84.826
84.851
84.875
84.900
84.924
84.949
84.973
84.998
85.022
85.047
85.071
85.096
85.120
85.145
85.169
85.194
85.218
85.243
85.267
85.292
85.316
85.341
85.365
85.390
85.414
85.439
85.463
85.488
85.512
85.537
85.561
85.586
85.610
85.635
85.659
85.684
85.708
85.733
85.757
85.782
85.806
85.831
85.855
85.880
85.904
85.929
85.953
85.978
86.002
86.027
86.051
86.076
86.100
86.125
86.149
86.174
86.198
86.223
86.247
86.272
86.296
86.321
86.345
86.370
86.394
86.419
86.443
86.468
86.492
86.517
86.541
86.566
86.590
86.615
86.639
86.664
86.688
86.713
86.737
86.762
86.786
86.811
86.835
86.860
86.884
86.909
86.933
86.958
86.982
87.007
87.031
87.056
87.080
87.105
87.129
87.154
87.178
87.203
87.227
87.252
87.276
87.301
87.325
87.350
87.374
87.399
87.423
87.448
87.472
87.497
87.521
87.546
87.570
87.595
87.619
87.644
87.668
87.693
87.717
87.742
87.766
87.791
87.815
87.840
87.864
87.889
87.889
87.889
87.889
87.889
87.889
87.889
87.889
87.889
87.889
87.889
87.889
87.889
87.889
87.889
87.889
87.889
87.889
87.889
87.889
87.889
87.889
87.889
87.889
87.889
87.889
87.889
87.889
87.889
87.889
87.889
87.889
87.889
87.889
87.889
87.889
87.889
87.889
87.889
87.889
87.889
87.889
87.889
87.889
87.889
87.889
87.889
87.889
87.889
87.889
87.889
87.889
87.889
87.889
87.889
87.889
87.889
87.889
87.889
87.889
87.889
87.889
87.889
87.889
87.889
87.889
87.889
87.889
87.889
87.889
87.889
87.889
87.889
87.889
87.889
87.889
87.889
87.889
87.889
87.889
87.889
87.889
87.889
87.889
87.889
87.889
87.889
87.889
87.889
87.889
87.889
87.889
87.889
87.889
87.889
87.889
87.889
87.889
87.889
87.889
87.889
87.889
87.889
87.889
87.889
87.889
87.889
87.889
87.889
87.889
87.889
87.889
87.889
87.889
87.889
87.889
87.889
87.889
87.889
87.889
87.889
87.889
87.889
87.889
87.889
87.889
87.889
87.889
87.889
87.889
87.889
87.889
87.889
87.889
87.889
87.889
87.889
87.889
87.889
87.889
87.889
87.889
87.889
87.889
87.889
87.889
87.889
87.889
87.889
87.889
87.889
87.889
87.889
87.889
87.889
87.889
87.889
87.889
87.889
87.889
87.889
87.889
87.889
87.889
87.889
87.889
87.889
87.889
87.889
87.889
87.889
87.889
87.889
87.889
87.889
87.889
87.889
87.889
87.889
87.889
87.889
87.889
87.889
87.889
87.889
87.889
87.889
87.889
87.889
87.889
87.889
87.889
87.889
87.889
87.889
87.889
87.889
87.889
87.889
87.889
87.889
87.889
87.889
87.889
87.889
87.889
87.889
87.889
87.889
87.889
87.889
87.889
87.889
87.889
87.889
87.889
87.889
87.889
87.889
87.889
87.889
87.889
87.889
87.889
87.889
87.889
87.889
87.889
87.889
87.889
87.889
87.889
87.889
87.889
87.889
87.889
87.889
87.889
87.889
87.889
87.889
87.889
87.889
87.889
87.889
87.889
87.889
87.889
87.889
87.889
87.889
87.889
87.889
87.889
87.889
87.889
87.889
87.889
87.889
87.889
87.889
87.889
87.889
87.889
87.889
87.889
87.889
87.889
87.889
87.889
87.889
87.889
87.889
87.889
87.889
87.889
87.889
87.889
87.889
87.889
87.889
87.889
87.889
87.889
87.889
87.889
87.889
87.889
87.889
87.889
87.889
87.889
87.889
87.889
87.889
87.889
87.889
87.889
87.889
87.889
87.889
87.889
87.889
87.889
87.889
87.889
87.889
87.889
87.889
87.889
87.889
87.889
87.889
87.889
87.889
87.889
87.889
87.889
87.889
87.889
87.889
87.889
87.889
87.889
87.889
87.889
87.889
87.889
87.889
87.889
87.889
87.889
87.889
87.889
87.889
87.889
87.889
87.889
87.889
87.889
87.889
87.889
87.889
87.889
87.889
87.889
87.889
87.889
87.889
87.889
87.889
87.889
87.889
87.889
87.889
87.889
87.889
87.889
87.889
87.889
87.889
87.889
87.889
87.889
87.889
87.889
87.889
87.889
87.889
87.889
87.889
87.889
87.889
87.889
87.889
87.889
87.889
87.889
87.889
87.889
87.889
87.889
87.889
87.889
87.889
87.889
87.889
87.889
87.889
87.889
87.889
87.889
87.889
87.889
87.889
87.889
87.889
87.889
87.889
87.889
87.889
87.889
87.889
87.889
87.889
87.889
87.889
87.889
87.889
87.889
87.889
87.889
87.889
87.889
87.889
87.889
87.889
87.889
87.889
87.889
87.889
87.889
87.889
87.889
87.889
87.889
87.889
87.889
87.889
87.889
87.889
87.889
87.889
87.889
87.889
87.889
87.889
87.889
87.889
87.889
87.889
87.889
87.889
87.889
87.889
87.889
87.889
87.889
87.889
87.889
87.889
87.889
87.889
87.889
87.889
87.889
87.889
87.889
87.889
87.889
87.889
87.889
87.889
87.889
87.889
87.889
87.889
87.889
87.889
87.889
87.889
87.889
87.889
87.889
87.889
87.889
87.889
87.889
87.889
87.889
87.889
87.889
87.889
87.889
87.889
87.889
87.889
87.889
87.889
87.889
87.889
87.889
87.889
87.889
87.889
87.889
87.889
87.889
87.889
87.889
87.889
87.889
87.889
87.889
87.889
87.889
87.889
87.889
87.889
87.889
87.889
87.889
87.889
87.889
87.889
87.889
87.889
87.889
87.889
87.889
87.889
87.889
87.889
87.889
87.889
87.889
87.889
87.889
87.889
87.889
87.889
87.889
87.889
87.889
87.889
87.889
87.889
87.889
87.889
87.889
87.889
87.889
87.889
87.889
87.889
87.889
87.889
87.889
87.889
87.889
87.889
87.889
87.889
87.889
87.889
87.889
87.889
87.889
87.889
87.889
87.889
87.889
87.889
87.889
87.889
87.889
87.889
87.889
87.889
87.889
87.889
87.889
87.889
87.889
87.889
87.889
87.889
87.889
87.889
87.889
87.889
87.889
87.889
87.889
87.889
87.889
87.889
87.889
87.889
87.889
87.889
87.889
87.889
87.889
87.889
87.889
87.889
87.889
87.889
87.889
87.889
87.889
87.889
87.889
87.889
87.889
87.889
87.889
87.889
87.889
87.889
87.889
87.889
87.889
87.889
87.889
87.889
87.889
87.889
87.889
87.889
87.889
87.889
87.889
87.889
87.889
87.889
87.889
87.889
87.889
87.889
87.889
87.889
87.889
87.889
87.889
87.889
87.889
87.889
87.889
87.889
87.889
87.889
87.889
87.889
87.889
87.889
87.889
87.889
87.889
87.889
87.889
87.889
87.889
87.889
87.889
87.889
87.889
87.889
87.889
87.889
87.889
87.889
87.889
87.889
87.889
87.889
87.889
87.889
87.889
87.889
87.889
87.889
87.889
87.889
87.889
87.889
87.889
87.889
87.889
87.889
87.889
87.889
87.889
87.889
87.889
87.889
87.889
87.889
87.889
87.889
87.889
87.889
87.889
87.889
87.889
87.889
87.889
87.889
87.889
87.889
87.889
87.889
87.889
87.889
87.889
87.889
87.889
87.889
87.889
87.889
87.889
87.889
87.889
87.889
87.889
87.889
87.889
87.889
87.889
87.889
87.889
87.889
87.889
87.889
87.889
87.889
87.889
87.889
87.889
87.889
87.889
87.889
87.889
87.889
87.889
87.889
87.889
87.889
87.889
87.889
87.889
87.889
87.889
87.889
87.889
87.889
87.889
87.889
87.889
87.889
87.889
87.889
87.889
87.889
87.889
87.889
87.889
87.889
87.889
87.889
87.889
87.889
87.889
87.889
87.889
87.889
87.889
87.889
87.889
87.889
87.889
87.889
87.889
87.889
87.889
87.889
87.889
87.889
87.889
87.889
87.889
87.889
87.889
87.889
87.889
87.889
87.889
87.889
87.889
87.889
87.889
87.889
87.889
87.889
87.889
87.889
87.889
87.889
87.889
87.889
87.889
87.889
87.889
87.889
87.889
87.889
87.889
87.889
87.889
87.889
87.889
87.889
87.889
87.889
87.889
87.889
87.889
87.889
87.889
87.889
87.889
87.889
87.889
87.889
87.889
87.889
87.889
87.889
87.889
87.889
87.889
87.889
87.889
87.889
87.889
87.889
87.889
87.889
87.889
87.889
87.889
87.889
87.889
87.889
87.889
87.889
87.889
87.889
87.889
87.889
87.889
87.889
87.889
87.889
87.889
87.889
87.889
87.889
87.889
87.889
87.889
87.889
87.889
87.889
87.889
87.889
87.889
87.889
87.889
87.889
87.889
87.889
87.889
87.889
87.889
87.889
87.889
87.889
87.889
87.889
87.889
87.889
87.889
87.889
87.889
87.889
87.889
87.889
87.889
87.889
87.889
87.889
87.889
87.889
87.889
87.889
87.889
87.889
87.889
87.889
87.889
87.889
87.889
87.889
87.889
87.889
87.889
87.889
87.889
87.889
87.889
87.889
87.889
87.889
87.889
87.889
87.889
87.889
87.889
87.889
87.889
87.889
87.889
87.889
87.889
87.889
87.889
87.889
87.889
87.889
87.889
87.889
87.889
87.889
87.889
87.889
87.889
87.889
87.889
87.889
87.889
87.889
87.889
87.889
87.889
87.889
87.889
87.889
87.889
87.889
87.889
87.889
87.889
87.889
87.889
87.889
87.889
87.889
87.889
87.889
87.889
87.889
87.889
87.889
87.889
87.889
87.889
87.889
87.889
87.889
87.889
87.889
87.889
87.889
87.889
87.889
87.889
87.889
87.889
87.889
87.889
87.889
87.889
87.889
87.889
87.889
87.889
87.889
87.889
87.889
87.889
87.889
87.889
87.889
87.889
87.889
87.889
87.889
87.889
87.889
87.889
87.889
87.889
87.889
87.889
87.889
87.889
87.889
87.889
87.889
87.889
87.889
87.889
87.889
87.889
87.889
87.889
87.889
87.889
87.889
87.889
87.889
87.889
87.889
87.889
87.889
87.889
87.889
87.889
87.889
87.889
87.889
87.889
87.889
87.889
87.889
87.889
87.889
87.889
87.889
87.889
87.889
87.889
87.889
87.889
87.889
87.889
87.889
87.889
87.889
87.889
87.889
87.889
87.889
87.889
87.889
87.889
87.889
87.889
87.889
87.889
87.889
87.889
87.889
87.889
87.889
87.889
87.889
87.889
87.889
87.889
87.889
87.889
87.889
87.889
87.889
87.889
87.889
87.889
87.889
87.889
87.889
87.889
87.889
87.889
87.889
87.889
87.889
87.889
87.889
87.889
87.889
87.889
87.889
87.889
87.889
87.889
87.889
87.889
87.889
87.889
87.889
87.889
87.889
87.889
87.889
87.889
87.889
87.889
87.889
87.889
87.889
87.889
87.889
87.889
87.889
87.889
87.889
87.889
87.889
87.889
87.889
87.889
87.889
87.889
87.889
87.889
87.889
87.889
87.889
87.889
87.889
87.889
87.889
87.889
87.889
87.889
87.889
87.889
87.889
87.889
87.889
87.889
87.889
87.889
87.889
87.889
87.889
87.889
87.889
87.889
87.889
87.889
87.889
87.889
87.889
87.889
87.889
87.889
87.889
87.889
87.889
87.889
87.889
87.889
87.889
87.889
87.889
87.889
87.889
87.889
87.889
87.889
87.889
87.889
87.889
87.889
87.889
87.889
87.889
87.889
87.889
87.889
87.889
87.889
87.889
87.889
87.889
87.889
87.889
87.889
87.889
87.889
87.889
87.889
87.889
87.889
87.889
87.889
87.889
87.889
87.889
87.889
87.889
87.889
87.889
87.889
87.889
87.889
87.889
87.889
87.889
87.889
87.889
87.889
87.889
87.889
87.889
87.889
87.889
87.889
87.889
87.889
87.889
87.889
87.889
87.889
87.889
87.889
87.889
87.889
87.889
87.889
87.889
87.889
87.889
87.889
87.889
87.889
87.889
87.889
87.889
87.889
87.889
87.889
87.889
87.889
87.889
87.889
87.889
87.889
87.889
87.889
87.889
87.889
87.889
87.889
87.889
87.889
87.889
87.889
87.889
87.889
87.889
87.889
87.889
87.889
87.889
87.889
87.889
87.889
87.889
87.889
87.889
87.889
87.889
87.889
87.889
87.889
87.889
87.889
87.889
87.889
87.889
87.889
87.889
87.889
87.889
87.889
87.889
87.889
87.889
87.889
87.889
87.889
87.889
87.889
87.889
87.889
87.889
87.889
87.889
87.889
87.889
87.889
87.889
87.889
87.889
87.889
87.889
87.889
87.889
87.889
87.889
87.889
87.889
87.889
87.889
87.889
87.889
87.889
87.889
87.889
87.889
87.889
87.889
87.889
87.889
87.889
87.889
87.889
