1087.528
1092.513
1097.498
1102.483
1107.468
1112.453
1117.438
1122.423
1127.408
1132.393
1137.378
1142.363
1147.348
1152.333
1157.318
1162.303
1167.288
1172.273
1177.258
1182.243
1187.228
1192.213
1197.198
1202.183
1207.168
1212.153
1217.138
1222.123
1227.108
1232.093
1237.078
1242.063
1247.048
1252.033
1257.018
1262.003
1266.988
1271.973
1276.958
1281.943
1286.928
1291.913
1296.898
1301.883
1306.868
1311.853
1316.838
1321.823
1326.808
1331.793
1332.771
1333.749
1334.727
1335.705
1336.683
1337.661
1338.639
1339.617
1340.595
1341.573
1342.551
1343.529
1344.507
1345.485
1346.463
1347.441
1348.419
1349.397
1350.375
1351.353
1352.331
1353.309
1354.287
1355.265
1356.243
1357.221
1358.199
1359.177
1360.155
1361.133
1362.111
1363.089
1364.067
1365.045
1366.023
1367.001
1367.979
1368.957
1369.935
1370.913
1371.891
1372.869
1373.847
1374.825
1375.803
1376.781
1377.759
1378.737
1379.715
1380.693
1381.671
1382.649
1383.627
1384.605
1385.583
1386.561
1387.539
1388.517
1389.495
1390.473
1391.451
1392.429
1393.407
1394.385
1395.363
1396.341
1397.319
1398.297
1399.275
1400.253
1401.231
1402.209
1403.187
1404.165
1405.143
1406.121
1407.099
1408.077
1409.055
1410.033
1411.011
1411.989
1412.967
1413.945
1414.923
1415.901
1416.879
1417.857
1418.835
1419.813
1420.791
1421.769
1422.747
1423.725
1424.703
1425.681
1426.659
1427.637
1428.615
1429.593
1430.571
1431.549
1432.527
1433.505
1434.483
1435.461
1436.439
1437.417
1438.395
1439.373
1440.351
1441.329
1442.307
1443.285
1444.263
1445.241
1446.219
1447.197
1448.175
1449.153
1450.131
1451.109
1452.087
1453.065
1454.043
1455.021
1455.999
1456.977
1457.955
1458.933
1459.911
1460.889
1461.867
1462.845
1463.823
1464.801
1465.779
1466.757
1467.735
1468.713
1469.691
1470.669
1471.647
1472.625
1473.603
1474.581
1475.559
1476.537
1477.515
1478.493
1479.471
1480.449
1481.427
1482.405
1483.383
1484.361
1485.339
1486.317
1487.295
1488.273
1489.251
1490.229
1491.207
1492.185
1493.163
1494.141
1495.119
1496.097
1497.075
1498.053
1499.031
1500.009
1500.987
1501.965
1502.943
1503.921
1504.899
1505.877
1506.855
1507.833
1508.811
1509.789
1510.767
1511.745
1512.723
1513.701
1514.679
1515.657
1516.635
1517.613
1518.591
1519.569
1520.547
1521.525
1522.503
1523.481
1524.459
1525.437
1526.415
1527.393
1529.421
1531.449
1533.477
1535.505
1537.533
1539.561
1541.589
1543.617
1545.645
1547.673
1549.701
1551.729
1553.757
1555.785
1557.813
1559.841
1561.869
1563.897
1565.925
1567.953
1569.981
1572.009
1574.037
1576.065
1578.093
1580.121
1582.149
1584.177
1586.205
1588.233
1590.261
1592.289
1594.317
1596.345
1598.373
1600.401
1602.429
1604.457
1606.485
1608.513
1610.541
1612.569
1614.597
1616.625
1618.653
1620.681
1622.709
1624.737
1626.765
1628.793
1630.821
1632.849
1634.877
1636.905
1638.933
1640.961
1642.989
1645.017
1647.045
1649.073
1651.101
1653.129
1655.157
1657.185
1659.213
1661.241
1663.269
1665.297
1667.325
1669.353
1671.381
1673.409
1675.437
1677.465
1679.493
1681.521
1683.549
1685.577
1687.605
1689.633
1691.661
1693.689
1695.717
1697.745
1699.773
1701.801
1703.829
1705.857
1707.885
1709.913
1711.941
1713.969
1715.997
1718.025
1720.053
1722.081
1724.109
1726.137
1728.165
1730.193
1732.221
1734.249
1736.277
1738.305
1740.333
1742.361
1744.389
1746.417
1748.445
1750.473
1752.501
1754.529
1756.557
1758.585
1760.613
1762.641
1764.669
1766.697
1768.725
1770.753
1772.781
1774.809
1776.837
1778.865
1780.893
1782.921
1784.949
1786.977
1789.005
1791.033
1793.061
1795.089
1797.117
1799.145
1801.173
1803.201
1805.229
1807.257
1809.285
1811.313
1813.341
1815.369
1817.397
1819.425
1821.453
1823.481
1825.509
1827.537
1829.565
1831.593
1833.621
1835.649
1837.677
1839.705
1841.733
1843.761
1845.789
1847.817
1849.845
1851.873
1853.901
1855.929
1857.957
1859.985
1862.013
1864.041
1866.069
1868.097
1870.125
1872.153
1874.181
1876.209
1878.237
1880.265
1882.293
1884.321
1886.349
1888.377
1890.405
1892.433
1894.461
1896.489
1898.517
1900.545
1902.573
1904.601
1906.629
1908.657
1910.685
1912.713
1914.741
1916.769
1918.797
1920.825
1922.853
1924.881
1926.909
1928.937
1930.965
1932.993
1933.018
1933.042
1933.067
1933.091
1933.116
1933.140
1933.165
1933.189
1933.214
1933.238
1933.263
1933.287
1933.312
1933.336
1933.361
1933.385
1933.410
1933.434
1933.459
1933.483
1933.508
1933.532
1933.557
1933.581
1933.606
1933.630
1933.655
1933.679
1933.704
1933.728
1933.753
1933.777
1933.802
1933.826
1933.851
1933.875
1933.900
1933.924
1933.949
1933.973
1933.998
1934.022
1934.047
1934.071
1934.096
1934.120
1934.145
1934.169
1934.194
1934.218
1934.243
1934.267
1934.292
1934.316
1934.341
1934.365
1934.390
1934.414
1934.439
1934.463
1934.488
1934.512
1934.537
1934.561
1934.586
1934.610
1934.635
1934.659
1934.684
1934.708
1934.733
1934.757
1934.782
1934.806
1934.831
1934.855
1934.880
1934.904
1934.929
1934.953
1934.978
1935.002
1935.027
1935.051
1935.076
1935.100
1935.125
1935.149
1935.174
1935.198
1935.223
1935.247
1935.272
1935.296
1935.321
1935.345
1935.370
1935.394
1935.419
1935.443
1935.468
1935.492
1935.517
1935.541
1935.566
1935.590
1935.615
1935.639
1935.664
1935.688
1935.713
1935.737
1935.762
1935.786
1935.811
1935.835
1935.860
1935.884
1935.909
1935.933
1935.958
1935.982
1936.007
1936.031
1936.056
1936.080
1936.105
1936.129
1936.154
1936.178
1936.203
1936.227
1936.252
1936.276
1936.301
1936.325
1936.350
1936.374
1936.399
1936.423
1936.448
1936.472
1936.497
1936.521
1936.546
1936.570
1936.595
1936.619
1936.644
1936.668
1936.693
1936.717
1936.742
1936.766
1936.791
1936.815
1936.840
1936.864
1936.889
1936.913
1936.938
1936.962
1936.987
1937.011
1937.036
1937.060
1937.085
1937.109
1937.134
1937.158
1937.183
1937.207
1937.232
1937.256
1937.281
1937.305
1937.330
1937.354
1937.379
1937.403
1937.428
1937.452
1937.477
1937.501
1937.526
1937.550
1937.575
1937.599
1937.624
1937.648
1937.673
1937.697
1937.722
1937.746
1937.771
1937.795
1937.820
1937.844
1937.869
1937.893
1939.360
1940.826
1942.293
1943.759
1945.226
1946.692
1948.159
1949.625
1951.092
1952.558
1954.025
1955.491
1956.958
1958.424
1959.891
1961.357
1962.824
1964.290
1965.757
1967.223
1968.690
1970.156
1971.623
1973.089
1974.556
1976.022
1977.489
1978.955
1980.422
1981.888
1983.355
1984.821
1986.288
1987.754
1989.221
1990.687
1992.154
1993.620
1995.087
1996.553
1998.020
1999.486
2000.953
2002.419
2003.886
2005.352
2006.819
2008.285
2009.752
2011.218
2012.685
2014.151
2015.618
2017.084
2018.551
2020.017
2021.484
2022.950
2024.417
2025.883
2027.350
2028.816
2030.283
2031.749
2033.216
2034.682
2036.149
2037.615
2039.082
2040.548
2042.015
2043.481
2044.948
2046.414
2047.881
2049.347
2050.814
2052.280
2053.747
2055.213
2056.680
2058.146
2059.613
2061.079
2062.546
2064.012
2065.479
2066.945
2068.412
2069.878
2071.345
2072.811
2074.278
2075.744
2077.211
2078.677
2080.144
2081.610
2083.077
2084.543
2086.010
2087.476
2088.943
2090.409
2091.876
2093.342
2094.809
2096.275
2097.742
2099.208
2100.675
2102.141
2103.608
2105.074
2106.541
2108.007
2109.474
2110.940
2112.407
2113.873
2115.340
2116.806
2118.273
2119.739
2121.206
2122.672
2124.139
2125.605
2127.072
2128.538
2130.005
2131.471
2132.938
2134.404
2135.871
2137.337
2138.804
2140.270
2141.737
2143.203
2144.670
2146.136
2147.603
2149.069
2150.536
2152.002
2153.469
2154.935
2156.402
2157.868
2159.335
2160.801
2162.268
2163.734
2165.201
2166.667
2168.134
2169.600
2171.067
2172.533
2174.000
2175.466
2176.933
2178.399
2179.866
2181.332
2182.799
2184.265
2185.732
2187.198
2188.665
2190.131
2191.598
2193.064
2194.531
2195.997
2197.464
2198.930
2200.397
2201.863
2203.330
2204.796
2206.263
2207.729
2209.196
2210.662
2212.129
2213.595
2215.062
2216.528
2217.995
2219.461
2220.928
2222.394
2223.861
2225.327
2226.794
2228.260
2229.727
2231.193
2231.242
2231.290
2231.339
2231.387
2231.436
2231.484
2231.533
2231.581
2231.630
2231.678
2231.727
2231.775
2231.824
2231.872
2231.921
2231.969
2232.018
2232.066
2232.115
2232.163
2232.212
2232.260
2232.309
2232.357
2232.406
2232.454
2232.503
2232.551
2232.600
2232.648
2232.697
2232.745
2232.794
2232.842
2232.891
2232.939
2232.988
2233.036
2233.085
2233.133
2233.182
2233.230
2233.279
2233.327
2233.376
2233.424
2233.473
2233.521
2233.570
2233.618
2233.667
2233.715
2233.764
2233.812
2233.861
2233.909
2233.958
2234.006
2234.055
2234.103
2234.152
2234.200
2234.249
2234.297
2234.346
2234.394
2234.443
2234.491
2234.540
2234.588
2234.637
2234.685
2234.734
2234.782
2234.831
2234.879
2234.928
2234.976
2235.025
2235.073
2235.122
2235.170
2235.219
2235.267
2235.316
2235.364
2235.413
2235.461
2235.510
2235.558
2235.607
2235.655
2235.704
2235.752
2235.801
2235.849
2235.898
2235.946
2235.995
2236.043
2236.092
2236.140
2236.189
2236.237
2236.286
2236.334
2236.383
2236.431
2236.480
2236.528
2236.577
2236.625
2236.674
2236.722
2236.771
2236.819
2236.868
2236.916
2236.965
2237.013
2237.062
2237.110
2237.159
2237.207
2237.256
2237.304
2237.353
2237.401
2237.450
2237.498
2237.547
2237.595
2237.644
2237.692
2237.741
2237.789
2237.838
2237.886
2237.935
2237.983
2238.032
2238.080
2238.129
2238.177
2238.226
2238.274
2238.323
2238.371
2238.420
2238.468
2238.517
2238.565
2238.614
2238.662
2238.711
2238.759
2238.808
2238.856
2238.905
2238.953
2239.002
2239.050
2239.099
2239.147
2239.196
2239.244
2239.293
2239.341
2239.390
2239.438
2239.487
2239.535
2239.584
2239.632
2239.681
2239.729
2239.778
2239.826
2239.875
2239.923
2239.972
2240.020
2240.069
2240.117
2240.166
2240.214
2240.263
2240.311
2240.360
2240.408
2240.457
2240.505
2240.554
2240.602
2240.651
2240.699
2240.748
2240.796
2240.845
2240.893
2240.869
2240.845
2240.821
2240.797
2240.773
2240.749
2240.725
2240.701
2240.677
2240.653
2240.629
2240.605
2240.581
2240.557
2240.533
2240.509
2240.485
2240.461
2240.437
2240.413
2240.389
2240.365
2240.341
2240.317
2240.293
2240.269
2240.245
2240.221
2240.197
2240.173
2240.149
2240.125
2240.101
2240.077
2240.053
2240.029
2240.005
2239.981
2239.957
2239.933
2239.909
2239.885
2239.861
2239.837
2239.813
2239.789
2239.765
2239.741
2239.717
2239.693
2239.669
2239.645
2239.621
2239.597
2239.573
2239.549
2239.525
2239.501
2239.477
2239.453
2239.429
2239.405
2239.381
2239.357
2239.333
2239.309
2239.285
2239.261
2239.237
2239.213
2239.189
2239.165
2239.141
2239.117
2239.093
2239.069
2239.045
2239.021
2238.997
2238.973
2238.949
2238.925
2238.901
2238.877
2238.853
2238.829
2238.805
2238.781
2238.757
2238.733
2238.709
2238.685
2238.661
2238.637
2238.613
2238.589
2238.565
2238.541
2238.517
2238.493
2238.469
2238.445
2238.421
2238.397
2238.373
2238.349
2238.325
2238.301
2238.277
2238.253
2238.229
2238.205
2238.181
2238.157
2238.133
2238.109
2238.085
2238.061
2238.037
2238.013
2237.989
2237.965
2237.941
2237.917
2237.893
2237.869
2237.845
2237.821
2237.797
2237.773
2237.749
2237.725
2237.701
2237.677
2237.653
2237.629
2237.605
2237.581
2237.557
2237.533
2237.509
2237.485
2237.461
2237.437
2237.413
2237.389
2237.365
2237.341
2237.317
2237.293
2237.269
2237.245
2237.221
2237.197
2237.173
2237.149
2237.125
2237.101
2237.077
2237.053
2237.029
2237.005
2236.981
2236.957
2236.933
2236.909
2236.885
2236.861
2236.837
2236.813
2236.789
2236.765
2236.741
2236.717
2236.693
2236.669
2236.645
2236.621
2236.597
2236.573
2236.549
2236.525
2236.501
2236.477
2236.453
2236.429
2236.405
2236.381
2236.357
2236.333
2236.309
2236.285
2236.261
2236.237
2236.213
2236.189
2236.165
2236.141
2236.117
2236.093
2236.777
2237.461
2238.145
2238.829
2239.513
2240.197
2240.881
2241.565
2242.249
2242.933
2243.617
2244.301
2244.985
2245.669
2246.353
2247.037
2247.721
2248.405
2249.089
2249.773
2250.457
2251.141
2251.825
2252.509
2253.193
2253.877
2254.561
2255.245
2255.929
2256.613
2257.297
2257.981
2258.665
2259.349
2260.033
2260.717
2261.401
2262.085
2262.769
2263.453
2264.137
2264.821
2265.505
2266.189
2266.873
2267.557
2268.241
2268.925
2269.609
2270.293
2270.977
2271.661
2272.345
2273.029
2273.713
2274.397
2275.081
2275.765
2276.449
2277.133
2277.817
2278.501
2279.185
2279.869
2280.553
2281.237
2281.921
2282.605
2283.289
2283.973
2284.657
2285.341
2286.025
2286.709
2287.393
2288.077
2288.761
2289.445
2290.129
2290.813
2291.497
2292.181
2292.865
2293.549
2294.233
2294.917
2295.601
2296.285
2296.969
2297.653
2298.337
2299.021
2299.705
2300.389
2301.073
2301.757
2302.441
2303.125
2303.809
2304.493
2305.177
2305.861
2306.545
2307.229
2307.913
2308.597
2309.281
2309.965
2310.649
2311.333
2312.017
2312.701
2313.385
2314.069
2314.753
2315.437
2316.121
2316.805
2317.489
2318.173
2318.857
2319.541
2320.225
2320.909
2321.593
2322.277
2322.961
2323.645
2324.329
2325.013
2325.697
2326.381
2327.065
2327.749
2328.433
2329.117
2329.801
2330.485
2331.169
2331.853
2332.537
2333.221
2333.905
2334.589
2335.273
2335.957
2336.641
2337.325
2338.009
2338.693
2339.377
2340.061
2340.745
2341.429
2342.113
2342.797
2343.481
2344.165
2344.849
2345.533
2346.217
2346.901
2347.585
2348.269
2348.953
2349.637
2350.321
2351.005
2351.689
2352.373
2353.057
2353.741
2354.425
2355.109
2355.793
2356.477
2357.161
2357.845
2358.529
2359.213
2359.897
2360.581
2361.265
2361.949
2362.633
2363.317
2364.001
2364.685
2365.369
2366.053
2366.737
2367.421
2368.105
2368.789
2369.473
2370.157
2370.841
2371.525
2372.209
2372.893
2371.500
2370.107
2368.714
2367.321
2365.928
2364.535
2363.142
2361.749
2360.356
2358.963
2357.570
2356.177
2354.784
2353.391
2351.998
2350.605
2349.212
2347.819
2346.426
2345.033
2343.640
2342.247
2340.854
2339.461
2338.068
2336.675
2335.282
2333.889
2332.496
2331.103
2329.710
2328.317
2326.924
2325.531
2324.138
2322.745
2321.352
2319.959
2318.566
2317.173
2315.780
2314.387
2312.994
2311.601
2310.208
2308.815
2307.422
2306.029
2304.636
2303.243
2301.850
2300.457
2299.064
2297.671
2296.278
2294.885
2293.492
2292.099
2290.706
2289.313
2287.920
2286.527
2285.134
2283.741
2282.348
2280.955
2279.562
2278.169
2276.776
2275.383
2273.990
2272.597
2271.204
2269.811
2268.418
2267.025
2265.632
2264.239
2262.846
2261.453
2260.060
2258.667
2257.274
2255.881
2254.488
2253.095
2251.702
2250.309
2248.916
2247.523
2246.130
2244.737
2243.344
2241.951
2240.558
2239.165
2237.772
2236.379
2234.986
2233.593
2232.200
2230.807
2229.414
2228.021
2226.628
2225.235
2223.842
2222.449
2221.056
2219.663
2218.270
2216.877
2215.484
2214.091
2212.698
2211.305
2209.912
2208.519
2207.126
2205.733
2204.340
2202.947
2201.554
2200.161
2198.768
2197.375
2195.982
2194.589
2193.196
2191.803
2190.410
2189.017
2187.624
2186.231
2184.838
2183.445
2182.052
2180.659
2179.266
2177.873
2176.480
2175.087
2173.694
2172.301
2170.908
2169.515
2168.122
2166.729
2165.336
2163.943
2162.550
2161.157
2159.764
2158.371
2156.978
2155.585
2154.192
2152.799
2151.406
2150.013
2148.620
2147.227
2145.834
2144.441
2143.048
2141.655
2140.262
2138.869
2137.476
2136.083
2134.690
2133.297
2131.904
2130.511
2129.118
2127.725
2126.332
2124.939
2123.546
2122.153
2120.760
2119.367
2117.974
2116.581
2115.188
2113.795
2112.402
2111.009
2109.616
2108.223
2106.830
2105.437
2104.044
2102.651
2101.258
2099.865
2098.472
2097.079
2095.686
2094.293
2094.000
2093.707
2093.414
2093.121
2092.828
2092.535
2092.242
2091.949
2091.656
2091.363
2091.070
2090.777
2090.484
2090.191
2089.898
2089.605
2089.312
2089.019
2088.726
2088.433
2088.140
2087.847
2087.554
2087.261
2086.968
2086.675
2086.382
2086.089
2085.796
2085.503
2085.210
2084.917
2084.624
2084.331
2084.038
2083.745
2083.452
2083.159
2082.866
2082.573
2082.280
2081.987
2081.694
2081.401
2081.108
2080.815
2080.522
2080.229
2079.936
2079.643
2079.350
2079.057
2078.764
2078.471
2078.178
2077.885
2077.592
2077.299
2077.006
2076.713
2076.420
2076.127
2075.834
2075.541
2075.248
2074.955
2074.662
2074.369
2074.076
2073.783
2073.490
2073.197
2072.904
2072.611
2072.318
2072.025
2071.732
2071.439
2071.146
2070.853
2070.560
2070.267
2069.974
2069.681
2069.388
2069.095
2068.802
2068.509
2068.216
2067.923
2067.630
2067.337
2067.044
2066.751
2066.458
2066.165
2065.872
2065.579
2065.286
2064.993
2064.700
2064.407
2064.114
2063.821
2063.528
2063.235
2062.942
2062.649
2062.356
2062.063
2061.770
2061.477
2061.184
2060.891
2060.598
2060.305
2060.012
2059.719
2059.426
2059.133
2058.840
2058.547
2058.254
2057.961
2057.668
2057.375
2057.082
2056.789
2056.496
2056.203
2055.910
2055.617
2055.324
2055.031
2054.738
2054.445
2054.152
2053.859
2053.566
2053.273
2052.980
2052.687
2052.394
2052.101
2051.808
2051.515
2051.222
2050.929
2050.636
2050.343
2050.050
2049.757
2049.464
2049.171
2048.878
2048.585
2048.292
2047.999
2047.706
2047.413
2047.120
2046.827
2046.534
2046.241
2045.948
2045.655
2045.362
2045.069
2044.776
2044.483
2044.190
2043.897
2043.604
2043.311
2043.018
2042.725
2042.432
2042.139
2041.846
2041.553
2041.260
2040.967
2040.674
2040.381
2040.088
2039.795
2039.502
2039.209
2038.916
2038.623
2038.330
2038.037
2037.744
2037.451
2037.158
2036.865
2036.572
2036.279
2035.986
105.093
105.093
105.093
105.093
105.093
105.093
105.093
105.093
105.093
105.093
105.093
105.093
105.093
105.093
105.093
105.093
105.093
105.093
105.093
105.093
105.093
105.093
105.093
105.093
105.093
105.093
105.093
105.093
105.093
105.093
105.093
105.093
105.093
105.093
105.093
105.093
105.093
105.093
105.093
105.093
105.093
105.093
105.093
105.093
105.093
105.093
105.093
105.093
105.093
105.093
105.093
105.093
105.093
105.093
105.093
105.093
105.093
105.093
105.093
105.093
105.093
105.093
105.093
105.093
105.093
105.093
105.093
105.093
105.093
105.093
105.093
105.093
105.093
105.093
105.093
105.093
105.093
105.093
105.093
105.093
105.093
105.093
105.093
105.093
105.093
105.093
105.093
105.093
105.093
105.093
105.093
105.093
105.093
105.093
105.093
105.093
105.093
105.093
105.093
105.093
105.093
105.093
105.093
105.093
105.093
105.093
105.093
105.093
105.093
105.093
105.093
105.093
105.093
105.093
105.093
105.093
105.093
105.093
105.093
105.093
105.093
105.093
105.093
105.093
105.093
105.093
105.093
105.093
105.093
105.093
105.093
105.093
105.093
105.093
105.093
105.093
105.093
105.093
105.093
105.093
105.093
105.093
105.093
105.093
105.093
105.093
105.093
105.093
105.093
105.093
105.093
