2156.754
2155.361
2153.968
2152.575
2151.182
2149.789
2148.396
2147.003
2145.610
2144.217
2142.824
2141.431
2140.038
2138.645
2137.252
2135.859
2134.466
2133.073
2131.680
2130.287
2128.894
2127.501
2126.108
2124.715
2123.322
2121.929
2120.536
2119.143
2117.750
2116.357
2114.964
2113.571
2112.178
2110.785
2109.392
2107.999
2106.606
2105.213
2103.820
2102.427
2101.034
2099.641
2098.248
2096.855
2095.462
2094.069
2092.676
2091.283
2089.890
2088.497
2087.104
2085.711
2084.318
2082.925
2081.532
2080.139
2078.746
2077.353
2075.960
2074.567
2073.174
2071.781
2070.388
2070.095
2069.802
2069.509
2069.216
2068.923
2068.630
2068.337
2068.044
2067.751
2067.458
2067.165
2066.872
2066.579
2066.286
2065.993
2065.700
2065.407
2065.114
2064.821
2064.528
2064.235
2063.942
2063.649
2063.356
2063.063
2062.770
2062.477
2062.184
2061.891
2061.598
2061.305
2061.012
2060.719
2060.426
2060.133
2059.840
2059.547
2059.254
2058.961
2058.668
2058.375
2058.082
2057.789
2057.496
2057.203
2056.910
2056.617
2056.324
2056.031
2055.738
2055.445
2055.152
2054.859
2054.566
2054.273
2053.980
2053.687
2053.394
2053.101
2052.808
2052.515
2052.222
2051.929
2051.636
2051.343
2051.050
2050.757
2050.464
2050.171
2049.878
2049.585
2049.292
2048.999
2048.706
2048.413
2048.120
2047.827
2047.534
2047.241
2046.948
2046.655
2046.362
2046.069
2045.776
2045.483
2045.190
2044.897
2044.604
2044.311
2044.018
2043.725
2043.432
2043.139
2042.846
2042.553
2042.260
2041.967
2041.674
2041.381
2041.088
2040.795
2040.502
2040.209
2039.916
2039.623
2039.330
2039.037
2038.744
2038.451
2038.158
2037.865
2037.572
2037.279
2036.986
2036.693
2036.400
2036.107
2035.814
2035.521
2035.228
2034.935
2034.642
2034.349
2034.056
2033.763
2033.470
2033.177
2032.884
2032.591
2032.298
2032.005
2031.712
2031.419
2031.126
2030.833
2030.540
2030.247
2029.954
2029.661
2029.368
2029.075
2028.782
2028.489
2028.196
2027.903
2027.610
2027.317
2027.024
2026.731
2026.438
2026.145
2025.852
2025.559
2025.266
2024.973
2024.680
2024.387
2024.094
2023.801
2023.508
2023.215
2022.922
2022.629
2022.336
2022.043
2021.750
2021.457
2021.164
2020.871
2020.578
2020.285
2019.992
2019.699
2019.406
2019.113
2018.820
2018.527
2018.234
2017.941
2017.648
2017.355
2017.062
2016.769
2016.476
2016.183
2015.890
2015.597
2015.304
2015.011
2014.718
2014.425
2014.132
2013.839
2013.546
2013.253
2012.960
2012.667
2012.374
2012.081
2011.788
2004.115
1996.441
1988.768
1981.094
1973.421
1965.747
1958.074
1950.400
1942.727
1935.053
1927.380
1919.706
1912.033
1904.359
1896.686
1889.012
1881.339
1873.665
1865.992
1858.318
1850.645
1842.971
1835.298
1827.624
1819.951
1812.277
1804.604
1796.930
1789.257
1781.583
1773.910
1766.236
1758.563
1750.889
1743.216
1735.542
1727.869
1720.195
1712.522
1704.848
1697.175
1689.501
1681.828
1674.154
1666.481
1658.807
1651.134
1643.460
1635.787
1628.113
1620.440
1612.766
1605.093
1597.419
1589.746
1582.072
1574.399
1566.725
1559.052
1551.378
1543.705
1536.031
1528.358
1520.684
1513.011
1505.337
1497.664
1489.990
1482.317
1474.643
1466.970
1459.296
1451.623
1443.949
1436.276
1428.602
1420.929
1413.255
1405.582
1397.908
1390.235
1382.561
1374.888
1367.214
1359.541
1351.867
1344.194
1336.520
1328.847
1321.173
1313.500
1305.826
1298.153
1290.479
1282.806
1275.132
1267.459
1259.785
1252.112
1244.438
1236.765
1229.091
1221.418
1213.744
1206.071
1198.397
1190.724
1183.050
1175.377
1167.703
1160.030
1152.356
1144.683
1137.009
1129.336
1121.662
1113.989
1106.315
1098.642
1090.968
1083.295
1075.621
1067.948
1060.274
1052.601
1044.927
1037.254
1029.580
1021.907
1014.233
1006.560
998.886
991.213
983.539
975.866
968.192
960.519
952.845
945.172
937.498
929.825
922.151
914.478
906.804
899.131
891.457
883.784
876.110
868.437
860.763
853.090
845.416
837.743
830.069
822.396
814.722
807.049
799.375
791.702
784.028
776.355
768.681
761.008
753.334
745.661
737.987
730.314
722.640
714.967
707.293
699.620
691.946
684.273
676.599
668.926
661.252
653.579
645.905
638.232
630.558
622.885
615.211
607.538
599.864
592.191
584.517
576.844
569.170
561.497
553.823
546.150
538.476
530.803
523.129
515.456
507.782
500.109
492.435
484.762
477.088
475.939
474.790
473.641
472.492
471.343
470.194
469.045
467.896
466.747
465.598
464.449
463.300
462.151
461.002
459.853
458.704
457.555
456.406
455.257
454.108
452.959
451.810
450.661
449.512
448.363
447.214
446.065
444.916
443.767
442.618
441.469
440.320
439.171
438.022
436.873
435.724
434.575
433.426
432.277
431.128
429.979
428.830
427.681
426.532
425.383
424.234
423.085
421.936
420.787
419.638
418.489
417.340
416.191
415.042
413.893
412.744
411.595
410.446
409.297
408.148
406.999
405.850
404.701
403.552
402.403
401.254
400.105
398.956
397.807
396.658
395.509
394.360
393.211
392.062
390.913
389.764
388.615
387.466
386.317
385.168
384.019
382.870
381.721
380.572
379.423
378.274
377.125
375.976
374.827
373.678
372.529
371.380
370.231
369.082
367.933
366.784
365.635
364.486
363.337
362.188
361.039
359.890
358.741
357.592
356.443
355.294
354.145
352.996
351.847
350.698
349.549
348.400
347.251
346.102
344.953
343.804
342.655
341.506
340.357
339.208
338.059
336.910
335.761
334.612
333.463
332.314
331.165
330.016
328.867
327.718
326.569
325.420
324.271
323.122
321.973
320.824
319.675
318.526
317.377
316.228
315.079
313.930
312.781
311.632
310.483
309.334
308.185
307.036
305.887
304.738
303.589
302.440
301.291
300.142
298.993
297.844
296.695
295.546
294.397
293.248
292.099
290.950
289.801
288.652
287.503
286.354
285.205
284.056
282.907
281.758
280.609
279.460
278.311
277.162
276.013
274.864
273.715
272.566
271.417
270.268
269.119
267.970
266.821
265.672
264.523
263.374
262.225
261.076
259.927
258.778
257.629
256.480
255.331
254.182
253.033
251.884
250.735
249.586
248.437
86.088
86.088
86.088
86.088
86.088
86.088
86.088
86.088
86.088
86.088
86.088
86.088
86.088
86.088
86.088
86.088
86.088
86.088
86.088
86.088
86.088
86.088
86.088
86.088
86.088
86.088
86.088
86.088
86.088
86.088
86.088
86.088
86.088
86.088
86.088
86.088
86.088
86.088
86.088
86.088
86.088
86.088
86.088
86.088
86.088
86.088
86.088
86.088
86.088
86.088
86.088
86.088
86.088
86.088
86.088
86.088
86.088
86.088
86.088
86.088
86.088
86.088
86.088
86.088
86.088
86.088
86.088
86.088
86.088
86.088
86.088
86.088
86.088
86.088
86.088
86.088
86.088
86.088
86.088
86.088
86.088
86.088
86.088
86.088
86.088
86.088
86.088
86.088
86.088
86.088
86.088
86.088
86.088
86.088
86.088
86.088
86.088
86.088
86.088
86.088
86.088
86.088
86.088
86.088
86.088
86.088
86.088
86.088
86.088
86.088
86.088
86.088
86.088
86.088
86.088
86.088
86.088
86.088
86.088
86.088
86.088
86.088
86.088
86.088
86.088
86.088
86.088
86.088
86.088
86.088
86.088
86.088
86.088
86.088
86.088
86.088
86.088
86.088
86.088
86.088
86.088
86.088
86.088
86.088
86.088
86.088
86.088
86.088
86.088
86.088
86.088
86.088
86.088
86.088
86.088
86.088
86.088
86.088
86.088
86.088
86.088
86.088
86.088
86.088
86.088
86.088
86.088
86.088
86.088
86.088
86.088
86.088
86.088
86.088
86.088
86.088
86.088
86.088
86.088
86.088
86.088
86.088
86.088
86.088
86.088
86.088
86.088
86.088
86.088
86.088
86.088
86.088
86.088
86.088
86.088
86.088
86.088
86.088
86.088
86.088
86.088
86.088
86.088
86.088
86.088
86.088
86.088
86.088
86.088
86.088
86.088
86.088
86.088
86.088
86.088
86.088
86.088
86.088
86.088
86.088
86.088
86.088
86.088
86.088
86.088
86.088
86.088
86.088
86.088
86.088
86.088
86.088
86.088
86.088
86.088
86.088
86.088
86.088
86.088
86.088
86.088
86.088
86.088
86.088
86.088
86.088
86.088
86.088
86.088
86.088
86.088
86.088
86.088
86.088
86.088
86.088
86.088
86.088
86.088
86.088
86.088
86.088
86.088
86.088
86.088
86.088
86.088
86.088
86.088
86.088
86.088
86.088
86.088
86.088
86.088
86.088
86.088
86.088
86.088
86.088
86.088
86.088
86.088
86.088
86.088
86.088
86.088
86.088
86.088
86.088
86.088
86.088
86.088
86.088
86.088
86.088
86.088
86.088
86.088
86.088
86.088
86.088
86.088
86.088
86.088
86.088
86.088
86.088
86.088
86.088
86.088
86.088
86.088
86.088
86.088
86.088
86.088
86.088
86.088
86.088
86.088
86.088
86.088
86.088
86.088
86.088
86.088
86.088
86.088
86.088
86.088
86.088
86.088
86.088
86.088
86.088
86.088
86.088
86.088
86.088
86.088
86.088
86.088
86.088
86.088
86.088
86.088
86.088
86.088
86.088
86.088
86.088
86.088
86.088
86.088
86.088
86.088
86.088
86.088
86.088
86.088
86.088
86.088
86.088
86.088
86.088
86.088
86.088
86.088
86.088
86.088
86.088
86.088
86.088
86.088
86.088
86.088
86.088
86.088
86.088
86.088
86.088
86.088
86.088
86.088
86.088
86.088
86.088
86.088
86.088
86.088
86.088
86.088
86.088
86.088
86.088
86.088
86.088
86.088
86.088
86.088
86.088
86.088
86.088
86.088
86.088
86.088
86.088
86.088
86.088
86.088
86.088
86.088
86.088
86.088
86.088
86.088
86.088
86.088
86.088
86.088
86.088
86.088
86.088
86.088
86.088
86.088
86.088
86.088
86.088
86.088
86.088
86.088
86.088
86.088
86.088
86.088
86.088
86.088
86.088
86.088
86.088
86.088
86.088
86.088
86.088
86.088
86.088
86.088
86.088
86.088
86.088
86.088
86.088
86.088
86.088
86.088
86.088
86.088
86.088
86.088
86.088
86.088
86.088
86.088
86.088
86.088
86.088
86.088
86.088
86.088
86.088
86.088
86.088
86.088
86.088
86.088
86.088
86.088
86.088
86.088
86.088
86.088
86.088
86.088
86.088
86.088
86.088
86.088
86.088
86.088
86.088
86.088
86.088
86.088
86.088
86.088
86.088
86.088
86.088
86.088
86.088
86.088
86.088
86.088
86.088
86.088
86.088
86.088
86.088
86.088
86.088
86.088
86.088
86.088
86.088
86.088
86.088
86.088
86.088
86.088
86.088
86.088
86.088
86.088
86.088
86.088
86.088
86.088
86.088
86.088
86.088
86.088
86.088
86.088
86.088
86.088
86.088
86.088
86.088
86.088
86.088
86.088
86.088
86.088
86.088
86.088
86.088
86.088
86.088
86.088
86.088
86.088
86.088
86.088
86.088
86.088
86.088
86.088
86.088
86.088
86.088
86.088
86.088
86.088
86.088
86.088
86.088
86.088
86.088
86.088
86.088
86.088
86.088
86.088
86.088
86.088
86.088
86.088
86.088
86.088
86.088
86.088
86.088
86.088
86.088
86.088
86.088
86.088
86.088
86.088
86.088
86.088
86.088
86.088
86.088
86.088
86.088
86.088
86.088
86.088
86.088
86.088
86.088
86.088
86.088
86.088
86.088
86.088
86.088
86.088
86.088
86.088
86.088
86.088
86.088
86.088
86.088
86.088
86.088
86.088
86.088
86.088
86.088
86.088
86.088
86.088
86.088
86.088
86.088
86.088
86.088
86.088
86.088
86.088
86.088
86.088
86.088
86.088
86.088
86.088
86.088
86.088
86.088
86.088
86.088
86.088
86.088
86.088
86.088
86.088
86.088
86.088
86.088
86.088
86.088
86.088
86.088
86.088
86.088
86.088
86.088
86.088
86.088
86.088
86.088
86.088
86.088
86.088
86.088
86.088
86.088
86.088
86.088
86.088
86.088
86.088
86.088
86.088
86.088
86.088
86.088
86.088
86.088
86.088
86.088
86.088
86.088
86.088
86.088
86.088
86.088
86.088
86.088
86.088
86.088
86.088
86.088
86.088
86.088
86.088
86.088
86.088
86.088
86.088
86.088
86.088
86.088
86.088
86.088
86.088
86.088
86.088
86.088
86.088
86.088
86.088
86.088
86.088
86.088
86.088
86.088
86.088
86.088
86.088
86.088
86.088
86.088
86.088
86.088
86.088
86.088
86.088
86.088
86.088
86.088
86.088
86.088
86.088
86.088
86.088
86.088
86.088
86.088
86.088
86.088
86.088
86.088
86.088
86.088
86.088
86.088
86.088
86.088
86.088
86.088
86.088
86.088
86.088
86.088
86.088
86.088
86.088
86.088
86.088
86.088
86.088
86.088
86.088
86.088
86.088
86.088
86.088
86.088
86.088
86.088
86.088
86.088
86.088
86.088
86.088
86.088
86.088
86.088
86.088
86.088
86.088
86.088
86.088
86.088
86.088
86.088
86.088
86.088
86.088
86.088
86.088
86.088
86.088
86.088
86.088
86.088
86.088
86.088
86.088
86.088
86.088
86.088
86.088
86.088
86.088
86.088
86.088
86.088
86.088
86.088
86.088
86.088
86.088
86.088
86.088
86.088
86.088
86.088
86.088
86.088
86.088
86.088
86.088
86.088
86.088
86.088
86.088
86.088
86.088
86.088
86.088
86.088
86.088
86.088
86.088
86.088
86.088
86.088
86.088
86.088
86.088
86.088
86.088
86.088
86.088
86.088
86.088
86.088
86.088
86.088
86.088
86.088
86.088
86.088
86.088
86.088
86.088
86.088
86.088
86.088
86.088
86.088
86.088
86.088
86.088
86.088
86.088
86.088
86.088
86.088
86.088
86.088
86.088
86.088
86.088
86.088
86.088
86.088
86.088
86.088
86.088
86.088
86.088
86.088
86.088
86.088
86.088
86.088
86.088
86.088
86.088
86.088
86.088
86.088
86.088
86.088
86.088
86.088
86.088
86.088
86.088
86.088
86.088
86.088
86.088
86.088
86.088
86.088
86.088
86.088
86.088
86.088
86.088
86.088
86.088
86.088
86.088
86.088
86.088
86.088
86.088
86.088
86.088
86.088
86.088
86.088
86.088
86.088
86.088
86.088
86.088
86.088
86.088
86.088
86.088
86.088
86.088
86.088
86.088
86.088
86.088
86.088
86.088
86.088
86.088
86.088
86.088
86.088
86.088
86.088
86.088
86.088
86.088
86.088
86.088
86.088
86.088
86.088
86.088
86.088
86.088
86.088
86.088
86.088
86.088
86.088
86.088
86.088
86.088
86.088
86.088
86.088
86.088
86.088
86.088
86.088
86.088
86.088
86.088
86.088
86.088
86.088
86.088
86.088
86.088
86.088
86.088
86.088
86.088
86.088
86.088
86.088
86.088
86.088
86.088
86.088
86.088
86.088
86.088
86.088
86.088
86.088
86.088
86.088
86.088
86.088
86.088
86.088
86.088
86.088
86.088
86.088
86.088
86.088
86.088
86.088
86.088
86.088
86.088
86.088
86.088
86.088
86.088
86.088
86.088
86.088
86.088
86.088
86.088
86.088
86.088
86.088
86.088
86.088
86.088
86.088
86.088
86.088
86.088
86.088
86.088
86.088
86.088
86.088
86.088
86.088
86.088
86.088
86.088
86.088
86.088
86.088
86.088
86.088
86.088
86.088
86.088
86.088
86.088
86.088
86.088
86.088
86.088
86.088
86.088
86.088
86.088
86.088
86.088
86.088
86.088
86.088
86.088
86.088
86.088
86.088
86.088
86.088
86.088
86.088
86.088
86.088
86.088
86.088
86.088
86.088
86.088
86.088
86.088
86.088
86.088
86.088
86.088
86.088
86.088
86.088
86.088
86.088
86.088
86.088
86.088
86.088
86.088
86.088
86.088
86.088
86.088
86.088
86.088
86.088
86.088
86.088
86.088
86.088
86.088
86.088
86.088
86.088
86.088
86.088
86.088
86.088
86.088
86.088
86.088
86.088
86.088
86.088
86.088
86.088
86.088
86.088
86.088
86.088
86.088
86.088
86.088
86.088
86.088
86.088
86.088
86.088
86.088
86.088
86.088
86.088
86.088
86.088
86.088
86.088
86.088
86.088
86.088
86.088
86.088
86.088
86.088
86.088
86.088
86.088
86.088
86.088
86.088
86.088
86.088
86.088
86.088
86.088
86.088
86.088
86.088
86.088
86.088
86.088
86.088
86.088
86.088
86.088
86.088
86.088
86.088
86.088
86.088
86.088
86.088
86.088
86.088
86.088
86.088
86.088
86.088
86.088
86.088
86.088
86.088
86.088
86.088
86.088
86.088
86.088
86.088
86.088
86.088
86.088
86.088
86.088
86.088
86.088
86.088
86.088
86.088
86.088
86.088
86.088
86.088
86.088
86.088
86.088
86.088
86.088
86.088
86.088
86.088
86.088
86.088
86.088
86.088
86.088
86.088
86.088
86.088
86.088
86.088
86.088
86.088
86.088
86.088
86.088
86.088
86.088
86.088
86.088
86.088
86.088
86.088
86.088
86.088
86.088
86.088
86.088
86.088
86.088
86.088
86.088
86.088
86.088
86.088
86.088
86.088
86.088
86.088
86.088
86.088
86.088
86.088
86.088
86.088
86.088
86.088
86.088
86.088
86.088
86.088
86.088
86.088
86.088
86.088
86.088
86.088
86.088
86.088
86.088
86.088
86.088
86.088
86.088
86.088
86.088
86.088
86.088
86.088
86.088
86.088
86.088
86.088
86.088
86.088
86.088
86.088
86.088
86.088
86.088
86.088
86.088
86.088
86.088
86.088
86.088
86.088
86.088
86.088
86.088
86.088
86.088
86.088
86.088
86.088
86.088
86.088
86.088
86.088
86.088
86.088
86.088
86.088
86.088
86.088
86.088
86.088
86.088
86.088
86.088
