2074.131
2074.815
2075.500
2076.184
2076.869
2077.553
2078.238
2078.922
2079.607
2080.291
2080.976
2081.660
2082.345
2083.029
2083.714
2084.398
2085.083
2085.767
2086.452
2087.136
2087.821
2088.505
2089.190
2089.874
2090.559
2091.243
2091.928
2092.612
2093.297
2093.981
2094.666
2095.350
2096.035
2096.719
2097.404
2098.088
2098.773
2099.457
2100.142
2100.826
2101.511
2102.195
2102.880
2103.564
2104.249
2104.933
2105.618
2106.302
2106.987
2107.671
2108.356
2109.040
2109.725
2110.409
2111.094
2111.778
2112.463
2113.147
2113.832
2114.516
2115.201
2115.885
2116.570
2117.254
2117.939
2118.623
2119.308
2119.992
2120.677
2121.361
2122.046
2122.730
2123.415
2124.099
2124.784
2125.468
2126.153
2126.837
2127.522
2128.206
2128.891
2129.575
2130.260
2130.944
2131.629
2132.313
2132.998
2133.682
2134.367
2135.051
2135.736
2136.420
2137.105
2137.789
2138.474
2139.158
2139.843
2140.527
2141.212
2141.896
2142.581
2143.265
2143.950
2144.634
2145.319
2146.003
2146.688
2147.372
2148.057
2148.741
2149.426
2150.110
2150.795
2151.479
2152.164
2152.848
2153.533
2154.217
2154.902
2155.586
2156.271
2156.955
2157.640
2158.324
2159.009
2159.693
2160.378
2161.062
2161.747
2162.431
2163.116
2163.800
2164.485
2165.169
2165.854
2166.538
2167.223
2167.907
2168.592
2169.276
2169.961
2170.645
2171.330
2172.014
2172.699
2173.383
2174.068
2174.752
2175.437
2176.121
2176.806
2177.490
2178.175
2178.859
2179.544
2180.228
2180.913
2181.597
2182.282
2182.966
2183.651
2184.335
2185.020
2185.704
2186.389
2187.073
2187.758
2188.442
2189.127
2189.811
2190.496
2191.180
2191.865
2192.549
2193.234
2193.918
2194.603
2195.287
2195.972
2196.656
2197.341
2198.025
2198.710
2199.394
2200.079
2200.763
2201.448
2202.132
2202.817
2203.501
2204.186
2204.870
2205.555
2206.239
2206.924
2208.195
2209.466
2210.737
2212.008
2213.279
2214.550
2215.821
2217.092
2218.363
2219.634
2220.905
2222.176
2223.447
2224.718
2225.989
2227.260
2228.531
2229.802
2231.073
2232.344
2233.615
2234.886
2236.157
2237.428
2238.699
2239.970
2241.241
2242.512
2243.783
2245.054
2246.325
2247.596
2248.867
2250.138
2251.409
2252.680
2253.951
2255.222
2256.493
2257.764
2259.035
2260.306
2261.577
2262.848
2264.119
2265.390
2266.661
2267.932
2269.203
2270.474
2271.745
2273.016
2274.287
2275.558
2276.829
2278.100
2279.371
2280.642
2281.913
2283.184
2284.455
2285.726
2286.997
2288.268
2289.539
2290.810
2292.081
2293.352
2294.623
2295.894
2297.165
2298.436
2299.707
2300.978
2302.249
2303.520
2304.791
2306.062
2307.333
2308.604
2309.875
2311.146
2312.417
2313.688
2314.959
2316.230
2317.501
2318.772
2320.043
2321.314
2322.585
2323.856
2325.127
2326.398
2327.669
2328.940
2330.211
2331.482
2332.753
2334.024
2335.295
2336.566
2337.837
2339.108
2340.379
2341.650
2342.921
2344.192
2345.463
2346.734
2348.005
2349.276
2350.547
2351.818
2353.089
2354.360
2355.631
2356.902
2358.173
2359.444
2360.715
2361.986
2363.257
2364.528
2365.799
2367.070
2368.341
2369.612
2370.883
2372.154
2373.425
2374.696
2375.967
2377.238
2378.509
2379.780
2381.051
2382.322
2383.593
2384.864
2386.135
2387.406
2388.677
2389.948
2391.219
2392.490
2393.761
2395.032
2396.303
2397.574
2398.845
2400.116
2401.387
2402.658
2403.929
2405.200
2406.471
2407.742
2409.013
2410.284
2411.555
2412.826
2414.097
2415.368
2416.639
2417.910
2419.181
2420.452
2421.723
2422.994
2424.265
2425.536
2426.807
2428.078
2429.349
2430.620
2431.891
2433.162
2434.433
2435.704
2436.975
2438.246
2439.517
2440.788
2442.059
2443.330
2444.601
2445.872
2447.143
2448.414
2449.685
2450.956
2452.227
2453.498
2454.769
2456.040
2457.311
2458.582
2459.853
2461.124
2460.390
2459.657
2458.923
2458.190
2457.456
2456.723
2455.989
2455.256
2454.522
2453.789
2453.055
2452.322
2451.588
2450.855
2450.121
2449.388
2448.654
2447.921
2447.187
2446.454
2445.720
2444.987
2444.253
2443.520
2442.786
2442.053
2441.319
2440.586
2439.852
2439.119
2438.385
2437.652
2436.918
2436.185
2435.451
2434.718
2433.984
2433.251
2432.517
2431.784
2431.050
2430.317
2429.583
2428.850
2428.116
2427.383
2426.649
2425.916
2425.182
2424.449
2423.715
2422.982
2422.248
2421.515
2420.781
2420.048
2419.314
2418.581
2417.847
2417.114
2416.380
2415.647
2414.913
2414.180
2413.446
2412.713
2411.979
2411.246
2410.512
2409.779
2409.045
2408.312
2407.578
2406.845
2406.111
2405.378
2404.644
2403.911
2403.177
2402.444
2401.710
2400.977
2400.243
2399.510
2398.776
2398.043
2397.309
2396.576
2395.842
2395.109
2394.375
2393.642
2392.908
2392.175
2391.441
2390.708
2389.974
2389.241
2388.507
2387.774
2387.040
2386.307
2385.573
2384.840
2384.106
2383.373
2382.639
2381.906
2381.172
2380.439
2379.705
2378.972
2378.238
2377.505
2376.771
2376.038
2375.304
2374.571
2373.837
2373.104
2372.370
2371.637
2370.903
2370.170
2369.436
2368.703
2367.969
2367.236
2366.502
2365.769
2365.035
2364.302
2363.568
2362.835
2362.101
2361.368
2360.634
2359.901
2359.167
2358.434
2357.700
2356.967
2356.233
2355.500
2354.766
2354.033
2353.299
2352.566
2351.832
2351.099
2350.365
2349.632
2348.898
2348.165
2347.431
2346.698
2345.964
2345.231
2344.497
2343.764
2343.030
2342.297
2341.563
2340.830
2340.096
2339.363
2338.629
2337.896
2337.162
2336.429
2335.695
2334.962
2334.228
2333.495
2332.761
2332.028
2331.294
2330.561
2329.827
2329.094
2328.360
2327.627
2326.893
2326.160
2325.426
2324.693
2323.959
2323.226
2322.492
2321.759
2321.025
2320.292
2319.558
2318.825
2318.091
2317.358
2316.624
2315.891
2315.157
2314.424
2311.467
2308.510
2305.553
2302.596
2299.639
2296.682
2293.725
2290.768
2287.811
2284.854
2281.897
2278.940
2275.983
2273.026
2270.069
2267.112
2264.155
2261.198
2258.241
2255.284
2252.327
2249.370
2246.413
2243.456
2240.499
2237.542
2234.585
2231.628
2228.671
2225.714
2222.757
2219.800
2216.843
2213.886
2210.929
2207.972
2205.015
2202.058
2199.101
2196.144
2193.187
2190.230
2187.273
2184.316
2181.359
2178.402
2175.445
2172.488
2169.531
2166.574
2163.617
2160.660
2157.703
2154.746
2151.789
2148.832
2145.875
2142.918
2139.961
2137.004
2134.047
2131.090
2128.133
2125.176
2122.219
2119.262
2116.305
2113.348
2110.391
2107.434
2104.477
2101.520
2098.563
2095.606
2092.649
2089.692
2086.735
2083.778
2080.821
2077.864
2074.907
2071.950
2068.993
2066.036
2063.079
2060.122
2057.165
2054.208
2051.251
2048.294
2045.337
2042.380
2039.423
2036.466
2033.509
2030.552
2027.595
2024.638
2021.681
2018.724
2015.767
2012.810
2009.853
2006.896
2003.939
2000.982
1998.025
1995.068
1992.111
1989.154
1986.197
1983.240
1980.283
1977.326
1974.369
1971.412
1968.455
1965.498
1962.541
1959.584
1956.627
1953.670
1950.713
1947.756
1944.799
1941.842
1938.885
1935.928
1932.971
1930.014
1927.057
1924.100
1921.143
1918.186
1915.229
1912.272
1909.315
1906.358
1903.401
1900.444
1897.487
1894.530
1891.573
1888.616
1885.659
1882.702
1879.745
1876.788
1873.831
1870.874
1867.917
1864.960
1862.003
1859.046
1856.089
1853.132
1850.175
1847.218
1844.261
1841.304
1838.347
1835.390
1832.433
1829.476
1826.519
1823.562
1820.605
1817.648
1814.691
1811.734
1808.777
1805.820
1802.863
1799.906
1796.949
1793.992
1791.035
1788.078
1785.121
1782.164
1779.207
1776.250
1773.293
1770.336
1767.379
1764.422
1761.465
1758.508
1755.551
1752.594
1749.637
1746.680
1743.723
1740.766
1737.809
1734.852
1731.895
1728.938
1725.981
90.624
90.648
90.673
90.697
90.722
90.746
90.771
90.795
90.820
90.844
90.869
90.893
90.918
90.942
90.967
90.991
91.016
91.040
91.065
91.089
91.114
91.138
91.163
91.187
91.212
91.236
91.261
91.285
91.310
91.334
91.359
91.383
91.408
91.432
91.457
91.481
91.506
91.530
91.555
91.579
91.604
91.628
91.653
91.677
91.702
91.726
91.751
91.775
91.800
91.824
91.849
91.873
91.898
91.922
91.947
91.971
91.996
92.020
92.045
92.069
92.094
92.118
92.143
92.167
92.192
92.216
92.241
92.265
92.290
92.314
92.339
92.363
92.388
92.412
92.437
92.461
92.486
92.510
92.535
92.559
92.584
92.608
92.633
92.657
92.682
92.706
92.731
92.755
92.780
92.804
92.829
92.853
92.878
92.902
92.927
92.951
92.976
93.000
93.025
93.049
93.074
93.098
93.123
93.147
93.172
93.196
93.221
93.245
93.270
93.294
93.319
93.343
93.368
93.392
93.417
93.441
93.466
93.490
93.515
93.539
93.564
93.588
93.613
93.637
93.662
93.686
93.711
93.735
93.760
93.784
93.809
93.833
93.858
93.882
93.907
93.931
93.956
93.980
94.005
94.029
94.054
94.078
94.103
94.127
94.152
94.176
94.201
94.225
94.250
94.274
94.299
94.323
94.348
94.372
94.397
94.421
94.446
94.470
94.495
94.519
94.544
94.568
94.593
94.617
94.642
94.666
94.691
94.715
94.740
94.764
94.789
94.813
94.838
94.862
94.887
94.911
94.936
94.960
94.985
95.009
95.034
95.058
95.083
95.107
95.132
95.156
95.181
95.205
95.230
95.254
95.279
95.303
95.328
95.352
95.377
95.401
95.426
95.450
95.475
95.499
95.524
95.524
95.524
95.524
95.524
95.524
95.524
95.524
95.524
95.524
95.524
95.524
95.524
95.524
95.524
95.524
95.524
95.524
95.524
95.524
95.524
95.524
95.524
95.524
95.524
95.524
95.524
95.524
95.524
95.524
95.524
95.524
95.524
95.524
95.524
95.524
95.524
95.524
95.524
95.524
95.524
95.524
95.524
95.524
95.524
95.524
95.524
95.524
95.524
95.524
95.524
95.524
95.524
95.524
95.524
95.524
95.524
95.524
95.524
95.524
95.524
95.524
95.524
95.524
95.524
95.524
95.524
95.524
95.524
95.524
95.524
95.524
95.524
95.524
95.524
95.524
95.524
95.524
95.524
95.524
95.524
95.524
95.524
95.524
95.524
95.524
95.524
95.524
95.524
95.524
95.524
95.524
95.524
95.524
95.524
95.524
95.524
95.524
95.524
95.524
95.524
95.524
95.524
95.524
95.524
95.524
95.524
95.524
95.524
95.524
95.524
95.524
95.524
95.524
95.524
95.524
95.524
95.524
95.524
95.524
95.524
95.524
95.524
95.524
95.524
95.524
95.524
95.524
95.524
95.524
95.524
95.524
95.524
95.524
95.524
95.524
95.524
95.524
95.524
95.524
95.524
95.524
95.524
95.524
95.524
95.524
95.524
95.524
95.524
95.524
95.524
95.524
95.524
95.524
95.524
95.524
95.524
95.524
95.524
95.524
95.524
95.524
95.524
95.524
95.524
95.524
95.524
95.524
95.524
95.524
95.524
95.524
95.524
95.524
95.524
95.524
95.524
95.524
95.524
95.524
95.524
95.524
95.524
95.524
95.524
95.524
95.524
95.524
95.524
95.524
95.524
95.524
95.524
95.524
95.524
95.524
95.524
95.524
95.524
95.524
95.524
95.524
95.524
95.524
95.524
95.524
95.524
95.524
95.524
95.524
95.524
95.524
95.524
95.524
95.524
95.524
95.524
95.524
95.524
95.524
95.524
95.524
95.524
95.524
95.524
95.524
95.524
95.524
95.524
95.524
95.524
95.524
95.524
95.524
95.524
95.524
95.524
95.524
95.524
95.524
95.524
95.524
95.524
95.524
95.524
95.524
95.524
95.524
95.524
95.524
95.524
95.524
95.524
95.524
95.524
95.524
95.524
95.524
95.524
95.524
95.524
95.524
95.524
95.524
95.524
95.524
95.524
95.524
95.524
95.524
95.524
95.524
95.524
95.524
95.524
95.524
95.524
95.524
95.524
95.524
95.524
95.524
95.524
95.524
95.524
95.524
95.524
95.524
95.524
95.524
95.524
95.524
95.524
95.524
95.524
95.524
95.524
95.524
95.524
95.524
95.524
95.524
95.524
95.524
95.524
95.524
95.524
95.524
95.524
95.524
95.524
95.524
95.524
95.524
95.524
95.524
95.524
95.524
95.524
95.524
95.524
95.524
95.524
95.524
95.524
95.524
95.524
95.524
95.524
95.524
95.524
95.524
95.524
95.524
95.524
95.524
95.524
95.524
95.524
95.524
95.524
95.524
95.524
95.524
95.524
95.524
95.524
95.524
95.524
95.524
95.524
95.524
95.524
95.524
95.524
95.524
95.524
95.524
95.524
95.524
95.524
95.524
95.524
95.524
95.524
95.524
95.524
95.524
95.524
95.524
95.524
95.524
95.524
95.524
95.524
95.524
95.524
95.524
95.524
95.524
95.524
95.524
95.524
95.524
95.524
95.524
95.524
95.524
95.524
95.524
95.524
95.524
95.524
95.524
95.524
95.524
95.524
95.524
95.524
95.524
95.524
95.524
95.524
95.524
95.524
95.524
95.524
95.524
95.524
95.524
95.524
95.524
95.524
95.524
95.524
95.524
95.524
95.524
95.524
95.524
95.524
95.524
95.524
95.524
95.524
95.524
95.524
95.524
95.524
95.524
95.524
95.524
95.524
95.524
95.524
95.524
95.524
95.524
95.524
95.524
95.524
95.524
95.524
95.524
95.524
95.524
95.524
95.524
95.524
95.524
95.524
95.524
95.524
95.524
95.524
95.524
95.524
95.524
95.524
95.524
95.524
95.524
95.524
95.524
95.524
95.524
95.524
95.524
95.524
95.524
95.524
95.524
95.524
95.524
95.524
95.524
95.524
95.524
95.524
95.524
95.524
95.524
95.524
95.524
95.524
95.524
95.524
95.524
95.524
95.524
95.524
95.524
95.524
95.524
95.524
95.524
95.524
95.524
95.524
95.524
95.524
95.524
95.524
95.524
95.524
95.524
95.524
95.524
95.524
95.524
95.524
95.524
95.524
95.524
95.524
95.524
95.524
95.524
95.524
95.524
95.524
95.524
95.524
95.524
95.524
95.524
95.524
95.524
95.524
95.524
95.524
95.524
95.524
95.524
95.524
95.524
95.524
95.524
95.524
95.524
95.524
95.524
95.524
95.524
95.524
95.524
95.524
95.524
95.524
95.524
95.524
95.524
95.524
95.524
95.524
95.524
95.524
95.524
95.524
95.524
95.524
95.524
95.524
95.524
95.524
95.524
95.524
95.524
95.524
95.524
95.524
95.524
95.524
95.524
95.524
95.524
95.524
95.524
95.524
95.524
95.524
95.524
95.524
95.524
95.524
95.524
95.524
95.524
95.524
95.524
95.524
95.524
95.524
95.524
95.524
95.524
95.524
95.524
95.524
95.524
95.524
95.524
95.524
95.524
95.524
95.524
95.524
95.524
95.524
95.524
95.524
95.524
95.524
95.524
95.524
95.524
95.524
95.524
95.524
95.524
95.524
95.524
95.524
95.524
95.524
95.524
95.524
95.524
95.524
95.524
95.524
95.524
95.524
95.524
95.524
95.524
95.524
95.524
95.524
95.524
95.524
95.524
95.524
95.524
95.524
95.524
95.524
95.524
95.524
95.524
95.524
95.524
95.524
95.524
95.524
95.524
95.524
95.524
95.524
95.524
95.524
95.524
95.524
95.524
95.524
95.524
95.524
95.524
95.524
95.524
95.524
95.524
95.524
95.524
95.524
95.524
95.524
95.524
95.524
95.524
95.524
95.524
95.524
95.524
95.524
95.524
95.524
95.524
95.524
95.524
95.524
95.524
95.524
95.524
95.524
95.524
95.524
95.524
95.524
95.524
95.524
95.524
95.524
95.524
95.524
95.524
95.524
95.524
95.524
95.524
95.524
95.524
95.524
95.524
95.524
95.524
95.524
95.524
95.524
95.524
95.524
95.524
95.524
95.524
95.524
95.524
95.524
95.524
95.524
95.524
95.524
95.524
95.524
95.524
95.524
95.524
95.524
95.524
95.524
95.524
95.524
95.524
95.524
95.524
95.524
95.524
95.524
95.524
95.524
95.524
95.524
95.524
95.524
95.524
95.524
95.524
95.524
95.524
95.524
95.524
95.524
95.524
95.524
95.524
95.524
95.524
95.524
95.524
95.524
95.524
95.524
95.524
95.524
95.524
95.524
95.524
95.524
95.524
95.524
95.524
95.524
95.524
95.524
95.524
95.524
95.524
95.524
95.524
95.524
95.524
95.524
95.524
95.524
95.524
95.524
95.524
95.524
95.524
95.524
95.524
95.524
95.524
95.524
95.524
95.524
95.524
95.524
95.524
95.524
95.524
95.524
95.524
95.524
95.524
95.524
95.524
95.524
95.524
95.524
95.524
95.524
95.524
95.524
95.524
95.524
95.524
95.524
95.524
95.524
95.524
95.524
95.524
95.524
95.524
95.524
95.524
95.524
95.524
95.524
95.524
95.524
95.524
95.524
95.524
95.524
95.524
95.524
95.524
95.524
95.524
95.524
95.524
95.524
95.524
95.524
95.524
95.524
95.524
95.524
95.524
95.524
95.524
95.524
95.524
95.524
95.524
95.524
95.524
95.524
95.524
95.524
95.524
95.524
95.524
95.524
95.524
95.524
95.524
95.524
95.524
95.524
95.524
95.524
95.524
95.524
95.524
95.524
95.524
95.524
95.524
95.524
95.524
95.524
95.524
95.524
95.524
95.524
95.524
95.524
95.524
95.524
95.524
95.524
95.524
95.524
95.524
95.524
95.524
95.524
95.524
95.524
95.524
95.524
95.524
95.524
95.524
95.524
95.524
95.524
95.524
95.524
95.524
95.524
95.524
95.524
95.524
95.524
95.524
95.524
95.524
95.524
95.524
95.524
95.524
95.524
95.524
95.524
95.524
95.524
95.524
95.524
95.524
95.524
95.524
95.524
95.524
95.524
95.524
95.524
95.524
95.524
95.524
95.524
95.524
95.524
95.524
95.524
95.524
95.524
95.524
95.524
95.524
95.524
95.524
95.524
95.524
95.524
95.524
95.524
95.524
95.524
95.524
95.524
95.524
95.524
95.524
95.524
95.524
95.524
95.524
95.524
95.524
95.524
95.524
95.524
95.524
95.524
95.524
95.524
95.524
95.524
95.524
95.524
95.524
95.524
95.524
95.524
95.524
95.524
95.524
95.524
95.524
95.524
95.524
95.524
95.524
