1769.653
1769.384
1769.115
1768.846
1768.577
1768.308
1768.039
1767.770
1767.501
1767.232
1766.963
1766.694
1766.425
1766.156
1765.887
1765.618
1765.349
1765.080
1764.811
1764.542
1764.273
1764.004
1763.735
1763.466
1763.197
1762.928
1762.659
1762.390
1762.121
1761.852
1761.583
1761.314
1761.045
1760.776
1760.507
1760.238
1759.969
1759.700
1759.431
1759.162
1758.893
1758.624
1758.355
1758.086
1757.817
1757.548
1757.279
1757.010
1756.741
1756.472
1756.203
1755.934
1755.665
1755.396
1755.127
1754.858
1754.589
1754.320
1754.051
1753.782
1753.513
1753.244
1752.975
1752.706
1752.437
1752.168
1751.899
1751.630
1751.361
1751.092
1750.823
1750.554
1750.285
1750.016
1749.747
1749.478
1749.209
1748.940
1748.671
1748.402
1748.133
1747.864
1747.595
1747.326
1747.057
1746.788
1746.519
1746.250
1745.981
1745.737
1745.493
1745.249
1745.005
1744.761
1744.517
1744.273
1744.029
1743.785
1743.541
1743.297
1743.053
1742.809
1742.565
1742.321
1742.077
1741.833
1741.589
1741.345
1741.101
1740.857
1740.613
1740.369
1740.125
1739.881
1739.637
1739.393
1739.149
1738.905
1738.661
1738.417
1738.173
1737.929
1737.685
1737.441
1737.197
1736.953
1736.709
1736.465
1736.221
1735.977
1735.733
1735.489
1735.245
1735.001
1734.757
1734.513
1734.269
1734.025
1733.781
1733.537
1733.293
1733.049
1732.805
1732.561
1732.317
1732.073
1731.829
1731.585
1731.341
1731.097
1730.853
1730.609
1730.365
1730.121
1729.877
1729.633
1729.389
1729.145
1728.901
1728.657
1728.413
1728.169
1727.925
1727.681
1727.437
1727.193
1726.949
1726.705
1726.461
1726.217
1725.973
1725.729
1725.485
1725.241
1724.997
1724.753
1724.509
1724.265
1724.021
1723.777
1723.533
1723.289
1723.045
1722.801
1722.557
1722.313
1722.069
1721.825
1721.581
1721.337
1721.093
1720.849
1720.605
1720.361
1720.117
1719.873
1719.629
1719.385
1719.141
1718.897
1718.653
1718.409
1718.165
1717.921
1717.677
1717.433
1717.189
1716.945
1716.701
1716.457
1716.213
1715.969
1715.725
1715.481
1715.237
1714.993
1714.749
1714.505
1714.261
1714.017
1713.773
1713.529
1713.285
1713.041
1712.797
1712.553
1712.309
1712.065
1711.821
1711.577
1711.333
1711.089
1710.845
1710.601
1710.357
1710.113
1709.869
1709.625
1709.381
1709.137
1708.893
1708.649
1708.405
1708.161
1707.917
1707.673
1707.429
1707.185
1706.941
1706.697
1706.453
1706.209
1705.965
1705.721
1705.477
1705.233
1704.989
1704.745
1704.501
1704.257
1704.013
1703.769
1703.525
1703.281
1703.037
1702.793
1702.549
1702.305
1702.061
1701.817
1701.573
1701.329
1701.085
1700.841
1700.597
1700.353
1700.109
1699.865
1699.621
1699.377
1699.133
1698.889
1698.645
1698.401
1698.157
1697.913
1697.669
1697.425
1697.181
1699.405
1701.628
1703.852
1706.075
1708.299
1710.522
1712.746
1714.969
1717.193
1719.416
1721.640
1723.863
1726.087
1728.310
1730.534
1732.757
1734.981
1737.204
1739.428
1741.651
1743.875
1746.098
1748.322
1750.545
1752.769
1754.992
1757.216
1759.439
1761.663
1763.886
1766.110
1768.333
1770.557
1772.780
1775.004
1777.227
1779.451
1781.674
1783.898
1786.121
1788.345
1790.568
1792.792
1795.015
1797.239
1799.462
1801.686
1803.909
1806.133
1808.356
1810.580
1812.803
1815.027
1817.250
1819.474
1821.697
1823.921
1826.144
1828.368
1830.591
1832.815
1835.038
1837.262
1839.485
1841.709
1843.932
1846.156
1848.379
1850.603
1852.826
1855.050
1857.273
1859.497
1861.720
1863.944
1866.167
1868.391
1870.614
1872.838
1875.061
1877.285
1879.508
1881.732
1883.955
1886.179
1888.402
1890.626
1892.849
1895.073
1897.296
1899.520
1901.743
1903.967
1906.190
1908.414
1910.637
1912.861
1915.084
1917.308
1919.531
1921.755
1923.978
1926.202
1928.425
1930.649
1932.872
1935.096
1937.319
1939.543
1941.766
1943.990
1946.213
1948.437
1950.660
1952.884
1955.107
1957.331
1959.554
1961.778
1964.001
1966.225
1968.448
1970.672
1972.895
1975.119
1977.342
1979.566
1981.789
1984.013
1986.236
1988.460
1990.683
1992.907
1995.130
1997.354
1999.577
2001.801
2004.024
2006.248
2008.471
2010.695
2012.918
2015.142
2017.365
2019.589
2021.812
2024.036
2026.259
2028.483
2030.706
2032.930
2035.153
2037.377
2039.600
2041.824
2044.047
2046.271
2048.494
2050.718
2052.941
2055.165
2057.388
2059.612
2061.835
2064.059
2066.282
2068.506
2070.729
2072.953
2075.176
2077.400
2079.623
2081.847
2084.070
2086.294
2088.517
2090.741
2092.964
2095.188
2097.411
2099.635
2101.858
2104.082
2106.305
2108.529
2110.752
2112.976
2115.199
2117.423
2119.646
2121.870
2124.093
2126.317
2128.540
2130.764
2132.987
2135.211
2137.434
2139.658
2141.881
2141.099
2140.317
2139.535
2138.753
2137.971
2137.189
2136.407
2135.625
2134.843
2134.061
2133.279
2132.497
2131.715
2130.933
2130.151
2129.369
2128.587
2127.805
2127.023
2126.241
2125.459
2124.677
2123.895
2123.113
2122.331
2121.549
2120.767
2119.985
2119.203
2118.421
2117.639
2116.857
2116.075
2115.293
2114.511
2113.729
2112.947
2112.165
2111.383
2110.601
2109.819
2109.037
2108.255
2107.473
2106.691
2105.909
2105.127
2104.345
2103.563
2102.781
2101.999
2101.217
2100.435
2099.653
2098.871
2098.089
2097.307
2096.525
2095.743
2094.961
2094.179
2093.397
2092.615
2091.833
2091.051
2090.269
2089.487
2088.705
2087.923
2087.141
2086.359
2085.577
2084.795
2084.013
2083.231
2082.449
2081.667
2080.885
2080.103
2079.321
2078.539
2077.757
2076.975
2076.193
2075.411
2074.629
2073.847
2073.065
2072.283
2071.501
2070.719
2069.937
2069.155
2068.373
2067.591
2066.809
2066.027
2065.245
2064.463
2063.681
2062.899
2062.117
2061.335
2060.553
2059.771
2058.989
2058.207
2057.425
2056.643
2055.861
2055.079
2054.297
2053.515
2052.733
2051.951
2051.169
2050.387
2049.605
2048.823
2048.041
2047.259
2046.477
2045.695
2044.913
2044.131
2043.349
2042.567
2041.785
2041.003
2040.221
2039.439
2038.657
2037.875
2037.093
2036.311
2035.529
2034.747
2033.965
2033.183
2032.401
2031.619
2030.837
2030.055
2029.273
2028.491
2027.709
2026.927
2026.145
2025.363
2024.581
2023.799
2023.017
2022.235
2021.453
2020.671
2019.889
2019.107
2018.325
2017.543
2016.761
2015.979
2015.197
2014.415
2013.633
2012.851
2012.069
2011.287
2010.505
2009.723
2008.941
2008.159
2007.377
2006.595
2005.813
2005.031
2004.249
2003.467
2002.685
2001.903
2001.121
2000.339
1999.557
1998.775
1997.993
1997.211
1996.429
1995.647
1994.865
1994.083
1993.301
1992.519
1991.737
1990.955
1990.173
1989.391
1988.609
1987.827
1987.045
1986.263
1985.481
1984.113
1982.744
1981.376
1980.007
1978.639
1977.270
1975.902
1974.533
1973.165
1971.796
1970.428
1969.059
1967.691
1966.322
1964.954
1963.585
1962.217
1960.848
1959.480
1958.111
1956.743
1955.374
1954.006
1952.637
1951.269
1949.900
1948.532
1947.163
1945.795
1944.426
1943.058
1941.689
1940.321
1938.952
1937.584
1936.215
1934.847
1933.478
1932.110
1930.741
1929.373
1928.004
1926.636
1925.267
1923.899
1922.530
1921.162
1919.793
1918.425
1917.056
1915.688
1914.319
1912.951
1911.582
1910.214
1908.845
1907.477
1906.108
1904.740
1903.371
1902.003
1900.634
1899.266
1897.897
1896.529
1895.160
1893.792
1892.423
1891.055
1889.686
1888.318
1886.949
1885.581
1884.212
1882.844
1881.475
1880.107
1878.738
1877.370
1876.001
1874.633
1873.264
1871.896
1870.527
1869.159
1867.790
1866.422
1865.053
1863.685
1862.316
1860.948
1859.579
1858.211
1856.842
1855.474
1854.105
1852.737
1851.368
1850.000
1848.631
1847.263
1845.894
1844.526
1843.157
1841.789
1840.420
1839.052
1837.683
1836.315
1834.946
1833.578
1832.209
1830.841
1829.472
1828.104
1826.735
1825.367
1823.998
1822.630
1821.261
1819.893
1818.524
1817.156
1815.787
1814.419
1813.050
1811.682
1810.313
1808.945
1807.576
1806.208
1804.839
1803.471
1802.102
1800.734
1799.365
1797.997
1796.628
1795.260
1793.891
1792.523
1791.154
1789.786
1788.417
1787.049
1785.680
1784.312
1782.943
1781.575
1780.206
1778.838
1777.469
1776.101
1774.732
1773.364
1771.995
1770.627
1769.258
1767.890
1766.521
1765.153
1763.784
1762.416
1761.047
1759.679
1758.310
1756.942
1755.573
1754.205
1752.836
1751.468
1750.099
1748.731
1747.362
1745.994
1744.625
1743.257
1741.888
1740.520
1739.151
1737.783
1736.414
1735.046
1733.677
1732.309
1730.940
1729.572
1728.203
1726.835
1725.466
1724.098
1722.729
1721.361
1719.992
1718.624
1717.255
1715.887
1714.518
1713.150
1711.781
1713.908
1716.034
1718.161
1720.287
1722.414
1724.540
1726.667
1728.793
1730.920
1733.046
1735.173
1737.299
1739.426
1741.552
1743.679
1745.805
1747.932
1750.058
1752.185
1754.311
1756.438
1758.564
1760.691
1762.817
1764.944
1767.070
1769.197
1771.323
1773.450
1775.576
1777.703
1779.829
1781.956
1784.082
1786.209
1788.335
1790.462
1792.588
1794.715
1796.841
1798.968
1801.094
1803.221
1805.347
1807.474
1809.600
1811.727
1813.853
1815.980
1818.106
1820.233
1822.359
1824.486
1826.612
1828.739
1830.865
1832.992
1835.118
1837.245
1839.371
1841.498
1843.624
1845.751
1847.877
1850.004
1852.130
1854.257
1856.383
1858.510
1860.636
1862.763
1864.889
1867.016
1869.142
1871.269
1873.395
1875.522
1877.648
1879.775
1881.901
1884.028
1886.154
1888.281
1890.407
1892.534
1894.660
1896.787
1898.913
1901.040
1903.166
1905.293
1907.419
1909.546
1911.672
1913.799
1915.925
1918.052
1920.178
1922.305
1924.431
1926.558
1928.684
1930.811
1932.937
1935.064
1937.190
1939.317
1941.443
1943.570
1945.696
1947.823
1949.949
1952.076
1954.202
1956.329
1958.455
1960.582
1962.708
1964.835
1966.961
1969.088
1971.214
1973.341
1975.467
1977.594
1979.720
1981.847
1983.973
1986.100
1988.226
1990.353
1992.479
1994.606
1996.732
1998.859
2000.985
2003.112
2005.238
2007.365
2009.491
2011.618
2013.744
2015.871
2017.997
2020.124
2022.250
2024.377
2026.503
2028.630
2030.756
2032.883
2035.009
2037.136
2039.262
2041.389
2043.515
2045.642
2047.768
2049.895
2052.021
2054.148
2056.274
2058.401
2060.527
2062.654
2064.780
2066.907
2069.033
2071.160
2073.286
2075.413
2077.539
2079.666
2081.792
2083.919
2086.045
2088.172
2090.298
2092.425
2094.551
2096.678
2098.804
2100.931
2103.057
2105.184
2107.310
2109.437
2111.563
2113.690
2115.816
2117.943
2120.069
2122.196
2124.322
2126.449
2128.575
2130.702
2132.828
2134.955
2137.081
2133.489
2129.896
2126.304
2122.711
2119.119
2115.526
2111.934
2108.341
2104.749
2101.156
2097.564
2093.971
2090.379
2086.786
2083.194
2079.601
2076.009
2072.416
2068.824
2065.231
2061.639
2058.046
2054.454
2050.861
2047.269
2043.676
2040.084
2036.491
2032.899
2029.306
2025.714
2022.121
2018.529
2014.936
2011.344
2007.751
2004.159
2000.566
1996.974
1993.381
1989.789
1986.196
1982.604
1979.011
1975.419
1971.826
1968.234
1964.641
1961.049
1957.456
1953.864
1950.271
1946.679
1943.086
1939.494
1935.901
1932.309
1928.716
1925.124
1921.531
1917.939
1914.346
1910.754
1907.161
1903.569
1899.976
1896.384
1892.791
1889.199
1885.606
1882.014
1878.421
1874.829
1871.236
1867.644
1864.051
1860.459
1856.866
1853.274
1849.681
1846.089
1842.496
1838.904
1835.311
1831.719
1828.126
1824.534
1820.941
1817.349
1813.756
1810.164
1806.571
1802.979
1799.386
1795.794
1792.201
1788.609
1785.016
1781.424
1777.831
1774.239
1770.646
1767.054
1763.461
1759.869
1756.276
1752.684
1749.091
1745.499
1741.906
1738.314
1734.721
1731.129
1727.536
1723.944
1720.351
1716.759
1713.166
1709.574
1705.981
1702.389
1698.796
1695.204
1691.611
1688.019
1684.426
1680.834
1677.241
1673.649
1670.056
1666.464
1662.871
1659.279
1655.686
1652.094
1648.501
1644.909
1641.316
1637.724
1634.131
1630.539
1626.946
1623.354
1619.761
1616.169
1612.576
1608.984
1605.391
1601.799
1598.206
1594.614
1591.021
1587.429
1583.836
1580.244
1576.651
1573.059
1569.466
1565.874
1562.281
1558.689
1555.096
1551.504
1547.911
1544.319
1540.726
1537.134
1533.541
1529.949
1526.356
1522.764
1519.171
1515.579
1511.986
1508.394
1504.801
1501.209
1497.616
1494.024
1490.431
1486.839
1483.246
1479.654
1476.061
1472.469
1468.876
1465.284
1461.691
1458.099
1454.506
1450.914
1447.321
1443.729
1440.136
1436.544
1432.951
1429.359
1425.766
1422.174
1418.581
1418.899
1419.216
1419.534
1419.851
1420.169
1420.486
1420.804
1421.121
1421.439
1421.756
1422.074
1422.391
1422.709
1423.026
1423.344
1423.661
1423.979
1424.296
1424.614
1424.931
1425.249
1425.566
1425.884
1426.201
1426.519
1426.836
1427.154
1427.471
1427.789
1428.106
1428.424
1428.741
1429.059
1429.376
1429.694
1430.011
1430.329
1430.646
1430.964
1431.281
1431.599
1431.916
1432.234
1432.551
1432.869
1433.186
1433.504
1433.821
1434.139
1434.456
1434.774
1435.091
1435.409
1435.726
1436.044
1436.361
1436.679
1436.996
1437.314
1437.631
1437.949
1438.266
1438.584
1438.901
1439.219
1439.536
1439.854
1440.171
1440.489
1440.806
1441.124
1441.441
1441.759
1442.076
1442.394
1442.711
1443.029
1443.346
1443.664
1443.981
1444.299
1444.616
1444.934
1445.251
1445.569
1445.886
1446.204
1446.521
1446.839
1447.156
1447.474
1447.791
1448.109
1448.426
1448.744
1449.061
1449.379
1449.696
1450.014
1450.331
1450.649
1450.966
1451.284
1451.601
1451.919
1452.236
1452.554
1452.871
1453.189
1453.506
1453.824
1454.141
1454.459
1454.776
1455.094
1455.411
1455.729
1456.046
1456.364
1456.681
1456.999
1457.316
1457.634
1457.951
1458.269
1458.586
1458.904
1459.221
1459.539
1459.856
1460.174
1460.491
1460.809
1461.126
1461.444
1461.761
1462.079
1462.396
1462.714
1463.031
1463.349
1463.666
1463.984
1464.301
1464.619
1464.936
1465.254
1465.571
1465.889
1466.206
1466.524
1466.841
1467.159
1467.476
1467.794
1468.111
1468.429
1468.746
1469.064
1469.381
1469.699
1470.016
1470.334
1470.651
1470.969
1471.286
1471.604
1471.921
1472.239
1472.556
1472.874
1473.191
1473.509
1473.826
1474.144
1474.461
1474.779
1475.096
1475.414
1475.731
1476.049
1476.366
1476.684
1477.001
1477.319
1477.636
1477.954
1478.271
1478.589
1478.906
1479.224
1479.541
1479.859
1480.176
1480.494
1480.811
1481.129
1481.446
1481.764
1482.081
1476.827
1471.573
1466.319
1461.065
1455.811
1450.557
1445.303
1440.049
1434.795
1429.541
1424.287
1419.033
1413.779
1408.525
1403.271
1398.017
1392.763
1387.509
1382.255
1377.001
1371.747
1366.493
1361.239
1355.985
1350.731
1345.477
1340.223
1334.969
1329.715
1324.461
1319.207
1313.953
1308.699
1303.445
1298.191
1292.937
1287.683
1282.429
1277.175
1271.921
1266.667
1261.413
1256.159
1250.905
1245.651
1240.397
1235.143
1229.889
1224.635
1219.381
1214.127
1208.873
1203.619
1198.365
1193.111
1187.857
1182.603
1177.349
1172.095
1166.841
1161.587
1156.333
1151.079
1145.825
1140.571
1135.317
1130.063
1124.809
1119.555
1114.301
1109.047
1103.793
1098.539
1093.285
1088.031
1082.777
1077.523
1072.269
1067.015
1061.761
1056.507
1051.253
1045.999
1040.745
1035.491
1030.237
1024.983
1019.729
1014.475
1009.221
1003.967
998.713
993.459
988.205
982.951
977.697
972.443
967.189
961.935
956.681
951.427
946.173
940.919
935.665
930.411
925.157
919.903
914.649
909.395
904.141
898.887
893.633
888.379
883.125
877.871
872.617
867.363
862.109
856.855
851.601
846.347
841.093
835.839
830.585
825.331
820.077
814.823
809.569
804.315
799.061
793.807
788.553
783.299
778.045
772.791
767.537
762.283
757.029
751.775
746.521
741.267
736.013
730.759
725.505
720.251
714.997
709.743
704.489
699.235
693.981
688.727
683.473
678.219
672.965
667.711
662.457
657.203
651.949
646.695
641.441
636.187
630.933
625.679
620.425
615.171
609.917
604.663
599.409
594.155
588.901
583.647
578.393
573.139
567.885
562.631
557.377
552.123
546.869
541.615
536.361
531.107
525.853
520.599
515.345
510.091
504.837
499.583
494.329
489.075
483.821
478.567
473.313
468.059
462.805
457.551
452.297
447.043
441.789
436.535
89.181
89.181
89.181
89.181
89.181
89.181
89.181
89.181
89.181
89.181
89.181
89.181
89.181
89.181
89.181
89.181
89.181
89.181
89.181
89.181
89.181
89.181
89.181
89.181
89.181
89.181
89.181
89.181
89.181
89.181
89.181
89.181
89.181
89.181
89.181
89.181
89.181
89.181
89.181
89.181
89.181
89.181
89.181
89.181
89.181
89.181
89.181
89.181
89.181
89.181
89.181
89.181
89.181
89.181
89.181
89.181
89.181
89.181
89.181
89.181
89.181
89.181
89.181
89.181
89.181
89.181
89.181
89.181
89.181
89.181
89.181
89.181
89.181
89.181
89.181
89.181
89.181
89.181
89.181
89.181
89.181
89.181
89.181
89.181
89.181
89.181
89.181
89.181
89.181
89.181
89.181
89.181
89.181
89.181
89.181
89.181
89.181
89.181
89.181
89.181
89.181
89.181
89.181
89.181
89.181
89.181
89.181
89.181
89.181
89.181
89.181
89.181
89.181
89.181
89.181
89.181
89.181
89.181
89.181
89.181
89.181
89.181
89.181
89.181
89.181
89.181
89.181
89.181
89.181
89.181
89.181
89.181
89.181
89.181
89.181
89.181
89.181
89.181
89.181
89.181
89.181
89.181
89.181
89.181
89.181
89.181
89.181
89.181
89.181
89.181
89.181
89.181
89.181
89.181
89.181
89.181
89.181
89.181
89.181
89.181
89.181
89.181
89.181
89.181
89.181
89.181
89.181
89.181
89.181
89.181
89.181
89.181
89.181
89.181
89.181
89.181
89.181
89.181
89.181
89.181
89.181
89.181
89.181
89.181
89.181
89.181
89.181
89.181
89.181
89.181
89.181
89.181
89.181
89.181
89.181
89.181
89.181
89.181
89.181
89.181
89.181
89.181
89.181
89.181
89.181
89.181
89.181
89.181
89.181
89.181
89.181
89.181
89.181
89.181
89.181
89.181
89.181
89.181
89.181
89.181
89.181
89.181
89.181
89.181
89.181
89.181
89.181
89.181
89.181
89.181
89.181
89.181
89.181
89.181
89.181
89.181
89.181
89.181
89.181
89.181
89.181
89.181
89.181
89.181
89.181
89.181
89.181
89.181
89.181
89.181
89.181
89.181
89.181
89.181
89.181
89.181
89.181
89.181
89.181
89.181
89.181
89.181
89.181
89.181
89.181
89.181
89.181
89.181
89.181
89.181
89.181
89.181
89.181
89.181
89.181
89.181
89.181
89.181
89.181
89.181
89.181
89.181
89.181
89.181
89.181
89.181
89.181
89.181
89.181
89.181
89.181
89.181
89.181
89.181
89.181
89.181
89.181
89.181
89.181
89.181
89.181
89.181
89.181
89.181
89.181
89.181
89.181
89.181
89.181
89.181
89.181
89.181
