1811.908
1814.132
1816.355
1818.579
1820.802
1823.026
1825.249
1827.473
1829.696
1831.920
1834.143
1836.367
1838.590
1840.814
1843.037
1845.261
1847.484
1849.708
1851.931
1854.155
1856.378
1858.602
1860.825
1863.049
1865.272
1867.496
1869.719
1871.943
1874.166
1876.390
1878.613
1880.837
1883.060
1885.284
1887.507
1889.731
1891.954
1894.178
1896.401
1898.625
1900.848
1903.072
1905.295
1907.519
1909.742
1911.966
1914.189
1916.413
1918.636
1920.860
1923.083
1925.307
1927.530
1929.754
1931.977
1934.201
1936.424
1938.648
1940.871
1943.095
1945.318
1947.542
1949.765
1951.989
1954.212
1956.436
1958.659
1960.883
1963.106
1965.330
1967.553
1969.777
1972.000
1974.224
1976.447
1978.671
1980.894
1983.118
1985.341
1987.565
1989.788
1992.012
1994.235
1996.459
1998.682
2000.906
2003.129
2005.353
2007.576
2009.800
2012.023
2014.247
2016.470
2018.694
2020.917
2023.141
2025.364
2027.588
2029.811
2032.035
2034.258
2036.482
2038.705
2040.929
2043.152
2045.376
2047.599
2049.823
2052.046
2054.270
2056.493
2058.717
2060.940
2063.164
2065.387
2067.611
2069.834
2072.058
2074.281
2076.505
2078.728
2080.952
2083.175
2085.399
2087.622
2089.846
2092.069
2094.293
2096.516
2098.740
2100.963
2103.187
2105.410
2107.634
2109.857
2112.081
2114.304
2116.528
2118.751
2120.975
2123.198
2125.422
2127.645
2129.869
2132.092
2134.316
2136.539
2138.763
2140.986
2140.204
2139.422
2138.640
2137.858
2137.076
2136.294
2135.512
2134.730
2133.948
2133.166
2132.384
2131.602
2130.820
2130.038
2129.256
2128.474
2127.692
2126.910
2126.128
2125.346
2124.564
2123.782
2123.000
2122.218
2121.436
2120.654
2119.872
2119.090
2118.308
2117.526
2116.744
2115.962
2115.180
2114.398
2113.616
2112.834
2112.052
2111.270
2110.488
2109.706
2108.924
2108.142
2107.360
2106.578
2105.796
2105.014
2104.232
2103.450
2102.668
2101.886
2101.104
2100.322
2099.540
2098.758
2097.976
2097.194
2096.412
2095.630
2094.848
2094.066
2093.284
2092.502
2091.720
2090.938
2090.156
2089.374
2088.592
2087.810
2087.028
2086.246
2085.464
2084.682
2083.900
2083.118
2082.336
2081.554
2080.772
2079.990
2079.208
2078.426
2077.644
2076.862
2076.080
2075.298
2074.516
2073.734
2072.952
2072.170
2071.388
2070.606
2069.824
2069.042
2068.260
2067.478
2066.696
2065.914
2065.132
2064.350
2063.568
2062.786
2062.004
2061.222
2060.440
2059.658
2058.876
2058.094
2057.312
2056.530
2055.748
2054.966
2054.184
2053.402
2052.620
2051.838
2051.056
2050.274
2049.492
2048.710
2047.928
2047.146
2046.364
2045.582
2044.800
2044.018
2043.236
2042.454
2041.672
2040.890
2040.108
2039.326
2038.544
2037.762
2036.980
2036.198
2035.416
2034.634
2033.852
2033.070
2032.288
2031.506
2030.724
2029.942
2029.160
2028.378
2027.596
2026.814
2026.032
2025.250
2024.468
2023.686
2022.904
2022.122
2021.340
2020.558
2019.776
2018.994
2018.212
2017.430
2016.648
2015.866
2015.084
2014.302
2013.520
2012.738
2011.956
2011.174
2010.392
2009.610
2008.828
2008.046
2007.264
2006.482
2005.700
2004.918
2004.136
2003.354
2002.572
2001.790
2001.008
2000.226
1999.444
1998.662
1997.880
1997.098
1996.316
1995.534
1994.752
1993.970
1993.188
1992.406
1991.624
1990.842
1990.060
1989.278
1988.496
1987.714
1986.932
1986.150
1985.368
1984.586
1983.218
1981.849
1980.481
1979.112
1977.744
1976.375
1975.007
1973.638
1972.270
1970.901
1969.533
1968.164
1966.796
1965.427
1964.059
1962.690
1961.322
1959.953
1958.585
1957.216
1955.848
1954.479
1953.111
1951.742
1950.374
1949.005
1947.637
1946.268
1944.900
1943.531
1942.163
1940.794
1939.426
1938.057
1936.689
1935.320
1933.952
1932.583
1931.215
1929.846
1928.478
1927.109
1925.741
1924.372
1923.004
1921.635
1920.267
1918.898
1917.530
1916.161
1914.793
1913.424
1912.056
1910.687
1909.319
1907.950
1906.582
1905.213
1903.845
1902.476
1901.108
1899.739
1898.371
1897.002
1895.634
1894.265
1892.897
1891.528
1890.160
1888.791
1887.423
1886.054
1884.686
1883.317
1881.949
1880.580
1879.212
1877.843
1876.475
1875.106
1873.738
1872.369
1871.001
1869.632
1868.264
1866.895
1865.527
1864.158
1862.790
1861.421
1860.053
1858.684
1857.316
1855.947
1854.579
1853.210
1851.842
1850.473
1849.105
1847.736
1846.368
1844.999
1843.631
1842.262
1840.894
1839.525
1838.157
1836.788
1835.420
1834.051
1832.683
1831.314
1829.946
1828.577
1827.209
1825.840
1824.472
1823.103
1821.735
1820.366
1818.998
1817.629
1816.261
1814.892
1813.524
1812.155
1810.787
1809.418
1808.050
1806.681
1805.313
1803.944
1802.576
1801.207
1799.839
1798.470
1797.102
1795.733
1794.365
1792.996
1791.628
1790.259
1788.891
1787.522
1786.154
1784.785
1783.417
1782.048
1780.680
1779.311
1777.943
1776.574
1775.206
1773.837
1772.469
1771.100
1769.732
1768.363
1766.995
1765.626
1764.258
1762.889
1761.521
1760.152
1758.784
1757.415
1756.047
1754.678
1753.310
1751.941
1750.573
1749.204
1747.836
1746.467
1745.099
1743.730
1742.362
1740.993
1739.625
1738.256
1736.888
1735.519
1734.151
1732.782
1731.414
1730.045
1728.677
1727.308
1725.940
1724.571
1723.203
1721.834
1720.466
1719.097
1717.729
1716.360
1714.992
1713.623
1712.255
1710.886
1713.013
1715.139
1717.266
1719.392
1721.519
1723.645
1725.772
1727.898
1730.025
1732.151
1734.278
1736.404
1738.531
1740.657
1742.784
1744.910
1747.037
1749.163
1751.290
1753.416
1755.543
1757.669
1759.796
1761.922
1764.049
1766.175
1768.302
1770.428
1772.555
1774.681
1776.808
1778.934
1781.061
1783.187
1785.314
1787.440
1789.567
1791.693
1793.820
1795.946
1798.073
1800.199
1802.326
1804.452
1806.579
1808.705
1810.832
1812.958
1815.085
1817.211
1819.338
1821.464
1823.591
1825.717
1827.844
1829.970
1832.097
1834.223
1836.350
1838.476
1840.603
1842.729
1844.856
1846.982
1849.109
1851.235
1853.362
1855.488
1857.615
1859.741
1861.868
1863.994
1866.121
1868.247
1870.374
1872.500
1874.627
1876.753
1878.880
1881.006
1883.133
1885.259
1887.386
1889.512
1891.639
1893.765
1895.892
1898.018
1900.145
1902.271
1904.398
1906.524
1908.651
1910.777
1912.904
1915.030
1917.157
1919.283
1921.410
1923.536
1925.663
1927.789
1929.916
1932.042
1934.169
1936.295
1938.422
1940.548
1942.675
1944.801
1946.928
1949.054
1951.181
1953.307
1955.434
1957.560
1959.687
1961.813
1963.940
1966.066
1968.193
1970.319
1972.446
1974.572
1976.699
1978.825
1980.952
1983.078
1985.205
1987.331
1989.458
1991.584
1993.711
1995.837
1997.964
2000.090
2002.217
2004.343
2006.470
2008.596
2010.723
2012.849
2014.976
2017.102
2019.229
2021.355
2023.482
2025.608
2027.735
2029.861
2031.988
2034.114
2036.241
2038.367
2040.494
2042.620
2044.747
2046.873
2049.000
2051.126
2053.253
2055.379
2057.506
2059.632
2061.759
2063.885
2066.012
2068.138
2070.265
2072.391
2074.518
2076.644
2078.771
2080.897
2083.024
2085.150
2087.277
2089.403
2091.530
2093.656
2095.783
2097.909
2100.036
2102.162
2104.289
2106.415
2108.542
2110.668
2112.795
2114.921
2117.048
2119.174
2121.301
2123.427
2125.554
2127.680
2129.807
2131.933
2134.060
2136.186
2132.594
2129.001
2125.409
2121.816
2118.224
2114.631
2111.039
2107.446
2103.854
2100.261
2096.669
2093.076
2089.484
2085.891
2082.299
2078.706
2075.114
2071.521
2067.929
2064.336
2060.744
2057.151
2053.559
2049.966
2046.374
2042.781
2039.189
2035.596
2032.004
2028.411
2024.819
2021.226
2017.634
2014.041
2010.449
2006.856
2003.264
1999.671
1996.079
1992.486
1988.894
1985.301
1981.709
1978.116
1974.524
1970.931
1967.339
1963.746
1960.154
1956.561
1952.969
1949.376
1945.784
1942.191
1938.599
1935.006
1931.414
1927.821
1924.229
1920.636
1917.044
1913.451
1909.859
1906.266
1902.674
1899.081
1895.489
1891.896
1888.304
1884.711
1881.119
1877.526
1873.934
1870.341
1866.749
1863.156
1859.564
1855.971
1852.379
1848.786
1845.194
1841.601
1838.009
1834.416
1830.824
1827.231
1823.639
1820.046
1816.454
1812.861
1809.269
1805.676
1802.084
1798.491
1794.899
1791.306
1787.714
1784.121
1780.529
1776.936
1773.344
1769.751
1766.159
1762.566
1758.974
1755.381
1751.789
1748.196
1744.604
1741.011
1737.419
1733.826
1730.234
1726.641
1723.049
1719.456
1715.864
1712.271
1708.679
1705.086
1701.494
1697.901
1694.309
1690.716
1687.124
1683.531
1679.939
1676.346
1672.754
1669.161
1665.569
1661.976
1658.384
1654.791
1651.199
1647.606
1644.014
1640.421
1636.829
1633.236
1629.644
1626.051
1622.459
1618.866
1615.274
1611.681
1608.089
1604.496
1600.904
1597.311
1593.719
1590.126
1586.534
1582.941
1579.349
1575.756
1572.164
1568.571
1564.979
1561.386
1557.794
1554.201
1550.609
1547.016
1543.424
1539.831
1536.239
1532.646
1529.054
1525.461
1521.869
1518.276
1514.684
1511.091
1507.499
1503.906
1500.314
1496.721
1493.129
1489.536
1485.944
1482.351
1478.759
1475.166
1471.574
1467.981
1464.389
1460.796
1457.204
1453.611
1450.019
1446.426
1442.834
1439.241
1435.649
1432.056
1428.464
1424.871
1421.279
1417.686
1418.004
1418.321
1418.639
1418.956
1419.274
1419.591
1419.909
1420.226
1420.544
1420.861
1421.179
1421.496
1421.814
1422.131
1422.449
1422.766
1423.084
1423.401
1423.719
1424.036
1424.354
1424.671
1424.989
1425.306
1425.624
1425.941
1426.259
1426.576
1426.894
1427.211
1427.529
1427.846
1428.164
1428.481
1428.799
1429.116
1429.434
1429.751
1430.069
1430.386
1430.704
1431.021
1431.339
1431.656
1431.974
1432.291
1432.609
1432.926
1433.244
1433.561
1433.879
1434.196
1434.514
1434.831
1435.149
1435.466
1435.784
1436.101
1436.419
1436.736
1437.054
1437.371
1437.689
1438.006
1438.324
1438.641
1438.959
1439.276
1439.594
1439.911
1440.229
1440.546
1440.864
1441.181
1441.499
1441.816
1442.134
1442.451
1442.769
1443.086
1443.404
1443.721
1444.039
1444.356
1444.674
1444.991
1445.309
1445.626
1445.944
1446.261
1446.579
1446.896
1447.214
1447.531
1447.849
1448.166
1448.484
1448.801
1449.119
1449.436
1449.754
1450.071
1450.389
1450.706
1451.024
1451.341
1451.659
1451.976
1452.294
1452.611
1452.929
1453.246
1453.564
1453.881
1454.199
1454.516
1454.834
1455.151
1455.469
1455.786
1456.104
1456.421
1456.739
1457.056
1457.374
1457.691
1458.009
1458.326
1458.644
1458.961
1459.279
1459.596
1459.914
1460.231
1460.549
1460.866
1461.184
1461.501
1461.819
1462.136
1462.454
1462.771
1463.089
1463.406
1463.724
1464.041
1464.359
1464.676
1464.994
1465.311
1465.629
1465.946
1466.264
1466.581
1466.899
1467.216
1467.534
1467.851
1468.169
1468.486
1468.804
1469.121
1469.439
1469.756
1470.074
1470.391
1470.709
1471.026
1471.344
1471.661
1471.979
1472.296
1472.614
1472.931
1473.249
1473.566
1473.884
1474.201
1474.519
1474.836
1475.154
1475.471
1475.789
1476.106
1476.424
1476.741
1477.059
1477.376
1477.694
1478.011
1478.329
1478.646
1478.964
1479.281
1479.599
1479.916
1480.234
1480.551
1480.869
1481.186
1475.932
1470.678
1465.424
1460.170
1454.916
1449.662
1444.408
1439.154
1433.900
1428.646
1423.392
1418.138
1412.884
1407.630
1402.376
1397.122
1391.868
1386.614
1381.360
1376.106
1370.852
1365.598
1360.344
1355.090
1349.836
1344.582
1339.328
1334.074
1328.820
1323.566
1318.312
1313.058
1307.804
1302.550
1297.296
1292.042
1286.788
1281.534
1276.280
1271.026
1265.772
1260.518
1255.264
1250.010
1244.756
1239.502
1234.248
1228.994
1223.740
1218.486
1213.232
1207.978
1202.724
1197.470
1192.216
1186.962
1181.708
1176.454
1171.200
1165.946
1160.692
1155.438
1150.184
1144.930
1139.676
1134.422
1129.168
1123.914
1118.660
1113.406
1108.152
1102.898
1097.644
1092.390
1087.136
1081.882
1076.628
1071.374
1066.120
1060.866
1055.612
1050.358
1045.104
1039.850
1034.596
1029.342
1024.088
1018.834
1013.580
1008.326
1003.072
997.818
992.564
987.310
982.056
976.802
971.548
966.294
961.040
955.786
950.532
945.278
940.024
934.770
929.516
924.262
919.008
913.754
908.500
903.246
897.992
892.738
887.484
882.230
876.976
871.722
866.468
861.214
855.960
850.706
845.452
840.198
834.944
829.690
824.436
819.182
813.928
808.674
803.420
798.166
792.912
787.658
782.404
777.150
771.896
766.642
761.388
756.134
750.880
745.626
740.372
735.118
729.864
724.610
719.356
714.102
708.848
703.594
698.340
693.086
687.832
682.578
677.324
672.070
666.816
661.562
656.308
651.054
645.800
640.546
635.292
630.038
624.784
619.530
614.276
609.022
603.768
598.514
593.260
588.006
582.752
577.498
572.244
566.990
561.736
556.482
551.228
545.974
540.720
535.466
530.212
524.958
519.704
514.450
509.196
503.942
498.688
493.434
488.180
482.926
477.672
472.418
467.164
461.910
456.656
451.402
446.148
440.894
435.640
88.286
88.286
88.286
88.286
88.286
88.286
88.286
88.286
88.286
88.286
88.286
88.286
88.286
88.286
88.286
88.286
88.286
88.286
88.286
88.286
88.286
88.286
88.286
88.286
88.286
88.286
88.286
88.286
88.286
88.286
88.286
88.286
88.286
88.286
88.286
88.286
88.286
88.286
88.286
88.286
88.286
88.286
88.286
88.286
88.286
88.286
88.286
88.286
88.286
88.286
88.286
88.286
88.286
88.286
88.286
88.286
88.286
88.286
88.286
88.286
88.286
88.286
88.286
88.286
88.286
88.286
88.286
88.286
88.286
88.286
88.286
88.286
88.286
88.286
88.286
88.286
88.286
88.286
88.286
88.286
88.286
88.286
88.286
88.286
88.286
88.286
88.286
88.286
88.286
88.286
88.286
88.286
88.286
88.286
88.286
88.286
88.286
88.286
88.286
88.286
88.286
88.286
88.286
88.286
88.286
88.286
88.286
88.286
88.286
88.286
88.286
88.286
88.286
88.286
88.286
88.286
88.286
88.286
88.286
88.286
88.286
88.286
88.286
88.286
88.286
88.286
88.286
88.286
88.286
88.286
88.286
88.286
88.286
88.286
88.286
88.286
88.286
88.286
88.286
88.286
88.286
88.286
88.286
88.286
88.286
88.286
88.286
88.286
88.286
88.286
88.286
88.286
88.286
88.286
88.286
88.286
88.286
88.286
88.286
88.286
88.286
88.286
88.286
88.286
88.286
88.286
88.286
88.286
88.286
88.286
88.286
88.286
88.286
88.286
88.286
88.286
88.286
88.286
88.286
88.286
88.286
88.286
88.286
88.286
88.286
88.286
88.286
88.286
88.286
88.286
88.286
88.286
88.286
88.286
88.286
88.286
88.286
88.286
88.286
88.286
88.286
88.286
88.286
88.286
88.286
88.286
88.286
88.286
88.286
88.286
88.286
88.286
88.286
88.286
88.286
88.286
88.286
88.286
88.286
88.286
88.286
88.286
88.286
88.286
88.286
88.286
88.286
88.286
88.286
88.286
88.286
88.286
88.286
88.286
88.286
88.286
88.286
88.286
88.286
88.286
88.286
88.286
88.286
88.286
88.286
88.286
88.286
88.286
88.286
88.286
88.286
88.286
88.286
88.286
88.286
88.286
88.286
88.286
88.286
88.286
88.286
88.286
88.286
88.286
88.286
88.286
88.286
88.286
88.286
88.286
88.286
88.286
88.286
88.286
88.286
88.286
88.286
88.286
88.286
88.286
88.286
88.286
88.286
88.286
88.286
88.286
88.286
88.286
88.286
88.286
88.286
88.286
88.286
88.286
88.286
88.286
88.286
88.286
88.286
88.286
88.286
88.286
88.286
88.286
88.286
88.286
88.286
88.286
88.286
88.286
88.286
88.286
88.286
88.286
88.286
88.286
88.286
88.286
88.286
88.286
88.286
88.286
88.286
88.286
88.286
88.286
88.286
88.286
88.286
88.286
88.286
88.286
88.286
88.286
88.286
88.286
88.286
88.286
88.286
88.286
88.286
88.286
88.286
88.286
88.286
88.286
88.286
88.286
88.286
88.286
88.286
88.286
88.286
88.286
88.286
88.286
88.286
88.286
88.286
88.286
88.286
88.286
88.286
88.286
88.286
88.286
88.286
88.286
88.286
88.286
88.286
88.286
88.286
88.286
88.286
88.286
88.286
88.286
88.286
88.286
88.286
88.286
88.286
88.286
88.286
88.286
88.286
88.286
88.286
88.286
88.286
88.286
88.286
88.286
88.286
88.286
88.286
88.286
88.286
88.286
88.286
88.286
88.286
88.286
88.286
88.286
88.286
88.286
88.286
88.286
88.286
88.286
88.286
88.286
88.286
88.286
88.286
88.286
88.286
88.286
88.286
88.286
88.286
88.286
88.286
88.286
88.286
88.286
88.286
88.286
88.286
88.286
88.286
88.286
88.286
88.286
88.286
88.286
88.286
88.286
88.286
88.286
88.286
88.286
88.286
88.286
88.286
88.286
88.286
88.286
88.286
88.286
88.286
88.286
88.286
88.286
88.286
88.286
88.286
88.286
88.286
88.286
88.286
88.286
88.286
88.286
88.286
88.286
88.286
88.286
88.286
88.286
88.286
88.286
88.286
88.286
88.286
88.286
88.286
88.286
88.286
88.286
88.286
88.286
88.286
88.286
88.286
88.286
88.286
88.286
88.286
88.286
88.286
88.286
88.286
88.286
88.286
88.286
88.286
88.286
88.286
88.286
88.286
88.286
88.286
88.286
88.286
88.286
88.286
88.286
88.286
88.286
88.286
88.286
88.286
88.286
88.286
88.286
88.286
88.286
88.286
88.286
88.286
88.286
88.286
88.286
88.286
88.286
88.286
88.286
88.286
88.286
88.286
88.286
88.286
88.286
88.286
88.286
88.286
88.286
88.286
88.286
88.286
88.286
88.286
88.286
88.286
88.286
88.286
88.286
88.286
88.286
88.286
88.286
88.286
88.286
88.286
88.286
88.286
88.286
88.286
88.286
88.286
88.286
88.286
88.286
88.286
88.286
88.286
88.286
88.286
88.286
88.286
88.286
88.286
88.286
88.286
88.286
88.286
88.286
88.286
88.286
88.286
88.286
88.286
88.286
88.286
88.286
88.286
88.286
88.286
88.286
88.286
88.286
88.286
88.286
88.286
88.286
88.286
88.286
88.286
88.286
88.286
88.286
88.286
88.286
88.286
88.286
88.286
88.286
88.286
88.286
88.286
88.286
88.286
88.286
88.286
88.286
88.286
88.286
88.286
88.286
88.286
88.286
88.286
88.286
88.286
88.286
88.286
88.286
88.286
88.286
88.286
88.286
88.286
88.286
88.286
88.286
88.286
88.286
88.286
88.286
88.286
88.286
88.286
88.286
88.286
88.286
88.286
88.286
88.286
88.286
