2293.091
2292.994
2292.896
2292.799
2292.701
2292.604
2292.506
2292.409
2292.311
2292.214
2292.116
2292.019
2291.921
2291.824
2291.726
2291.629
2291.531
2291.434
2291.336
2291.239
2291.141
2291.044
2290.946
2290.849
2290.751
2290.654
2290.556
2290.459
2290.361
2290.264
2290.166
2290.069
2289.971
2289.874
2289.776
2289.679
2289.581
2289.484
2289.386
2289.289
2289.191
2289.094
2288.996
2288.899
2288.801
2288.704
2288.606
2288.509
2288.411
2288.314
2288.216
2288.119
2288.021
2287.924
2287.826
2287.729
2287.631
2287.534
2287.436
2287.339
2287.241
2287.144
2287.046
2286.949
2286.851
2286.754
2286.656
2286.559
2286.461
2286.364
2286.266
2286.169
2286.071
2285.974
2285.876
2285.779
2285.681
2285.584
2285.486
2285.389
2285.291
2285.194
2285.096
2284.999
2284.901
2284.804
2284.706
2284.609
2284.511
2284.414
2284.316
2284.219
2284.121
2284.024
2283.926
2283.829
2283.731
2283.634
2283.536
2283.439
2283.341
2283.244
2283.146
2283.049
2282.951
2282.854
2282.756
2282.659
2282.561
2282.464
2282.366
2282.269
2282.171
2282.074
2281.976
2281.879
2281.781
2281.684
2281.586
2281.489
2281.391
2281.294
2281.196
2277.604
2274.011
2270.419
2266.826
2263.234
2259.641
2256.049
2252.456
2248.864
2245.271
2241.679
2238.086
2234.494
2230.901
2227.309
2223.716
2220.124
2216.531
2212.939
2209.346
2205.754
2202.161
2198.569
2194.976
2191.384
2187.791
2184.199
2180.606
2177.014
2173.421
2169.829
2166.236
2162.644
2159.051
2155.459
2151.866
2148.274
2144.681
2141.089
2137.496
2133.904
2130.311
2126.719
2123.126
2119.534
2115.941
2112.349
2108.756
2105.164
2101.571
2097.979
2094.386
2090.794
2087.201
2083.609
2080.016
2076.424
2072.831
2069.239
2065.646
2062.054
2058.461
2054.869
2051.276
2047.684
2044.091
2040.499
2036.906
2033.314
2029.721
2026.129
2022.536
2018.944
2015.351
2011.759
2008.166
2004.574
2000.981
1997.389
1993.796
1990.204
1986.611
1983.019
1979.426
1975.834
1972.241
1968.649
1965.056
1961.464
1957.871
1954.279
1950.686
1947.094
1943.501
1939.909
1936.316
1932.724
1929.131
1925.539
1921.946
1918.354
1914.761
1911.169
1907.576
1903.984
1900.391
1896.799
1893.206
1889.614
1886.021
1882.429
1878.836
1875.244
1871.651
1868.059
1864.466
1860.874
1857.281
1853.689
1850.096
1846.504
1842.911
1839.319
1835.726
1832.134
1828.541
1824.949
1821.356
1817.764
1814.171
1810.579
1806.986
1803.394
1799.801
1796.209
1792.616
1789.024
1785.431
1781.839
1778.246
1774.654
1771.061
1767.469
1763.876
1760.284
1756.691
1753.099
1749.506
1745.914
1742.321
1738.729
1735.136
1731.544
1727.951
1724.359
1720.766
1717.174
1713.581
1709.989
1706.396
1702.804
1699.211
1695.619
1692.026
1688.434
1684.841
1681.249
1677.656
1674.064
1670.471
1666.879
1663.286
1659.694
1656.101
1652.509
1648.916
1645.324
1641.731
1638.139
1634.546
1630.954
1627.361
1623.769
1620.176
1616.584
1612.991
1609.399
1605.806
1602.214
1598.621
1595.029
1591.436
1587.844
1584.251
1580.659
1577.066
1573.474
1569.881
1566.289
1562.696
1564.456
1566.215
1567.975
1569.734
1571.494
1573.253
1575.013
1576.772
1578.532
1580.291
1582.051
1583.810
1585.570
1587.329
1589.089
1590.848
1592.608
1594.367
1596.127
1597.886
1599.646
1601.405
1603.165
1604.924
1606.684
1608.443
1610.203
1611.962
1613.722
1615.481
1617.241
1619.000
1620.760
1622.519
1624.279
1626.038
1627.798
1629.557
1631.317
1633.076
1634.836
1636.595
1638.355
1640.114
1641.874
1643.633
1645.393
1647.152
1648.912
1650.671
1652.431
1654.190
1655.950
1657.709
1659.469
1661.228
1662.988
1664.747
1666.507
1668.266
1670.026
1671.785
1673.545
1675.304
1677.064
1678.823
1680.583
1682.342
1684.102
1685.861
1687.621
1689.380
1691.140
1692.899
1694.659
1696.418
1698.178
1699.937
1701.697
1703.456
1705.216
1706.975
1708.735
1710.494
1712.254
1714.013
1715.773
1717.532
1719.292
1721.051
1722.811
1724.570
1726.330
1728.089
1729.849
1731.608
1733.368
1735.127
1736.887
1738.646
1740.406
1742.165
1743.925
1745.684
1747.444
1749.203
1750.963
1752.722
1754.482
1756.241
1758.001
1759.760
1761.520
1763.279
1765.039
1766.798
1768.558
1770.317
1772.077
1773.836
1775.596
1777.355
1779.115
1780.874
1782.634
1784.393
1786.153
1787.912
1789.672
1791.431
1793.191
1794.950
1796.710
1798.469
1800.229
1801.988
1803.748
1805.507
1807.267
1809.026
1810.786
1812.545
1814.305
1816.064
1817.824
1819.583
1821.343
1823.102
1824.862
1826.621
1828.381
1830.140
1831.900
1833.659
1835.419
1837.178
1838.938
1840.697
1842.457
1844.216
1845.976
1847.735
1849.495
1851.254
1853.014
1854.773
1856.533
1858.292
1860.052
1861.811
1863.571
1865.330
1867.090
1868.849
1870.609
1872.368
1874.128
1875.887
1877.647
1879.406
1881.166
1882.925
1884.685
1886.444
1888.204
1889.963
1891.723
1893.482
1895.242
1897.001
1898.761
1900.520
1902.280
1904.039
1905.799
1907.558
1909.318
1911.077
1912.837
1914.596
1911.077
1907.558
1904.039
1900.520
1897.001
1893.482
1889.963
1886.444
1882.925
1879.406
1875.887
1872.368
1868.849
1865.330
1861.811
1858.292
1854.773
1851.254
1847.735
1844.216
1840.697
1837.178
1833.659
1830.140
1826.621
1823.102
1819.583
1816.064
1812.545
1809.026
1805.507
1801.988
1798.469
1794.950
1791.431
1787.912
1784.393
1780.874
1777.355
1773.836
1770.317
1766.798
1763.279
1759.760
1756.241
1752.722
1749.203
1745.684
1742.165
1738.646
1735.127
1731.608
1728.089
1724.570
1721.051
1717.532
1714.013
1710.494
1706.975
1703.456
1699.937
1696.418
1692.899
1689.380
1685.861
1682.342
1678.823
1675.304
1671.785
1668.266
1664.747
1661.228
1657.709
1654.190
1650.671
1647.152
1643.633
1640.114
1636.595
1633.076
1629.557
1626.038
1622.519
1619.000
1615.481
1611.962
1608.443
1604.924
1601.405
1597.886
1594.367
1590.848
1587.329
1583.810
1580.291
1576.772
1573.253
1569.734
1566.215
1562.696
1559.177
1555.658
1552.139
1548.620
1545.101
1541.582
1538.063
1534.544
1531.025
1527.506
1523.987
1520.468
1516.949
1513.430
1509.911
1506.392
1502.873
1499.354
1495.835
1492.316
1488.797
1485.278
1481.759
1478.240
1474.721
1471.202
1467.683
1464.164
1460.645
1457.126
1453.607
1450.088
1446.569
1443.050
1439.531
1436.012
1432.493
1428.974
1425.455
1421.936
1418.417
1414.898
1411.379
1407.860
1404.341
1400.822
1397.303
1393.784
1390.265
1386.746
1383.227
1379.708
1376.189
1372.670
1369.151
1365.632
1362.113
1358.594
1355.075
1351.556
1348.037
1344.518
1340.999
1337.480
1333.961
1330.442
1326.923
1323.404
1319.885
1316.366
1312.847
1309.328
1305.809
1302.290
1298.771
1295.252
1291.733
1288.214
1284.695
1281.176
1277.657
1274.138
1270.619
1267.100
1263.581
1260.062
1256.543
1253.024
1249.505
1245.986
1242.467
1238.948
1235.429
1231.910
1228.391
1224.872
1221.353
1217.834
1214.315
76.896
76.896
76.896
76.896
76.896
76.896
76.896
76.896
76.896
76.896
76.896
76.896
76.896
76.896
76.896
76.896
76.896
76.896
76.896
76.896
76.896
76.896
76.896
76.896
76.896
76.896
76.896
76.896
76.896
76.896
76.896
76.896
76.896
76.896
76.896
76.896
76.896
76.896
76.896
76.896
76.896
76.896
76.896
76.896
76.896
76.896
76.896
76.896
76.896
76.896
76.896
76.896
76.896
76.896
76.896
76.896
76.896
76.896
76.896
76.896
76.896
76.896
76.896
76.896
76.896
76.896
76.896
76.896
76.896
76.896
76.896
76.896
76.896
76.896
76.896
76.896
76.896
76.896
76.896
76.896
76.896
76.896
76.896
76.896
76.896
76.896
76.896
76.896
76.896
76.896
76.896
76.896
76.896
76.896
76.896
76.896
76.896
76.896
76.896
76.896
76.896
76.896
76.896
76.896
76.896
76.896
76.896
76.896
76.896
76.896
76.896
76.896
76.896
76.896
76.896
76.896
76.896
76.896
76.896
76.896
76.896
76.896
76.896
76.896
76.896
76.896
76.896
76.896
76.896
76.896
76.896
76.896
76.896
76.896
76.896
76.896
76.896
76.896
76.896
76.896
76.896
76.896
76.896
76.896
76.896
76.896
76.896
76.896
76.896
76.896
76.896
76.896
76.896
76.896
76.896
76.896
76.896
76.896
76.896
76.896
76.896
76.896
76.896
76.896
76.896
76.896
76.896
76.896
76.896
76.896
76.896
76.896
76.896
76.896
76.896
76.896
76.896
76.896
76.896
76.896
76.896
76.896
76.896
76.896
76.896
76.896
76.896
76.896
76.896
76.896
76.896
76.896
76.896
76.896
76.896
76.896
76.896
76.896
76.896
76.896
76.896
76.896
76.896
76.896
76.896
76.896
76.896
76.896
76.896
76.896
76.896
76.896
76.896
76.896
76.896
76.896
76.896
76.896
76.896
76.896
76.896
76.896
76.896
76.896
76.896
76.896
76.896
76.896
76.896
76.896
76.896
76.896
76.896
76.896
76.896
76.896
76.896
76.896
76.896
76.896
76.896
76.896
76.896
76.896
76.896
76.896
76.896
76.896
76.896
76.896
76.896
76.896
76.896
76.896
76.896
76.896
76.896
76.896
76.896
76.896
76.896
76.896
76.896
76.896
76.896
76.896
76.896
76.896
76.896
76.896
76.896
76.896
76.896
76.896
76.896
76.896
76.896
76.896
76.896
76.896
76.896
76.896
76.896
76.896
76.896
76.896
76.896
76.896
76.896
76.896
76.896
76.896
76.896
76.896
76.896
76.896
76.896
76.896
76.896
76.896
76.896
76.896
76.896
76.896
76.896
76.896
76.896
76.896
76.896
76.896
76.896
76.896
76.896
76.896
76.896
76.896
76.896
76.896
76.896
76.896
76.896
76.896
76.896
76.896
76.896
76.896
76.896
76.896
76.896
76.896
76.896
76.896
76.896
76.896
76.896
76.896
76.896
76.896
76.896
76.896
76.896
76.896
76.896
76.896
76.896
76.896
76.896
76.896
76.896
76.896
76.896
76.896
76.896
76.896
76.896
76.896
76.896
76.896
76.896
76.896
76.896
76.896
76.896
76.896
76.896
76.896
76.896
76.896
76.896
76.896
76.896
76.896
76.896
76.896
76.896
76.896
76.896
76.896
76.896
76.896
76.896
76.896
76.896
76.896
76.896
76.896
76.896
76.896
76.896
76.896
76.896
76.896
76.896
76.896
76.896
76.896
76.896
76.896
76.896
76.896
76.896
76.896
76.896
76.896
76.896
76.896
76.896
76.896
76.896
76.896
76.896
76.896
76.896
76.896
76.896
76.896
76.896
76.896
76.896
76.896
76.896
76.896
76.896
76.896
76.896
76.896
76.896
76.896
76.896
76.896
76.896
76.896
76.896
76.896
76.896
76.896
76.896
76.896
76.896
76.896
76.896
76.896
76.896
76.896
76.896
76.896
76.896
76.896
76.896
76.896
76.896
76.896
76.896
76.896
76.896
76.896
76.896
76.896
76.896
76.896
76.896
76.896
76.896
76.896
76.896
76.896
76.896
76.896
76.896
76.896
76.896
76.896
76.896
76.896
76.896
76.896
76.896
76.896
76.896
76.896
76.896
76.896
76.896
76.896
76.896
76.896
76.896
76.896
76.896
76.896
76.896
76.896
76.896
76.896
76.896
76.896
76.896
76.896
76.896
76.896
76.896
76.896
76.896
76.896
76.896
76.896
76.896
76.896
76.896
76.896
76.896
76.896
76.896
76.896
76.896
76.896
76.896
76.896
76.896
76.896
76.896
76.896
76.896
76.896
76.896
76.896
76.896
76.896
76.896
76.896
76.896
76.896
76.896
76.896
76.896
76.896
76.896
76.896
76.896
76.896
76.896
76.896
76.896
76.896
76.896
76.896
76.896
76.896
76.896
76.896
76.896
76.896
76.896
76.896
76.896
76.896
76.896
76.896
76.896
76.896
76.896
76.896
76.896
76.896
76.896
76.896
76.896
76.896
76.896
76.896
76.896
76.896
76.896
76.896
76.896
76.896
76.896
76.896
76.896
76.896
76.896
76.896
76.896
76.896
76.896
76.896
76.896
76.896
76.896
76.896
76.896
76.896
76.896
76.896
76.896
76.896
76.896
76.896
76.896
76.896
76.896
76.896
76.896
76.896
76.896
76.896
76.896
76.896
76.896
76.896
76.896
76.896
76.896
76.896
76.896
76.896
76.896
76.896
76.896
76.896
76.896
76.896
76.896
76.896
76.896
76.896
76.896
76.896
76.896
76.896
76.896
76.896
76.896
76.896
76.896
76.896
76.896
76.896
76.896
76.896
76.896
76.896
76.896
76.896
76.896
76.896
76.896
76.896
76.896
76.896
76.896
76.896
76.896
76.896
76.896
76.896
76.896
76.896
76.896
76.896
76.896
76.896
76.896
76.896
76.896
76.896
76.896
76.896
76.896
76.896
76.896
76.896
76.896
76.896
76.896
76.896
76.896
76.896
76.896
76.896
76.896
76.896
76.896
76.896
76.896
76.896
76.896
76.896
76.896
76.896
76.896
76.896
76.896
76.896
76.896
76.896
76.896
76.896
76.896
76.896
76.896
76.896
76.896
76.896
76.896
76.896
76.896
76.896
76.896
76.896
76.896
76.896
76.896
76.896
76.896
76.896
76.896
76.896
76.896
76.896
76.896
76.896
76.896
76.896
76.896
76.896
76.896
76.896
76.896
76.896
76.896
76.896
76.896
76.896
76.896
76.896
76.896
76.896
76.896
76.896
76.896
76.896
76.896
76.896
76.896
76.896
76.896
76.896
76.896
76.896
76.896
76.896
76.896
76.896
76.896
76.896
76.896
76.896
76.896
76.896
76.896
76.896
76.896
76.896
76.896
76.896
76.896
76.896
76.896
76.896
76.896
76.896
76.896
76.896
76.896
76.896
76.896
76.896
76.896
76.896
76.896
76.896
76.896
76.896
76.896
76.896
76.896
76.896
76.896
76.896
76.896
76.896
76.896
76.896
76.896
76.896
76.896
76.896
76.896
76.896
76.896
76.872
76.847
76.823
76.798
76.774
76.749
76.725
76.700
76.676
76.651
76.627
76.602
76.578
76.553
76.529
76.504
76.480
76.455
76.431
76.406
76.382
76.357
76.333
76.308
76.284
76.259
76.235
76.210
76.186
76.161
76.137
76.112
76.088
76.063
76.039
76.014
75.990
75.965
75.941
75.916
75.892
75.867
75.843
75.818
75.794
75.769
75.745
75.720
75.696
75.671
75.647
75.622
75.598
75.573
75.549
75.524
75.500
75.475
75.451
75.426
75.402
75.377
75.353
75.328
75.304
75.279
75.255
75.230
75.206
75.181
75.157
75.132
75.108
75.083
75.059
75.034
75.010
74.985
74.961
74.936
74.912
74.887
74.863
74.838
74.814
74.789
74.765
74.740
74.716
74.691
74.667
74.642
74.618
74.593
74.569
74.544
74.520
74.495
74.471
74.446
74.422
74.397
74.373
74.348
74.324
74.299
74.275
74.250
74.226
74.201
74.177
74.152
74.128
74.103
74.079
74.054
74.030
74.005
73.981
73.956
73.932
73.907
73.883
73.858
73.834
73.809
73.785
73.760
73.736
73.711
73.687
73.662
73.638
73.613
73.589
73.564
73.540
73.515
73.491
73.466
73.442
73.417
73.393
73.368
73.344
73.319
73.295
73.270
73.246
73.221
73.197
73.172
73.148
73.123
73.099
73.074
73.050
73.025
73.001
72.976
72.952
72.927
72.903
72.878
72.854
72.829
72.805
72.780
72.756
72.731
72.707
72.682
72.658
72.633
72.609
72.584
72.560
72.535
72.511
72.486
72.462
72.437
72.413
72.388
72.364
72.339
72.315
72.290
72.266
72.241
72.217
72.192
72.168
72.143
72.119
72.094
72.070
72.045
72.021
71.996
72.069
72.142
72.215
72.288
72.361
72.434
72.507
72.580
72.653
72.726
72.799
72.872
72.945
73.018
73.091
73.164
73.237
73.310
73.383
73.456
73.529
73.602
73.675
73.748
73.821
73.894
73.967
74.040
74.113
74.186
74.259
74.332
74.405
74.478
74.551
74.624
74.697
74.770
74.843
74.916
74.989
75.062
75.135
75.208
75.281
75.354
75.427
75.500
75.573
75.646
75.719
75.792
75.865
75.938
76.011
76.084
76.157
76.230
76.303
76.376
76.449
76.522
76.595
76.668
76.741
76.814
76.887
76.960
77.033
77.106
77.179
77.252
77.325
77.398
77.471
77.544
77.617
77.690
77.763
77.836
77.909
77.982
78.055
78.128
78.201
78.274
78.347
78.420
78.493
78.566
78.639
78.712
78.785
78.858
78.931
79.004
79.077
79.150
79.223
79.296
79.369
79.442
79.515
79.588
79.661
79.734
79.807
79.880
79.953
80.026
80.099
80.172
80.245
80.318
80.391
80.464
80.537
80.610
80.683
80.756
80.829
80.902
80.975
81.048
81.121
81.194
81.267
81.340
81.413
81.486
81.559
81.632
81.705
81.778
81.851
81.924
81.997
82.070
82.143
82.216
82.289
82.362
82.435
82.508
82.581
82.654
82.727
82.800
82.873
82.946
83.019
83.092
83.165
83.238
83.311
83.384
83.457
83.530
83.603
83.676
83.749
83.822
83.895
83.968
84.041
84.114
84.187
84.260
84.333
84.406
84.479
84.552
84.625
84.698
84.771
84.844
84.917
84.990
85.063
85.136
85.209
85.282
85.355
85.428
85.501
85.574
85.647
85.720
85.793
85.866
85.939
86.012
86.085
86.158
86.231
86.304
86.377
86.450
86.523
86.596
86.548
86.499
86.451
86.402
86.354
86.305
86.257
86.208
86.160
86.111
86.063
86.014
85.966
85.917
85.869
85.820
85.772
85.723
85.675
85.626
85.578
85.529
85.481
85.432
85.384
85.335
85.287
85.238
85.190
85.141
85.093
85.044
84.996
84.947
84.899
84.850
84.802
84.753
84.705
84.656
84.608
84.559
84.511
84.462
84.414
84.365
84.317
84.268
84.220
84.171
84.123
84.074
84.026
83.977
83.929
83.880
83.832
83.783
83.735
83.686
83.638
83.589
83.541
83.492
83.444
83.395
83.347
83.298
83.250
83.201
83.153
83.104
83.056
83.007
82.959
82.910
82.862
