1791.266
1793.368
1795.470
1797.572
1799.674
1801.776
1803.878
1805.980
1808.082
1810.184
1812.286
1814.388
1816.490
1818.592
1820.694
1822.796
1824.898
1827.000
1829.102
1831.204
1833.306
1835.408
1837.510
1839.612
1841.714
1843.816
1845.918
1848.020
1850.122
1852.224
1854.326
1856.428
1858.530
1860.632
1862.734
1864.836
1866.938
1869.040
1871.142
1873.244
1875.346
1877.448
1879.550
1881.652
1883.754
1885.856
1887.958
1890.060
1892.162
1894.264
1896.366
1898.468
1900.570
1902.672
1904.774
1906.876
1908.978
1911.080
1913.182
1915.284
1917.386
1919.488
1921.590
1923.692
1925.794
1927.896
1929.998
1932.100
1934.202
1936.304
1938.406
1940.508
1942.610
1944.712
1946.814
1948.916
1951.018
1953.120
1955.222
1957.324
1959.426
1961.528
1963.630
1965.732
1967.834
1969.936
1972.038
1974.140
1976.242
1978.344
1980.446
1982.548
1984.650
1986.752
1988.854
1990.956
1993.058
1995.160
1997.262
1999.364
2001.466
2003.568
2005.670
2007.772
2009.874
2011.976
2014.078
2016.180
2016.693
2017.206
2017.719
2018.232
2018.745
2019.258
2019.771
2020.284
2020.797
2021.310
2021.823
2022.336
2022.849
2023.362
2023.875
2024.388
2024.901
2025.414
2025.927
2026.440
2026.953
2027.466
2027.979
2028.492
2029.005
2029.518
2030.031
2030.544
2031.057
2031.570
2032.083
2032.596
2033.109
2033.622
2034.135
2034.648
2035.161
2035.674
2036.187
2036.700
2037.213
2037.726
2038.239
2038.752
2039.265
2039.778
2040.291
2040.804
2041.317
2041.830
2042.343
2042.856
2043.369
2043.882
2044.395
2044.908
2045.421
2045.934
2046.447
2046.960
2047.473
2047.986
2048.499
2049.012
2049.525
2050.038
2050.551
2051.064
2051.577
2052.090
2052.603
2053.116
2053.629
2054.142
2054.655
2055.168
2055.681
2056.194
2056.707
2057.220
2057.733
2058.246
2058.759
2059.272
2059.785
2060.298
2060.811
2061.324
2061.837
2062.350
2062.863
2063.376
2063.889
2064.402
2064.915
2065.428
2065.941
2066.454
2066.967
2067.480
2067.993
2068.506
2069.019
2069.532
2070.045
2070.558
2071.071
2071.584
2072.097
2072.610
2073.123
2073.636
2074.149
2074.662
2075.175
2075.688
2076.201
2076.714
2077.227
2077.740
2078.253
2078.766
2079.279
2079.792
2080.305
2080.818
2081.331
2081.844
2082.357
2082.870
2083.383
2083.896
2084.409
2084.922
2085.435
2085.948
2086.461
2086.974
2087.487
2088.000
2088.513
2089.026
2089.539
2090.052
2090.565
2091.078
2091.591
2092.104
2092.617
2093.130
2093.643
2094.156
2094.669
2095.182
2095.695
2096.208
2096.721
2097.234
2097.747
2098.260
2098.773
2099.286
2099.799
2100.312
2100.825
2101.338
2101.851
2102.364
2102.877
2103.390
2103.903
2104.416
2104.929
2105.442
2105.955
2106.468
2106.981
2107.494
2108.007
2108.520
2109.033
2109.546
2110.059
2110.572
2111.085
2111.598
2112.111
2112.624
2113.137
2113.650
2114.163
2114.676
2115.189
2115.702
2116.215
2116.728
2117.241
2117.754
2118.267
2118.780
2117.338
2115.896
2114.454
2113.012
2111.570
2110.128
2108.686
2107.244
2105.802
2104.360
2102.918
2101.476
2100.034
2098.592
2097.150
2095.708
2094.266
2092.824
2091.382
2089.940
2088.498
2087.056
2085.614
2084.172
2082.730
2081.288
2079.846
2078.404
2076.962
2075.520
2074.078
2072.636
2071.194
2069.752
2068.310
2066.868
2065.426
2063.984
2062.542
2061.100
2059.658
2058.216
2056.774
2055.332
2053.890
2052.448
2051.006
2049.564
2048.122
2046.680
2045.238
2043.796
2042.354
2040.912
2039.470
2038.028
2036.586
2035.144
2033.702
2032.260
2030.818
2029.376
2027.934
2026.492
2025.050
2023.608
2022.166
2020.724
2019.282
2017.840
2016.398
2014.956
2013.514
2012.072
2010.630
2009.188
2007.746
2006.304
2004.862
2003.420
2001.978
2000.536
1999.094
1997.652
1996.210
1994.768
1993.326
1991.884
1990.442
1989.000
1987.558
1986.116
1984.674
1983.232
1981.790
1980.348
1978.906
1977.464
1976.022
1974.580
1973.138
1971.696
1970.254
1968.812
1967.370
1965.928
1964.486
1963.044
1961.602
1960.160
1958.718
1957.276
1955.834
1954.392
1952.950
1951.508
1950.066
1948.624
1947.182
1945.740
1944.298
1942.856
1941.414
1939.972
1938.530
1937.088
1935.646
1934.204
1932.762
1931.320
1929.878
1928.436
1926.994
1925.552
1924.110
1922.668
1921.226
1919.784
1918.342
1916.900
1915.458
1914.016
1912.574
1911.132
1909.690
1908.248
1906.806
1905.364
1903.922
1902.480
1901.038
1899.596
1898.154
1896.712
1895.270
1893.828
1892.386
1890.944
1889.502
1888.060
1886.618
1885.176
1883.734
1882.292
1880.850
1879.408
1877.966
1876.524
1875.082
1873.640
1872.198
1870.756
1869.314
1867.872
1866.430
1864.988
1863.546
1862.104
1860.662
1859.220
1857.778
1856.336
1854.894
1853.452
1852.010
1850.568
1849.126
1847.684
1846.242
1844.800
1843.358
1841.916
1840.474
1839.032
1837.590
1836.148
1834.706
1833.264
1831.822
1830.380
1832.750
1835.121
1837.491
1839.862
1842.232
1844.603
1846.973
1849.344
1851.714
1854.085
1856.455
1858.826
1861.196
1863.567
1865.937
1868.308
1870.678
1873.049
1875.419
1877.790
1880.160
1882.531
1884.901
1887.272
1889.642
1892.013
1894.383
1896.754
1899.124
1901.495
1903.865
1906.236
1908.606
1910.977
1913.347
1915.718
1918.088
1920.459
1922.829
1925.200
1927.570
1929.941
1932.311
1934.682
1937.052
1939.423
1941.793
1944.164
1946.534
1948.905
1951.275
1953.646
1956.016
1958.387
1960.757
1963.128
1965.498
1967.869
1970.239
1972.610
1974.980
1977.351
1979.721
1982.092
1984.462
1986.833
1989.203
1991.574
1993.944
1996.315
1998.685
2001.056
2003.426
2005.797
2008.167
2010.538
2012.908
2015.279
2017.649
2020.020
2022.390
2024.761
2027.131
2029.502
2031.872
2034.243
2036.613
2038.984
2041.354
2043.725
2046.095
2048.466
2050.836
2053.207
2055.577
2057.948
2060.318
2062.689
2065.059
2067.430
2069.800
2072.171
2074.541
2076.912
2079.282
2081.653
2084.023
2086.394
2088.764
2091.135
2093.505
2095.876
2098.246
2100.617
2102.987
2105.358
2107.728
2110.099
2112.469
2114.840
2117.210
2119.581
2121.951
2124.322
2126.692
2129.063
2131.433
2133.804
2136.174
2138.545
2140.915
2143.286
2145.656
2148.027
2150.397
2152.768
2155.138
2157.509
2159.879
2162.250
2164.620
2166.991
2169.361
2171.732
2174.102
2176.473
2178.843
2181.214
2183.584
2185.955
2188.325
2190.696
2193.066
2195.437
2197.807
2200.178
2202.548
2204.919
2207.289
2209.660
2212.030
2214.401
2216.771
2219.142
2221.512
2223.883
2226.253
2228.624
2230.994
2233.365
2235.735
2238.106
2240.476
2242.847
2245.217
2247.588
2249.958
2252.329
2254.699
2257.070
2259.440
2261.811
2264.181
2266.552
2268.922
2271.293
2273.663
2276.034
2278.404
2280.775
2283.145
2285.516
2287.886
2290.257
2292.627
2294.998
2297.368
2299.739
2302.109
2304.480
2303.625
2302.770
2301.915
2301.060
2300.205
2299.350
2298.495
2297.640
2296.785
2295.930
2295.075
2294.220
2293.365
2292.510
2291.655
2290.800
2289.945
2289.090
2288.235
2287.380
2286.525
2285.670
2284.815
2283.960
2283.105
2282.250
2281.395
2280.540
2279.685
2278.830
2277.975
2277.120
2276.265
2275.410
2274.555
2273.700
2272.845
2271.990
2271.135
2270.280
2269.425
2268.570
2267.715
2266.860
2266.005
2265.150
2264.295
2263.440
2262.585
2261.730
2260.875
2260.020
2259.165
2258.310
2257.455
2256.600
2255.745
2254.890
2254.035
2253.180
2252.325
2251.470
2250.615
2249.760
2248.905
2248.050
2247.195
2246.340
2245.485
2244.630
2243.775
2242.920
2242.065
2241.210
2240.355
2239.500
2238.645
2237.790
2236.935
2236.080
2235.225
2234.370
2233.515
2232.660
2231.805
2230.950
2230.095
2229.240
2228.385
2227.530
2226.675
2225.820
2224.965
2224.110
2223.255
2222.400
2221.545
2220.690
2219.835
2218.980
2218.125
2217.270
2216.415
2215.560
2214.705
2213.850
2212.995
2212.140
2211.285
2210.430
2209.575
2208.720
2207.865
2207.010
2206.155
2205.300
2204.445
2203.590
2202.735
2201.880
2201.025
2200.170
2199.315
2198.460
2197.605
2196.750
2195.895
2195.040
2194.185
2193.330
2192.475
2191.620
2190.765
2189.910
2189.055
2188.200
2187.345
2186.490
2185.635
2184.780
2183.925
2183.070
2182.215
2181.360
2180.505
2179.650
2178.795
2177.940
2177.085
2176.230
2175.375
2174.520
2173.665
2172.810
2171.955
2171.100
2170.245
2169.390
2168.535
2167.680
2166.825
2165.970
2165.115
2164.260
2163.405
2162.550
2161.695
2160.840
2159.985
2159.130
2158.275
2157.420
2156.565
2155.710
2154.855
2154.000
2153.145
2152.290
2151.435
2150.580
2149.725
2148.870
2148.015
2147.160
2146.305
2145.450
2144.595
2143.740
2142.885
2142.030
2141.175
2140.320
2139.465
2138.610
2137.755
2136.900
2136.045
2135.190
2134.335
2133.480
2131.256
2129.032
2126.808
2124.584
2122.360
2120.136
2117.912
2115.688
2113.464
2111.240
2109.016
2106.792
2104.568
2102.344
2100.120
2097.896
2095.672
2093.448
2091.224
2089.000
2086.776
2084.552
2082.328
2080.104
2077.880
2075.656
2073.432
2071.208
2068.984
2066.760
2064.536
2062.312
2060.088
2057.864
2055.640
2053.416
2051.192
2048.968
2046.744
2044.520
2042.296
2040.072
2037.848
2035.624
2033.400
2031.176
2028.952
2026.728
2024.504
2022.280
2020.056
2017.832
2015.608
2013.384
2011.160
2008.936
2006.712
2004.488
2002.264
2000.040
1997.816
1995.592
1993.368
1991.144
1988.920
1986.696
1984.472
1982.248
1980.024
1977.800
1975.576
1973.352
1971.128
1968.904
1966.680
1964.456
1962.232
1960.008
1957.784
1955.560
1953.336
1951.112
1948.888
1946.664
1944.440
1942.216
1939.992
1937.768
1935.544
1933.320
1931.096
1928.872
1926.648
1924.424
1922.200
1919.976
1917.752
1915.528
1913.304
1911.080
1908.856
1906.632
1904.408
1902.184
1899.960
1897.736
1895.512
1893.288
1891.064
1888.840
1886.616
1884.392
1882.168
1879.944
1877.720
1875.496
1873.272
1871.048
1868.824
1866.600
1864.376
1862.152
1859.928
1857.704
1855.480
1853.256
1851.032
1848.808
1846.584
1844.360
1842.136
1839.912
1837.688
1835.464
1833.240
1831.016
1828.792
1826.568
1824.344
1822.120
1819.896
1817.672
1815.448
1813.224
1811.000
1808.776
1806.552
1804.328
1802.104
1799.880
1797.656
1795.432
1793.208
1790.984
1788.760
1786.536
1784.312
1782.088
1779.864
1777.640
1775.416
1773.192
1770.968
1768.744
1766.520
1764.296
1762.072
1759.848
1757.624
1755.400
1753.176
1750.952
1748.728
1746.504
1744.280
1742.056
1739.832
1737.608
1735.384
1733.160
1730.936
1728.712
1726.488
1724.264
1722.040
1719.816
1717.592
1715.368
1713.144
1710.920
1708.696
1706.472
1704.248
1702.024
1699.800
1697.576
1695.352
1693.128
1690.904
1688.680
1691.001
1693.323
1695.644
1697.966
1700.287
1702.609
1704.930
1707.252
1709.573
1711.895
1714.216
1716.538
1718.859
1721.181
1723.502
1725.824
1728.145
1730.467
1732.788
1735.110
1737.431
1739.753
1742.074
1744.396
1746.717
1749.039
1751.360
1753.682
1756.003
1758.325
1760.646
1762.968
1765.289
1767.611
1769.932
1772.254
1774.575
1776.897
1779.218
1781.540
1783.861
1786.183
1788.504
1790.826
1793.147
1795.469
1797.790
1800.112
1802.433
1804.755
1807.076
1809.398
1811.719
1814.041
1816.362
1818.684
1821.005
1823.327
1825.648
1827.970
1830.291
1832.613
1834.934
1837.256
1839.577
1841.899
1844.220
1846.542
1848.863
1851.185
1853.506
1855.828
1858.149
1860.471
1862.792
1865.114
1867.435
1869.757
1872.078
1874.400
1876.721
1879.043
1881.364
1883.686
1886.007
1888.329
1890.650
1892.972
1895.293
1897.615
1899.936
1902.258
1904.579
1906.901
1909.222
1911.544
1913.865
1916.187
1918.508
1920.830
1923.151
1925.473
1927.794
1930.116
1932.437
1934.759
1937.080
1939.402
1941.723
1944.045
1946.366
1948.688
1951.009
1953.331
1955.652
1957.974
1960.295
1962.617
1964.938
1967.260
1969.581
1971.903
1974.224
1976.546
1978.867
1981.189
1983.510
1985.832
1988.153
1990.475
1992.796
1995.118
1997.439
1999.761
2002.082
2004.404
2006.725
2009.047
2011.368
2013.690
2016.011
2018.333
2020.654
2022.976
2025.297
2027.619
2029.940
2032.262
2034.583
2036.905
2039.226
2041.548
2043.869
2046.191
2048.512
2050.834
2053.155
2055.477
2057.798
2060.120
2062.441
2064.763
2067.084
2069.406
2071.727
2074.049
2076.370
2078.692
2081.013
2083.335
2085.656
2087.978
2090.299
2092.621
2094.942
2097.264
2099.585
2101.907
2104.228
2106.550
2108.871
2111.193
2113.514
2115.836
2118.157
2120.479
2122.800
2125.122
2127.443
2129.765
2132.086
2134.408
2136.729
2139.051
2141.372
2143.694
2146.015
2148.337
2150.658
2152.980
2156.401
2159.823
2163.244
2166.666
2170.087
2173.509
2176.930
2180.352
2183.773
2187.195
2190.616
2194.038
2197.459
2200.881
2204.302
2207.724
2211.145
2214.567
2217.988
2221.410
2224.831
2228.253
2231.674
2235.096
2238.517
2241.939
2245.360
2248.782
2252.203
2255.625
2259.046
2262.468
2265.889
2269.311
2272.732
2276.154
2279.575
2282.997
2286.418
2289.840
2293.261
2296.683
2300.104
2303.526
2306.947
2310.369
2313.790
2317.212
2320.633
2324.055
2327.476
2330.898
2334.319
2337.741
2341.162
2344.584
2348.005
2351.427
2354.848
2358.270
2361.691
2365.113
2368.534
2371.956
2375.377
2378.799
2382.220
2385.642
2389.063
2392.485
2395.906
2399.328
2402.749
2406.171
2409.592
2413.014
2416.435
2419.857
2423.278
2426.700
2430.121
2433.543
2436.964
2440.386
2443.807
2447.229
2450.650
2454.072
2457.493
2460.915
2464.336
2467.758
2471.179
2474.601
2478.022
2481.444
2484.865
2488.287
2491.708
2495.130
2498.551
2501.973
2505.394
2508.816
2512.237
2515.659
2519.080
2522.502
2525.923
2529.345
2532.766
2536.188
2539.609
2543.031
2546.452
2549.874
2553.295
2556.717
2560.138
2563.560
2566.981
2570.403
2573.824
2577.246
2580.667
2584.089
2587.510
2590.932
2594.353
2597.775
2601.196
2604.618
2608.039
2611.461
2614.882
2618.304
2621.725
2625.147
2628.568
2631.990
2635.411
2638.833
2642.254
2645.676
2649.097
2652.519
2655.940
2659.362
2662.783
2666.205
2669.626
2673.048
2676.469
2679.891
2683.312
2686.734
2690.155
2693.577
2696.998
2700.420
2703.841
2707.263
2710.684
2714.106
2717.527
2720.949
2724.370
2727.792
2731.213
2734.635
2738.056
2741.478
2744.899
2748.321
2751.742
2755.164
2758.585
2762.007
2765.428
2768.850
2772.271
2775.693
2779.114
2782.536
2785.957
2789.379
2792.800
2796.222
2799.643
2803.065
2806.486
2809.908
2813.329
2816.751
2820.172
2823.594
2827.015
2830.437
2833.858
2837.280
2834.567
2831.855
2829.142
2826.430
2823.717
2821.005
2818.292
2815.580
2812.867
2810.155
2807.442
2804.730
2802.017
2799.305
2796.592
2793.880
2791.167
2788.455
2785.742
2783.030
2780.317
2777.605
2774.892
2772.180
2769.467
2766.755
2764.042
2761.330
2758.617
2755.905
2753.192
2750.480
2747.767
2745.055
2742.342
2739.630
2736.917
2734.205
2731.492
2728.780
2726.067
2723.355
2720.642
2717.930
2715.217
2712.505
2709.792
2707.080
2704.367
2701.655
2698.942
2696.230
2693.517
2690.805
2688.092
2685.380
2682.667
2679.955
2677.242
2674.530
2671.817
2669.105
2666.392
2663.680
2660.967
2658.255
2655.542
2652.830
2650.117
2647.405
2644.692
2641.980
2639.267
2636.555
2633.842
2631.130
2628.417
2625.705
2622.992
2620.280
2617.567
2614.855
2612.142
2609.430
2606.717
2604.005
2601.292
2598.580
2595.867
2593.155
2590.442
2587.730
2585.017
2582.305
2579.592
2576.880
2574.167
2571.455
2568.742
2566.030
2563.317
2560.605
2557.892
2555.180
2552.467
2549.755
2547.042
2544.330
2541.617
2538.905
2536.192
2533.480
2530.767
2528.055
2525.342
2522.630
2519.917
2517.205
2514.492
2511.780
2509.067
2506.355
2503.642
2500.930
2498.217
2495.505
2492.792
2490.080
2487.367
2484.655
2481.942
2479.230
2476.517
2473.805
2471.092
2468.380
2465.667
2462.955
2460.242
2457.530
2454.817
2452.105
2449.392
2446.680
2443.967
2441.255
2438.542
2435.830
2433.117
2430.405
2427.692
2424.980
2422.267
2419.555
2416.842
2414.130
2411.417
2408.705
2405.992
2403.280
2400.567
2397.855
2395.142
2392.430
2389.717
2387.005
2384.292
2381.580
2378.867
2376.155
2373.442
2370.730
2368.017
2365.305
2362.592
2359.880
2357.167
2354.455
2351.742
2349.030
2346.317
2343.605
2340.892
2338.180
2335.467
2332.755
2330.042
2327.330
2324.617
2321.905
2319.192
2316.480
2313.767
2311.055
2308.342
2305.630
2302.917
2300.205
2297.492
85.580
85.580
85.580
85.580
85.580
85.580
85.580
85.580
85.580
85.580
85.580
85.580
85.580
85.580
85.580
85.580
85.580
85.580
85.580
85.580
85.580
85.580
85.580
85.580
85.580
85.580
85.580
85.580
85.580
85.580
85.580
85.580
85.580
85.580
85.580
85.580
85.580
85.580
85.580
85.580
85.580
85.580
85.580
85.580
85.580
85.580
85.580
85.580
85.580
85.580
85.580
85.580
85.580
85.580
85.580
85.580
85.580
85.580
85.580
85.580
85.580
85.580
85.580
85.580
85.580
85.580
85.580
85.580
85.580
85.580
85.580
85.580
85.580
85.580
85.580
85.580
85.580
85.580
85.580
85.580
85.580
85.580
85.580
85.580
85.580
85.580
85.580
85.580
85.580
85.580
85.580
85.580
85.580
85.580
85.580
85.580
85.580
85.580
85.580
85.580
85.580
85.580
85.580
85.580
85.580
85.580
85.580
85.580
85.580
85.580
85.580
85.580
85.580
85.580
85.580
85.580
85.580
85.580
85.580
85.580
85.580
85.580
85.580
85.580
85.580
85.580
85.580
85.580
85.580
85.580
85.580
85.580
85.580
85.580
85.580
85.580
85.580
85.580
85.580
85.580
85.580
85.580
85.580
85.580
85.580
85.580
85.580
85.580
85.580
85.580
85.580
85.580
85.580
85.580
85.580
85.580
85.580
85.580
85.580
85.580
85.580
85.580
85.580
85.580
85.580
85.580
85.580
85.580
85.580
85.580
85.580
85.580
85.580
85.580
85.580
85.580
85.580
85.580
85.580
85.580
85.580
85.580
85.580
85.580
85.580
85.580
85.580
85.580
85.580
85.580
85.580
85.580
85.580
85.580
85.580
85.580
85.580
85.580
85.580
85.580
85.580
85.580
85.580
85.580
85.580
85.580
85.580
85.580
85.580
85.580
85.580
85.580
85.580
85.580
85.580
85.580
85.580
85.580
85.580
85.580
85.580
85.580
85.580
85.580
85.580
85.580
85.580
85.580
85.580
85.580
85.580
85.580
85.580
85.580
85.580
85.580
85.580
85.580
85.580
85.580
85.580
85.580
85.580
85.580
85.580
85.580
85.580
85.580
85.580
85.580
85.580
85.580
85.580
85.580
85.580
85.580
85.580
85.580
85.580
85.580
85.580
85.580
85.580
85.580
85.580
85.580
85.580
85.580
85.580
85.580
85.580
85.580
85.580
85.580
85.580
85.580
85.580
85.580
85.580
85.580
85.580
85.580
85.580
85.580
85.580
85.580
85.580
85.580
85.580
85.580
85.580
85.580
85.580
