2128.793
2128.011
2127.229
2126.447
2125.665
2124.883
2124.101
2123.319
2122.537
2121.755
2120.973
2120.191
2119.409
2118.627
2117.845
2117.063
2116.281
2115.499
2114.717
2113.935
2113.153
2112.371
2111.589
2110.807
2110.025
2109.243
2108.461
2107.679
2106.897
2106.115
2105.333
2104.551
2103.769
2102.987
2102.205
2101.423
2100.641
2099.859
2099.077
2098.295
2097.513
2096.731
2095.949
2095.167
2094.385
2093.603
2092.821
2092.039
2091.257
2090.475
2089.693
2088.911
2088.129
2087.347
2086.565
2085.783
2085.001
2084.219
2083.437
2082.655
2081.873
2081.091
2080.309
2079.527
2078.745
2077.963
2077.181
2076.399
2075.617
2074.835
2074.053
2073.271
2072.489
2071.707
2070.925
2070.143
2069.361
2068.579
2067.797
2067.015
2066.233
2065.451
2064.669
2063.887
2063.105
2062.323
2061.541
2060.759
2059.977
2059.195
2058.413
2057.631
2056.849
2056.067
2055.285
2054.503
2053.721
2052.939
2052.157
2051.375
2050.593
2049.811
2049.029
2048.247
2047.465
2046.683
2045.901
2045.119
2044.337
2043.555
2042.773
2041.991
2041.209
2040.427
2039.645
2038.863
2038.081
2037.299
2036.517
2035.735
2034.953
2034.171
2033.389
2032.607
2031.825
2031.043
2030.261
2029.479
2028.697
2027.915
2027.133
2026.351
2025.569
2024.787
2024.005
2023.223
2022.441
2021.659
2020.877
2020.095
2019.313
2018.531
2017.749
2016.967
2016.185
2015.403
2014.621
2013.839
2013.057
2012.275
2011.493
2010.711
2009.929
2009.147
2008.365
2007.583
2006.801
2006.019
2005.237
2004.455
2003.673
2002.891
2002.109
2001.327
2000.545
1999.763
1998.981
1998.199
1997.417
1996.635
1995.853
1995.071
1994.289
1993.507
1992.725
1991.943
1991.161
1990.379
1989.597
1988.815
1988.033
1987.251
1986.469
1985.687
1984.905
1984.123
1983.341
1982.559
1981.777
1980.995
1980.213
1979.431
1978.062
1976.694
1975.325
1973.957
1972.588
1971.220
1969.851
1968.483
1967.114
1965.746
1964.377
1963.009
1961.640
1960.272
1958.903
1957.535
1956.166
1954.798
1953.429
1952.061
1950.692
1949.324
1947.955
1946.587
1945.218
1943.850
1942.481
1941.113
1939.744
1938.376
1937.007
1935.639
1934.270
1932.902
1931.533
1930.165
1928.796
1927.428
1926.059
1924.691
1923.322
1921.954
1920.585
1919.217
1917.848
1916.480
1915.111
1913.743
1912.374
1911.006
1909.637
1908.269
1906.900
1905.532
1904.163
1902.795
1901.426
1900.058
1898.689
1897.321
1895.952
1894.584
1893.215
1891.847
1890.478
1889.110
1887.741
1886.373
1885.004
1883.636
1882.267
1880.899
1879.530
1878.162
1876.793
1875.425
1874.056
1872.688
1871.319
1869.951
1868.582
1867.214
1865.845
1864.477
1863.108
1861.740
1860.371
1859.003
1857.634
1856.266
1854.897
1853.529
1852.160
1850.792
1849.423
1848.055
1846.686
1845.318
1843.949
1842.581
1841.212
1839.844
1838.475
1837.107
1835.738
1834.370
1833.001
1831.633
1830.264
1828.896
1827.527
1826.159
1824.790
1823.422
1822.053
1820.685
1819.316
1817.948
1816.579
1815.211
1813.842
1812.474
1811.105
1809.737
1808.368
1807.000
1805.631
1804.263
1802.894
1801.526
1800.157
1798.789
1797.420
1796.052
1794.683
1793.315
1791.946
1790.578
1789.209
1787.841
1786.472
1785.104
1783.735
1782.367
1780.998
1779.630
1778.261
1776.893
1775.524
1774.156
1772.787
1771.419
1770.050
1768.682
1767.313
1765.945
1764.576
1763.208
1761.839
1760.471
1759.102
1757.734
1756.365
1754.997
1753.628
1752.260
1750.891
1749.523
1748.154
1746.786
1745.417
1744.049
1742.680
1741.312
1739.943
1738.575
1737.206
1735.838
1734.469
1733.101
1731.732
1730.364
1728.995
1727.627
1726.258
1724.890
1723.521
1722.153
1720.784
1719.416
1718.047
1716.679
1715.310
1713.942
1712.573
1711.205
1709.836
1708.468
1707.099
1705.731
1707.857
1709.984
1712.110
1714.237
1716.363
1718.490
1720.616
1722.743
1724.869
1726.996
1729.122
1731.249
1733.375
1735.502
1737.628
1739.755
1741.881
1744.008
1746.134
1748.261
1750.387
1752.514
1754.640
1756.767
1758.893
1761.020
1763.146
1765.273
1767.399
1769.526
1771.652
1773.779
1775.905
1778.032
1780.158
1782.285
1784.411
1786.538
1788.664
1790.791
1792.917
1795.044
1797.170
1799.297
1801.423
1803.550
1805.676
1807.803
1809.929
1812.056
1814.182
1816.309
1818.435
1820.562
1822.688
1824.815
1826.941
1829.068
1831.194
1833.321
1835.447
1837.574
1839.700
1841.827
1843.953
1846.080
1848.206
1850.333
1852.459
1854.586
1856.712
1858.839
1860.965
1863.092
1865.218
1867.345
1869.471
1871.598
1873.724
1875.851
1877.977
1880.104
1882.230
1884.357
1886.483
1888.610
1890.736
1892.863
1894.989
1897.116
1899.242
1901.369
1903.495
1905.622
1907.748
1909.875
1912.001
1914.128
1916.254
1918.381
1920.507
1922.634
1924.760
1926.887
1929.013
1931.140
1933.266
1935.393
1937.519
1939.646
1941.772
1943.899
1946.025
1948.152
1950.278
1952.405
1954.531
1956.658
1958.784
1960.911
1963.037
1965.164
1967.290
1969.417
1971.543
1973.670
1975.796
1977.923
1980.049
1982.176
1984.302
1986.429
1988.555
1990.682
1992.808
1994.935
1997.061
1999.188
2001.314
2003.441
2005.567
2007.694
2009.820
2011.947
2014.073
2016.200
2018.326
2020.453
2022.579
2024.706
2026.832
2028.959
2031.085
2033.212
2035.338
2037.465
2039.591
2041.718
2043.844
2045.971
2048.097
2050.224
2052.350
2054.477
2056.603
2058.730
2060.856
2062.983
2065.109
2067.236
2069.362
2071.489
2073.615
2075.742
2077.868
2079.995
2082.121
2084.248
2086.374
2088.501
2090.627
2092.754
2094.880
2097.007
2099.133
2101.260
2103.386
2105.513
2107.639
2109.766
2111.892
2114.019
2116.145
2118.272
2120.398
2122.525
2124.651
2126.778
2128.904
2131.031
2127.438
2123.846
2120.253
2116.661
2113.068
2109.476
2105.883
2102.291
2098.698
2095.106
2091.513
2087.921
2084.328
2080.736
2077.143
2073.551
2069.958
2066.366
2062.773
2059.181
2055.588
2051.996
2048.403
2044.811
2041.218
2037.626
2034.033
2030.441
2026.848
2023.256
2019.663
2016.071
2012.478
2008.886
2005.293
2001.701
1998.108
1994.516
1990.923
1987.331
1983.738
1980.146
1976.553
1972.961
1969.368
1965.776
1962.183
1958.591
1954.998
1951.406
1947.813
1944.221
1940.628
1937.036
1933.443
1929.851
1926.258
1922.666
1919.073
1915.481
1911.888
1908.296
1904.703
1901.111
1897.518
1893.926
1890.333
1886.741
1883.148
1879.556
1875.963
1872.371
1868.778
1865.186
1861.593
1858.001
1854.408
1850.816
1847.223
1843.631
1840.038
1836.446
1832.853
1829.261
1825.668
1822.076
1818.483
1814.891
1811.298
1807.706
1804.113
1800.521
1796.928
1793.336
1789.743
1786.151
1782.558
1778.966
1775.373
1771.781
1768.188
1764.596
1761.003
1757.411
1753.818
1750.226
1746.633
1743.041
1739.448
1735.856
1732.263
1728.671
1725.078
1721.486
1717.893
1714.301
1710.708
1707.116
1703.523
1699.931
1696.338
1692.746
1689.153
1685.561
1681.968
1678.376
1674.783
1671.191
1667.598
1664.006
1660.413
1656.821
1653.228
1649.636
1646.043
1642.451
1638.858
1635.266
1631.673
1628.081
1624.488
1620.896
1617.303
1613.711
1610.118
1606.526
1602.933
1599.341
1595.748
1592.156
1588.563
1584.971
1581.378
1577.786
1574.193
1570.601
1567.008
1563.416
1559.823
1556.231
1552.638
1549.046
1545.453
1541.861
1538.268
1534.676
1531.083
1527.491
1523.898
1520.306
1516.713
1513.121
1509.528
1505.936
1502.343
1498.751
1495.158
1491.566
1487.973
1484.381
1480.788
1477.196
1473.603
1470.011
1466.418
1462.826
1459.233
1455.641
1452.048
1448.456
1444.863
1441.271
1437.678
1434.086
1430.493
1426.901
1423.308
1419.716
1416.123
1412.531
1412.848
1413.166
1413.483
1413.801
1414.118
1414.436
1414.753
1415.071
1415.388
1415.706
1416.023
1416.341
1416.658
1416.976
1417.293
1417.611
1417.928
1418.246
1418.563
1418.881
1419.198
1419.516
1419.833
1420.151
1420.468
1420.786
1421.103
1421.421
1421.738
1422.056
1422.373
1422.691
1423.008
1423.326
1423.643
1423.961
1424.278
1424.596
1424.913
1425.231
1425.548
1425.866
1426.183
1426.501
1426.818
1427.136
1427.453
1427.771
1428.088
1428.406
1428.723
1429.041
1429.358
1429.676
1429.993
1430.311
1430.628
1430.946
1431.263
1431.581
1431.898
1432.216
1432.533
1432.851
1433.168
1433.486
1433.803
1434.121
1434.438
1434.756
1435.073
1435.391
1435.708
1436.026
1436.343
1436.661
1436.978
1437.296
1437.613
1437.931
1438.248
1438.566
1438.883
1439.201
1439.518
1439.836
1440.153
1440.471
1440.788
1441.106
1441.423
1441.741
1442.058
1442.376
1442.693
1443.011
1443.328
1443.646
1443.963
1444.281
1444.598
1444.916
1445.233
1445.551
1445.868
1446.186
1446.503
1446.821
1447.138
1447.456
1447.773
1448.091
1448.408
1448.726
1449.043
1449.361
1449.678
1449.996
1450.313
1450.631
1450.948
1451.266
1451.583
1451.901
1452.218
1452.536
1452.853
1453.171
1453.488
1453.806
1454.123
1454.441
1454.758
1455.076
1455.393
1455.711
1456.028
1456.346
1456.663
1456.981
1457.298
1457.616
1457.933
1458.251
1458.568
1458.886
1459.203
1459.521
1459.838
1460.156
1460.473
1460.791
1461.108
1461.426
1461.743
1462.061
1462.378
1462.696
1463.013
1463.331
1463.648
1463.966
1464.283
1464.601
1464.918
1465.236
1465.553
1465.871
1466.188
1466.506
1466.823
1467.141
1467.458
1467.776
1468.093
1468.411
1468.728
1469.046
1469.363
1469.681
1469.998
1470.316
1470.633
1470.951
1471.268
1471.586
1471.903
1472.221
1472.538
1472.856
1473.173
1473.491
1473.808
1474.126
1474.443
1474.761
1475.078
1475.396
1475.713
1476.031
1470.777
1465.523
1460.269
1455.015
1449.761
1444.507
1439.253
1433.999
1428.745
1423.491
1418.237
1412.983
1407.729
1402.475
1397.221
1391.967
1386.713
1381.459
1376.205
1370.951
1365.697
1360.443
1355.189
1349.935
1344.681
1339.427
1334.173
1328.919
1323.665
1318.411
1313.157
1307.903
1302.649
1297.395
1292.141
1286.887
1281.633
1276.379
1271.125
1265.871
1260.617
1255.363
1250.109
1244.855
1239.601
1234.347
1229.093
1223.839
1218.585
1213.331
1208.077
1202.823
1197.569
1192.315
1187.061
1181.807
1176.553
1171.299
1166.045
1160.791
1155.537
1150.283
1145.029
1139.775
1134.521
1129.267
1124.013
1118.759
1113.505
1108.251
1102.997
1097.743
1092.489
1087.235
1081.981
1076.727
1071.473
1066.219
1060.965
1055.711
1050.457
1045.203
1039.949
1034.695
1029.441
1024.187
1018.933
1013.679
1008.425
1003.171
997.917
992.663
987.409
982.155
976.901
971.647
966.393
961.139
955.885
950.631
945.377
940.123
934.869
929.615
924.361
919.107
913.853
908.599
903.345
898.091
892.837
887.583
882.329
877.075
871.821
866.567
861.313
856.059
850.805
845.551
840.297
835.043
829.789
824.535
819.281
814.027
808.773
803.519
798.265
793.011
787.757
782.503
777.249
771.995
766.741
761.487
756.233
750.979
745.725
740.471
735.217
729.963
724.709
719.455
714.201
708.947
703.693
698.439
693.185
687.931
682.677
677.423
672.169
666.915
661.661
656.407
651.153
645.899
640.645
635.391
630.137
624.883
619.629
614.375
609.121
603.867
598.613
593.359
588.105
582.851
577.597
572.343
567.089
561.835
556.581
551.327
546.073
540.819
535.565
530.311
525.057
519.803
514.549
509.295
504.041
498.787
493.533
488.279
483.025
477.771
472.517
467.263
462.009
456.755
451.501
446.247
440.993
435.739
430.485
425.231
423.911
422.592
421.272
419.953
418.633
417.314
415.994
414.675
413.355
412.036
410.716
409.397
408.077
406.758
405.438
404.119
402.799
401.480
400.160
398.841
397.521
396.202
394.882
393.563
392.243
390.924
389.604
388.285
386.965
385.646
384.326
383.007
381.687
380.368
379.048
377.729
376.409
375.090
373.770
372.451
371.131
369.812
368.492
367.173
365.853
364.534
363.214
361.895
360.575
359.256
357.936
356.617
355.297
353.978
352.658
351.339
350.019
348.700
347.380
346.061
344.741
343.422
342.102
340.783
339.463
338.144
336.824
335.505
334.185
332.866
331.546
330.227
328.907
327.588
326.268
324.949
323.629
322.310
320.990
319.671
318.351
317.032
315.712
314.393
313.073
311.754
310.434
309.115
307.795
306.476
305.156
303.837
302.517
301.198
299.878
298.559
297.239
295.920
294.600
293.281
291.961
290.642
289.322
288.003
286.683
285.364
284.044
282.725
281.405
280.086
278.766
277.447
276.127
274.808
273.488
272.169
270.849
269.530
268.210
266.891
265.571
264.252
262.932
261.613
260.293
258.974
257.654
256.335
255.015
253.696
252.376
251.057
249.737
248.418
247.098
245.779
244.459
243.140
241.820
240.501
239.181
237.862
236.542
235.223
233.903
232.584
231.264
229.945
228.625
227.306
225.986
224.667
223.347
222.028
220.708
219.389
218.069
216.750
215.430
214.111
212.791
211.472
210.152
208.833
207.513
206.194
204.874
203.555
202.235
200.916
199.596
198.277
196.957
195.638
194.318
192.999
191.679
190.360
189.040
187.721
186.401
185.082
183.762
182.443
181.123
179.804
178.484
177.165
175.845
174.526
173.206
171.887
170.567
169.248
167.928
166.609
165.289
163.970
162.650
78.231
78.206
78.182
78.157
78.133
78.108
78.084
78.059
78.035
78.010
77.986
77.961
77.937
77.912
77.888
77.863
77.839
77.814
77.790
77.765
77.741
77.716
77.692
77.667
77.643
77.618
77.594
77.569
77.545
77.520
77.496
77.471
77.447
77.422
77.398
77.373
77.349
77.324
77.300
77.275
77.251
77.226
77.202
77.177
77.153
77.128
77.104
77.079
77.055
77.030
77.006
76.981
76.957
76.932
76.908
76.883
76.859
76.834
76.810
76.785
76.761
76.736
76.712
76.687
76.663
76.638
76.614
76.589
76.565
76.540
76.516
76.491
76.467
76.442
76.418
76.393
76.369
76.344
76.320
76.295
76.271
76.246
76.222
76.197
76.173
76.148
76.124
76.099
76.075
76.050
76.026
76.001
75.977
75.952
75.928
75.903
75.879
75.854
75.830
75.805
75.781
75.756
75.732
75.707
75.683
75.658
75.634
75.609
75.585
75.560
75.536
75.511
75.487
75.462
75.438
75.413
75.389
75.364
75.340
75.315
75.291
75.266
75.242
75.217
75.193
75.168
75.144
75.119
75.095
75.070
75.046
75.021
74.997
74.972
74.948
74.923
74.899
74.874
74.850
74.825
74.801
74.776
74.752
74.727
74.703
74.678
74.654
74.629
74.605
74.580
74.556
74.531
74.507
74.482
74.458
74.433
74.409
74.384
74.360
74.335
74.311
74.286
74.262
74.237
74.213
74.188
74.164
74.139
74.115
74.090
74.066
74.041
74.017
73.992
73.968
73.943
73.919
73.894
73.870
73.845
73.821
73.796
73.772
73.747
73.723
73.698
73.674
73.649
73.625
73.600
73.576
73.551
73.527
73.502
73.478
73.453
73.429
73.404
73.380
73.355
73.331
73.355
73.380
73.404
73.429
73.453
73.478
73.502
73.527
73.551
73.576
73.600
73.625
73.649
73.674
73.698
73.723
73.747
73.772
73.796
73.821
73.845
73.870
73.894
73.919
73.943
73.968
73.992
74.017
74.041
74.066
74.090
74.115
74.139
74.164
74.188
74.213
74.237
74.262
74.286
74.311
74.335
74.360
74.384
74.409
74.433
74.458
74.482
74.507
74.531
74.556
74.580
74.605
74.629
74.654
74.678
74.703
74.727
74.752
74.776
74.801
74.825
74.850
74.874
74.899
74.923
74.948
74.972
74.997
75.021
75.046
75.070
75.095
75.119
75.144
75.168
75.193
75.217
75.242
75.266
75.291
75.315
75.340
75.364
75.389
75.413
75.438
75.462
75.487
75.511
75.536
75.560
75.585
75.609
75.634
75.658
75.683
75.707
75.732
75.756
75.781
75.805
75.830
75.854
75.879
75.903
75.928
75.952
75.977
76.001
76.026
76.050
76.075
76.099
76.124
76.148
76.173
76.197
76.222
76.246
76.271
76.295
76.320
76.344
76.369
76.393
76.418
76.442
76.467
76.491
76.516
76.540
76.565
76.589
76.614
76.638
76.663
76.687
76.712
76.736
76.761
76.785
76.810
76.834
76.859
76.883
76.908
76.932
76.957
76.981
77.006
77.030
77.055
77.079
77.104
77.128
77.153
77.177
77.202
77.226
77.251
77.275
77.300
77.324
77.349
77.373
77.398
77.422
77.447
77.471
77.496
77.520
77.545
77.569
77.594
77.618
77.643
77.667
77.692
77.716
77.741
77.765
77.790
77.814
77.839
77.863
77.888
77.912
77.937
77.961
77.986
78.010
78.035
78.059
78.084
78.108
78.133
78.157
78.182
78.206
78.231
78.231
78.231
78.231
78.231
78.231
78.231
78.231
78.231
78.231
78.231
78.231
78.231
78.231
78.231
78.231
78.231
78.231
78.231
78.231
78.231
78.231
78.231
78.231
78.231
78.231
78.231
78.231
78.231
78.231
78.231
78.231
78.231
78.231
78.231
78.231
78.231
78.231
78.231
78.231
78.231
78.231
78.231
78.231
78.231
78.231
78.231
78.231
78.231
78.231
78.231
78.231
78.231
78.231
78.231
78.231
78.231
78.231
78.231
78.231
78.231
78.231
78.231
78.231
78.231
78.231
78.231
78.231
78.231
78.231
78.231
78.231
78.231
78.231
78.231
78.231
78.231
78.231
78.231
78.231
78.231
78.231
78.231
78.231
78.231
78.231
78.231
78.231
78.231
78.231
78.231
78.231
78.231
78.231
78.231
78.231
78.231
78.231
78.231
78.231
78.231
78.231
78.231
78.231
78.231
78.231
78.231
78.231
78.231
78.231
78.231
78.231
78.231
78.231
78.231
78.231
78.231
78.231
78.231
78.231
78.231
78.231
78.231
78.231
78.231
78.231
78.231
78.231
78.231
78.231
78.231
78.231
78.231
78.231
78.231
78.231
78.231
78.231
78.231
78.231
78.231
78.231
78.231
78.231
78.231
78.231
78.231
78.231
78.231
78.231
78.231
78.231
78.231
78.231
78.231
78.231
78.231
78.231
78.231
78.231
78.231
78.231
78.231
78.231
78.231
78.231
78.231
78.231
78.231
78.231
78.231
78.231
78.231
78.231
78.231
78.231
78.231
78.231
78.231
78.231
78.231
78.231
78.231
78.231
78.231
78.231
78.231
78.231
78.231
78.231
78.231
78.231
78.231
78.231
78.231
78.231
78.231
78.231
78.231
78.231
78.231
78.231
78.231
78.231
78.231
78.231
78.231
78.231
78.231
