1777.502
1779.725
1781.949
1784.172
1786.396
1788.619
1790.843
1793.066
1795.290
1797.513
1799.737
1801.960
1804.184
1806.407
1808.631
1810.854
1813.078
1815.301
1817.525
1819.748
1821.972
1824.195
1826.419
1828.642
1830.866
1833.089
1835.313
1837.536
1839.760
1841.983
1844.207
1846.430
1848.654
1850.877
1853.101
1855.324
1857.548
1859.771
1861.995
1864.218
1866.442
1868.665
1870.889
1873.112
1875.336
1877.559
1879.783
1882.006
1884.230
1886.453
1888.677
1890.900
1893.124
1895.347
1897.571
1899.794
1902.018
1904.241
1906.465
1908.688
1910.912
1913.135
1915.359
1917.582
1919.806
1922.029
1924.253
1926.476
1928.700
1930.923
1933.147
1935.370
1937.594
1939.817
1942.041
1944.264
1946.488
1948.711
1950.935
1953.158
1955.382
1957.605
1959.829
1962.052
1964.276
1966.499
1968.723
1970.946
1973.170
1975.393
1977.617
1979.840
1982.064
1984.287
1986.511
1988.734
1990.958
1993.181
1995.405
1997.628
1999.852
2002.075
2004.299
2006.522
2008.746
2010.969
2013.193
2015.416
2017.640
2019.863
2022.087
2024.310
2026.534
2028.757
2030.981
2033.204
2035.428
2037.651
2039.875
2042.098
2044.322
2046.545
2048.769
2050.992
2053.216
2055.439
2057.663
2059.886
2062.110
2064.333
2066.557
2068.780
2071.004
2073.227
2075.451
2077.674
2079.898
2082.121
2084.345
2086.568
2088.792
2091.015
2093.239
2095.462
2097.686
2099.909
2102.133
2104.356
2106.580
2108.803
2111.027
2113.250
2115.474
2117.697
2119.921
2122.144
2124.368
2126.591
2128.815
2131.038
2133.262
2135.485
2137.709
2139.932
2139.150
2138.368
2137.586
2136.804
2136.022
2135.240
2134.458
2133.676
2132.894
2132.112
2131.330
2130.548
2129.766
2128.984
2128.202
2127.420
2126.638
2125.856
2125.074
2124.292
2123.510
2122.728
2121.946
2121.164
2120.382
2119.600
2118.818
2118.036
2117.254
2116.472
2115.690
2114.908
2114.126
2113.344
2112.562
2111.780
2110.998
2110.216
2109.434
2108.652
2107.870
2107.088
2106.306
2105.524
2104.742
2103.960
2103.178
2102.396
2101.614
2100.832
2100.050
2099.268
2098.486
2097.704
2096.922
2096.140
2095.358
2094.576
2093.794
2093.012
2092.230
2091.448
2090.666
2089.884
2089.102
2088.320
2087.538
2086.756
2085.974
2085.192
2084.410
2083.628
2082.846
2082.064
2081.282
2080.500
2079.718
2078.936
2078.154
2077.372
2076.590
2075.808
2075.026
2074.244
2073.462
2072.680
2071.898
2071.116
2070.334
2069.552
2068.770
2067.988
2067.206
2066.424
2065.642
2064.860
2064.078
2063.296
2062.514
2061.732
2060.950
2060.168
2059.386
2058.604
2057.822
2057.040
2056.258
2055.476
2054.694
2053.912
2053.130
2052.348
2051.566
2050.784
2050.002
2049.220
2048.438
2047.656
2046.874
2046.092
2045.310
2044.528
2043.746
2042.964
2042.182
2041.400
2040.618
2039.836
2039.054
2038.272
2037.490
2036.708
2035.926
2035.144
2034.362
2033.580
2032.798
2032.016
2031.234
2030.452
2029.670
2028.888
2028.106
2027.324
2026.542
2025.760
2024.978
2024.196
2023.414
2022.632
2021.850
2021.068
2020.286
2019.504
2018.722
2017.940
2017.158
2016.376
2015.594
2014.812
2014.030
2013.248
2012.466
2011.684
2010.902
2010.120
2009.338
2008.556
2007.774
2006.992
2006.210
2005.428
2004.646
2003.864
2003.082
2002.300
2001.518
2000.736
1999.954
1999.172
1998.390
1997.608
1996.826
1996.044
1995.262
1994.480
1993.698
1992.916
1992.134
1991.352
1990.570
1989.788
1989.006
1988.224
1987.442
1986.660
1985.878
1985.096
1984.314
1983.532
1982.164
1980.795
1979.427
1978.058
1976.690
1975.321
1973.953
1972.584
1971.216
1969.847
1968.479
1967.110
1965.742
1964.373
1963.005
1961.636
1960.268
1958.899
1957.531
1956.162
1954.794
1953.425
1952.057
1950.688
1949.320
1947.951
1946.583
1945.214
1943.846
1942.477
1941.109
1939.740
1938.372
1937.003
1935.635
1934.266
1932.898
1931.529
1930.161
1928.792
1927.424
1926.055
1924.687
1923.318
1921.950
1920.581
1919.213
1917.844
1916.476
1915.107
1913.739
1912.370
1911.002
1909.633
1908.265
1906.896
1905.528
1904.159
1902.791
1901.422
1900.054
1898.685
1897.317
1895.948
1894.580
1893.211
1891.843
1890.474
1889.106
1887.737
1886.369
1885.000
1883.632
1882.263
1880.895
1879.526
1878.158
1876.789
1875.421
1874.052
1872.684
1871.315
1869.947
1868.578
1867.210
1865.841
1864.473
1863.104
1861.736
1860.367
1858.999
1857.630
1856.262
1854.893
1853.525
1852.156
1850.788
1849.419
1848.051
1846.682
1845.314
1843.945
1842.577
1841.208
1839.840
1838.471
1837.103
1835.734
1834.366
1832.997
1831.629
1830.260
1828.892
1827.523
1826.155
1824.786
1823.418
1822.049
1820.681
1819.312
1817.944
1816.575
1815.207
1813.838
1812.470
1811.101
1809.733
1808.364
1806.996
1805.627
1804.259
1802.890
1801.522
1800.153
1798.785
1797.416
1796.048
1794.679
1793.311
1791.942
1790.574
1789.205
1787.837
1786.468
1785.100
1783.731
1782.363
1780.994
1779.626
1778.257
1776.889
1775.520
1774.152
1772.783
1771.415
1770.046
1768.678
1767.309
1765.941
1764.572
1763.204
1761.835
1760.467
1759.098
1757.730
1756.361
1754.993
1753.624
1752.256
1750.887
1749.519
1748.150
1746.782
1745.413
1744.045
1742.676
1741.308
1739.939
1738.571
1737.202
1735.834
1734.465
1733.097
1731.728
1730.360
1728.991
1727.623
1726.254
1724.886
1723.517
1722.149
1720.780
1719.412
1718.043
1716.675
1715.306
1713.938
1712.569
1711.201
1709.832
1711.959
1714.085
1716.212
1718.338
1720.465
1722.591
1724.718
1726.844
1728.971
1731.097
1733.224
1735.350
1737.477
1739.603
1741.730
1743.856
1745.983
1748.109
1750.236
1752.362
1754.489
1756.615
1758.742
1760.868
1762.995
1765.121
1767.248
1769.374
1771.501
1773.627
1775.754
1777.880
1780.007
1782.133
1784.260
1786.386
1788.513
1790.639
1792.766
1794.892
1797.019
1799.145
1801.272
1803.398
1805.525
1807.651
1809.778
1811.904
1814.031
1816.157
1818.284
1820.410
1822.537
1824.663
1826.790
1828.916
1831.043
1833.169
1835.296
1837.422
1839.549
1841.675
1843.802
1845.928
1848.055
1850.181
1852.308
1854.434
1856.561
1858.687
1860.814
1862.940
1865.067
1867.193
1869.320
1871.446
1873.573
1875.699
1877.826
1879.952
1882.079
1884.205
1886.332
1888.458
1890.585
1892.711
1894.838
1896.964
1899.091
1901.217
1903.344
1905.470
1907.597
1909.723
1911.850
1913.976
1916.103
1918.229
1920.356
1922.482
1924.609
1926.735
1928.862
1930.988
1933.115
1935.241
1937.368
1939.494
1941.621
1943.747
1945.874
1948.000
1950.127
1952.253
1954.380
1956.506
1958.633
1960.759
1962.886
1965.012
1967.139
1969.265
1971.392
1973.518
1975.645
1977.771
1979.898
1982.024
1984.151
1986.277
1988.404
1990.530
1992.657
1994.783
1996.910
1999.036
2001.163
2003.289
2005.416
2007.542
2009.669
2011.795
2013.922
2016.048
2018.175
2020.301
2022.428
2024.554
2026.681
2028.807
2030.934
2033.060
2035.187
2037.313
2039.440
2041.566
2043.693
2045.819
2047.946
2050.072
2052.199
2054.325
2056.452
2058.578
2060.705
2062.831
2064.958
2067.084
2069.211
2071.337
2073.464
2075.590
2077.717
2079.843
2081.970
2084.096
2086.223
2088.349
2090.476
2092.602
2094.729
2096.855
2098.982
2101.108
2103.235
2105.361
2107.488
2109.614
2111.741
2113.867
2115.994
2118.120
2120.247
2122.373
2124.500
2126.626
2128.753
2130.879
2133.006
2135.132
2131.540
2127.947
2124.355
2120.762
2117.170
2113.577
2109.985
2106.392
2102.800
2099.207
2095.615
2092.022
2088.430
2084.837
2081.245
2077.652
2074.060
2070.467
2066.875
2063.282
2059.690
2056.097
2052.505
2048.912
2045.320
2041.727
2038.135
2034.542
2030.950
2027.357
2023.765
2020.172
2016.580
2012.987
2009.395
2005.802
2002.210
1998.617
1995.025
1991.432
1987.840
1984.247
1980.655
1977.062
1973.470
1969.877
1966.285
1962.692
1959.100
1955.507
1951.915
1948.322
1944.730
1941.137
1937.545
1933.952
1930.360
1926.767
1923.175
1919.582
1915.990
1912.397
1908.805
1905.212
1901.620
1898.027
1894.435
1890.842
1887.250
1883.657
1880.065
1876.472
1872.880
1869.287
1865.695
1862.102
1858.510
1854.917
1851.325
1847.732
1844.140
1840.547
1836.955
1833.362
1829.770
1826.177
1822.585
1818.992
1815.400
1811.807
1808.215
1804.622
1801.030
1797.437
1793.845
1790.252
1786.660
1783.067
1779.475
1775.882
1772.290
1768.697
1765.105
1761.512
1757.920
1754.327
1750.735
1747.142
1743.550
1739.957
1736.365
1732.772
1729.180
1725.587
1721.995
1718.402
1714.810
1711.217
1707.625
1704.032
1700.440
1696.847
1693.255
1689.662
1686.070
1682.477
1678.885
1675.292
1671.700
1668.107
1664.515
1660.922
1657.330
1653.737
1650.145
1646.552
1642.960
1639.367
1635.775
1632.182
1628.590
1624.997
1621.405
1617.812
1614.220
1610.627
1607.035
1603.442
1599.850
1596.257
1592.665
1589.072
1585.480
1581.887
1578.295
1574.702
1571.110
1567.517
1563.925
1560.332
1556.740
1553.147
1549.555
1545.962
1542.370
1538.777
1535.185
1531.592
1528.000
1524.407
1520.815
1517.222
1513.630
1510.037
1506.445
1502.852
1499.260
1495.667
1492.075
1488.482
1484.890
1481.297
1477.705
1474.112
1470.520
1466.927
1463.335
1459.742
1456.150
1452.557
1448.965
1445.372
1441.780
1438.187
1434.595
1431.002
1427.410
1423.817
1420.225
1416.632
1416.950
1417.267
1417.585
1417.902
1418.220
1418.537
1418.855
1419.172
1419.490
1419.807
1420.125
1420.442
1420.760
1421.077
1421.395
1421.712
1422.030
1422.347
1422.665
1422.982
1423.300
1423.617
1423.935
1424.252
1424.570
1424.887
1425.205
1425.522
1425.840
1426.157
1426.475
1426.792
1427.110
1427.427
1427.745
1428.062
1428.380
1428.697
1429.015
1429.332
1429.650
1429.967
1430.285
1430.602
1430.920
1431.237
1431.555
1431.872
1432.190
1432.507
1432.825
1433.142
1433.460
1433.777
1434.095
1434.412
1434.730
1435.047
1435.365
1435.682
1436.000
1436.317
1436.635
1436.952
1437.270
1437.587
1437.905
1438.222
1438.540
1438.857
1439.175
1439.492
1439.810
1440.127
1440.445
1440.762
1441.080
1441.397
1441.715
1442.032
1442.350
1442.667
1442.985
1443.302
1443.620
1443.937
1444.255
1444.572
1444.890
1445.207
1445.525
1445.842
1446.160
1446.477
1446.795
1447.112
1447.430
1447.747
1448.065
1448.382
1448.700
1449.017
1449.335
1449.652
1449.970
1450.287
1450.605
1450.922
1451.240
1451.557
1451.875
1452.192
1452.510
1452.827
1453.145
1453.462
1453.780
1454.097
1454.415
1454.732
1455.050
1455.367
1455.685
1456.002
1456.320
1456.637
1456.955
1457.272
1457.590
1457.907
1458.225
1458.542
1458.860
1459.177
1459.495
1459.812
1460.130
1460.447
1460.765
1461.082
1461.400
1461.717
1462.035
1462.352
1462.670
1462.987
1463.305
1463.622
1463.940
1464.257
1464.575
1464.892
1465.210
1465.527
1465.845
1466.162
1466.480
1466.797
1467.115
1467.432
1467.750
1468.067
1468.385
1468.702
1469.020
1469.337
1469.655
1469.972
1470.290
1470.607
1470.925
1471.242
1471.560
1471.877
1472.195
1472.512
1472.830
1473.147
1473.465
1473.782
1474.100
1474.417
1474.735
1475.052
1475.370
1475.687
1476.005
1476.322
1476.640
1476.957
1477.275
1477.592
1477.910
1478.227
1478.545
1478.862
1479.180
1479.497
1479.815
1480.132
1474.878
1469.624
1464.370
1459.116
1453.862
1448.608
1443.354
1438.100
1432.846
1427.592
1422.338
1417.084
1411.830
1406.576
1401.322
1396.068
1390.814
1385.560
1380.306
1375.052
1369.798
1364.544
1359.290
1354.036
1348.782
1343.528
1338.274
1333.020
1327.766
1322.512
1317.258
1312.004
1306.750
1301.496
1296.242
1290.988
1285.734
1280.480
1275.226
1269.972
1264.718
1259.464
1254.210
1248.956
1243.702
1238.448
1233.194
1227.940
1222.686
1217.432
1212.178
1206.924
1201.670
1196.416
1191.162
1185.908
1180.654
1175.400
1170.146
1164.892
1159.638
1154.384
1149.130
1143.876
1138.622
1133.368
1128.114
1122.860
1117.606
1112.352
1107.098
1101.844
1096.590
1091.336
1086.082
1080.828
1075.574
1070.320
1065.066
1059.812
1054.558
1049.304
1044.050
1038.796
1033.542
1028.288
1023.034
1017.780
1012.526
1007.272
1002.018
996.764
991.510
986.256
981.002
975.748
970.494
965.240
959.986
954.732
949.478
944.224
938.970
933.716
928.462
923.208
917.954
912.700
907.446
902.192
896.938
891.684
886.430
881.176
875.922
870.668
865.414
860.160
854.906
849.652
844.398
839.144
833.890
828.636
823.382
818.128
812.874
807.620
802.366
797.112
791.858
786.604
781.350
776.096
770.842
765.588
760.334
755.080
749.826
744.572
739.318
734.064
728.810
723.556
718.302
713.048
707.794
702.540
697.286
692.032
686.778
681.524
676.270
671.016
665.762
660.508
655.254
650.000
644.746
639.492
634.238
628.984
623.730
618.476
613.222
607.968
602.714
597.460
592.206
586.952
581.698
576.444
571.190
565.936
560.682
555.428
550.174
544.920
539.666
534.412
529.158
523.904
518.650
513.396
508.142
502.888
497.634
492.380
487.126
481.872
476.618
471.364
466.110
460.856
455.602
450.348
445.094
439.840
434.586
429.332
428.013
426.693
425.374
424.054
422.735
421.415
420.096
418.776
417.457
416.137
414.818
413.498
412.179
410.859
409.540
408.220
406.901
405.581
404.262
402.942
401.623
400.303
398.984
397.664
396.345
395.025
393.706
392.386
391.067
389.747
388.428
387.108
385.789
384.469
383.150
381.830
380.511
379.191
377.872
376.552
375.233
373.913
372.594
371.274
369.955
368.635
367.316
365.996
364.677
363.357
362.038
360.718
359.399
358.079
356.760
355.440
354.121
352.801
351.482
350.162
348.843
347.523
346.204
344.884
343.565
342.245
340.926
339.606
338.287
336.967
335.648
334.328
333.009
331.689
330.370
329.050
327.731
326.411
325.092
323.772
322.453
321.133
319.814
318.494
317.175
315.855
314.536
313.216
311.897
310.577
309.258
307.938
306.619
305.299
303.980
302.660
301.341
300.021
298.702
297.382
296.063
294.743
293.424
292.104
290.785
289.465
288.146
286.826
285.507
284.187
282.868
281.548
280.229
278.909
277.590
276.270
274.951
273.631
272.312
270.992
269.673
268.353
267.034
265.714
264.395
263.075
261.756
260.436
259.117
257.797
256.478
255.158
253.839
252.519
251.200
249.880
248.561
247.241
245.922
244.602
243.283
241.963
240.644
239.324
238.005
236.685
235.366
234.046
232.727
231.407
230.088
228.768
227.449
226.129
224.810
223.490
222.171
220.851
219.532
218.212
216.893
215.573
214.254
212.934
211.615
210.295
208.976
207.656
206.337
205.017
203.698
202.378
201.059
199.739
198.420
197.100
195.781
194.461
193.142
191.822
190.503
189.183
187.864
186.544
185.225
183.905
182.586
181.266
179.947
178.627
177.308
175.988
174.669
173.349
172.030
170.710
169.391
168.071
166.752
87.232
87.232
87.232
87.232
87.232
87.232
87.232
87.232
87.232
87.232
87.232
87.232
87.232
87.232
87.232
87.232
87.232
87.232
87.232
87.232
87.232
87.232
87.232
87.232
87.232
87.232
87.232
87.232
87.232
87.232
87.232
87.232
87.232
87.232
87.232
87.232
87.232
87.232
87.232
87.232
87.232
87.232
87.232
87.232
87.232
87.232
87.232
87.232
87.232
87.232
87.232
87.232
87.232
87.232
87.232
87.232
87.232
87.232
87.232
87.232
87.232
87.232
87.232
87.232
87.232
87.232
87.232
87.232
87.232
87.232
87.232
87.232
87.232
87.232
87.232
87.232
87.232
87.232
87.232
87.232
87.232
87.232
87.232
87.232
87.232
87.232
87.232
87.232
87.232
87.232
87.232
87.232
87.232
87.232
87.232
87.232
87.232
87.232
87.232
87.232
87.232
87.232
87.232
87.232
87.232
87.232
87.232
87.232
87.232
87.232
87.232
87.232
87.232
87.232
87.232
87.232
87.232
87.232
87.232
87.232
87.232
87.232
87.232
87.232
87.232
87.232
87.232
87.232
87.232
87.232
87.232
87.232
87.232
87.232
87.232
87.232
87.232
87.232
87.232
87.232
87.232
87.232
87.232
87.232
87.232
87.232
87.232
87.232
87.232
87.232
87.232
87.232
87.232
87.232
87.232
87.232
87.232
87.232
87.232
87.232
87.232
87.232
87.232
87.232
87.232
87.232
87.232
87.232
87.232
87.232
87.232
87.232
87.232
87.232
87.232
87.232
87.232
87.232
87.232
87.232
87.232
87.232
87.232
87.232
87.232
87.232
87.232
87.232
87.232
87.232
87.232
87.232
87.232
87.232
87.232
87.232
87.232
87.232
87.232
87.232
87.232
87.232
87.232
87.232
87.232
87.232
87.232
87.232
87.232
87.232
87.232
87.232
87.232
87.232
87.232
87.232
87.232
87.232
87.232
87.232
87.232
87.232
87.232
87.232
87.232
87.232
87.232
87.232
87.232
87.232
87.232
87.232
87.232
87.232
87.232
87.232
87.232
87.232
87.232
87.232
87.232
87.232
87.232
87.232
87.232
87.232
87.232
87.232
87.232
87.232
87.232
87.232
87.232
87.232
87.232
87.232
87.232
87.232
87.232
87.232
87.232
87.232
87.232
87.232
87.232
87.232
87.232
87.232
87.232
87.232
87.232
87.232
87.232
87.232
87.232
87.232
87.232
87.232
87.232
87.232
87.232
87.232
87.232
87.232
87.232
87.232
87.232
87.232
87.232
87.232
87.232
87.232
87.232
87.232
87.232
87.232
87.232
87.232
87.232
87.232
87.232
87.232
87.232
87.232
87.232
87.232
87.232
87.232
87.232
87.232
87.232
87.232
87.232
87.232
87.232
87.232
87.232
87.232
87.232
87.232
87.232
87.232
87.232
87.232
87.232
87.232
87.232
87.232
87.232
87.232
87.232
87.232
87.232
87.232
87.232
87.232
87.232
87.232
87.232
87.232
87.232
87.232
87.232
87.232
87.232
87.232
87.232
87.232
87.232
87.232
87.232
87.232
87.232
87.232
87.232
87.232
87.232
87.232
87.232
87.232
87.232
87.232
87.232
87.232
87.232
87.232
87.232
87.232
87.232
87.232
87.232
87.232
87.232
87.232
87.232
87.232
87.232
87.232
87.232
87.232
87.232
87.232
87.232
87.232
87.232
87.232
87.232
87.232
87.232
87.232
87.232
87.232
87.232
87.232
87.232
87.232
87.232
87.232
87.232
87.232
87.232
87.232
87.232
87.232
87.232
87.232
87.232
87.232
87.232
87.232
87.232
87.232
87.232
87.232
87.232
87.232
87.232
87.232
87.232
87.232
87.232
87.232
87.232
87.232
87.232
87.232
87.232
87.232
87.232
87.232
87.232
87.232
87.232
87.232
87.232
87.232
87.232
