1779.719
1781.747
1783.775
1785.803
1787.831
1789.859
1791.887
1793.915
1795.943
1797.971
1799.999
1802.027
1804.055
1806.083
1808.111
1810.139
1812.167
1814.195
1816.223
1818.251
1820.279
1822.307
1824.335
1826.363
1828.391
1830.419
1832.447
1834.475
1836.503
1838.531
1840.559
1842.587
1844.615
1846.643
1848.671
1850.699
1852.727
1854.755
1856.783
1858.811
1860.839
1862.867
1864.895
1866.923
1868.951
1870.979
1873.007
1875.035
1877.063
1879.091
1881.119
1883.147
1885.175
1887.203
1889.231
1891.259
1893.287
1895.315
1897.343
1899.371
1901.399
1903.427
1905.455
1905.479
1905.504
1905.528
1905.553
1905.577
1905.602
1905.626
1905.651
1905.675
1905.700
1905.724
1905.749
1905.773
1905.798
1905.822
1905.847
1905.871
1905.896
1905.920
1905.945
1905.969
1905.994
1906.018
1906.043
1906.067
1906.092
1906.116
1906.141
1906.165
1906.190
1906.214
1906.239
1906.263
1906.288
1906.312
1906.337
1906.361
1906.386
1906.410
1906.435
1906.459
1906.484
1906.508
1906.533
1906.557
1906.582
1906.606
1906.631
1906.655
1906.680
1906.704
1906.729
1906.753
1906.778
1906.802
1906.827
1906.851
1906.876
1906.900
1906.925
1906.949
1906.974
1906.998
1907.023
1907.047
1907.072
1907.096
1907.121
1907.145
1907.170
1907.194
1907.219
1907.243
1907.268
1907.292
1907.317
1907.341
1907.366
1907.390
1907.415
1907.439
1907.464
1907.488
1907.513
1907.537
1907.562
1907.586
1907.611
1907.635
1907.660
1907.684
1907.709
1907.733
1907.758
1907.782
1907.807
1907.831
1907.856
1907.880
1907.905
1907.929
1907.954
1907.978
1908.003
1908.027
1908.052
1908.076
1908.101
1908.125
1908.150
1908.174
1908.199
1908.223
1908.248
1908.272
1908.297
1908.321
1908.346
1908.370
1908.395
1908.419
1908.444
1908.468
1908.493
1908.517
1908.542
1908.566
1908.591
1908.615
1908.640
1908.664
1908.689
1908.713
1908.738
1908.762
1908.787
1908.811
1908.836
1908.860
1908.885
1908.909
1908.934
1908.958
1908.983
1909.007
1909.032
1909.056
1909.081
1909.105
1909.130
1909.154
1909.179
1909.203
1909.228
1909.252
1909.277
1909.301
1909.326
1909.350
1909.375
1909.399
1909.424
1909.448
1909.473
1909.497
1909.522
1909.546
1909.571
1909.595
1909.620
1909.644
1909.669
1909.693
1909.718
1909.742
1909.767
1909.791
1909.816
1909.840
1909.865
1909.889
1909.914
1909.938
1909.963
1909.987
1910.012
1910.036
1910.061
1910.085
1910.110
1910.134
1910.159
1910.183
1910.208
1910.232
1910.257
1910.281
1910.306
1910.330
1910.355
1911.821
1913.288
1914.754
1916.221
1917.687
1919.154
1920.620
1922.087
1923.553
1925.020
1926.486
1927.953
1929.419
1930.886
1932.352
1933.819
1935.285
1936.752
1938.218
1939.685
1941.151
1942.618
1944.084
1945.551
1947.017
1948.484
1949.950
1951.417
1952.883
1954.350
1955.816
1957.283
1958.749
1960.216
1961.682
1963.149
1964.615
1966.082
1967.548
1969.015
1970.481
1971.948
1973.414
1974.881
1976.347
1977.814
1979.280
1980.747
1982.213
1983.680
1985.146
1986.613
1988.079
1989.546
1991.012
1992.479
1993.945
1995.412
1996.878
1998.345
1999.811
2001.278
2002.744
2004.211
2005.677
2007.144
2008.610
2010.077
2011.543
2013.010
2014.476
2015.943
2017.409
2018.876
2020.342
2021.809
2023.275
2024.742
2026.208
2027.675
2029.141
2030.608
2032.074
2033.541
2035.007
2036.474
2037.940
2039.407
2040.873
2042.340
2043.806
2045.273
2046.739
2048.206
2049.672
2051.139
2052.605
2054.072
2055.538
2057.005
2058.471
2059.938
2061.404
2062.871
2064.337
2065.804
2067.270
2068.737
2070.203
2071.670
2073.136
2074.603
2076.069
2077.536
2079.002
2080.469
2081.935
2083.402
2084.868
2086.335
2087.801
2089.268
2090.734
2092.201
2093.667
2095.134
2096.600
2098.067
2099.533
2101.000
2102.466
2103.933
2105.399
2106.866
2108.332
2109.799
2111.265
2112.732
2114.198
2115.665
2117.131
2118.598
2120.064
2121.531
2122.997
2124.464
2125.930
2127.397
2128.863
2130.330
2131.796
2133.263
2134.729
2136.196
2137.662
2139.129
2140.595
2142.062
2143.528
2144.995
2146.461
2147.928
2149.394
2150.861
2152.327
2153.794
2155.260
2156.727
2158.193
2159.660
2161.126
2162.593
2164.059
2165.526
2166.992
2168.459
2169.925
2171.392
2172.858
2174.325
2175.791
2177.258
2178.724
2180.191
2181.657
2183.124
2184.590
2186.057
2187.523
2188.990
2190.456
2191.923
2193.389
2194.856
2196.322
2197.789
2199.255
2200.722
2202.188
2203.655
2203.703
2203.752
2203.800
2203.849
2203.897
2203.946
2203.994
2204.043
2204.091
2204.140
2204.188
2204.237
2204.285
2204.334
2204.382
2204.431
2204.479
2204.528
2204.576
2204.625
2204.673
2204.722
2204.770
2204.819
2204.867
2204.916
2204.964
2205.013
2205.061
2205.110
2205.158
2205.207
2205.255
2205.304
2205.352
2205.401
2205.449
2205.498
2205.546
2205.595
2205.643
2205.692
2205.740
2205.789
2205.837
2205.886
2205.934
2205.983
2206.031
2206.080
2206.128
2206.177
2206.225
2206.274
2206.322
2206.371
2206.419
2206.468
2206.516
2206.565
2206.613
2206.662
2206.710
2206.759
2206.807
2206.856
2206.904
2206.953
2207.001
2207.050
2207.098
2207.147
2207.195
2207.244
2207.292
2207.341
2207.389
2207.438
2207.486
2207.535
2207.583
2207.632
2207.680
2207.729
2207.777
2207.826
2207.874
2207.923
2207.971
2208.020
2208.068
2208.117
2208.165
2208.214
2208.262
2208.311
2208.359
2208.408
2208.456
2208.505
2208.553
2208.602
2208.650
2208.699
2208.747
2208.796
2208.844
2208.893
2208.941
2208.990
2209.038
2209.087
2209.135
2209.184
2209.232
2209.281
2209.329
2209.378
2209.426
2209.475
2209.523
2209.572
2209.620
2209.669
2209.717
2209.766
2209.814
2209.863
2209.911
2209.960
2210.008
2210.057
2210.105
2210.154
2210.202
2210.251
2210.299
2210.348
2210.396
2210.445
2210.493
2210.542
2210.590
2210.639
2210.687
2210.736
2210.784
2210.833
2210.881
2210.930
2210.978
2211.027
2211.075
2211.124
2211.172
2211.221
2211.269
2211.318
2211.366
2211.415
2211.463
2211.512
2211.560
2211.609
2211.657
2211.706
2211.754
2211.803
2211.851
2211.900
2211.948
2211.997
2212.045
2212.094
2212.142
2212.191
2212.239
2212.288
2212.336
2212.385
2212.433
2212.482
2212.530
2212.579
2212.627
2212.676
2212.724
2212.773
2212.821
2212.870
2212.918
2212.967
2213.015
2213.064
2213.112
2213.161
2213.209
2213.258
2213.306
2213.355
2213.331
2213.307
2213.283
2213.259
2213.235
2213.211
2213.187
2213.163
2213.139
2213.115
2213.091
2213.067
2213.043
2213.019
2212.995
2212.971
2212.947
2212.923
2212.899
2212.875
2212.851
2212.827
2212.803
2212.779
2212.755
2212.731
2212.707
2212.683
2212.659
2212.635
2212.611
2212.587
2212.563
2212.539
2212.515
2212.491
2212.467
2212.443
2212.419
2212.395
2212.371
2212.347
2212.323
2212.299
2212.275
2212.251
2212.227
2212.203
2212.179
2212.155
2212.131
2212.107
2212.083
2212.059
2212.035
2212.011
2211.987
2211.963
2211.939
2211.915
2211.891
2211.867
2211.843
2211.819
2211.795
2211.771
2211.747
2211.723
2211.699
2211.675
2211.651
2211.627
2211.603
2211.579
2211.555
2211.531
2211.507
2211.483
2211.459
2211.435
2211.411
2211.387
2211.363
2211.339
2211.315
2211.291
2211.267
2211.243
2211.219
2211.195
2211.171
2211.147
2211.123
2211.099
2211.075
2211.051
2211.027
2211.003
2210.979
2210.955
2210.931
2210.907
2210.883
2210.859
2210.835
2210.811
2210.787
2210.763
2210.739
2210.715
2210.691
2210.667
2210.643
2210.619
2210.595
2210.571
2210.547
2210.523
2210.499
2210.475
2210.451
2210.427
2210.403
2210.379
2210.355
2210.331
2210.307
2210.283
2210.259
2210.235
2210.211
2210.187
2210.163
2210.139
2210.115
2210.091
2210.067
2210.043
2210.019
2209.995
2209.971
2209.947
2209.923
2209.899
2209.875
2209.851
2209.827
2209.803
2209.779
2209.755
2209.731
2209.707
2209.683
2209.659
2209.635
2209.611
2209.587
2209.563
2209.539
2209.515
2209.491
2209.467
2209.443
2209.419
2209.395
2209.371
2209.347
2209.323
2209.299
2209.275
2209.251
2209.227
2209.203
2209.179
2209.155
2209.131
2209.107
2209.083
2209.059
2209.035
2209.011
2208.987
2208.963
2208.939
2208.915
2208.891
2208.867
2208.843
2208.819
2208.795
2208.771
2208.747
2208.723
2208.699
2208.675
2208.651
2208.627
2208.603
2208.579
2208.555
2209.239
2209.923
2210.607
2211.291
2211.975
2212.659
2213.343
2214.027
2214.711
2215.395
2216.079
2216.763
2217.447
2218.131
2218.815
2219.499
2220.183
2220.867
2221.551
2222.235
2222.919
2223.603
2224.287
2224.971
2225.655
2226.339
2227.023
2227.707
2228.391
2229.075
2229.759
2230.443
2231.127
2231.811
2232.495
2233.179
2233.863
2234.547
2235.231
2235.915
2236.599
2237.283
2237.967
2238.651
2239.335
2240.019
2240.703
2241.387
2242.071
2242.755
2243.439
2244.123
2244.807
2245.491
2246.175
2246.859
2247.543
2248.227
2248.911
2249.595
2250.279
2250.963
2251.647
2252.331
2253.015
2253.699
2254.383
2255.067
2255.751
2256.435
2257.119
2257.803
2258.487
2259.171
2259.855
2260.539
2261.223
2261.907
2262.591
2263.275
2263.959
2264.643
2265.327
2266.011
2266.695
2267.379
2268.063
2268.747
2269.431
2270.115
2270.799
2271.483
2272.167
2272.851
2273.535
2274.219
2274.903
2275.587
2276.271
2276.955
2277.639
2278.323
2279.007
2279.691
2280.375
2281.059
2281.743
2282.427
2283.111
2283.795
2284.479
2285.163
2285.847
2286.531
2287.215
2287.899
2288.583
2289.267
2289.951
2290.635
2291.319
2292.003
2292.687
2293.371
2294.055
2294.739
2295.423
2296.107
2296.791
2297.475
2298.159
2298.843
2299.527
2300.211
2300.895
2301.579
2302.263
2302.947
2303.631
2304.315
2304.999
2305.683
2306.367
2307.051
2307.735
2308.419
2309.103
2309.787
2310.471
2311.155
2311.839
2312.523
2313.207
2313.891
2314.575
2315.259
2315.943
2316.627
2317.311
2317.995
2318.679
2319.363
2320.047
2320.731
2321.415
2322.099
2322.783
2323.467
2324.151
2324.835
2325.519
2326.203
2326.887
2327.571
2328.255
2328.939
2329.623
2330.307
2330.991
2331.675
2332.359
2333.043
2333.727
2334.411
2335.095
2335.779
2336.463
2337.147
2337.831
2338.515
2339.199
2339.883
2340.567
2341.251
2341.935
2342.619
2343.303
2343.987
2344.671
2345.355
2343.962
2342.569
2341.176
2339.783
2338.390
2336.997
2335.604
2334.211
2332.818
2331.425
2330.032
2328.639
2327.246
2325.853
2324.460
2323.067
2321.674
2320.281
2318.888
2317.495
2316.102
2314.709
2313.316
2311.923
2310.530
2309.137
2307.744
2306.351
2304.958
2303.565
2302.172
2300.779
2299.386
2297.993
2296.600
2295.207
2293.814
2292.421
2291.028
2289.635
2288.242
2286.849
2285.456
2284.063
2282.670
2281.277
2279.884
2278.491
2277.098
2275.705
2274.312
2272.919
2271.526
2270.133
2268.740
2267.347
2265.954
2264.561
2263.168
2261.775
2260.382
2258.989
2257.596
2256.203
2254.810
2253.417
2252.024
2250.631
2249.238
2247.845
2246.452
2245.059
2243.666
2242.273
2240.880
2239.487
2238.094
2236.701
2235.308
2233.915
2232.522
2231.129
2229.736
2228.343
2226.950
2225.557
2224.164
2222.771
2221.378
2219.985
2218.592
2217.199
2215.806
2214.413
2213.020
2211.627
2210.234
2208.841
2207.448
2206.055
2204.662
2203.269
2201.876
2200.483
2199.090
2197.697
2196.304
2194.911
2193.518
2192.125
2190.732
2189.339
2187.946
2186.553
2185.160
2183.767
2182.374
2180.981
2179.588
2178.195
2176.802
2175.409
2174.016
2172.623
2171.230
2169.837
2168.444
2167.051
2165.658
2164.265
2162.872
2161.479
2160.086
2158.693
2157.300
2155.907
2154.514
2153.121
2151.728
2150.335
2148.942
2147.549
2146.156
2144.763
2143.370
2141.977
2140.584
2139.191
2137.798
2136.405
2135.012
2133.619
2132.226
2130.833
2129.440
2128.047
2126.654
2125.261
2123.868
2122.475
2121.082
2119.689
2118.296
2116.903
2115.510
2114.117
2112.724
2111.331
2109.938
2108.545
2107.152
2105.759
2104.366
2102.973
2101.580
2100.187
2098.794
2097.401
2096.008
2094.615
2093.222
2091.829
2090.436
2089.043
2087.650
2086.257
2084.864
2083.471
2082.078
2080.685
2079.292
2077.899
2076.506
2075.113
2073.720
2072.327
2070.934
2069.541
2068.148
2066.755
2066.462
2066.169
2065.876
2065.583
2065.290
2064.997
2064.704
2064.411
2064.118
2063.825
2063.532
2063.239
2062.946
2062.653
2062.360
2062.067
2061.774
2061.481
2061.188
2060.895
2060.602
2060.309
2060.016
2059.723
2059.430
2059.137
2058.844
2058.551
2058.258
2057.965
2057.672
2057.379
2057.086
2056.793
2056.500
2056.207
2055.914
2055.621
2055.328
2055.035
2054.742
2054.449
2054.156
2053.863
2053.570
2053.277
2052.984
2052.691
2052.398
2052.105
2051.812
2051.519
2051.226
2050.933
2050.640
2050.347
2050.054
2049.761
2049.468
2049.175
2048.882
2048.589
2048.296
2048.003
2047.710
2047.417
2047.124
2046.831
2046.538
2046.245
2045.952
2045.659
2045.366
2045.073
2044.780
2044.487
2044.194
2043.901
2043.608
2043.315
2043.022
2042.729
2042.436
2042.143
2041.850
2041.557
2041.264
2040.971
2040.678
2040.385
2040.092
2039.799
2039.506
2039.213
2038.920
2038.627
2038.334
2038.041
2037.748
2037.455
2037.162
2036.869
2036.576
2036.283
2035.990
2035.697
2035.404
2035.111
2034.818
2034.525
2034.232
2033.939
2033.646
2033.353
2033.060
2032.767
2032.474
2032.181
2031.888
2031.595
2031.302
2031.009
2030.716
2030.423
2030.130
2029.837
2029.544
2029.251
2028.958
2028.665
2028.372
2028.079
2027.786
2027.493
2027.200
2026.907
2026.614
2026.321
2026.028
2025.735
2025.442
2025.149
2024.856
2024.563
2024.270
2023.977
2023.684
2023.391
2023.098
2022.805
2022.512
2022.219
2021.926
2021.633
2021.340
2021.047
2020.754
2020.461
2020.168
2019.875
2019.582
2019.289
2018.996
2018.703
2018.410
2018.117
2017.824
2017.531
2017.238
2016.945
2016.652
2016.359
2016.066
2015.773
2015.480
2015.187
2014.894
2014.601
2014.308
2014.015
2013.722
2013.429
2013.136
2012.843
2012.550
2012.257
2011.964
2011.671
2011.378
2011.085
2010.792
2010.499
2010.206
2009.913
2009.620
2009.327
2009.034
2008.741
2008.448
2008.155
2000.481
1992.808
1985.134
1977.461
1969.787
1962.114
1954.440
1946.767
1939.093
1931.420
1923.746
1916.073
1908.399
1900.726
1893.052
1885.379
1877.705
1870.032
1862.358
1854.685
1847.011
1839.338
1831.664
1823.991
1816.317
1808.644
1800.970
1793.297
1785.623
1777.950
1770.276
1762.603
1754.929
1747.256
1739.582
1731.909
1724.235
1716.562
1708.888
1701.215
1693.541
1685.868
1678.194
1670.521
1662.847
1655.174
1647.500
1639.827
1632.153
1624.480
1616.806
1609.133
1601.459
1593.786
1586.112
1578.439
1570.765
1563.092
1555.418
1547.745
1540.071
1532.398
1524.724
1517.051
1509.377
1501.704
1494.030
1486.357
1478.683
1471.010
1463.336
1455.663
1447.989
1440.316
1432.642
1424.969
1417.295
1409.622
1401.948
1394.275
1386.601
1378.928
1371.254
1363.581
1355.907
1348.234
1340.560
1332.887
1325.213
1317.540
1309.866
1302.193
1294.519
1286.846
1279.172
1271.499
1263.825
1256.152
1248.478
1240.805
1233.131
1225.458
1217.784
1210.111
1202.437
1194.764
1187.090
1179.417
1171.743
1164.070
1156.396
1148.723
1141.049
1133.376
1125.702
1118.029
1110.355
1102.682
1095.008
1087.335
1079.661
1071.988
1064.314
1056.641
1048.967
1041.294
1033.620
1025.947
1018.273
1010.600
1002.926
995.253
987.579
979.906
972.232
964.559
956.885
949.212
941.538
933.865
926.191
918.518
910.844
903.171
895.497
887.824
880.150
872.477
864.803
857.130
849.456
841.783
834.109
826.436
818.762
811.089
803.415
795.742
788.068
780.395
772.721
765.048
757.374
749.701
742.027
734.354
726.680
719.007
711.333
703.660
695.986
688.313
680.639
672.966
665.292
657.619
649.945
642.272
634.598
626.925
619.251
611.578
603.904
596.231
588.557
580.884
573.210
565.537
557.863
550.190
542.516
534.843
527.169
519.496
511.822
504.149
496.475
488.802
481.128
473.455
472.306
471.157
470.008
468.859
467.710
466.561
465.412
464.263
463.114
461.965
460.816
459.667
458.518
457.369
456.220
455.071
453.922
452.773
451.624
450.475
449.326
448.177
447.028
445.879
444.730
443.581
442.432
441.283
440.134
438.985
437.836
436.687
435.538
434.389
433.240
432.091
430.942
429.793
428.644
427.495
426.346
425.197
424.048
422.899
421.750
420.601
419.452
418.303
417.154
416.005
414.856
413.707
412.558
411.409
410.260
409.111
407.962
406.813
405.664
404.515
403.366
402.217
401.068
399.919
398.770
397.621
396.472
395.323
394.174
393.025
391.876
390.727
389.578
388.429
387.280
386.131
384.982
383.833
382.684
381.535
380.386
379.237
378.088
376.939
375.790
374.641
373.492
372.343
371.194
370.045
368.896
367.747
366.598
365.449
364.300
363.151
362.002
360.853
359.704
358.555
357.406
356.257
355.108
353.959
352.810
351.661
350.512
349.363
348.214
347.065
345.916
344.767
343.618
342.469
341.320
340.171
339.022
337.873
336.724
335.575
334.426
333.277
332.128
330.979
329.830
328.681
327.532
326.383
325.234
324.085
322.936
321.787
320.638
319.489
318.340
317.191
316.042
314.893
313.744
312.595
311.446
310.297
309.148
307.999
306.850
305.701
304.552
303.403
302.254
301.105
299.956
298.807
297.658
296.509
295.360
294.211
293.062
291.913
290.764
289.615
288.466
287.317
286.168
285.019
283.870
282.721
281.572
280.423
279.274
278.125
276.976
275.827
274.678
273.529
272.380
271.231
270.082
268.933
267.784
266.635
265.486
264.337
263.188
262.039
260.890
259.741
258.592
257.443
256.294
255.145
253.996
252.847
251.698
250.549
249.400
248.251
247.102
245.953
244.804
87.255
87.206
87.158
87.109
87.061
87.012
86.964
86.915
86.867
86.818
86.770
86.721
86.673
86.624
86.576
86.527
86.479
86.430
86.382
86.333
86.285
86.236
86.188
86.139
86.091
86.042
85.994
85.945
85.897
85.848
85.800
85.751
85.703
85.654
85.606
85.557
85.509
85.460
85.412
85.363
85.315
85.266
85.218
85.169
85.121
85.072
85.024
84.975
84.927
84.878
84.830
84.781
84.733
84.684
84.636
84.587
84.539
84.490
84.442
84.393
84.345
84.296
84.248
84.199
84.151
84.102
84.054
84.005
83.957
83.908
83.860
83.811
83.763
83.714
83.666
83.617
83.569
83.520
83.472
83.423
83.375
83.326
83.278
83.229
83.181
83.132
83.084
83.035
82.987
82.938
82.890
82.841
82.793
82.744
82.696
82.647
82.599
82.550
82.502
82.453
82.405
82.356
82.308
82.259
82.211
82.162
82.114
82.065
82.017
81.968
81.920
81.871
81.823
81.774
81.726
81.677
81.629
81.580
81.532
81.483
81.435
81.386
81.338
81.289
81.241
81.192
81.144
81.095
81.047
80.998
80.950
80.901
80.853
80.804
80.756
80.707
80.659
80.610
