1923.703
1926.024
1928.346
1930.667
1932.989
1935.310
1937.632
1939.953
1942.275
1944.596
1946.918
1949.239
1951.561
1953.882
1956.204
1958.525
1960.847
1963.168
1965.490
1967.811
1970.133
1972.454
1974.776
1977.097
1979.419
1981.740
1984.062
1986.383
1988.705
1991.026
1993.348
1995.669
1997.991
2000.312
2002.634
2004.955
2007.277
2009.598
2011.920
2014.241
2016.563
2018.884
2021.206
2023.527
2025.849
2028.170
2030.492
2032.813
2035.135
2037.456
2039.778
2042.099
2044.421
2046.742
2049.064
2051.385
2053.707
2056.028
2058.350
2060.671
2062.993
2065.314
2067.636
2069.957
2072.279
2074.600
2076.922
2079.243
2081.565
2083.886
2086.208
2088.529
2090.851
2093.172
2095.494
2097.815
2100.137
2102.458
2104.780
2107.101
2109.423
2111.744
2114.066
2116.387
2118.709
2121.030
2123.352
2125.673
2127.995
2130.316
2132.638
2134.959
2137.281
2139.602
2141.924
2144.245
2146.567
2148.888
2151.210
2153.531
2155.853
2158.174
2160.496
2162.817
2165.139
2167.460
2169.782
2172.103
2174.425
2176.746
2179.068
2181.389
2183.711
2186.032
2188.354
2190.675
2192.997
2195.318
2197.640
2199.961
2202.283
2204.604
2206.926
2209.247
2211.569
2213.890
2216.212
2218.533
2220.855
2223.176
2225.498
2227.819
2230.141
2232.462
2234.784
2237.105
2239.427
2241.748
2244.070
2246.391
2248.713
2251.034
2253.356
2255.677
2257.999
2260.320
2262.642
2264.963
2267.285
2269.606
2271.928
2274.249
2276.571
2278.892
2281.214
2283.535
2285.857
2288.178
2290.500
2292.821
2295.143
2297.464
2299.786
2302.107
2304.429
2306.750
2309.072
2311.393
2313.715
2316.036
2318.358
2320.679
2323.001
2325.322
2327.644
2329.965
2332.287
2332.189
2332.092
2331.994
2331.897
2331.799
2331.702
2331.604
2331.507
2331.409
2331.312
2331.214
2331.117
2331.019
2330.922
2330.824
2330.727
2330.629
2330.532
2330.434
2330.337
2330.239
2330.142
2330.044
2329.947
2329.849
2329.752
2329.654
2329.557
2329.459
2329.362
2329.264
2329.167
2329.069
2328.972
2328.874
2328.777
2328.679
2328.582
2328.484
2328.387
2328.289
2328.192
2328.094
2327.997
2327.899
2327.802
2327.704
2327.607
2327.509
2327.412
2327.314
2327.217
2327.119
2327.022
2326.924
2326.827
2326.729
2326.632
2326.534
2326.437
2326.339
2326.242
2326.144
2326.047
2325.949
2325.852
2325.754
2325.657
2325.559
2325.462
2325.364
2325.267
2325.169
2325.072
2324.974
2324.877
2324.779
2324.682
2324.584
2324.487
2324.389
2324.292
2324.194
2324.097
2323.999
2323.902
2323.804
2323.707
2323.609
2323.512
2323.414
2323.317
2323.219
2323.122
2323.024
2322.927
2322.829
2322.732
2322.634
2322.537
2322.439
2322.342
2322.244
2322.147
2322.049
2321.952
2321.854
2321.757
2321.659
2321.562
2321.464
2321.367
2321.269
2321.172
2321.074
2320.977
2320.879
2320.782
2320.684
2320.587
2320.489
2320.392
2320.294
2320.197
2320.099
2320.002
2319.904
2319.807
2319.709
2319.612
2319.514
2319.417
2319.319
2319.222
2319.124
2319.027
2318.929
2318.832
2318.734
2318.637
2318.539
2318.442
2318.344
2318.247
2318.149
2318.052
2317.954
2317.857
2317.759
2317.662
2317.564
2317.467
2317.369
2317.272
2317.174
2317.077
2316.979
2316.882
2316.784
2316.687
2316.589
2316.492
2316.394
2316.297
2316.199
2316.102
2316.004
2315.907
2315.809
2315.712
2315.614
2315.517
2315.419
2315.322
2315.224
2315.127
2315.029
2314.932
2314.834
2314.737
2314.639
2314.542
2314.444
2314.347
2314.249
2314.152
2314.054
2313.957
2313.859
2313.762
2313.664
2313.567
2313.469
2313.372
2313.274
2313.177
2313.079
2312.982
2312.884
2312.787
2309.194
2305.602
2302.009
2298.417
2294.824
2291.232
2287.639
2284.047
2280.454
2276.862
2273.269
2269.677
2266.084
2262.492
2258.899
2255.307
2251.714
2248.122
2244.529
2240.937
2237.344
2233.752
2230.159
2226.567
2222.974
2219.382
2215.789
2212.197
2208.604
2205.012
2201.419
2197.827
2194.234
2190.642
2187.049
2183.457
2179.864
2176.272
2172.679
2169.087
2165.494
2161.902
2158.309
2154.717
2151.124
2147.532
2143.939
2140.347
2136.754
2133.162
2129.569
2125.977
2122.384
2118.792
2115.199
2111.607
2108.014
2104.422
2100.829
2097.237
2093.644
2090.052
2086.459
2082.867
2079.274
2075.682
2072.089
2068.497
2064.904
2061.312
2057.719
2054.127
2050.534
2046.942
2043.349
2039.757
2036.164
2032.572
2028.979
2025.387
2021.794
2018.202
2014.609
2011.017
2007.424
2003.832
2000.239
1996.647
1993.054
1989.462
1985.869
1982.277
1978.684
1975.092
1971.499
1967.907
1964.314
1960.722
1957.129
1953.537
1949.944
1946.352
1942.759
1939.167
1935.574
1931.982
1928.389
1924.797
1921.204
1917.612
1914.019
1910.427
1906.834
1903.242
1899.649
1896.057
1892.464
1888.872
1885.279
1881.687
1878.094
1874.502
1870.909
1867.317
1863.724
1860.132
1856.539
1852.947
1849.354
1845.762
1842.169
1838.577
1834.984
1831.392
1827.799
1824.207
1820.614
1817.022
1813.429
1809.837
1806.244
1802.652
1799.059
1795.467
1791.874
1788.282
1784.689
1781.097
1777.504
1773.912
1770.319
1766.727
1763.134
1759.542
1755.949
1752.357
1748.764
1745.172
1741.579
1737.987
1734.394
1730.802
1727.209
1723.617
1720.024
1716.432
1712.839
1709.247
1705.654
1702.062
1698.469
1694.877
1691.284
1687.692
1684.099
1680.507
1676.914
1673.322
1669.729
1666.137
1662.544
1658.952
1655.359
1651.767
1648.174
1644.582
1640.989
1637.397
1633.804
1630.212
1626.619
1623.027
1619.434
1615.842
1612.249
1608.657
1605.064
1601.472
1597.879
1594.287
1596.046
1597.806
1599.565
1601.325
1603.084
1604.844
1606.603
1608.363
1610.122
1611.882
1613.641
1615.401
1617.160
1618.920
1620.679
1622.439
1624.198
1625.958
1627.717
1629.477
1631.236
1632.996
1634.755
1636.515
1638.274
1640.034
1641.793
1643.553
1645.312
1647.072
1648.831
1650.591
1652.350
1654.110
1655.869
1657.629
1659.388
1661.148
1662.907
1664.667
1666.426
1668.186
1669.945
1671.705
1673.464
1675.224
1676.983
1678.743
1680.502
1682.262
1684.021
1685.781
1687.540
1689.300
1691.059
1692.819
1694.578
1696.338
1698.097
1699.857
1701.616
1703.376
1705.135
1706.895
1708.654
1710.414
1712.173
1713.933
1715.692
1717.452
1719.211
1720.971
1722.730
1724.490
1726.249
1728.009
1729.768
1731.528
1733.287
1735.047
1736.806
1738.566
1740.325
1742.085
1743.844
1745.604
1747.363
1749.123
1750.882
1752.642
1754.401
1756.161
1757.920
1759.680
1761.439
1763.199
1764.958
1766.718
1768.477
1770.237
1771.996
1773.756
1775.515
1777.275
1779.034
1780.794
1782.553
1784.313
1786.072
1787.832
1789.591
1791.351
1793.110
1794.870
1796.629
1798.389
1800.148
1801.908
1803.667
1805.427
1807.186
1808.946
1810.705
1812.465
1814.224
1815.984
1817.743
1819.503
1821.262
1823.022
1824.781
1826.541
1828.300
1830.060
1831.819
1833.579
1835.338
1837.098
1838.857
1840.617
1842.376
1844.136
1845.895
1847.655
1849.414
1851.174
1852.933
1854.693
1856.452
1858.212
1859.971
1861.731
1863.490
1865.250
1867.009
1868.769
1870.528
1872.288
1874.047
1875.807
1877.566
1879.326
1881.085
1882.845
1884.604
1886.364
1888.123
1889.883
1891.642
1893.402
1895.161
1896.921
1898.680
1900.440
1902.199
1903.959
1905.718
1907.478
1909.237
1910.997
1912.756
1914.516
1916.275
1918.035
1919.794
1921.554
1923.313
1925.073
1926.832
1928.592
1930.351
1932.111
1933.870
1935.630
1937.389
1939.149
1940.908
1942.668
1944.427
1946.187
1942.668
1939.149
1935.630
1932.111
1928.592
1925.073
1921.554
1918.035
1914.516
1910.997
1907.478
1903.959
1900.440
1896.921
1893.402
1889.883
1886.364
1882.845
1879.326
1875.807
1872.288
1868.769
1865.250
1861.731
1858.212
1854.693
1851.174
1847.655
1844.136
1840.617
1837.098
1833.579
1830.060
1826.541
1823.022
1819.503
1815.984
1812.465
1808.946
1805.427
1801.908
1798.389
1794.870
1791.351
1787.832
1784.313
1780.794
1777.275
1773.756
1770.237
1766.718
1763.199
1759.680
1756.161
1752.642
1749.123
1745.604
1742.085
1738.566
1735.047
1731.528
1728.009
1724.490
1720.971
1717.452
1713.933
1710.414
1706.895
1703.376
1699.857
1696.338
1692.819
1689.300
1685.781
1682.262
1678.743
1675.224
1671.705
1668.186
1664.667
1661.148
1657.629
1654.110
1650.591
1647.072
1643.553
1640.034
1636.515
1632.996
1629.477
1625.958
1622.439
1618.920
1615.401
1611.882
1608.363
1604.844
1601.325
1597.806
1594.287
1590.768
1587.249
1583.730
1580.211
1576.692
1573.173
1569.654
1566.135
1562.616
1559.097
1555.578
1552.059
1548.540
1545.021
1541.502
1537.983
1534.464
1530.945
1527.426
1523.907
1520.388
1516.869
1513.350
1509.831
1506.312
1502.793
1499.274
1495.755
1492.236
1488.717
1485.198
1481.679
1478.160
1474.641
1471.122
1467.603
1464.084
1460.565
1457.046
1453.527
1450.008
1446.489
1442.970
1439.451
1435.932
1432.413
1428.894
1425.375
1421.856
1418.337
1414.818
1411.299
1407.780
1404.261
1400.742
1397.223
1393.704
1390.185
1386.666
1383.147
1379.628
1376.109
1372.590
1369.071
1365.552
1362.033
1358.514
1354.995
1351.476
1347.957
1344.438
1340.919
1337.400
1333.881
1330.362
1326.843
1323.324
1319.805
1316.286
1312.767
1309.248
1305.729
1302.210
1298.691
1295.172
1291.653
1288.134
1284.615
1281.096
1277.577
1274.058
1270.539
1267.020
1263.501
1259.982
1256.463
1252.944
1249.425
1245.906
1242.387
1237.548
1232.709
1227.870
1223.031
1218.192
1213.353
1208.514
1203.675
1198.836
1193.997
1189.158
1184.319
1179.480
1174.641
1169.802
1164.963
1160.124
1155.285
1150.446
1145.607
1140.768
1135.929
1131.090
1126.251
1121.412
1116.573
1111.734
1106.895
1102.056
1097.217
1092.378
1087.539
1082.700
1077.861
1073.022
1068.183
1063.344
1058.505
1053.666
1048.827
1043.988
1039.149
1034.310
1029.471
1024.632
1019.793
1014.954
1010.115
1005.276
1000.437
995.598
990.759
985.920
981.081
976.242
971.403
966.564
961.725
956.886
952.047
947.208
942.369
937.530
932.691
927.852
923.013
918.174
913.335
908.496
903.657
898.818
893.979
889.140
884.301
879.462
874.623
869.784
864.945
860.106
855.267
850.428
845.589
840.750
835.911
831.072
826.233
821.394
816.555
811.716
806.877
802.038
797.199
792.360
787.521
782.682
777.843
773.004
768.165
763.326
758.487
753.648
748.809
743.970
739.131
734.292
729.453
724.614
719.775
714.936
710.097
705.258
700.419
695.580
690.741
685.902
681.063
676.224
671.385
666.546
661.707
656.868
652.029
647.190
642.351
637.512
632.673
627.834
622.995
618.156
613.317
608.478
603.639
598.800
593.961
589.122
584.283
579.444
574.605
569.766
564.927
560.088
555.249
550.410
545.571
540.732
535.893
531.054
526.215
521.376
516.537
511.698
506.859
502.020
497.181
492.342
487.503
482.664
477.825
472.986
468.147
463.308
458.469
453.630
448.791
443.952
439.113
434.274
429.435
424.596
419.757
414.918
410.079
405.240
400.401
395.562
390.723
385.884
381.045
376.206
371.367
366.528
361.689
356.850
352.011
347.172
342.333
337.494
332.655
327.816
322.977
318.138
313.299
308.460
303.621
298.782
293.943
289.104
284.265
279.426
274.587
274.220
273.854
273.487
273.121
272.754
272.388
272.021
271.655
271.288
270.922
270.555
270.189
269.822
269.456
269.089
268.723
268.356
267.990
267.623
267.257
266.890
266.524
266.157
265.791
265.424
265.058
264.691
264.325
263.958
263.592
263.225
262.859
262.492
262.126
261.759
261.393
261.026
260.660
260.293
259.927
259.560
259.194
258.827
258.461
258.094
257.728
257.361
256.995
256.628
256.262
255.895
255.529
255.162
254.796
254.429
254.063
253.696
253.330
252.963
252.597
252.230
251.864
251.497
251.131
250.764
250.398
250.031
249.665
249.298
248.932
248.565
248.199
247.832
247.466
247.099
246.733
246.366
246.000
245.633
245.267
244.900
244.534
244.167
243.801
243.434
243.068
242.701
242.335
241.968
241.602
241.235
240.869
240.502
240.136
239.769
239.403
239.036
238.670
238.303
237.937
237.570
237.204
236.837
236.471
236.104
235.738
235.371
235.005
234.638
234.272
233.905
233.539
233.172
232.806
232.439
232.073
231.706
231.340
230.973
230.607
230.240
229.874
229.507
229.141
228.774
228.408
228.041
227.675
227.308
226.942
226.575
226.209
225.842
225.476
225.109
224.743
224.376
224.010
223.643
223.277
222.910
222.544
222.177
221.811
221.444
221.078
220.711
220.345
219.978
219.612
219.245
218.879
218.512
218.146
217.779
217.413
217.046
216.680
216.313
215.947
215.580
215.214
214.847
214.481
214.114
213.748
213.381
213.015
212.648
212.282
211.915
211.549
211.182
210.816
210.449
210.083
209.716
209.350
208.983
208.617
208.250
207.884
207.517
207.151
206.784
206.418
206.051
205.685
205.318
204.952
204.585
204.219
203.852
203.486
203.119
202.753
202.386
202.020
201.653
123.087
123.014
122.941
122.868
122.795
122.722
122.649
122.576
122.503
122.430
122.357
122.284
122.211
122.138
122.065
121.992
121.919
121.846
121.773
121.700
121.627
121.554
121.481
121.408
121.335
121.262
121.189
121.116
121.043
120.970
120.897
120.824
120.751
120.678
120.605
120.532
120.459
120.386
120.313
120.240
120.167
120.094
120.021
119.948
119.875
119.802
119.729
119.656
119.583
119.510
119.437
119.364
119.291
119.218
119.145
119.072
118.999
118.926
118.853
118.780
118.707
118.634
118.561
118.488
118.415
118.342
118.269
118.196
118.123
118.050
117.977
117.904
117.831
117.758
117.685
117.612
117.539
117.466
117.393
117.320
117.247
117.174
117.101
117.028
116.955
116.882
116.809
116.736
116.663
116.590
116.517
116.444
116.371
116.298
116.225
116.152
116.079
116.006
115.933
115.860
115.787
115.714
115.641
115.568
115.495
115.422
115.349
115.276
115.203
115.130
115.057
114.984
114.911
114.838
114.765
114.692
114.619
114.546
114.473
114.400
114.327
114.254
114.181
114.108
114.035
113.962
113.889
113.816
113.743
113.670
113.597
113.524
113.451
113.378
113.305
113.232
113.159
113.086
113.013
112.940
112.867
112.794
112.721
112.648
112.575
112.502
112.429
112.356
112.283
112.210
112.137
112.064
111.991
111.918
111.845
111.772
111.699
111.626
111.553
111.480
111.407
111.334
111.261
111.188
111.115
111.042
110.969
110.896
110.823
110.750
110.677
110.604
110.531
110.458
110.385
110.312
110.239
110.166
110.093
110.020
109.947
109.874
109.801
109.728
109.655
109.582
109.509
109.436
109.363
109.290
109.217
109.144
109.071
108.998
108.925
108.852
108.779
108.706
108.633
108.560
108.487
108.487
108.487
108.487
108.487
108.487
108.487
108.487
108.487
108.487
108.487
108.487
108.487
108.487
108.487
108.487
108.487
108.487
108.487
108.487
108.487
108.487
108.487
108.487
108.487
108.487
108.487
108.487
108.487
108.487
108.487
108.487
108.487
108.487
108.487
108.487
108.487
108.487
108.487
108.487
108.487
108.487
108.487
108.487
108.487
108.487
108.487
108.487
108.487
108.487
108.487
108.487
108.487
108.487
108.487
108.487
108.487
108.487
108.487
108.487
108.487
108.487
108.487
108.487
108.487
108.487
108.487
108.487
108.487
108.487
108.487
108.487
108.487
108.487
108.487
108.487
108.487
108.487
108.487
108.487
108.487
108.487
108.487
108.487
108.487
108.487
108.487
108.487
108.487
108.487
108.487
108.487
108.487
108.487
108.487
108.487
108.487
108.487
108.487
108.487
108.487
108.487
108.487
108.487
108.487
108.487
108.487
108.487
108.487
108.487
108.487
108.487
108.487
108.487
108.487
108.487
108.487
108.487
108.487
108.487
108.487
108.487
108.487
108.487
108.487
108.487
108.487
108.487
108.487
108.487
108.487
108.487
108.487
108.487
108.487
108.487
108.487
108.487
108.487
108.487
108.487
108.487
108.487
108.487
108.487
108.487
108.487
108.487
108.487
108.487
108.487
108.487
108.487
108.487
108.487
108.487
108.487
108.487
108.487
108.487
108.487
108.487
108.487
108.487
108.487
108.487
108.487
108.487
108.487
108.487
108.487
108.487
108.487
108.487
108.487
108.487
108.487
108.487
108.487
108.487
108.487
108.487
108.487
108.487
108.487
108.487
108.487
108.487
108.487
108.487
108.487
108.487
108.487
108.487
108.487
108.487
108.487
108.487
108.487
108.487
108.487
108.487
108.487
108.487
108.487
108.487
108.487
108.487
108.487
108.487
108.487
108.487
108.487
108.487
108.487
108.487
108.487
108.487
108.487
108.487
108.487
108.487
108.487
108.487
108.487
108.487
108.487
108.487
108.487
108.487
108.487
108.487
108.487
108.487
108.487
108.487
108.487
108.487
108.487
108.487
108.487
108.487
108.487
108.487
108.487
108.487
108.487
108.487
108.487
108.487
108.487
108.487
108.487
108.487
108.487
108.487
108.487
108.487
108.487
108.487
108.487
108.487
108.487
108.487
108.487
108.487
108.487
108.487
108.487
108.487
108.487
108.487
108.487
108.487
108.487
108.487
108.487
108.487
108.487
108.487
108.487
108.487
108.487
108.487
108.487
108.487
108.487
108.487
108.487
108.487
108.487
108.487
108.487
108.487
108.487
108.487
108.487
108.487
108.487
108.487
108.487
108.487
108.487
108.487
108.487
108.487
108.487
108.487
108.487
108.487
108.487
108.487
108.487
108.487
108.487
108.487
108.487
108.487
108.487
108.487
108.487
108.487
108.487
108.487
108.487
108.487
108.487
108.487
108.487
108.487
108.487
108.487
108.487
108.487
108.487
108.487
108.487
108.487
108.487
108.487
108.487
108.487
108.487
108.487
108.487
108.487
108.487
108.487
108.487
108.487
108.487
108.487
108.487
108.487
108.487
108.487
108.487
108.487
108.487
108.487
108.487
108.487
108.487
108.487
108.487
108.487
108.487
108.487
108.487
108.487
108.487
108.487
108.487
108.487
108.487
108.487
108.487
108.487
108.487
108.487
108.487
108.487
108.487
108.487
108.487
108.487
108.487
108.487
108.487
108.487
108.487
108.487
108.487
108.487
108.487
108.487
108.487
108.487
108.487
108.487
108.487
108.487
108.487
108.487
108.487
108.487
108.487
108.487
108.487
108.487
108.487
108.487
108.487
108.487
108.487
108.487
108.487
108.487
108.487
108.487
108.487
108.487
108.487
108.487
