2348.007
2349.766
2351.526
2353.285
2355.045
2356.804
2358.564
2360.323
2362.083
2363.842
2365.602
2367.361
2369.121
2370.880
2372.640
2374.399
2376.159
2377.918
2379.678
2381.437
2383.197
2384.956
2386.716
2388.475
2390.235
2391.994
2393.754
2395.513
2397.273
2399.032
2400.792
2402.551
2404.311
2406.070
2407.830
2409.589
2411.349
2413.108
2414.868
2416.627
2418.387
2420.146
2421.906
2423.665
2425.425
2427.184
2428.944
2430.703
2432.463
2434.222
2435.982
2437.741
2439.501
2441.260
2443.020
2444.779
2446.539
2448.298
2450.058
2451.817
2453.577
2455.336
2457.096
2458.855
2460.615
2462.374
2464.134
2465.893
2467.653
2469.412
2471.172
2472.931
2474.691
2476.450
2478.210
2479.969
2481.729
2483.488
2485.248
2487.007
2488.767
2490.526
2492.286
2494.045
2495.805
2497.564
2499.324
2501.083
2502.843
2504.602
2506.362
2508.121
2509.881
2511.640
2513.400
2515.159
2516.919
2518.678
2520.438
2522.197
2523.957
2525.716
2527.476
2529.235
2530.995
2532.754
2534.514
2536.273
2538.033
2539.792
2541.552
2543.311
2545.071
2546.830
2548.590
2550.349
2552.109
2553.868
2555.628
2557.387
2559.147
2560.906
2562.666
2564.425
2566.185
2567.944
2569.704
2571.463
2573.223
2574.982
2576.742
2578.501
2580.261
2582.020
2583.780
2585.539
2587.299
2589.058
2590.818
2592.577
2594.337
2596.096
2597.856
2599.615
2601.375
2603.134
2604.894
2606.653
2608.413
2610.172
2611.932
2613.691
2615.451
2617.210
2618.970
2620.729
2622.489
2624.248
2626.008
2627.767
2629.527
2631.286
2633.046
2634.805
2636.565
2638.324
2640.084
2641.843
2643.603
2639.840
2636.077
2632.314
2628.551
2624.788
2621.025
2617.262
2613.499
2609.736
2605.973
2602.210
2598.447
2594.684
2590.921
2587.158
2583.395
2579.632
2575.869
2572.106
2568.343
2564.580
2560.817
2557.054
2553.291
2549.528
2545.765
2542.002
2538.239
2534.476
2530.713
2526.950
2523.187
2519.424
2515.661
2511.898
2508.135
2504.372
2500.609
2496.846
2493.083
2489.320
2485.557
2481.794
2478.031
2474.268
2470.505
2466.742
2462.979
2459.216
2455.453
2451.690
2447.927
2444.164
2440.401
2436.638
2432.875
2429.112
2425.349
2421.586
2417.823
2414.060
2410.297
2406.534
2402.771
2399.008
2395.245
2391.482
2387.719
2383.956
2380.193
2376.430
2372.667
2368.904
2365.141
2361.378
2357.615
2353.852
2350.089
2346.326
2342.563
2338.800
2335.037
2331.274
2327.511
2323.748
2319.985
2316.222
2312.459
2308.696
2304.933
2301.170
2297.407
2293.644
2289.881
2286.118
2282.355
2278.592
2274.829
2271.066
2267.303
2263.540
2259.777
2256.014
2252.251
2248.488
2244.725
2240.962
2237.199
2233.436
2229.673
2225.910
2222.147
2218.384
2214.621
2210.858
2207.095
2203.332
2199.569
2195.806
2192.043
2188.280
2184.517
2180.754
2176.991
2173.228
2169.465
2165.702
2161.939
2158.176
2154.413
2150.650
2146.887
2143.124
2139.361
2135.598
2131.835
2128.072
2124.309
2120.546
2116.783
2113.020
2109.257
2105.494
2101.731
2097.968
2094.205
2090.442
2086.679
2082.916
2079.153
2075.390
2071.627
2067.864
2064.101
2060.338
2056.575
2052.812
2049.049
2045.286
2041.523
2037.760
2033.997
2030.234
2026.471
2022.708
2018.945
2015.182
2011.419
2007.656
2003.893
2000.130
1996.367
1992.604
1988.841
1985.078
1981.315
1977.552
1973.789
1970.026
1966.263
1962.500
1958.737
1954.974
1951.211
1947.448
1943.685
1939.922
1936.159
1932.396
1928.633
1924.870
1921.107
1917.344
1913.581
1909.818
1906.055
1902.292
1898.529
1894.766
1891.003
1889.267
1887.532
1885.796
1884.061
1882.325
1880.590
1878.854
1877.119
1875.383
1873.648
1871.912
1870.177
1868.441
1866.706
1864.970
1863.235
1861.499
1859.764
1858.028
1856.293
1854.557
1852.822
1851.086
1849.351
1847.615
1845.880
1844.144
1842.409
1840.673
1838.938
1837.202
1835.467
1833.731
1831.996
1830.260
1828.525
1826.789
1825.054
1823.318
1821.583
1819.847
1818.112
1816.376
1814.641
1812.905
1811.170
1809.434
1807.699
1805.963
1804.228
1802.492
1800.757
1799.021
1797.286
1795.550
1793.815
1792.079
1790.344
1788.608
1786.873
1785.137
1783.402
1781.666
1779.931
1778.195
1776.460
1774.724
1772.989
1771.253
1769.518
1767.782
1766.047
1764.311
1762.576
1760.840
1759.105
1757.369
1755.634
1753.898
1752.163
1750.427
1748.692
1746.956
1745.221
1743.485
1741.750
1740.014
1738.279
1736.543
1734.808
1733.072
1731.337
1729.601
1727.866
1726.130
1724.395
1722.659
1720.924
1719.188
1717.453
1715.717
1713.982
1712.246
1710.511
1708.775
1707.040
1705.304
1703.569
1701.833
1700.098
1698.362
1696.627
1694.891
1693.156
1691.420
1689.685
1687.949
1686.214
1684.478
1682.743
1681.007
1679.272
1677.536
1675.801
1674.065
1672.330
1670.594
1668.859
1667.123
1665.388
1663.652
1661.917
1660.181
1658.446
1656.710
1654.975
1653.239
1651.504
1649.768
1648.033
1646.297
1644.562
1642.826
1641.091
1639.355
1637.620
1635.884
1634.149
1632.413
1630.678
1628.942
1627.207
1625.471
1623.736
1622.000
1620.265
1618.529
1616.794
1615.058
1613.323
1611.587
1609.852
1608.116
1606.381
1604.645
1602.910
1601.174
1599.439
1597.703
1595.968
1594.232
1592.497
1590.761
1589.026
1587.290
1585.555
1583.819
1582.084
1580.348
1578.613
1576.877
1575.142
1573.406
1571.671
1569.935
1568.200
1566.464
1564.729
1562.993
1561.258
1559.522
1557.787
1556.051
1554.316
1552.580
1550.845
1549.109
1547.374
1545.638
1543.903
1546.640
1549.377
1552.114
1554.851
1557.588
1560.325
1563.062
1565.799
1568.536
1571.273
1574.010
1576.747
1579.484
1582.221
1584.958
1587.695
1590.432
1593.169
1595.906
1598.643
1601.380
1604.117
1606.854
1609.591
1612.328
1615.065
1617.802
1620.539
1623.276
1626.013
1628.750
1631.487
1634.224
1636.961
1639.698
1642.435
1645.172
1647.909
1650.646
1653.383
1656.120
1658.857
1661.594
1664.331
1667.068
1669.805
1672.542
1675.279
1678.016
1680.753
1683.490
1686.227
1688.964
1691.701
1694.438
1697.175
1699.912
1702.649
1705.386
1708.123
1710.860
1713.597
1716.334
1719.071
1721.808
1724.545
1727.282
1730.019
1732.756
1735.493
1738.230
1740.967
1743.704
1746.441
1749.178
1751.915
1754.652
1757.389
1760.126
1762.863
1765.600
1768.337
1771.074
1773.811
1776.548
1779.285
1782.022
1784.759
1787.496
1790.233
1792.970
1795.707
1798.444
1801.181
1803.918
1806.655
1809.392
1812.129
1814.866
1817.603
1820.340
1823.077
1825.814
1828.551
1831.288
1834.025
1836.762
1839.499
1842.236
1844.973
1847.710
1850.447
1853.184
1855.921
1858.658
1861.395
1864.132
1866.869
1869.606
1872.343
1875.080
1877.817
1880.554
1883.291
1886.028
1888.765
1891.502
1894.239
1896.976
1899.713
1902.450
1905.187
1907.924
1910.661
1913.398
1916.135
1918.872
1921.609
1924.346
1927.083
1929.820
1932.557
1935.294
1938.031
1940.768
1943.505
1946.242
1948.979
1951.716
1954.453
1957.190
1959.927
1962.664
1965.401
1968.138
1970.875
1973.612
1976.349
1979.086
1981.823
1984.560
1987.297
1990.034
1992.771
1995.508
1998.245
2000.982
2003.719
2006.456
2009.193
2011.930
2014.667
2017.404
2020.141
2022.878
2025.615
2028.352
2031.089
2033.826
2036.563
2039.300
2042.037
2044.774
2047.511
2050.248
2052.985
2055.722
2058.459
2061.196
2063.933
2066.670
2069.407
2072.144
2074.881
2077.618
2080.355
2083.092
2085.829
2088.566
2091.303
2093.918
2096.533
2099.148
2101.763
2104.378
2106.993
2109.608
2112.223
2114.838
2117.453
2120.068
2122.683
2125.298
2127.913
2130.528
2133.143
2135.758
2138.373
2140.988
2143.603
2146.218
2148.833
2151.448
2154.063
2156.678
2159.293
2161.908
2164.523
2167.138
2169.753
2172.368
2174.983
2177.598
2180.213
2182.828
2185.443
2188.058
2190.673
2193.288
2195.903
2198.518
2201.133
2203.748
2206.363
2208.978
2211.593
2214.208
2216.823
2219.438
2222.053
2224.668
2227.283
2229.898
2232.513
2235.128
2237.743
2240.358
2242.973
2245.588
2248.203
2250.818
2253.433
2256.048
2258.663
2261.278
2263.893
2266.508
2269.123
2271.738
2274.353
2276.968
2279.583
2282.198
2284.813
2287.428
2290.043
2292.658
2295.273
2297.888
2300.503
2303.118
2305.733
2308.348
2310.963
2313.578
2316.193
2318.808
2321.423
2324.038
2326.653
2329.268
2331.883
2334.498
2337.113
2339.728
2342.343
2344.958
2347.573
2350.188
2352.803
2355.418
2358.033
2360.648
2363.263
2365.878
2368.493
2371.108
2373.723
2376.338
2378.953
2381.568
2384.183
2386.798
2389.413
2392.028
2394.643
2397.258
2399.873
2402.488
2405.103
2407.718
2410.333
2412.948
2415.563
2418.178
2420.793
2423.408
2426.023
2428.638
2431.253
2433.868
2436.483
2439.098
2441.713
2444.328
2446.943
2449.558
2452.173
2454.788
2457.403
2460.018
2462.633
2465.248
2467.863
2470.478
2473.093
2475.708
2478.323
2480.938
2483.553
2486.168
2488.783
2491.398
2494.013
2496.628
2499.243
2501.858
2504.473
2507.088
2509.703
2512.318
2514.933
2517.548
2520.163
2522.778
2525.393
2528.008
2530.623
2533.238
2535.853
2538.468
2541.083
2543.698
2546.313
2548.928
2551.543
2554.158
2556.773
2559.388
2562.003
2564.618
2567.233
2569.848
2572.463
2575.078
2577.693
2580.308
2582.923
2585.538
2588.153
2590.768
2593.383
2595.998
2598.613
2601.228
2603.843
2606.458
2609.073
2611.688
82.603
82.603
82.603
82.603
82.603
82.603
82.603
82.603
82.603
82.603
82.603
82.603
82.603
82.603
82.603
82.603
82.603
82.603
82.603
82.603
82.603
82.603
82.603
82.603
82.603
82.603
82.603
82.603
82.603
82.603
82.603
82.603
82.603
82.603
82.603
82.603
82.603
82.603
82.603
82.603
82.603
82.603
82.603
82.603
82.603
82.603
82.603
82.603
82.603
82.603
82.603
82.603
82.603
82.603
82.603
82.603
82.603
82.603
82.603
82.603
82.603
82.603
82.603
82.603
82.603
82.603
82.603
82.603
82.603
82.603
82.603
82.603
82.603
82.603
82.603
82.603
82.603
82.603
82.603
82.603
82.603
82.603
82.603
82.603
82.603
82.603
82.603
82.603
82.603
82.603
82.603
82.603
82.603
82.603
82.603
82.603
82.603
82.603
82.603
82.603
82.603
82.603
82.603
82.603
82.603
82.603
82.603
82.603
82.603
82.603
82.603
82.603
82.603
82.603
82.603
82.603
82.603
82.603
82.603
82.603
82.603
82.603
82.603
82.603
82.603
82.603
82.603
82.603
82.603
82.603
82.603
82.603
82.603
82.603
82.603
82.603
82.603
82.603
82.603
82.603
82.603
82.603
82.603
82.603
82.603
82.603
82.603
82.603
82.603
82.603
82.603
82.603
82.603
82.603
82.603
82.603
82.603
82.603
82.603
82.603
82.603
82.603
82.603
82.603
82.603
82.603
82.603
82.603
82.603
82.603
82.603
82.603
82.603
82.603
82.603
82.603
82.603
82.603
82.603
82.603
82.603
82.603
82.603
82.603
82.603
82.603
82.603
82.603
82.603
82.603
82.603
82.603
82.603
82.603
82.603
82.603
82.603
82.603
82.603
82.603
82.603
82.603
82.603
82.603
82.603
82.603
82.603
82.603
82.603
82.603
82.603
82.603
82.603
82.603
82.603
82.603
82.603
82.603
82.603
82.603
82.603
82.603
82.603
82.603
82.603
82.603
82.603
82.603
82.603
82.603
82.603
82.603
82.603
82.603
82.603
82.603
82.603
82.603
82.603
82.603
82.603
82.603
82.603
82.603
82.603
82.603
82.603
82.603
82.603
82.603
82.603
82.603
82.603
82.603
82.603
82.603
82.603
82.603
82.603
82.603
82.603
82.603
82.603
82.603
82.603
82.603
82.603
82.603
82.603
82.603
82.603
82.603
82.603
82.603
82.603
82.603
82.603
82.603
82.603
82.603
82.603
82.603
82.603
82.603
82.603
82.603
82.603
82.603
82.603
82.603
82.603
82.603
82.603
82.603
82.603
82.603
82.603
82.603
82.603
82.603
82.603
82.603
82.603
82.603
82.603
82.603
82.603
82.603
82.603
82.603
82.603
82.603
82.603
82.603
82.603
82.603
82.603
82.603
82.603
82.603
82.603
82.603
82.603
82.603
82.603
82.603
82.603
82.603
82.603
82.603
82.603
82.603
82.603
82.603
82.603
82.603
82.603
82.603
82.603
82.603
82.603
82.603
82.603
82.603
82.603
82.603
82.603
82.603
82.603
82.603
82.603
82.603
82.603
82.603
82.603
82.603
82.603
82.603
82.603
82.603
82.603
82.603
82.603
82.603
82.603
82.603
82.603
82.603
82.603
82.603
82.603
82.603
82.603
82.603
82.603
82.603
82.603
82.603
82.603
82.603
82.603
82.603
82.603
82.603
82.603
82.603
82.603
82.603
82.603
82.603
82.603
82.603
82.603
82.603
82.603
82.603
82.603
82.603
82.603
82.603
82.603
82.603
82.603
82.603
82.603
82.603
82.603
82.603
82.603
82.603
82.603
82.603
82.603
82.603
82.603
82.603
82.603
82.603
82.603
82.603
82.603
82.603
82.603
82.603
82.603
82.603
82.603
82.603
82.603
82.603
82.603
82.603
82.603
82.603
82.603
82.603
82.603
82.603
82.603
82.603
82.603
82.603
82.603
82.603
82.603
82.603
82.603
82.603
82.603
82.603
82.603
82.603
82.603
82.603
82.603
82.603
82.603
82.603
82.603
82.603
82.603
82.603
82.603
82.603
82.603
82.603
82.603
82.603
82.603
82.603
82.603
82.603
82.603
82.603
82.603
82.603
82.603
82.603
82.603
82.603
82.603
82.603
82.603
82.603
82.603
82.603
82.603
82.603
82.603
82.603
82.603
82.603
82.603
82.603
82.603
82.603
82.603
82.603
82.603
82.603
82.603
82.603
82.603
82.603
82.603
82.603
82.603
82.603
82.603
82.603
82.603
82.603
82.603
82.603
82.603
82.603
82.603
82.603
82.603
82.603
82.603
82.603
82.603
82.603
82.603
82.603
82.603
82.603
82.603
82.603
82.603
82.603
82.603
82.603
82.603
82.603
82.603
82.603
82.603
82.603
82.603
82.603
82.603
82.603
82.603
82.603
82.603
82.603
82.603
82.603
82.603
82.603
82.603
82.603
82.603
82.603
82.603
82.603
82.603
82.603
82.603
82.603
82.603
82.603
82.603
82.603
82.603
82.603
82.603
82.603
82.603
82.603
82.603
82.603
82.603
82.603
82.603
82.603
82.603
82.603
82.603
82.603
82.603
82.603
82.603
82.603
82.603
82.603
82.603
82.603
82.603
82.603
82.603
82.603
82.603
82.603
82.603
82.603
82.603
82.603
82.603
82.603
82.603
82.603
82.603
82.603
82.603
82.603
82.603
82.603
82.603
82.603
82.603
82.603
82.603
82.603
82.603
82.603
82.603
82.603
82.603
82.603
82.603
82.603
82.603
82.603
82.603
82.603
82.603
82.603
82.603
82.603
82.603
82.603
82.603
82.603
82.603
82.603
82.603
82.603
82.603
82.603
82.603
82.603
82.603
82.603
82.603
82.603
82.603
82.603
82.603
82.603
82.603
82.603
82.603
82.603
82.603
82.603
82.603
82.603
82.603
82.603
82.603
82.603
82.603
82.603
82.603
82.603
82.603
82.603
82.603
82.603
82.603
82.603
82.603
82.603
82.603
82.603
82.603
82.603
82.603
82.603
82.603
82.603
82.603
82.603
82.603
82.603
82.603
82.603
82.603
82.603
82.603
82.603
82.603
82.603
82.603
82.603
82.603
82.603
82.603
82.603
82.603
82.603
82.603
82.603
82.603
82.603
82.603
82.603
82.603
82.603
82.603
82.603
82.603
82.603
82.603
82.603
82.603
82.603
82.603
82.603
82.603
82.603
82.603
82.603
82.603
82.603
82.603
82.603
82.603
82.603
82.603
82.603
82.603
82.603
82.603
82.603
82.603
82.603
82.603
82.603
82.603
82.603
82.603
82.603
82.603
82.603
82.603
82.603
82.603
82.603
82.603
82.603
82.603
82.603
82.603
82.603
82.603
82.603
82.603
82.603
82.603
82.603
82.603
82.603
82.603
82.603
82.603
82.603
82.603
82.603
82.603
82.603
82.603
82.603
82.603
82.603
82.603
82.603
82.603
82.603
82.603
82.603
82.603
82.603
82.603
82.603
82.603
82.603
82.603
82.603
82.603
82.603
82.603
82.603
82.603
82.603
82.603
82.603
82.603
82.603
82.603
82.603
82.603
82.603
82.603
82.603
82.603
82.603
82.603
82.603
82.603
82.603
82.603
82.603
82.603
82.603
82.603
82.603
82.603
82.603
82.603
82.603
82.603
82.603
82.603
82.603
82.603
82.603
82.603
82.603
82.603
82.603
82.603
82.603
82.603
82.603
82.603
82.603
82.603
82.603
82.603
82.603
82.603
82.603
82.603
82.603
82.603
82.603
82.603
82.603
82.603
82.603
82.603
82.603
82.603
82.603
82.603
82.603
82.603
82.603
82.603
82.603
82.603
82.603
82.603
82.603
82.603
82.603
82.603
82.603
82.603
82.603
82.603
82.603
82.603
82.603
82.603
82.603
82.603
82.603
82.603
82.603
82.603
82.603
82.603
82.603
82.603
82.603
82.603
82.603
82.603
82.603
82.603
82.603
82.603
82.603
82.603
82.603
82.603
82.603
82.603
82.603
82.603
82.603
82.603
82.603
82.603
82.603
82.603
82.603
82.603
82.603
82.603
82.603
82.603
82.603
82.603
82.603
82.603
82.603
82.603
82.603
82.603
82.603
82.603
82.603
82.603
82.603
82.603
82.603
82.603
82.603
82.603
82.603
82.603
82.603
82.603
82.603
82.603
82.603
82.603
82.603
82.603
82.603
82.603
82.603
82.603
82.603
82.603
82.603
82.603
82.603
82.603
82.603
82.603
82.603
82.603
82.603
82.603
82.603
82.603
82.603
82.603
82.603
82.603
82.603
82.603
82.603
82.603
82.603
82.603
82.603
82.603
82.603
82.603
82.603
82.603
82.603
82.603
82.603
82.603
82.603
82.603
82.603
82.603
82.603
82.603
82.603
82.603
82.603
82.603
82.603
82.603
82.603
82.603
82.603
82.603
82.603
82.603
82.603
82.603
82.603
82.603
82.603
82.603
82.603
82.603
82.603
82.603
82.603
82.603
82.603
82.603
82.603
82.603
82.603
82.603
82.603
82.603
82.603
82.603
82.603
82.603
82.603
82.603
82.603
82.603
82.603
82.603
82.603
