2127.442
2127.051
2126.660
2126.269
2125.878
2125.487
2125.096
2124.705
2124.314
2123.923
2123.532
2123.141
2122.750
2122.359
2121.968
2121.577
2121.186
2120.795
2120.404
2120.013
2119.622
2119.231
2118.840
2118.449
2118.058
2117.325
2116.592
2115.859
2115.126
2114.393
2113.660
2112.927
2112.194
2111.461
2110.728
2109.995
2109.262
2108.529
2107.796
2107.063
2106.330
2105.597
2104.864
2104.131
2103.398
2102.665
2101.932
2101.199
2100.466
2099.733
2099.000
2098.267
2097.534
2096.801
2096.068
2095.335
2094.602
2093.869
2093.136
2092.403
2091.670
2090.937
2090.204
2089.471
2088.738
2088.005
2087.272
2086.539
2085.806
2085.073
2084.340
2083.607
2082.874
2082.141
2081.408
2080.675
2079.942
2079.209
2078.476
2077.743
2077.010
2076.277
2075.544
2074.811
2074.078
2073.345
2072.612
2071.879
2071.146
2070.413
2069.680
2068.947
2068.214
2067.481
2066.748
2066.015
2065.282
2064.549
2063.816
2063.083
2062.350
2061.617
2060.884
2060.151
2059.418
2058.685
2057.952
2057.219
2056.486
2055.753
2055.020
2054.287
2053.554
2052.821
2052.088
2051.355
2050.622
2049.889
2049.156
2048.423
2047.690
2046.957
2046.224
2045.491
2044.758
2044.025
2043.292
2042.559
2041.826
2041.093
2040.360
2039.627
2038.894
2038.161
2037.428
2036.695
2035.962
2035.229
2034.496
2033.763
2033.030
2032.297
2031.564
2030.831
2030.098
2029.365
2028.632
2027.899
2027.166
2026.433
2025.700
2024.967
2024.234
2023.501
2022.768
2022.035
2021.302
2020.569
2019.836
2019.103
2018.370
2017.637
2016.904
2016.171
2015.438
2014.705
2013.972
2013.239
2012.506
2011.773
2011.040
2010.307
2009.574
2008.841
2008.108
2007.375
2006.642
2005.909
2005.176
2004.443
2003.710
2002.977
2002.244
2001.511
2000.778
2000.045
1999.312
1998.579
1997.846
1997.113
1996.380
1995.647
1994.914
1994.181
1993.448
1992.715
1991.982
1991.249
1990.516
1989.783
1989.050
1988.317
1987.584
1986.851
1986.118
1985.385
1984.652
1983.919
1983.186
1982.453
1981.720
1980.987
1980.254
1979.521
1978.788
1978.055
1977.322
1976.589
1975.856
1975.123
1974.390
1973.657
1972.924
1972.191
1971.458
1969.552
1967.646
1965.740
1963.834
1961.928
1960.022
1958.116
1956.210
1954.304
1952.398
1950.492
1948.586
1946.680
1944.774
1942.868
1940.962
1939.056
1937.150
1935.244
1933.338
1931.432
1929.526
1927.620
1925.714
1923.808
1921.902
1919.996
1918.090
1916.184
1914.278
1912.372
1910.466
1908.560
1906.654
1904.748
1902.842
1900.936
1899.030
1897.124
1895.218
1893.312
1891.406
1889.500
1887.594
1885.688
1883.782
1881.876
1879.970
1878.064
1876.158
1874.252
1872.346
1870.440
1868.534
1866.628
1864.722
1862.816
1860.910
1859.004
1857.098
1855.192
1853.286
1851.380
1849.474
1847.568
1845.662
1843.756
1841.850
1839.944
1838.038
1836.132
1834.226
1832.320
1830.414
1828.508
1826.602
1824.696
1822.790
1820.884
1818.978
1817.072
1815.166
1813.260
1811.354
1809.448
1807.542
1805.636
1803.730
1801.824
1799.918
1798.012
1796.106
1794.200
1792.294
1790.388
1788.482
1786.576
1784.670
1782.764
1780.858
1778.952
1777.046
1775.140
1773.234
1771.328
1769.422
1767.516
1765.610
1763.704
1761.798
1759.892
1757.986
1756.080
1754.174
1752.268
1750.362
1748.456
1746.550
1744.644
1742.738
1740.832
1738.926
1737.020
1735.114
1733.208
1731.302
1729.396
1727.490
1725.584
1723.678
1721.772
1719.866
1717.960
1716.054
1714.148
1712.242
1710.336
1708.430
1706.524
1704.618
1702.712
1700.806
1698.900
1696.994
1695.088
1693.182
1691.276
1689.370
1687.464
1685.558
1683.652
1681.746
1679.840
1677.934
1676.028
1674.122
1672.216
1670.310
1668.404
1666.498
1664.592
1662.686
1660.780
1658.874
1656.968
1655.062
1653.156
1651.250
1649.344
1647.438
1645.532
1643.626
1641.720
1639.814
1637.908
1636.002
1634.096
1632.190
1630.284
1628.378
1626.472
1624.566
1622.660
1620.754
1618.848
1616.942
1615.036
1613.130
1611.224
1609.318
1607.412
1605.506
1603.600
1601.694
1599.788
1597.882
1595.976
1594.070
1592.164
1590.258
1590.038
1589.818
1589.598
1589.378
1589.158
1588.938
1588.718
1588.498
1588.278
1588.058
1587.838
1587.618
1587.398
1587.178
1586.958
1586.738
1586.518
1586.298
1586.078
1585.858
1585.638
1585.418
1585.198
1584.978
1584.758
1584.538
1584.318
1584.098
1583.878
1583.658
1583.438
1583.218
1582.998
1582.778
1582.558
1582.338
1582.118
1581.898
1581.678
1581.458
1581.238
1581.018
1580.798
1580.578
1580.358
1580.138
1579.918
1579.698
1579.478
1579.258
1579.038
1578.818
1578.598
1578.378
1578.158
1577.938
1577.718
1577.498
1577.278
1577.058
1576.838
1576.618
1576.398
1576.178
1575.958
1575.738
1575.518
1575.298
1575.078
1574.858
1574.638
1574.418
1574.198
1573.978
1573.758
1573.538
1573.318
1573.098
1572.878
1572.658
1572.438
1572.218
1571.998
1571.778
1571.558
1571.338
1571.118
1570.898
1570.678
1570.458
1570.238
1570.018
1569.798
1569.578
1569.358
1569.138
1568.918
1568.698
1568.478
1568.258
1568.038
1567.818
1567.598
1567.378
1567.158
1566.938
1566.718
1566.498
1566.278
1566.058
1565.838
1565.618
1565.398
1565.178
1564.958
1564.738
1564.518
1564.298
1564.078
1563.858
1563.638
1563.418
1563.198
1562.978
1562.758
1562.538
1562.318
1562.098
1561.878
1561.658
1561.438
1561.218
1560.998
1560.778
1560.558
1560.338
1560.118
1559.898
1559.678
1559.458
1559.238
1559.018
1558.798
1558.578
1558.358
1558.138
1557.918
1557.698
1557.478
1557.258
1557.038
1556.818
1556.598
1556.378
1556.158
1555.938
1555.718
1555.498
1555.278
1555.058
1554.838
1554.618
1554.398
1554.178
1553.958
1553.738
1553.518
1553.298
1553.078
1552.858
1552.638
1552.418
1552.198
1551.978
1551.758
1551.538
1551.318
1551.098
1550.878
1550.658
1550.438
1550.218
1549.998
1549.778
1549.558
1549.338
1549.118
1548.898
1548.678
1548.458
1548.238
1548.018
1547.798
1547.578
1547.358
1547.138
1546.918
1546.698
1546.478
1546.258
1549.532
1552.807
1556.081
1559.356
1562.630
1565.905
1569.179
1572.454
1575.728
1579.003
1582.277
1585.552
1588.826
1592.101
1595.375
1598.650
1601.924
1605.199
1608.473
1611.748
1615.022
1618.297
1621.571
1624.846
1628.120
1631.395
1634.669
1637.944
1641.218
1644.493
1647.767
1651.042
1654.316
1657.591
1660.865
1664.140
1667.414
1670.689
1673.963
1677.238
1680.512
1683.787
1687.061
1690.336
1693.610
1696.885
1700.159
1703.434
1706.708
1709.983
1713.257
1716.532
1719.806
1723.081
1726.355
1729.630
1732.904
1736.179
1739.453
1742.728
1746.002
1749.277
1752.551
1755.826
1759.100
1762.375
1765.649
1768.924
1772.198
1775.473
1778.747
1782.022
1785.296
1788.571
1791.845
1795.120
1798.394
1801.669
1804.943
1808.218
1811.492
1814.767
1818.041
1821.316
1824.590
1827.865
1831.139
1834.414
1837.688
1840.963
1844.237
1847.512
1850.786
1854.061
1857.335
1860.610
1863.884
1867.159
1870.433
1873.708
1876.982
1880.257
1883.531
1886.806
1890.080
1893.355
1896.629
1899.904
1903.178
1906.453
1909.727
1913.002
1916.276
1919.551
1922.825
1926.100
1929.374
1932.649
1935.923
1939.198
1942.472
1945.747
1949.021
1952.296
1955.570
1958.845
1962.119
1965.394
1968.668
1971.943
1975.217
1978.492
1981.766
1985.041
1988.315
1991.590
1994.864
1998.139
2001.413
2004.688
2007.962
2011.237
2014.511
2017.786
2021.060
2024.335
2027.609
2030.884
2034.158
2037.433
2040.707
2043.982
2047.256
2050.531
2053.805
2057.080
2060.354
2063.629
2066.903
2070.178
2073.452
2076.727
2080.001
2083.276
2086.550
2089.825
2093.099
2096.374
2099.648
2102.923
2106.197
2109.472
2112.746
2116.021
2119.295
2122.570
2125.844
2129.119
2132.393
2135.668
2138.942
2142.217
2145.491
2148.766
2152.040
2155.315
2158.589
2161.864
2165.138
2168.413
2171.687
2174.962
2178.236
2181.511
2184.785
2188.060
2191.334
2194.609
2197.883
94.658
94.633
94.609
94.584
94.560
94.535
94.511
94.486
94.462
94.437
94.413
94.388
94.364
94.339
94.315
94.290
94.266
94.241
94.217
94.192
94.168
94.143
94.119
94.094
94.070
94.045
94.021
93.996
93.972
93.947
93.923
93.898
93.874
93.849
93.825
93.800
93.776
93.751
93.727
93.702
93.678
93.653
93.629
93.604
93.580
93.555
93.531
93.506
93.482
93.457
93.433
93.408
93.384
93.359
93.335
93.310
93.286
93.261
93.237
93.212
93.188
93.163
93.139
93.114
93.090
93.065
93.041
93.016
92.992
92.967
92.943
92.918
92.894
92.869
92.845
92.820
92.796
92.771
92.747
92.722
92.698
92.673
92.649
92.624
92.600
92.575
92.551
92.526
92.502
92.477
92.453
92.428
92.404
92.379
92.355
92.330
92.306
92.281
92.257
92.232
92.208
92.183
92.159
92.134
92.110
92.085
92.061
92.036
92.012
91.987
91.963
91.938
91.914
91.889
91.865
91.840
91.816
91.791
91.767
91.742
91.718
91.693
91.669
91.644
91.620
91.595
91.571
91.546
91.522
91.497
91.473
91.448
91.424
91.399
91.375
91.350
91.326
91.301
91.277
91.252
91.228
91.203
91.179
91.154
91.130
91.105
91.081
91.056
91.032
91.007
90.983
90.958
90.934
90.909
90.885
90.860
90.836
90.811
90.787
90.762
90.738
90.713
90.689
90.664
90.640
90.615
90.591
90.566
90.542
90.517
90.493
90.468
90.444
90.419
90.395
90.370
90.346
90.321
90.297
90.272
90.248
90.223
90.199
90.174
90.150
90.125
90.101
90.076
90.052
90.027
90.003
89.978
89.954
89.929
89.905
89.880
89.856
89.831
89.807
89.782
89.758
89.782
89.807
89.831
89.856
89.880
89.905
89.929
89.954
89.978
90.003
90.027
90.052
90.076
90.101
90.125
90.150
90.174
90.199
90.223
90.248
90.272
90.297
90.321
90.346
90.370
90.395
90.419
90.444
90.468
90.493
90.517
90.542
90.566
90.591
90.615
90.640
90.664
90.689
90.713
90.738
90.762
90.787
90.811
90.836
90.860
90.885
90.909
90.934
90.958
90.983
91.007
91.032
91.056
91.081
91.105
91.130
91.154
91.179
91.203
91.228
91.252
91.277
91.301
91.326
91.350
91.375
91.399
91.424
91.448
91.473
91.497
91.522
91.546
91.571
91.595
91.620
91.644
91.669
91.693
91.718
91.742
91.767
91.791
91.816
91.840
91.865
91.889
91.914
91.938
91.963
91.987
92.012
92.036
92.061
92.085
92.110
92.134
92.159
92.183
92.208
92.232
92.257
92.281
92.306
92.330
92.355
92.379
92.404
92.428
92.453
92.477
92.502
92.526
92.551
92.575
92.600
92.624
92.649
92.673
92.698
92.722
92.747
92.771
92.796
92.820
92.845
92.869
92.894
92.918
92.943
92.967
92.992
93.016
93.041
93.065
93.090
93.114
93.139
93.163
93.188
93.212
93.237
93.261
93.286
93.310
93.335
93.359
93.384
93.408
93.433
93.457
93.482
93.506
93.531
93.555
93.580
93.604
93.629
93.653
93.678
93.702
93.727
93.751
93.776
93.800
93.825
93.849
93.874
93.898
93.923
93.947
93.972
93.996
94.021
94.045
94.070
94.094
94.119
94.143
94.168
94.192
94.217
94.241
94.266
94.290
94.315
94.339
94.364
94.388
94.413
94.437
94.462
94.486
94.511
94.535
94.560
94.584
94.609
94.633
94.658
94.658
94.658
94.658
94.658
94.658
94.658
94.658
94.658
94.658
94.658
94.658
94.658
94.658
94.658
94.658
94.658
94.658
94.658
94.658
94.658
94.658
94.658
94.658
94.658
94.658
94.658
94.658
94.658
94.658
94.658
94.658
94.658
94.658
94.658
94.658
94.658
94.658
94.658
94.658
94.658
94.658
94.658
94.658
94.658
94.658
94.658
94.658
94.658
94.658
94.658
94.658
94.658
94.658
94.658
94.658
94.658
94.658
94.658
94.658
94.658
94.658
94.658
94.658
94.658
94.658
94.658
94.658
94.658
94.658
94.658
94.658
94.658
94.658
94.658
94.658
94.658
94.658
94.658
94.658
94.658
94.658
94.658
94.658
94.658
94.658
94.658
94.658
94.658
94.658
94.658
94.658
94.658
94.658
94.658
94.658
94.658
94.658
94.658
94.658
94.658
94.658
94.658
94.658
94.658
94.658
94.658
94.658
94.658
94.658
94.658
94.658
94.658
94.658
94.658
94.658
94.658
94.658
94.658
94.658
94.658
94.658
94.658
94.658
94.658
94.658
94.658
94.658
94.658
94.658
94.658
94.658
94.658
94.658
94.658
94.658
94.658
94.658
94.658
94.658
94.658
94.658
94.658
94.658
94.658
94.658
94.658
94.658
94.658
94.658
94.658
94.658
94.658
94.658
94.658
94.658
94.658
94.658
94.658
94.658
94.658
94.658
94.658
94.658
94.658
94.658
94.658
94.658
94.658
94.658
94.658
94.658
94.658
94.658
94.658
94.658
94.658
94.658
94.658
94.658
94.658
94.658
94.658
94.658
94.658
94.658
94.658
94.658
94.658
94.658
94.658
94.658
94.658
94.658
94.658
94.658
94.658
94.658
94.658
94.658
94.658
94.658
94.658
94.658
94.658
94.658
94.658
94.658
94.658
94.658
94.658
94.658
94.658
94.658
94.658
94.658
94.658
94.658
94.658
94.658
94.658
94.658
94.658
94.658
94.658
94.658
94.658
94.658
94.658
94.658
94.658
94.658
94.658
94.658
94.658
94.658
94.658
94.658
94.658
94.658
94.658
94.658
94.658
94.658
94.658
94.658
94.658
94.658
94.658
94.658
94.658
94.658
94.658
94.658
94.658
94.658
94.658
94.658
94.658
94.658
94.658
94.658
94.658
94.658
94.658
94.658
94.658
94.658
94.658
94.658
94.658
94.658
94.658
94.658
94.658
94.658
94.658
94.658
94.658
94.658
94.658
94.658
94.658
94.658
94.658
94.658
94.658
94.658
94.658
94.658
94.658
94.658
94.658
94.658
94.658
94.658
94.658
94.658
94.658
94.658
94.658
94.658
94.658
94.658
94.658
94.658
94.658
94.658
94.658
94.658
94.658
94.658
94.658
94.658
94.658
94.658
94.658
94.658
94.658
94.658
94.658
94.658
94.658
94.658
94.658
94.658
94.658
94.658
94.658
94.658
94.658
94.658
94.658
94.658
94.658
94.658
94.658
94.658
94.658
94.658
94.658
94.658
94.658
94.658
94.658
94.658
94.658
94.658
94.658
94.658
94.658
94.658
94.658
94.658
94.658
94.658
94.658
94.658
94.658
94.658
94.658
94.658
94.658
94.658
94.658
94.658
94.658
94.658
94.658
94.658
94.658
94.658
94.658
94.658
94.658
94.658
94.658
94.658
94.658
94.658
94.658
94.658
94.658
94.658
94.658
94.658
94.658
94.658
94.658
94.658
94.658
94.658
94.658
94.658
94.658
94.658
94.658
94.658
94.658
94.658
94.658
94.658
94.658
94.658
94.658
94.658
94.658
94.658
94.658
94.658
94.658
94.658
94.658
94.658
94.658
94.658
94.658
94.658
94.658
94.658
94.658
94.658
94.658
94.658
94.658
94.658
94.658
94.658
94.658
94.658
94.658
94.658
94.658
94.658
94.658
94.658
94.658
94.658
94.658
94.658
94.658
94.658
94.658
94.658
94.658
94.658
94.658
94.658
94.658
94.658
94.658
94.658
94.658
94.658
94.658
94.658
94.658
94.658
94.658
94.658
94.658
94.658
94.658
94.658
94.658
94.658
94.658
94.658
94.658
94.658
94.658
94.658
94.658
94.658
94.658
94.658
94.658
94.658
94.658
94.658
94.658
94.658
94.658
94.658
94.658
94.658
94.658
94.658
94.658
94.658
94.658
94.658
94.658
94.658
94.658
94.658
94.658
94.658
94.658
94.658
94.658
94.658
94.658
94.658
94.658
94.658
94.658
94.658
94.658
94.658
94.658
94.658
94.658
94.658
94.658
94.658
94.658
94.658
94.658
94.658
94.658
94.658
94.658
94.658
94.658
94.658
94.658
94.658
94.658
94.658
94.658
94.658
94.658
94.658
94.658
94.658
94.658
94.658
94.658
94.658
94.658
94.658
94.658
94.658
94.658
94.658
94.658
94.658
94.658
94.658
94.658
94.658
94.658
94.658
94.658
94.658
94.658
94.658
94.658
94.658
94.658
94.658
94.658
94.658
94.658
94.658
94.658
94.658
94.658
94.658
94.658
94.658
94.658
94.658
94.658
94.658
94.658
94.658
94.658
94.658
94.658
94.658
94.658
94.658
94.658
94.658
94.658
94.658
94.658
94.658
94.658
94.658
94.658
94.658
94.658
94.658
94.658
94.658
94.658
94.658
94.658
94.658
94.658
94.658
94.658
94.658
94.658
94.658
94.658
94.658
94.658
94.658
94.658
94.658
94.658
94.658
94.658
94.658
94.658
94.658
94.658
94.658
94.658
94.658
94.658
94.658
94.658
94.658
94.658
94.658
94.658
94.658
94.658
94.658
94.658
94.658
94.658
94.658
94.658
94.658
94.658
94.658
94.658
94.658
94.658
94.658
94.658
94.658
94.658
94.658
94.658
94.658
94.658
94.658
94.658
94.658
94.658
94.658
94.658
94.658
94.658
94.658
94.658
94.658
94.658
94.658
94.658
94.658
94.658
94.658
94.658
94.658
94.658
94.658
94.658
94.658
94.658
94.658
94.658
94.658
94.658
94.658
94.658
94.658
94.658
94.658
94.658
94.658
94.658
94.658
94.658
94.658
94.658
94.658
94.658
94.658
94.658
94.658
94.658
94.658
94.658
94.658
94.658
94.658
94.658
94.658
94.658
94.658
94.658
94.658
94.658
94.658
94.658
94.658
94.658
94.658
94.658
94.658
94.658
94.658
94.658
94.658
94.658
94.658
94.658
94.658
94.658
94.658
94.658
94.658
94.658
94.658
94.658
94.658
94.658
94.658
94.658
94.658
94.658
94.658
94.658
94.658
94.658
94.658
94.658
94.658
94.658
94.658
94.658
94.658
94.658
94.658
94.658
94.658
94.658
94.658
94.658
94.658
94.658
94.658
94.658
94.658
94.658
94.658
94.658
94.658
94.658
94.658
94.658
94.658
94.658
94.658
94.658
94.658
94.658
94.658
