2055.577
2057.043
2058.510
2059.976
2061.443
2062.909
2064.376
2065.842
2067.309
2068.775
2070.242
2071.708
2073.175
2074.641
2076.108
2077.574
2079.041
2080.507
2081.974
2083.440
2084.907
2086.373
2087.840
2089.306
2090.773
2092.239
2093.706
2095.172
2096.639
2098.105
2099.572
2101.038
2102.505
2103.971
2105.438
2106.904
2108.371
2109.837
2111.304
2112.770
2114.237
2115.703
2117.170
2118.636
2120.103
2121.569
2123.036
2124.502
2125.969
2127.435
2128.902
2130.368
2131.835
2133.301
2134.768
2136.234
2137.701
2139.167
2140.634
2142.100
2143.567
2145.033
2146.500
2147.966
2149.433
2150.899
2152.366
2153.832
2155.299
2156.765
2158.232
2159.698
2161.165
2162.631
2164.098
2165.564
2167.031
2168.497
2169.964
2171.430
2172.897
2174.363
2175.830
2177.296
2178.763
2180.229
2181.696
2183.162
2184.629
2186.095
2187.562
2189.028
2190.495
2191.961
2193.428
2194.894
2196.361
2197.827
2199.294
2200.760
2202.227
2203.693
2205.160
2206.626
2208.093
2209.559
2211.026
2212.492
2213.959
2215.425
2216.892
2218.358
2219.825
2221.291
2222.758
2224.224
2225.691
2227.157
2227.206
2227.254
2227.303
2227.351
2227.400
2227.448
2227.497
2227.545
2227.594
2227.642
2227.691
2227.739
2227.788
2227.836
2227.885
2227.933
2227.982
2228.030
2228.079
2228.127
2228.176
2228.224
2228.273
2228.321
2228.370
2228.418
2228.467
2228.515
2228.564
2228.612
2228.661
2228.709
2228.758
2228.806
2228.855
2228.903
2228.952
2229.000
2229.049
2229.097
2229.146
2229.194
2229.243
2229.291
2229.340
2229.388
2229.437
2229.485
2229.534
2229.582
2229.631
2229.679
2229.728
2229.776
2229.825
2229.873
2229.922
2229.970
2230.019
2230.067
2230.116
2230.164
2230.213
2230.261
2230.310
2230.358
2230.407
2230.455
2230.504
2230.552
2230.601
2230.649
2230.698
2230.746
2230.795
2230.843
2230.892
2230.940
2230.989
2231.037
2231.086
2231.134
2231.183
2231.231
2231.280
2231.328
2231.377
2231.425
2231.474
2231.522
2231.571
2231.619
2231.668
2231.716
2231.765
2231.813
2231.862
2231.910
2231.959
2232.007
2232.056
2232.104
2232.153
2232.201
2232.250
2232.298
2232.347
2232.395
2232.444
2232.492
2232.541
2232.589
2232.638
2232.686
2232.735
2232.783
2232.832
2232.880
2232.929
2232.977
2233.026
2233.074
2233.123
2233.171
2233.220
2233.268
2233.317
2233.365
2233.414
2233.462
2233.511
2233.559
2233.608
2233.656
2233.705
2233.753
2233.802
2233.850
2233.899
2233.947
2233.996
2234.044
2234.093
2234.141
2234.190
2234.238
2234.287
2234.335
2234.384
2234.432
2234.481
2234.529
2234.578
2234.626
2234.675
2234.723
2234.772
2234.820
2234.869
2234.917
2234.966
2235.014
2235.063
2235.111
2235.160
2235.208
2235.257
2235.305
2235.354
2235.402
2235.451
2235.499
2235.548
2235.596
2235.645
2235.693
2235.742
2235.790
2235.839
2235.887
2235.936
2235.984
2236.033
2236.081
2236.130
2236.178
2236.227
2236.275
2236.324
2236.372
2236.421
2236.469
2236.518
2236.566
2236.615
2236.663
2236.712
2236.760
2236.809
2236.857
2236.833
2236.809
2236.785
2236.761
2236.737
2236.713
2236.689
2236.665
2236.641
2236.617
2236.593
2236.569
2236.545
2236.521
2236.497
2236.473
2236.449
2236.425
2236.401
2236.377
2236.353
2236.329
2236.305
2236.281
2236.257
2236.233
2236.209
2236.185
2236.161
2236.137
2236.113
2236.089
2236.065
2236.041
2236.017
2235.993
2235.969
2235.945
2235.921
2235.897
2235.873
2235.849
2235.825
2235.801
2235.777
2235.753
2235.729
2235.705
2235.681
2235.657
2235.633
2235.609
2235.585
2235.561
2235.537
2235.513
2235.489
2235.465
2235.441
2235.417
2235.393
2235.369
2235.345
2235.321
2235.297
2235.273
2235.249
2235.225
2235.201
2235.177
2235.153
2235.129
2235.105
2235.081
2235.057
2235.033
2235.009
2234.985
2234.961
2234.937
2234.913
2234.889
2234.865
2234.841
2234.817
2234.793
2234.769
2234.745
2234.721
2234.697
2234.673
2234.649
2234.625
2234.601
2234.577
2234.553
2234.529
2234.505
2234.481
2234.457
2234.433
2234.409
2234.385
2234.361
2234.337
2234.313
2234.289
2234.265
2234.241
2234.217
2234.193
2234.169
2234.145
2234.121
2234.097
2234.073
2234.049
2234.025
2234.001
2233.977
2233.953
2233.929
2233.905
2233.881
2233.857
2233.833
2233.809
2233.785
2233.761
2233.737
2233.713
2233.689
2233.665
2233.641
2233.617
2233.593
2233.569
2233.545
2233.521
2233.497
2233.473
2233.449
2233.425
2233.401
2233.377
2233.353
2233.329
2233.305
2233.281
2233.257
2233.233
2233.209
2233.185
2233.161
2233.137
2233.113
2233.089
2233.065
2233.041
2233.017
2232.993
2232.969
2232.945
2232.921
2232.897
2232.873
2232.849
2232.825
2232.801
2232.777
2232.753
2232.729
2232.705
2232.681
2232.657
2232.633
2232.609
2232.585
2232.561
2232.537
2232.513
2232.489
2232.465
2232.441
2232.417
2232.393
2232.369
2232.345
2232.321
2232.297
2232.273
2232.249
2232.225
2232.201
2232.177
2232.153
2232.129
2232.105
2232.081
2232.057
2232.741
2233.425
2234.109
2234.793
2235.477
2236.161
2236.845
2237.529
2238.213
2238.897
2239.581
2240.265
2240.949
2241.633
2242.317
2243.001
2243.685
2244.369
2245.053
2245.737
2246.421
2247.105
2247.789
2248.473
2249.157
2249.841
2250.525
2251.209
2251.893
2252.577
2253.261
2253.945
2254.629
2255.313
2255.997
2256.681
2257.365
2258.049
2258.733
2259.417
2260.101
2260.785
2261.469
2262.153
2262.837
2263.521
2264.205
2264.889
2265.573
2266.257
2266.941
2267.625
2268.309
2268.993
2269.677
2270.361
2271.045
2271.729
2272.413
2273.097
2273.781
2274.465
2275.149
2275.833
2276.517
2277.201
2277.885
2278.569
2279.253
2279.937
2280.621
2281.305
2281.989
2282.673
2283.357
2284.041
2284.725
2285.409
2286.093
2286.777
2287.461
2288.145
2288.829
2289.513
2290.197
2290.881
2291.565
2292.249
2292.933
2293.617
2294.301
2294.985
2295.669
2296.353
2297.037
2297.721
2298.405
2299.089
2299.773
2300.457
2301.141
2301.825
2302.509
2303.193
2303.877
2304.561
2305.245
2305.929
2306.613
2307.297
2307.981
2308.665
2309.349
2310.033
2310.717
2311.401
2312.085
2312.769
2313.453
2314.137
2314.821
2315.505
2316.189
2316.873
2317.557
2318.241
2318.925
2319.609
2320.293
2320.977
2321.661
2322.345
2323.029
2323.713
2324.397
2325.081
2325.765
2326.449
2327.133
2327.817
2328.501
2329.185
2329.869
2330.553
2331.237
2331.921
2332.605
2333.289
2333.973
2334.657
2335.341
2336.025
2336.709
2337.393
2338.077
2338.761
2339.445
2340.129
2340.813
2341.497
2342.181
2342.865
2343.549
2344.233
2344.917
2345.601
2346.285
2346.969
2347.653
2348.337
2349.021
2349.705
2350.389
2351.073
2351.757
2352.441
2353.125
2353.809
2354.493
2355.177
2355.861
2356.545
2357.229
2357.913
2358.597
2359.281
2359.965
2360.649
2361.333
2362.017
2362.701
2363.385
2364.069
2364.753
2365.437
2366.121
2366.805
2367.489
2368.173
2368.857
2367.464
2366.071
2364.678
2363.285
2361.892
2360.499
2359.106
2357.713
2356.320
2354.927
2353.534
2352.141
2350.748
2349.355
2347.962
2346.569
2345.176
2343.783
2342.390
2340.997
2339.604
2338.211
2336.818
2335.425
2334.032
2332.639
2331.246
2329.853
2328.460
2327.067
2325.674
2324.281
2322.888
2321.495
2320.102
2318.709
2317.316
2315.923
2314.530
2313.137
2311.744
2310.351
2308.958
2307.565
2306.172
2304.779
2303.386
2301.993
2300.600
2299.207
2297.814
2296.421
2295.028
2293.635
2292.242
2290.849
2289.456
2288.063
2286.670
2285.277
2283.884
2282.491
2281.098
2279.705
2278.312
2276.919
2275.526
2274.133
2272.740
2271.347
2269.954
2268.561
2267.168
2265.775
2264.382
2262.989
2261.596
2260.203
2258.810
2257.417
2256.024
2254.631
2253.238
2251.845
2250.452
2249.059
2247.666
2246.273
2244.880
2243.487
2242.094
2240.701
2239.308
2237.915
2236.522
2235.129
2233.736
2232.343
2230.950
2229.557
2228.164
2226.771
2225.378
2223.985
2222.592
2221.199
2219.806
2218.413
2217.020
2215.627
2214.234
2212.841
2211.448
2210.055
2208.662
2207.269
2205.876
2204.483
2203.090
2201.697
2200.304
2198.911
2197.518
2196.125
2194.732
2193.339
2191.946
2190.553
2189.160
2187.767
2186.374
2184.981
2183.588
2182.195
2180.802
2179.409
2178.016
2176.623
2175.230
2173.837
2172.444
2171.051
2169.658
2168.265
2166.872
2165.479
2164.086
2162.693
2161.300
2159.907
2158.514
2157.121
2155.728
2154.335
2152.942
2151.549
2150.156
2148.763
2147.370
2145.977
2144.584
2143.191
2141.798
2140.405
2139.012
2137.619
2136.226
2134.833
2133.440
2132.047
2130.654
2129.261
2127.868
2126.475
2125.082
2123.689
2122.296
2120.903
2119.510
2118.117
2116.724
2115.331
2113.938
2112.545
2111.152
2109.759
2108.366
2106.973
2105.580
2104.187
2102.794
2101.401
2100.008
2098.615
2097.222
2095.829
2094.436
2093.043
2091.650
2090.257
2089.964
2089.671
2089.378
2089.085
2088.792
2088.499
2088.206
2087.913
2087.620
2087.327
2087.034
2086.741
2086.448
2086.155
2085.862
2085.569
2085.276
2084.983
2084.690
2084.397
2084.104
2083.811
2083.518
2083.225
2082.932
2082.639
2082.346
2082.053
2081.760
2081.467
2081.174
2080.881
2080.588
2080.295
2080.002
2079.709
2079.416
2079.123
2078.830
2078.537
2078.244
2077.951
2077.658
2077.365
2077.072
2076.779
2076.486
2076.193
2075.900
2075.607
2075.314
2075.021
2074.728
2074.435
2074.142
2073.849
2073.556
2073.263
2072.970
2072.677
2072.384
2072.091
2071.798
2071.505
2071.212
2070.919
2070.626
2070.333
2070.040
2069.747
2069.454
2069.161
2068.868
2068.575
2068.282
2067.989
2067.696
2067.403
2067.110
2066.817
2066.524
2066.231
2065.938
2065.645
2065.352
2065.059
2064.766
2064.473
2064.180
2063.887
2063.594
2063.301
2063.008
2062.715
2062.422
2062.129
2061.836
2061.543
2061.250
2060.957
2060.664
2060.371
2060.078
2059.785
2059.492
2059.199
2058.906
2058.613
2058.320
2058.027
2057.734
2057.441
2057.148
2056.855
2056.562
2056.269
2055.976
2055.683
2055.390
2055.097
2054.804
2054.511
2054.218
2053.925
2053.632
2053.339
2053.046
2052.753
2052.460
2052.167
2051.874
2051.581
2051.288
2050.995
2050.702
2050.409
2050.116
2049.823
2049.530
2049.237
2048.944
2048.651
2048.358
2048.065
2047.772
2047.479
2047.186
2046.893
2046.600
2046.307
2046.014
2045.721
2045.428
2045.135
2044.842
2044.549
2044.256
2043.963
2043.670
2043.377
2043.084
2042.791
2042.498
2042.205
2041.912
2041.619
2041.326
2041.033
2040.740
2040.447
2040.154
2039.861
2039.568
2039.275
2038.982
2038.689
2038.396
2038.103
2037.810
2037.517
2037.224
2036.931
2036.638
2036.345
2036.052
2035.759
2035.466
2035.173
2034.880
2034.587
2034.294
2034.001
2033.708
2033.415
2033.122
2032.829
2032.536
2032.243
2031.950
2031.657
2023.984
2016.310
2008.637
2000.963
1993.290
1985.616
1977.943
1970.269
1962.596
1954.922
1947.249
1939.575
1931.902
1924.228
1916.555
1908.881
1901.208
1893.534
1885.861
1878.187
1870.514
1862.840
1855.167
1847.493
1839.820
1832.146
1824.473
1816.799
1809.126
1801.452
1793.779
1786.105
1778.432
1770.758
1763.085
1755.411
1747.738
1740.064
1732.391
1724.717
1717.044
1709.370
1701.697
1694.023
1686.350
1678.676
1671.003
1663.329
1655.656
1647.982
1640.309
1632.635
1624.962
1617.288
1609.615
1601.941
1594.268
1586.594
1578.921
1571.247
1563.574
1555.900
1548.227
1540.553
1532.880
1525.206
1517.533
1509.859
1502.186
1494.512
1486.839
1479.165
1471.492
1463.818
1456.145
1448.471
1440.798
1433.124
1425.451
1417.777
1410.104
1402.430
1394.757
1387.083
1379.410
1371.736
1364.063
1356.389
1348.716
1341.042
1333.369
1325.695
1318.022
1310.348
1302.675
1295.001
1287.328
1279.654
1271.981
1264.307
1256.634
1248.960
1241.287
1233.613
1225.940
1218.266
1210.593
1202.919
1195.246
1187.572
1179.899
1172.225
1164.552
1156.878
1149.205
1141.531
1133.858
1126.184
1118.511
1110.837
1103.164
1095.490
1087.817
1080.143
1072.470
1064.796
1057.123
1049.449
1041.776
1034.102
1026.429
1018.755
1011.082
1003.408
995.735
988.061
980.388
972.714
965.041
957.367
949.694
942.020
934.347
926.673
919.000
911.326
903.653
895.979
888.306
880.632
872.959
865.285
857.612
849.938
842.265
834.591
826.918
819.244
811.571
803.897
796.224
788.550
780.877
773.203
765.530
757.856
750.183
742.509
734.836
727.162
719.489
711.815
704.142
696.468
688.795
681.121
673.448
665.774
658.101
650.427
642.754
635.080
627.407
619.733
612.060
604.386
596.713
589.039
581.366
573.692
566.019
558.345
550.672
542.998
535.325
527.651
519.978
512.304
504.631
105.957
105.957
105.957
105.957
105.957
105.957
105.957
105.957
105.957
105.957
105.957
105.957
105.957
105.957
105.957
105.957
105.957
105.957
105.957
105.957
105.957
105.957
105.957
105.957
105.957
105.957
105.957
105.957
105.957
105.957
105.957
105.957
105.957
105.957
105.957
105.957
105.957
105.957
105.957
105.957
105.957
105.957
105.957
105.957
105.957
105.957
105.957
105.957
105.957
105.957
105.957
105.957
105.957
105.957
105.957
105.957
105.957
105.957
105.957
105.957
105.957
105.957
105.957
105.957
105.957
105.957
105.957
105.957
105.957
105.957
105.957
105.957
105.957
105.957
105.957
105.957
105.957
105.957
105.957
105.957
105.957
105.957
105.957
105.957
105.957
105.957
105.957
105.957
105.957
105.957
105.957
105.957
105.957
105.957
105.957
105.957
105.957
105.957
105.957
105.957
105.957
105.957
105.957
105.957
105.957
105.957
105.957
105.957
105.957
105.957
105.957
105.957
105.957
105.957
105.957
105.957
105.957
105.957
105.957
105.957
105.957
105.957
105.957
105.957
105.957
105.957
105.957
105.957
105.957
105.957
105.957
105.957
105.957
105.957
105.957
105.957
105.957
105.957
105.957
105.957
105.957
105.957
105.957
105.957
105.957
105.957
105.957
105.957
105.957
105.957
105.957
105.957
105.957
105.957
105.957
105.957
105.957
105.957
105.957
105.957
105.957
105.957
105.957
105.957
105.957
105.957
105.957
105.957
105.957
105.957
105.957
105.957
105.957
105.957
105.957
105.957
105.957
105.957
105.957
105.957
105.957
105.957
105.957
105.957
105.957
105.957
105.957
105.957
105.957
105.957
105.957
105.957
105.957
105.957
105.957
105.957
105.957
105.957
105.957
105.957
105.957
105.957
105.957
105.957
105.957
105.957
105.957
105.957
105.957
105.957
105.957
105.957
105.957
105.957
105.957
105.957
105.957
105.957
105.957
105.957
105.957
105.957
105.957
105.957
105.957
105.957
105.957
105.957
105.957
105.957
105.957
105.957
105.957
105.957
105.957
105.957
105.957
105.957
105.957
105.957
105.957
105.957
105.957
105.957
105.957
105.957
105.957
105.957
105.957
105.957
105.957
105.957
105.957
105.957
105.957
105.957
105.957
105.957
105.957
105.957
105.957
105.957
105.957
105.957
105.957
105.957
105.957
105.957
105.957
105.957
105.957
105.957
105.957
105.957
105.957
105.957
105.957
105.957
105.957
105.957
105.957
105.957
105.957
105.957
105.957
105.957
105.957
105.957
105.957
105.957
105.957
105.957
105.957
105.957
105.957
105.957
105.957
105.957
105.957
105.957
105.957
105.957
105.957
105.957
105.957
105.957
105.957
105.957
105.957
105.957
105.957
105.957
105.957
105.957
105.957
105.957
105.957
105.957
105.957
105.957
105.957
105.957
105.957
105.957
105.957
105.957
105.957
105.957
105.957
105.957
105.957
105.957
105.957
105.957
105.957
105.957
105.957
105.957
105.957
105.957
105.957
105.957
105.957
105.957
105.957
105.957
105.957
105.957
105.957
105.957
105.957
105.957
105.957
105.957
105.957
105.957
105.957
105.957
105.957
105.957
105.957
105.957
105.957
105.957
105.957
105.957
105.957
105.957
105.957
105.957
105.957
105.957
105.957
105.957
105.957
105.957
105.957
105.957
105.957
105.957
105.957
105.957
105.957
105.957
105.957
105.957
105.957
105.957
105.957
105.957
105.957
105.957
105.957
105.957
105.957
105.957
105.957
105.957
105.957
105.957
105.957
105.957
105.957
105.957
105.957
105.957
105.957
105.957
105.957
105.957
105.957
105.957
105.957
105.957
105.957
105.957
105.957
105.957
105.957
105.957
105.957
105.957
105.957
105.957
105.957
105.957
105.957
105.957
105.957
105.957
105.957
105.957
105.957
105.957
105.957
105.957
105.957
105.957
105.957
105.957
105.957
105.957
105.957
105.957
105.957
105.957
105.957
105.957
105.957
105.957
105.957
105.957
105.957
105.957
105.957
105.957
105.957
105.957
105.957
105.957
105.957
105.957
105.957
105.957
105.957
105.957
105.957
105.957
105.957
105.957
105.957
105.957
105.957
105.957
105.957
105.957
105.957
105.957
105.957
105.957
105.957
105.957
105.957
105.957
105.957
105.957
105.957
105.957
105.957
105.957
105.957
105.957
105.957
105.957
105.957
105.957
105.957
105.957
105.957
105.957
105.957
105.957
105.957
105.957
105.957
105.957
105.957
105.957
105.957
105.957
105.957
105.957
105.957
105.957
105.957
105.957
105.957
105.957
105.957
105.957
105.957
105.957
105.957
105.957
105.957
105.957
105.957
105.957
105.957
105.957
105.957
105.957
105.957
105.957
105.957
105.957
105.957
105.957
105.957
105.957
105.957
105.957
105.957
105.957
105.957
105.957
105.957
105.957
105.957
105.957
105.957
105.957
105.957
105.957
105.957
105.957
105.957
105.957
105.957
105.957
105.957
105.957
105.957
105.957
105.957
105.957
105.957
105.957
105.957
105.957
105.957
105.957
105.957
105.957
105.957
105.957
105.957
105.957
105.957
105.957
105.957
105.957
105.957
105.957
105.957
105.957
105.957
105.957
105.957
105.957
105.957
105.957
105.957
105.957
105.957
105.957
105.957
105.957
105.957
105.957
105.957
105.957
105.957
105.957
105.957
105.957
105.957
105.957
105.957
105.957
105.957
105.957
105.957
105.957
105.957
105.957
105.957
105.957
105.957
105.957
105.957
105.957
105.957
105.957
105.957
105.957
105.957
105.957
105.957
105.957
105.957
105.957
105.957
105.957
105.957
105.957
105.957
105.957
105.957
105.957
105.957
105.957
105.957
105.957
105.957
105.957
105.957
105.957
105.957
105.957
105.957
105.957
105.957
105.957
105.957
105.957
105.957
105.957
105.957
105.957
105.957
105.957
105.957
105.957
105.957
105.957
105.957
105.957
105.957
105.957
105.957
105.957
105.957
105.957
105.957
105.957
105.957
105.957
105.957
105.957
105.957
105.957
105.957
