2274.614
2273.759
2272.904
2272.049
2271.194
2270.339
2269.484
2268.629
2267.774
2266.919
2266.064
2265.209
2264.354
2263.499
2262.644
2261.789
2260.934
2260.079
2259.224
2258.369
2257.514
2256.659
2255.804
2254.949
2254.094
2253.239
2252.384
2251.529
2250.674
2249.819
2248.964
2248.109
2247.254
2246.399
2245.544
2244.689
2243.834
2242.979
2242.124
2241.269
2240.414
2239.559
2238.704
2237.849
2236.994
2236.139
2235.284
2234.429
2233.574
2232.719
2231.864
2231.009
2230.154
2229.299
2228.444
2227.589
2226.734
2225.879
2225.024
2224.169
2223.314
2222.459
2221.604
2220.749
2219.894
2219.039
2218.184
2217.329
2216.474
2215.619
2214.764
2213.909
2213.054
2212.199
2211.344
2210.489
2209.634
2208.779
2207.924
2207.069
2206.214
2205.359
2204.504
2203.649
2202.794
2201.939
2201.084
2200.229
2199.374
2198.519
2197.664
2196.809
2195.954
2195.099
2194.244
2193.389
2192.534
2191.679
2190.824
2189.969
2189.114
2188.259
2187.404
2186.549
2185.694
2184.839
2183.984
2183.129
2182.274
2181.419
2180.564
2179.709
2178.854
2177.999
2177.144
2176.289
2175.434
2174.579
2173.724
2172.869
2172.014
2171.159
2170.304
2169.449
2168.594
2167.739
2166.884
2166.029
2165.174
2164.319
2163.464
2162.609
2161.754
2160.899
2160.044
2159.189
2158.334
2157.479
2156.624
2155.769
2154.914
2154.059
2153.204
2152.349
2151.494
2150.639
2149.784
2148.929
2148.074
2147.219
2146.364
2145.509
2144.654
2143.799
2142.944
2142.089
2141.234
2140.379
2139.524
2138.669
2137.814
2136.959
2136.104
2135.249
2134.394
2133.539
2132.684
2131.829
2130.974
2130.119
2129.264
2128.409
2127.554
2126.699
2125.844
2123.620
2121.396
2119.172
2116.948
2114.724
2112.500
2110.276
2108.052
2105.828
2103.604
2101.380
2099.156
2096.932
2094.708
2092.484
2090.260
2088.036
2085.812
2083.588
2081.364
2079.140
2076.916
2074.692
2072.468
2070.244
2068.020
2065.796
2063.572
2061.348
2059.124
2056.900
2054.676
2052.452
2050.228
2048.004
2045.780
2043.556
2041.332
2039.108
2036.884
2034.660
2032.436
2030.212
2027.988
2025.764
2023.540
2021.316
2019.092
2016.868
2014.644
2012.420
2010.196
2007.972
2005.748
2003.524
2001.300
1999.076
1996.852
1994.628
1992.404
1990.180
1987.956
1985.732
1983.508
1981.284
1979.060
1976.836
1974.612
1972.388
1970.164
1967.940
1965.716
1963.492
1961.268
1959.044
1956.820
1954.596
1952.372
1950.148
1947.924
1945.700
1943.476
1941.252
1939.028
1936.804
1934.580
1932.356
1930.132
1927.908
1925.684
1923.460
1921.236
1919.012
1916.788
1914.564
1912.340
1910.116
1907.892
1905.668
1903.444
1901.220
1898.996
1896.772
1894.548
1892.324
1890.100
1887.876
1885.652
1883.428
1881.204
1878.980
1876.756
1874.532
1872.308
1870.084
1867.860
1865.636
1863.412
1861.188
1858.964
1856.740
1854.516
1852.292
1850.068
1847.844
1845.620
1843.396
1841.172
1838.948
1836.724
1834.500
1832.276
1830.052
1827.828
1825.604
1823.380
1821.156
1818.932
1816.708
1814.484
1812.260
1810.036
1807.812
1805.588
1803.364
1801.140
1798.916
1796.692
1794.468
1792.244
1790.020
1787.796
1785.572
1783.348
1781.124
1778.900
1776.676
1774.452
1772.228
1770.004
1767.780
1765.556
1763.332
1761.108
1758.884
1756.660
1754.436
1752.212
1749.988
1747.764
1745.540
1743.316
1741.092
1738.868
1736.644
1734.420
1732.196
1729.972
1727.748
1725.524
1723.300
1721.076
1718.852
1716.628
1714.404
1712.180
1709.956
1707.732
1705.508
1703.284
1701.060
1698.836
1696.612
1694.388
1692.164
1689.940
1687.716
1685.492
1683.268
1681.044
1683.365
1685.687
1688.008
1690.330
1692.651
1694.973
1697.294
1699.616
1701.937
1704.259
1706.580
1708.902
1711.223
1713.545
1715.866
1718.188
1720.509
1722.831
1725.152
1727.474
1729.795
1732.117
1734.438
1736.760
1739.081
1741.403
1743.724
1746.046
1748.367
1750.689
1753.010
1755.332
1757.653
1759.975
1762.296
1764.618
1766.939
1769.261
1771.582
1773.904
1776.225
1778.547
1780.868
1783.190
1785.511
1787.833
1790.154
1792.476
1794.797
1797.119
1799.440
1801.762
1804.083
1806.405
1808.726
1811.048
1813.369
1815.691
1818.012
1820.334
1822.655
1824.977
1827.298
1829.620
1831.941
1834.263
1836.584
1838.906
1841.227
1843.549
1845.870
1848.192
1850.513
1852.835
1855.156
1857.478
1859.799
1862.121
1864.442
1866.764
1869.085
1871.407
1873.728
1876.050
1878.371
1880.693
1883.014
1885.336
1887.657
1889.979
1892.300
1894.622
1896.943
1899.265
1901.586
1903.908
1906.229
1908.551
1910.872
1913.194
1915.515
1917.837
1920.158
1922.480
1924.801
1927.123
1929.444
1931.766
1934.087
1936.409
1938.730
1941.052
1943.373
1945.695
1948.016
1950.338
1952.659
1954.981
1957.302
1959.624
1961.945
1964.267
1966.588
1968.910
1971.231
1973.553
1975.874
1978.196
1980.517
1982.839
1985.160
1987.482
1989.803
1992.125
1994.446
1996.768
1999.089
2001.411
2003.732
2006.054
2008.375
2010.697
2013.018
2015.340
2017.661
2019.983
2022.304
2024.626
2026.947
2029.269
2031.590
2033.912
2036.233
2038.555
2040.876
2043.198
2045.519
2047.841
2050.162
2052.484
2054.805
2057.127
2059.448
2061.770
2064.091
2066.413
2068.734
2071.056
2073.377
2075.699
2078.020
2080.342
2082.663
2084.985
2087.306
2089.628
2091.949
2094.271
2096.592
2098.914
2101.235
2103.557
2105.878
2108.200
2110.521
2112.843
2115.164
2117.486
2119.807
2122.129
2124.450
2126.772
2129.093
2131.415
2133.736
2136.058
2138.379
2140.701
2143.022
2145.344
2148.765
2152.187
2155.608
2159.030
2162.451
2165.873
2169.294
2172.716
2176.137
2179.559
2182.980
2186.402
2189.823
2193.245
2196.666
2200.088
2203.509
2206.931
2210.352
2213.774
2217.195
2220.617
2224.038
2227.460
2230.881
2234.303
2237.724
2241.146
2244.567
2247.989
2251.410
2254.832
2258.253
2261.675
2265.096
2268.518
2271.939
2275.361
2278.782
2282.204
2285.625
2289.047
2292.468
2295.890
2299.311
2302.733
2306.154
2309.576
2312.997
2316.419
2319.840
2323.262
2326.683
2330.105
2333.526
2336.948
2340.369
2343.791
2347.212
2350.634
2354.055
2357.477
2360.898
2364.320
2367.741
2371.163
2374.584
2378.006
2381.427
2384.849
2388.270
2391.692
2395.113
2398.535
2401.956
2405.378
2408.799
2412.221
2415.642
2419.064
2422.485
2425.907
2429.328
2432.750
2436.171
2439.593
2443.014
2446.436
2449.857
2453.279
2456.700
2460.122
2463.543
2466.965
2470.386
2473.808
2477.229
2480.651
2484.072
2487.494
2490.915
2494.337
2497.758
2501.180
2504.601
2508.023
2511.444
2514.866
2518.287
2521.709
2525.130
2528.552
2531.973
2535.395
2538.816
2542.238
2545.659
2549.081
2552.502
2555.924
2559.345
2562.767
2566.188
2569.610
2573.031
2576.453
2579.874
2583.296
2586.717
2590.139
2593.560
2596.982
2600.403
2603.825
2607.246
2610.668
2614.089
2617.511
2620.932
2624.354
2627.775
2631.197
2634.618
2638.040
2641.461
2644.883
2648.304
2651.726
2655.147
2658.569
2661.990
2665.412
2668.833
2672.255
2675.676
2679.098
2682.519
2685.941
2689.362
2692.784
2696.205
2699.627
2703.048
2706.470
2709.891
2713.313
2716.734
2720.156
2723.577
2726.999
2730.420
2733.842
2737.263
2740.685
2744.106
2747.528
2750.949
2754.371
2757.792
2761.214
2764.635
2768.057
2771.478
2774.900
2778.321
2781.743
2785.164
2788.586
2792.007
2795.429
2798.850
2802.272
2805.693
2809.115
2812.536
2815.958
2819.379
2822.801
2826.222
2829.644
2826.931
2824.219
2821.506
2818.794
2816.081
2813.369
2810.656
2807.944
2805.231
2802.519
2799.806
2797.094
2794.381
2791.669
2788.956
2786.244
2783.531
2780.819
2778.106
2775.394
2772.681
2769.969
2767.256
2764.544
2761.831
2759.119
2756.406
2753.694
2750.981
2748.269
2745.556
2742.844
2740.131
2737.419
2734.706
2731.994
2729.281
2726.569
2723.856
2721.144
2718.431
2715.719
2713.006
2710.294
2707.581
2704.869
2702.156
2699.444
2696.731
2694.019
2691.306
2688.594
2685.881
2683.169
2680.456
2677.744
2675.031
2672.319
2669.606
2666.894
2664.181
2661.469
2658.756
2656.044
2653.331
2650.619
2647.906
2645.194
2642.481
2639.769
2637.056
2634.344
2631.631
2628.919
2626.206
2623.494
2620.781
2618.069
2615.356
2612.644
2609.931
2607.219
2604.506
2601.794
2599.081
2596.369
2593.656
2590.944
2588.231
2585.519
2582.806
2580.094
2577.381
2574.669
2571.956
2569.244
2566.531
2563.819
2561.106
2558.394
2555.681
2552.969
2550.256
2547.544
2544.831
2542.119
2539.406
2536.694
2533.981
2531.269
2528.556
2525.844
2523.131
2520.419
2517.706
2514.994
2512.281
2509.569
2506.856
2504.144
2501.431
2498.719
2496.006
2493.294
2490.581
2487.869
2485.156
2482.444
2479.731
2477.019
2474.306
2471.594
2468.881
2466.169
2463.456
2460.744
2458.031
2455.319
2452.606
2449.894
2447.181
2444.469
2441.756
2439.044
2436.331
2433.619
2430.906
2428.194
2425.481
2422.769
2420.056
2417.344
2414.631
2411.919
2409.206
2406.494
2403.781
2401.069
2398.356
2395.644
2392.931
2390.219
2387.506
2384.794
2382.081
2379.369
2376.656
2373.944
2371.231
2368.519
2365.806
2363.094
2360.381
2357.669
2354.956
2352.244
2349.531
2346.819
2344.106
2341.394
2338.681
2335.969
2333.256
2330.544
2327.831
2325.119
2322.406
2319.694
2316.981
2314.269
2311.556
2308.844
2306.131
2303.419
2300.706
2297.994
2295.281
2292.569
2289.856
2287.144
2279.348
2271.552
2263.756
2255.960
2248.164
2240.368
2232.572
2224.776
2216.980
2209.184
2201.388
2193.592
2185.796
2178.000
2170.204
2162.408
2154.612
2146.816
2139.020
2131.224
2123.428
2115.632
2107.836
2100.040
2092.244
2084.448
2076.652
2068.856
2061.060
2053.264
2045.468
2037.672
2029.876
2022.080
2014.284
2006.488
1998.692
1990.896
1983.100
1975.304
1967.508
1959.712
1951.916
1944.120
1936.324
1928.528
1920.732
1912.936
1905.140
1897.344
1889.548
1881.752
1873.956
1866.160
1858.364
1850.568
1842.772
1834.976
1827.180
1819.384
1811.588
1803.792
1795.996
1788.200
1780.404
1772.608
1764.812
1757.016
1749.220
1741.424
1733.628
1725.832
1718.036
1710.240
1702.444
1694.648
1686.852
1679.056
1671.260
1663.464
1655.668
1647.872
1640.076
1632.280
1624.484
1616.688
1608.892
1601.096
1593.300
1585.504
1577.708
1569.912
1562.116
1554.320
1546.524
1538.728
1530.932
1523.136
1515.340
1507.544
1499.748
1491.952
1484.156
1476.360
1468.564
1460.768
1452.972
1445.176
1437.380
1429.584
1421.788
1413.992
1406.196
1398.400
1390.604
1382.808
1375.012
1367.216
1359.420
1351.624
1343.828
1336.032
1328.236
1320.440
1312.644
1304.848
1297.052
1289.256
1281.460
1273.664
1265.868
1258.072
1250.276
1242.480
1234.684
1226.888
1219.092
1211.296
1203.500
1195.704
1187.908
1180.112
1172.316
1164.520
1156.724
1148.928
1141.132
1133.336
1125.540
1117.744
1109.948
1102.152
1094.356
1086.560
1078.764
1070.968
1063.172
1055.376
1047.580
1039.784
1031.988
1024.192
1016.396
1008.600
1000.804
993.008
985.212
977.416
969.620
961.824
954.028
946.232
938.436
930.640
922.844
915.048
907.252
899.456
891.660
883.864
876.068
868.272
860.476
852.680
844.884
837.088
829.292
821.496
813.700
805.904
798.108
790.312
782.516
774.720
766.924
759.128
751.332
743.536
735.740
82.844
82.844
82.844
82.844
82.844
82.844
82.844
82.844
82.844
82.844
82.844
82.844
82.844
82.844
82.844
82.844
82.844
82.844
82.844
82.844
82.844
82.844
82.844
82.844
82.844
82.844
82.844
82.844
82.844
82.844
82.844
82.844
82.844
82.844
82.844
82.844
82.844
82.844
82.844
82.844
82.844
82.844
82.844
82.844
82.844
82.844
82.844
82.844
82.844
82.844
82.844
82.844
82.844
82.844
82.844
82.844
82.844
82.844
82.844
82.844
82.844
82.844
82.844
82.844
82.844
82.844
82.844
82.844
82.844
82.844
82.844
82.844
82.844
82.844
82.844
82.844
82.844
82.844
82.844
82.844
82.844
82.844
82.844
82.844
82.844
82.844
82.844
82.844
82.844
82.844
82.844
82.844
82.844
82.844
82.844
82.844
82.844
82.844
82.844
82.844
82.844
82.844
82.844
82.844
82.844
82.844
82.844
82.844
82.844
82.844
82.844
82.844
82.844
82.844
82.844
82.844
82.844
82.844
82.844
82.844
82.844
82.844
82.844
82.844
82.844
82.844
82.844
82.844
82.844
82.844
82.844
82.844
82.844
82.844
82.844
82.844
82.844
82.844
82.844
82.844
82.844
82.844
82.844
82.844
82.844
82.844
82.844
82.844
82.844
82.844
82.844
82.844
82.844
82.844
82.844
82.844
82.844
82.844
82.844
82.844
82.844
82.844
82.844
82.844
82.844
82.844
82.844
82.844
82.844
82.844
82.844
82.844
82.844
82.844
82.844
82.844
82.844
82.844
82.844
82.844
82.844
82.844
82.844
82.844
82.844
82.844
82.844
82.844
82.844
82.844
82.844
82.844
82.844
82.844
82.844
82.844
82.844
82.844
82.844
82.844
82.844
82.844
82.844
82.844
82.844
82.844
82.844
82.844
82.844
82.844
82.844
82.844
82.844
82.844
82.844
82.844
82.844
82.844
82.844
82.844
82.844
82.844
82.844
82.844
82.844
82.844
82.844
82.844
82.844
82.844
82.844
82.844
82.844
82.844
82.844
82.844
82.844
82.844
82.844
82.844
82.844
82.844
82.844
82.844
82.844
82.844
82.844
82.844
82.844
82.844
82.844
82.844
82.844
82.844
82.844
82.844
82.844
82.844
82.844
82.844
82.844
82.844
82.844
82.844
82.844
82.844
82.844
82.844
82.844
82.844
82.844
82.844
82.844
82.844
82.844
82.844
82.844
82.844
82.844
82.844
82.844
82.844
82.844
82.844
82.844
82.844
82.844
82.844
82.844
82.844
82.844
82.844
82.844
82.844
82.844
82.844
82.844
82.844
82.844
82.844
82.844
82.844
82.844
82.844
82.844
82.844
82.844
82.844
82.844
82.844
82.844
82.844
82.844
82.844
82.844
82.844
82.844
82.844
82.844
82.844
82.844
82.844
82.844
82.844
82.844
82.844
82.844
82.844
82.844
82.844
82.844
82.844
82.844
82.844
82.844
82.844
82.844
82.844
82.844
82.844
82.844
82.844
82.844
82.844
82.844
82.844
82.844
82.844
82.844
82.844
82.844
82.844
82.844
82.844
82.844
82.844
82.844
82.844
82.844
82.844
82.844
82.844
82.844
82.844
82.844
82.844
82.844
82.844
82.844
82.844
82.844
82.844
82.844
82.844
82.844
82.844
82.844
82.844
82.844
82.844
82.844
82.844
82.844
82.844
82.844
82.844
82.844
82.844
82.844
82.844
82.844
82.844
82.844
82.844
82.844
82.844
82.844
82.844
82.844
82.844
82.844
82.844
82.844
82.844
82.844
82.844
82.844
82.844
82.844
82.844
82.844
82.844
82.844
82.844
82.844
82.844
82.844
82.844
82.844
82.844
82.844
82.844
82.844
82.844
82.844
82.844
82.844
82.844
82.844
82.844
82.844
82.844
82.844
82.844
82.844
82.844
82.844
82.844
82.844
82.844
82.844
82.844
82.844
82.844
82.844
82.844
82.844
82.844
82.844
82.844
82.844
82.844
82.844
82.844
82.844
82.844
82.844
82.844
82.844
82.844
82.844
82.844
82.844
82.844
82.844
82.844
82.844
82.844
82.844
82.844
82.844
82.844
82.844
82.844
82.844
82.844
82.844
82.844
82.844
82.844
82.844
82.844
82.844
82.844
82.844
82.844
82.844
82.844
82.844
82.844
82.844
82.844
82.844
82.844
82.844
82.844
82.844
82.844
82.844
82.844
82.844
82.844
82.844
82.844
82.844
82.844
82.844
82.844
82.844
82.844
82.844
82.844
82.844
82.844
82.844
82.844
82.844
82.844
82.844
82.844
82.844
82.844
82.844
82.844
82.844
82.844
82.844
82.844
82.844
82.844
82.844
82.844
82.844
82.844
82.844
82.844
82.844
82.844
82.844
82.844
82.844
82.844
82.844
82.844
82.844
82.844
82.844
82.844
82.844
82.844
82.844
82.844
82.844
82.844
82.844
82.844
82.844
82.844
82.844
82.844
82.844
82.844
82.844
82.844
82.844
82.844
82.844
82.844
82.844
82.844
82.844
82.844
82.844
82.844
82.844
82.844
82.844
82.844
82.844
82.844
82.844
82.844
82.844
82.844
82.844
82.844
82.844
82.844
82.844
82.844
82.844
82.844
82.844
82.844
82.844
82.844
82.844
82.844
82.844
82.844
82.844
82.844
82.844
82.844
82.844
82.844
82.844
82.844
82.844
82.844
82.844
82.844
82.844
82.844
82.844
82.844
82.844
82.844
82.844
82.844
82.844
82.844
82.844
82.844
82.844
82.844
82.844
82.844
82.844
82.844
82.844
82.844
82.844
82.844
82.844
82.844
82.844
82.844
82.844
82.844
82.844
82.844
82.844
82.844
82.844
82.844
82.844
82.844
82.844
82.844
82.844
82.844
82.844
82.844
82.844
82.844
82.844
82.844
82.844
82.844
82.844
82.844
82.844
82.844
82.844
82.844
82.844
82.844
82.844
82.844
82.844
82.844
82.844
82.844
82.844
82.844
82.844
82.844
82.844
82.844
82.844
82.844
82.844
82.844
82.844
82.844
82.844
82.844
82.844
82.844
82.844
82.844
82.844
82.844
82.844
82.844
82.844
82.844
82.844
82.844
82.844
82.844
82.844
82.844
82.844
82.844
82.844
82.844
82.844
82.844
82.844
82.844
82.844
82.844
82.844
82.844
82.844
82.844
82.844
82.844
82.844
82.844
82.844
82.844
82.844
82.844
82.844
82.844
82.844
82.844
82.844
82.844
82.844
82.844
82.844
82.844
82.844
82.844
82.844
82.844
82.844
82.844
82.844
82.844
82.844
82.844
82.844
82.844
82.844
82.844
82.844
82.844
82.844
82.844
82.844
82.844
82.844
82.844
82.844
82.844
82.844
82.844
82.844
82.844
82.844
82.844
82.844
82.844
82.844
82.844
82.844
82.844
82.844
82.844
82.844
82.844
82.844
82.844
82.844
82.844
82.844
82.844
82.844
82.844
82.844
82.844
82.844
82.844
82.844
82.844
82.844
82.844
82.844
82.844
82.844
82.844
82.844
82.844
82.844
82.844
82.844
82.844
82.844
82.844
82.844
82.844
82.844
82.844
82.844
82.844
82.844
82.844
82.844
82.844
82.844
82.844
82.844
82.844
82.844
82.844
82.844
82.844
82.844
82.844
82.844
82.844
