2090.796
2089.354
2087.912
2086.470
2085.028
2083.586
2082.144
2080.702
2079.260
2077.818
2076.376
2074.934
2073.492
2072.050
2070.608
2069.166
2067.724
2066.282
2064.840
2063.398
2061.956
2060.514
2059.072
2057.630
2056.188
2054.746
2053.304
2051.862
2050.420
2048.978
2047.536
2046.094
2044.652
2043.210
2041.768
2040.326
2038.884
2037.442
2036.000
2034.558
2033.116
2031.674
2030.232
2028.790
2027.348
2025.906
2024.464
2023.022
2021.580
2020.138
2018.696
2017.254
2015.812
2014.370
2012.928
2011.486
2010.044
2008.602
2007.160
2005.718
2004.276
2002.834
2001.392
1999.950
1998.508
1997.066
1995.624
1994.182
1992.740
1991.298
1989.856
1988.414
1986.972
1985.530
1984.088
1982.646
1981.204
1979.762
1978.320
1976.878
1975.436
1973.994
1972.552
1971.110
1969.668
1968.226
1966.784
1965.342
1963.900
1962.458
1961.016
1959.574
1958.132
1956.690
1955.248
1953.806
1952.364
1950.922
1949.480
1948.038
1946.596
1945.154
1943.712
1942.270
1940.828
1939.386
1937.944
1936.502
1935.060
1933.618
1932.176
1930.734
1929.292
1927.850
1926.408
1924.966
1923.524
1922.082
1920.640
1919.198
1917.756
1916.314
1914.872
1913.430
1911.988
1910.546
1909.104
1907.662
1906.220
1904.778
1903.336
1901.894
1900.452
1899.010
1897.568
1896.126
1894.684
1893.242
1891.800
1890.358
1888.916
1887.474
1886.032
1884.590
1883.148
1881.706
1880.264
1878.822
1877.380
1875.938
1874.496
1873.054
1871.612
1870.170
1868.728
1867.286
1865.844
1864.402
1862.960
1861.518
1860.076
1858.634
1857.192
1855.750
1854.308
1852.866
1851.424
1849.982
1848.540
1847.098
1845.656
1844.214
1842.772
1841.330
1839.888
1838.446
1837.004
1835.562
1834.120
1832.678
1831.236
1829.794
1828.352
1826.910
1825.468
1824.026
1826.397
1828.767
1831.138
1833.508
1835.879
1838.249
1840.620
1842.990
1845.361
1847.731
1850.102
1852.472
1854.843
1857.213
1859.584
1861.954
1864.325
1866.695
1869.066
1871.436
1873.807
1876.177
1878.548
1880.918
1883.289
1885.659
1888.030
1890.400
1892.771
1895.141
1897.512
1899.882
1902.253
1904.623
1906.994
1909.364
1911.735
1914.105
1916.476
1918.846
1921.217
1923.587
1925.958
1928.328
1930.699
1933.069
1935.440
1937.810
1940.181
1942.551
1944.922
1947.292
1949.663
1952.033
1954.404
1956.774
1959.145
1961.515
1963.886
1966.256
1968.627
1970.997
1973.368
1975.738
1978.109
1980.479
1982.850
1985.220
1987.591
1989.961
1992.332
1994.702
1997.073
1999.443
2001.814
2004.184
2006.555
2008.925
2011.296
2013.666
2016.037
2018.407
2020.778
2023.148
2025.519
2027.889
2030.260
2032.630
2035.001
2037.371
2039.742
2042.112
2044.483
2046.853
2049.224
2051.594
2053.965
2056.335
2058.706
2061.076
2063.447
2065.817
2068.188
2070.558
2072.929
2075.299
2077.670
2080.040
2082.411
2084.781
2087.152
2089.522
2091.893
2094.263
2096.634
2099.004
2101.375
2103.745
2106.116
2108.486
2110.857
2113.227
2115.598
2117.968
2120.339
2122.709
2125.080
2127.450
2129.821
2132.191
2134.562
2136.932
2139.303
2141.673
2144.044
2146.414
2148.785
2151.155
2153.526
2155.896
2158.267
2160.637
2163.008
2165.378
2167.749
2170.119
2172.490
2174.860
2177.231
2179.601
2181.972
2184.342
2186.713
2189.083
2191.454
2193.824
2196.195
2198.565
2200.936
2203.306
2205.677
2208.047
2210.418
2212.788
2215.159
2217.529
2219.900
2222.270
2224.641
2227.011
2229.382
2231.752
2234.123
2236.493
2238.864
2241.234
2243.605
2245.975
2248.346
2250.716
2253.087
2255.457
2257.828
2260.198
2262.569
2264.939
2267.310
2269.680
2272.051
2274.421
2276.792
2279.162
2281.533
2283.903
2286.274
2288.644
2291.015
2293.385
2295.756
2298.126
2297.271
2296.416
2295.561
2294.706
2293.851
2292.996
2292.141
2291.286
2290.431
2289.576
2288.721
2287.866
2287.011
2286.156
2285.301
2284.446
2283.591
2282.736
2281.881
2281.026
2280.171
2279.316
2278.461
2277.606
2276.751
2275.896
2275.041
2274.186
2273.331
2272.476
2271.621
2270.766
2269.911
2269.056
2268.201
2267.346
2266.491
2265.636
2264.781
2263.926
2263.071
2262.216
2261.361
2260.506
2259.651
2258.796
2257.941
2257.086
2256.231
2255.376
2254.521
2253.666
2252.811
2251.956
2251.101
2250.246
2249.391
2248.536
2247.681
2246.826
2245.971
2245.116
2244.261
2243.406
2242.551
2241.696
2240.841
2239.986
2239.131
2238.276
2237.421
2236.566
2235.711
2234.856
2234.001
2233.146
2232.291
2231.436
2230.581
2229.726
2228.871
2228.016
2227.161
2226.306
2225.451
2224.596
2223.741
2222.886
2222.031
2221.176
2220.321
2219.466
2218.611
2217.756
2216.901
2216.046
2215.191
2214.336
2213.481
2212.626
2211.771
2210.916
2210.061
2209.206
2208.351
2207.496
2206.641
2205.786
2204.931
2204.076
2203.221
2202.366
2201.511
2200.656
2199.801
2198.946
2198.091
2197.236
2196.381
2195.526
2194.671
2193.816
2192.961
2192.106
2191.251
2190.396
2189.541
2188.686
2187.831
2186.976
2186.121
2185.266
2184.411
2183.556
2182.701
2181.846
2180.991
2180.136
2179.281
2178.426
2177.571
2176.716
2175.861
2175.006
2174.151
2173.296
2172.441
2171.586
2170.731
2169.876
2169.021
2168.166
2167.311
2166.456
2165.601
2164.746
2163.891
2163.036
2162.181
2161.326
2160.471
2159.616
2158.761
2157.906
2157.051
2156.196
2155.341
2154.486
2153.631
2152.776
2151.921
2151.066
2150.211
2149.356
2148.501
2147.646
2146.791
2145.936
2145.081
2144.226
2143.371
2142.516
2141.661
2140.806
2139.951
2139.096
2138.241
2137.386
2136.531
2135.676
2134.821
2133.966
2133.111
2132.256
2131.401
2130.546
2129.691
2128.836
2127.981
2127.126
2124.902
2122.678
2120.454
2118.230
2116.006
2113.782
2111.558
2109.334
2107.110
2104.886
2102.662
2100.438
2098.214
2095.990
2093.766
2091.542
2089.318
2087.094
2084.870
2082.646
2080.422
2078.198
2075.974
2073.750
2071.526
2069.302
2067.078
2064.854
2062.630
2060.406
2058.182
2055.958
2053.734
2051.510
2049.286
2047.062
2044.838
2042.614
2040.390
2038.166
2035.942
2033.718
2031.494
2029.270
2027.046
2024.822
2022.598
2020.374
2018.150
2015.926
2013.702
2011.478
2009.254
2007.030
2004.806
2002.582
2000.358
1998.134
1995.910
1993.686
1991.462
1989.238
1987.014
1984.790
1982.566
1980.342
1978.118
1975.894
1973.670
1971.446
1969.222
1966.998
1964.774
1962.550
1960.326
1958.102
1955.878
1953.654
1951.430
1949.206
1946.982
1944.758
1942.534
1940.310
1938.086
1935.862
1933.638
1931.414
1929.190
1926.966
1924.742
1922.518
1920.294
1918.070
1915.846
1913.622
1911.398
1909.174
1906.950
1904.726
1902.502
1900.278
1898.054
1895.830
1893.606
1891.382
1889.158
1886.934
1884.710
1882.486
1880.262
1878.038
1875.814
1873.590
1871.366
1869.142
1866.918
1864.694
1862.470
1860.246
1858.022
1855.798
1853.574
1851.350
1849.126
1846.902
1844.678
1842.454
1840.230
1838.006
1835.782
1833.558
1831.334
1829.110
1826.886
1824.662
1822.438
1820.214
1817.990
1815.766
1813.542
1811.318
1809.094
1806.870
1804.646
1802.422
1800.198
1797.974
1795.750
1793.526
1791.302
1789.078
1786.854
1784.630
1782.406
1780.182
1777.958
1775.734
1773.510
1771.286
1769.062
1766.838
1764.614
1762.390
1760.166
1757.942
1755.718
1753.494
1751.270
1749.046
1746.822
1744.598
1742.374
1740.150
1737.926
1735.702
1733.478
1731.254
1729.030
1726.806
1724.582
1722.358
1720.134
1717.910
1715.686
1713.462
1711.238
1709.014
1706.790
1704.566
1702.342
1700.118
1697.894
1695.670
1693.446
1691.222
1688.998
1686.774
1684.550
1682.326
1684.648
1686.969
1689.291
1691.612
1693.934
1696.255
1698.577
1700.898
1703.220
1705.541
1707.863
1710.184
1712.506
1714.827
1717.149
1719.470
1721.792
1724.113
1726.435
1728.756
1731.078
1733.399
1735.721
1738.042
1740.364
1742.685
1745.007
1747.328
1749.650
1751.971
1754.293
1756.614
1758.936
1761.257
1763.579
1765.900
1768.222
1770.543
1772.865
1775.186
1777.508
1779.829
1782.151
1784.472
1786.794
1789.115
1791.437
1793.758
1796.080
1798.401
1800.723
1803.044
1805.366
1807.687
1810.009
1812.330
1814.652
1816.973
1819.295
1821.616
1823.938
1826.259
1828.581
1830.902
1833.224
1835.545
1837.867
1840.188
1842.510
1844.831
1847.153
1849.474
1851.796
1854.117
1856.439
1858.760
1861.082
1863.403
1865.725
1868.046
1870.368
1872.689
1875.011
1877.332
1879.654
1881.975
1884.297
1886.618
1888.940
1891.261
1893.583
1895.904
1898.226
1900.547
1902.869
1905.190
1907.512
1909.833
1912.155
1914.476
1916.798
1919.119
1921.441
1923.762
1926.084
1928.405
1930.727
1933.048
1935.370
1937.691
1940.013
1942.334
1944.656
1946.977
1949.299
1951.620
1953.942
1956.263
1958.585
1960.906
1963.228
1965.549
1967.871
1970.192
1972.514
1974.835
1977.157
1979.478
1981.800
1984.121
1986.443
1988.764
1991.086
1993.407
1995.729
1998.050
2000.372
2002.693
2005.015
2007.336
2009.658
2011.979
2014.301
2016.622
2018.944
2021.265
2023.587
2025.908
2028.230
2030.551
2032.873
2035.194
2037.516
2039.837
2042.159
2044.480
2046.802
2049.123
2051.445
2053.766
2056.088
2058.409
2060.731
2063.052
2065.374
2067.695
2070.017
2072.338
2074.660
2076.981
2079.303
2081.624
2083.946
2086.267
2088.589
2090.910
2093.232
2095.553
2097.875
2100.196
2102.518
2104.839
2107.161
2109.482
2111.804
2114.125
2116.447
2118.768
2121.090
2123.411
2125.733
2128.054
2130.376
2132.697
2135.019
2137.340
2139.662
2141.983
2144.305
2146.626
2150.048
2153.469
2156.891
2160.312
2163.734
2167.155
2170.577
2173.998
2177.420
2180.841
2184.263
2187.684
2191.106
2194.527
2197.949
2201.370
2204.792
2208.213
2211.635
2215.056
2218.478
2221.899
2225.321
2228.742
2232.164
2235.585
2239.007
2242.428
2245.850
2249.271
2252.693
2256.114
2259.536
2262.957
2266.379
2269.800
2273.222
2276.643
2280.065
2283.486
2286.908
2290.329
2293.751
2297.172
2300.594
2304.015
2307.437
2310.858
2314.280
2317.701
2321.123
2324.544
2327.966
2331.387
2334.809
2338.230
2341.652
2345.073
2348.495
2351.916
2355.338
2358.759
2362.181
2365.602
2369.024
2372.445
2375.867
2379.288
2382.710
2386.131
2389.553
2392.974
2396.396
2399.817
2403.239
2406.660
2410.082
2413.503
2416.925
2420.346
2423.768
2427.189
2430.611
2434.032
2437.454
2440.875
2444.297
2447.718
2451.140
2454.561
2457.983
2461.404
2464.826
2468.247
2471.669
2475.090
2478.512
2481.933
2485.355
2488.776
2492.198
2495.619
2499.041
2502.462
2505.884
2509.305
2512.727
2516.148
2519.570
2522.991
2526.413
2529.834
2533.256
2536.677
2540.099
2543.520
2546.942
2550.363
2553.785
2557.206
2560.628
2564.049
2567.471
2570.892
2574.314
2577.735
2581.157
2584.578
2588.000
2591.421
2594.843
2598.264
2601.686
2605.107
2608.529
2611.950
2615.372
2618.793
2622.215
2625.636
2629.058
2632.479
2635.901
2639.322
2642.744
2646.165
2649.587
2653.008
2656.430
2659.851
2663.273
2666.694
2670.116
2673.537
2676.959
2680.380
2683.802
2687.223
2690.645
2694.066
2697.488
2700.909
2704.331
2707.752
2711.174
2714.595
2718.017
2721.438
2724.860
2728.281
2731.703
2735.124
2738.546
2741.967
2745.389
2748.810
2752.232
2755.653
2759.075
2762.496
2765.918
2769.339
2772.761
2776.182
2779.604
2783.025
2786.447
2789.868
2793.290
2796.711
2800.133
2803.554
2806.976
2810.397
2813.819
2817.240
2820.662
2824.083
2827.505
2830.926
2828.214
2825.501
2822.789
2820.076
2817.364
2814.651
2811.939
2809.226
2806.514
2803.801
2801.089
2798.376
2795.664
2792.951
2790.239
2787.526
2784.814
2782.101
2779.389
2776.676
2773.964
2771.251
2768.539
2765.826
2763.114
2760.401
2757.689
2754.976
2752.264
2749.551
2746.839
2744.126
2741.414
2738.701
2735.989
2733.276
2730.564
2727.851
2725.139
2722.426
2719.714
2717.001
2714.289
2711.576
2708.864
2706.151
2703.439
2700.726
2698.014
2695.301
2692.589
2689.876
2687.164
2684.451
2681.739
2679.026
2676.314
2673.601
2670.889
2668.176
2665.464
2662.751
2660.039
2657.326
2654.614
2651.901
2649.189
2646.476
2643.764
2641.051
2638.339
2635.626
2632.914
2630.201
2627.489
2624.776
2622.064
2619.351
2616.639
2613.926
2611.214
2608.501
2605.789
2603.076
2600.364
2597.651
2594.939
2592.226
2589.514
2586.801
2584.089
2581.376
2578.664
2575.951
2573.239
2570.526
2567.814
2565.101
2562.389
2559.676
2556.964
2554.251
2551.539
2548.826
2546.114
2543.401
2540.689
2537.976
2535.264
2532.551
2529.839
2527.126
2524.414
2521.701
2518.989
2516.276
2513.564
2510.851
2508.139
2505.426
2502.714
2500.001
2497.289
2494.576
2491.864
2489.151
2486.439
2483.726
2481.014
2478.301
2475.589
2472.876
2470.164
2467.451
2464.739
2462.026
2459.314
2456.601
2453.889
2451.176
2448.464
2445.751
2443.039
2440.326
2437.614
2434.901
2432.189
2429.476
2426.764
2424.051
2421.339
2418.626
2415.914
2413.201
2410.489
2407.776
2405.064
2402.351
2399.639
2396.926
2394.214
2391.501
2388.789
2386.076
2383.364
2380.651
2377.939
2375.226
2372.514
2369.801
2367.089
2364.376
2361.664
2358.951
2356.239
2353.526
2350.814
2348.101
2345.389
2342.676
2339.964
2337.251
2334.539
2331.826
2329.114
2326.401
2323.689
2320.976
2318.264
2315.551
2312.839
2310.126
2307.414
2304.701
2301.989
2299.276
2296.564
2293.851
2291.139
2288.426
2280.630
2272.834
2265.038
2257.242
2249.446
2241.650
2233.854
2226.058
2218.262
2210.466
2202.670
2194.874
2187.078
2179.282
2171.486
2163.690
2155.894
2148.098
2140.302
2132.506
2124.710
2116.914
2109.118
2101.322
2093.526
2085.730
2077.934
2070.138
2062.342
2054.546
2046.750
2038.954
2031.158
2023.362
2015.566
2007.770
1999.974
1992.178
1984.382
1976.586
1968.790
1960.994
1953.198
1945.402
1937.606
1929.810
1922.014
1914.218
1906.422
1898.626
1890.830
1883.034
1875.238
1867.442
1859.646
1851.850
1844.054
1836.258
1828.462
1820.666
1812.870
1805.074
1797.278
1789.482
1781.686
1773.890
1766.094
1758.298
1750.502
1742.706
1734.910
1727.114
1719.318
1711.522
1703.726
1695.930
1688.134
1680.338
1672.542
1664.746
1656.950
1649.154
1641.358
1633.562
1625.766
1617.970
1610.174
1602.378
1594.582
1586.786
1578.990
1571.194
1563.398
1555.602
1547.806
1540.010
1532.214
1524.418
1516.622
1508.826
1501.030
1493.234
1485.438
1477.642
1469.846
1462.050
1454.254
1446.458
1438.662
1430.866
1423.070
1415.274
1407.478
1399.682
1391.886
1384.090
1376.294
1368.498
1360.702
1352.906
1345.110
1337.314
1329.518
1321.722
1313.926
1306.130
1298.334
1290.538
1282.742
1274.946
1267.150
1259.354
1251.558
1243.762
1235.966
1228.170
1220.374
1212.578
1204.782
1196.986
1189.190
1181.394
1173.598
1165.802
1158.006
1150.210
1142.414
1134.618
1126.822
1119.026
1111.230
1103.434
1095.638
1087.842
1080.046
1072.250
1064.454
1056.658
1048.862
1041.066
1033.270
1025.474
1017.678
1009.882
1002.086
994.290
986.494
978.698
970.902
963.106
955.310
947.514
939.718
931.922
924.126
916.330
908.534
900.738
892.942
885.146
877.350
869.554
861.758
853.962
846.166
838.370
830.574
822.778
814.982
807.186
799.390
791.594
783.798
776.002
768.206
760.410
752.614
744.818
737.022
84.126
84.126
84.126
84.126
84.126
84.126
84.126
84.126
84.126
84.126
84.126
84.126
84.126
84.126
84.126
84.126
84.126
84.126
84.126
84.126
84.126
84.126
84.126
84.126
84.126
84.126
84.126
84.126
84.126
84.126
84.126
84.126
84.126
84.126
84.126
84.126
84.126
84.126
84.126
84.126
84.126
84.126
84.126
84.126
84.126
84.126
84.126
84.126
84.126
84.126
84.126
84.126
84.126
84.126
84.126
84.126
84.126
84.126
84.126
84.126
84.126
84.126
84.126
84.126
84.126
84.126
84.126
84.126
84.126
84.126
84.126
84.126
84.126
84.126
84.126
84.126
84.126
84.126
84.126
84.126
84.126
84.126
84.126
84.126
84.126
84.126
84.126
84.126
84.126
84.126
84.126
84.126
84.126
84.126
84.126
84.126
84.126
84.126
84.126
84.126
84.126
84.126
84.126
84.126
84.126
84.126
84.126
84.126
84.126
84.126
84.126
84.126
84.126
84.126
84.126
84.126
84.126
84.126
84.126
84.126
84.126
84.126
84.126
84.126
84.126
84.126
84.126
84.126
84.126
84.126
84.126
84.126
84.126
84.126
84.126
84.126
84.126
84.126
84.126
84.126
84.126
84.126
84.126
84.126
84.126
84.126
84.126
84.126
84.126
84.126
84.126
84.126
84.126
84.126
84.126
84.126
84.126
84.126
84.126
84.126
84.126
84.126
84.126
84.126
84.126
84.126
84.126
84.126
84.126
84.126
84.126
84.126
84.126
84.126
84.126
84.126
84.126
84.126
84.126
84.126
84.126
84.126
84.126
84.126
84.126
84.126
84.126
84.126
84.126
84.126
84.126
84.126
84.126
84.126
84.126
84.126
84.126
84.126
84.126
84.126
84.126
84.126
84.126
84.126
84.126
84.126
84.126
84.126
84.126
84.126
84.126
84.126
84.126
84.126
84.126
84.126
84.126
84.126
84.126
84.126
84.126
84.126
84.126
84.126
84.126
84.126
84.126
84.126
84.126
84.126
84.126
84.126
84.126
84.126
84.126
84.126
84.126
84.126
84.126
84.126
84.126
84.126
84.126
84.126
84.126
84.126
84.126
84.126
84.126
84.126
84.126
84.126
84.126
84.126
84.126
84.126
84.126
84.126
84.126
84.126
84.126
84.126
84.126
84.126
84.126
84.126
84.126
84.126
84.126
84.126
84.126
84.126
84.126
84.126
84.126
84.126
84.126
84.126
84.126
84.126
84.126
84.126
84.126
84.126
84.126
84.126
84.126
84.126
84.126
84.126
84.126
84.126
84.126
84.126
84.126
84.126
84.126
84.126
84.126
84.126
84.126
84.126
84.126
84.126
84.126
84.126
84.126
84.126
84.126
84.126
84.126
84.126
84.126
84.126
84.126
84.126
84.126
84.126
84.126
84.126
84.126
84.126
84.126
84.126
84.126
84.126
84.126
84.126
84.126
84.126
84.126
84.126
84.126
84.126
84.126
84.126
84.126
84.126
84.126
84.126
84.126
84.126
84.126
84.126
84.126
84.126
84.126
84.126
84.126
84.126
84.126
84.126
84.126
84.126
84.126
84.126
84.126
84.126
84.126
84.126
84.126
84.126
84.126
84.126
84.126
84.126
84.126
84.126
84.126
84.126
84.126
84.126
84.126
84.126
84.126
84.126
84.126
84.126
84.126
84.126
84.126
84.126
84.126
84.126
84.126
84.126
84.126
84.126
84.126
84.126
84.126
84.126
84.126
84.126
84.126
84.126
84.126
84.126
84.126
84.126
84.126
84.126
84.126
84.126
84.126
84.126
84.126
84.126
84.126
84.126
84.126
84.126
84.126
84.126
84.126
