2398.802
2395.136
2391.470
2387.804
2384.138
2380.472
2376.806
2373.140
2369.474
2365.808
2362.142
2358.476
2354.810
2351.144
2347.478
2343.812
2340.146
2336.480
2332.814
2329.148
2325.482
2321.816
2318.150
2314.484
2310.818
2307.152
2303.486
2299.820
2296.154
2292.488
2288.822
2285.156
2281.490
2277.824
2274.158
2270.492
2266.826
2263.160
2259.494
2255.828
2252.162
2248.496
2244.830
2241.164
2237.498
2233.832
2230.166
2226.500
2222.834
2219.168
2215.502
2211.836
2208.170
2204.504
2200.838
2197.172
2193.506
2189.840
2186.174
2182.508
2178.842
2175.176
2171.510
2167.844
2164.178
2160.512
2156.846
2153.180
2149.514
2145.848
2142.182
2138.516
2134.850
2131.184
2127.518
2123.852
2120.186
2116.520
2112.854
2109.188
2105.522
2101.856
2098.190
2094.524
2090.858
2087.192
2083.526
2079.860
2076.194
2072.528
2068.862
2065.196
2061.530
2057.864
2054.198
2050.532
2046.866
2043.200
2039.534
2035.868
2032.202
2028.536
2024.870
2021.204
2017.538
2013.872
2010.206
2006.540
2002.874
1999.208
1995.542
1991.876
1988.210
1984.544
1980.878
1977.212
1973.546
1969.880
1966.214
1962.548
1958.882
1955.216
1951.550
1947.884
1944.218
1940.552
1936.886
1933.220
1929.554
1925.888
1922.222
1918.556
1914.890
1911.224
1907.558
1903.892
1900.226
1896.560
1892.894
1889.228
1885.562
1881.896
1878.230
1874.564
1870.898
1867.232
1863.566
1859.900
1856.234
1852.568
1848.902
1845.236
1841.570
1837.904
1834.238
1830.572
1826.906
1823.240
1819.574
1815.908
1812.242
1808.576
1804.910
1801.244
1797.578
1793.912
1790.246
1786.580
1782.914
1779.248
1775.582
1771.916
1768.250
1764.584
1760.918
1757.252
1753.586
1749.920
1746.254
1742.588
1738.922
1735.256
1731.590
1727.924
1724.258
1720.592
1716.926
1713.260
1709.594
1705.928
1702.262
1698.596
1694.930
1691.264
1687.598
1689.626
1691.655
1693.683
1695.712
1697.740
1699.769
1701.797
1703.826
1705.854
1707.883
1709.911
1711.940
1713.968
1715.997
1718.025
1720.054
1722.082
1724.111
1726.139
1728.168
1730.196
1732.225
1734.253
1736.282
1738.310
1740.339
1742.367
1744.396
1746.424
1748.453
1750.481
1752.510
1754.538
1756.567
1758.595
1760.624
1762.652
1764.681
1766.709
1768.738
1770.766
1772.795
1774.823
1776.852
1778.880
1780.909
1782.937
1784.966
1786.994
1789.023
1791.051
1793.080
1795.108
1797.137
1799.165
1801.194
1803.222
1805.251
1807.279
1809.308
1811.336
1813.365
1815.393
1817.422
1819.450
1821.479
1823.507
1825.536
1827.564
1829.593
1831.621
1833.650
1835.678
1837.707
1839.735
1841.764
1843.792
1845.821
1847.849
1849.878
1851.906
1853.935
1855.963
1857.992
1860.020
1862.049
1864.077
1866.106
1868.134
1870.163
1872.191
1874.220
1876.248
1878.277
1880.305
1882.334
1884.362
1886.391
1888.419
1890.448
1892.476
1894.505
1896.533
1898.562
1900.590
1902.619
1904.647
1906.676
1908.704
1910.733
1912.761
1914.790
1916.818
1918.847
1920.875
1922.904
1924.932
1926.961
1928.989
1931.018
1933.046
1935.075
1937.103
1939.132
1941.160
1943.189
1945.217
1947.246
1949.274
1951.303
1953.331
1955.360
1957.388
1959.417
1961.445
1963.474
1965.502
1967.531
1969.559
1971.588
1973.616
1975.645
1977.673
1979.702
1981.730
1983.759
1985.787
1987.816
1989.844
1991.873
1993.901
1995.930
1997.958
1999.987
2002.015
2004.044
2006.072
2008.101
2010.129
2012.158
2014.186
2016.215
2018.243
2020.272
2022.300
2024.329
2026.357
2028.386
2030.414
2032.443
2034.471
2036.500
2038.528
2040.557
2042.585
2044.614
2046.642
2048.671
2050.699
2052.728
2054.756
2056.785
2058.813
2060.842
2062.870
2064.899
2066.927
2068.956
2070.984
2073.013
2075.041
2077.070
2079.098
2081.127
2083.155
2085.184
2087.212
2089.241
2091.269
2093.298
2094.373
2095.448
2096.523
2097.598
2098.673
2099.748
2100.823
2101.898
2102.973
2104.048
2105.123
2106.198
2107.273
2108.348
2109.423
2110.498
2111.573
2112.648
2113.723
2114.798
2115.873
2116.948
2118.023
2119.098
2120.173
2121.248
2122.323
2123.398
2124.473
2125.548
2126.623
2127.698
2128.773
2129.848
2130.923
2131.998
2133.073
2134.148
2135.223
2136.298
2137.373
2138.448
2139.523
2140.598
2141.673
2142.748
2143.823
2144.898
2145.973
2147.048
2148.123
2149.198
2150.273
2151.348
2152.423
2153.498
2154.573
2155.648
2156.723
2157.798
2158.873
2159.948
2161.023
2162.098
2163.173
2164.248
2165.323
2166.398
2167.473
2168.548
2169.623
2170.698
2171.773
2172.848
2173.923
2174.998
2176.073
2177.148
2178.223
2179.298
2180.373
2181.448
2182.523
2183.598
2184.673
2185.748
2186.823
2187.898
2188.973
2190.048
2191.123
2192.198
2193.273
2194.348
2195.423
2196.498
2197.573
2198.648
2199.723
2200.798
2201.873
2202.948
2204.023
2205.098
2206.173
2207.248
2208.323
2209.398
2210.473
2211.548
2212.623
2213.698
2214.773
2215.848
2216.923
2217.998
2219.073
2220.148
2221.223
2222.298
2223.373
2224.448
2225.523
2226.598
2227.673
2228.748
2229.823
2230.898
2231.973
2233.048
2234.123
2235.198
2236.273
2237.348
2238.423
2239.498
2240.573
2241.648
2242.723
2243.798
2244.873
2245.948
2247.023
2248.098
2249.173
2250.248
2251.323
2252.398
2253.473
2254.548
2255.623
2256.698
2257.773
2258.848
2259.923
2260.998
2262.073
2263.148
2264.223
2265.298
2266.373
2267.448
2268.523
2269.598
2270.673
2271.748
2272.823
2273.898
2274.973
2276.048
2277.123
2278.198
2279.273
2280.348
2281.423
2282.498
2283.573
2284.648
2285.723
2286.798
2287.873
2288.948
2290.023
2291.098
2292.173
2293.248
2294.323
2295.398
2296.473
2297.548
2298.623
2299.698
2300.773
2301.848
2302.923
2303.998
2305.073
2306.148
2307.223
2308.298
2310.057
2311.817
2313.576
2315.336
2317.095
2318.855
2320.614
2322.374
2324.133
2325.893
2327.652
2329.412
2331.171
2332.931
2334.690
2336.450
2338.209
2339.969
2341.728
2343.488
2345.247
2347.007
2348.766
2350.526
2352.285
2354.045
2355.804
2357.564
2359.323
2361.083
2362.842
2364.602
2366.361
2368.121
2369.880
2371.640
2373.399
2375.159
2376.918
2378.678
2380.437
2382.197
2383.956
2385.716
2387.475
2389.235
2390.994
2392.754
2394.513
2396.273
2398.032
2399.792
2401.551
2403.311
2405.070
2406.830
2408.589
2410.349
2412.108
2413.868
2415.627
2417.387
2419.146
2420.906
2422.665
2424.425
2426.184
2427.944
2429.703
2431.463
2433.222
2434.982
2436.741
2438.501
2440.260
2442.020
2443.779
2445.539
2447.298
2449.058
2450.817
2452.577
2454.336
2456.096
2457.855
2459.615
2461.374
2463.134
2464.893
2466.653
2468.412
2470.172
2471.931
2473.691
2475.450
2477.210
2478.969
2480.729
2482.488
2484.248
2486.007
2487.767
2489.526
2491.286
2493.045
2494.805
2496.564
2498.324
2500.083
2501.843
2503.602
2505.362
2507.121
2508.881
2510.640
2512.400
2514.159
2515.919
2517.678
2519.438
2521.197
2522.957
2524.716
2526.476
2528.235
2529.995
2531.754
2533.514
2535.273
2537.033
2538.792
2540.552
2542.311
2544.071
2545.830
2547.590
2549.349
2551.109
2552.868
2554.628
2556.387
2558.147
2559.906
2561.666
2563.425
2565.185
2566.944
2568.704
2570.463
2572.223
2573.982
2575.742
2577.501
2579.261
2581.020
2582.780
2584.539
2586.299
2588.058
2589.818
2591.577
2593.337
2595.096
2596.856
2598.615
2600.375
2602.134
2603.894
2605.653
2607.413
2609.172
2610.932
2612.691
2614.451
2616.210
2617.970
2619.729
2621.489
2623.248
2625.008
2626.767
2628.527
2630.286
2632.046
2633.805
2635.565
2637.324
2639.084
2640.843
2642.603
2644.362
2646.122
2647.881
2649.641
2651.400
2653.160
2654.919
2656.679
2658.438
2660.198
2656.435
2652.672
2648.909
2645.146
2641.383
2637.620
2633.857
2630.094
2626.331
2622.568
2618.805
2615.042
2611.279
2607.516
2603.753
2599.990
2596.227
2592.464
2588.701
2584.938
2581.175
2577.412
2573.649
2569.886
2566.123
2562.360
2558.597
2554.834
2551.071
2547.308
2543.545
2539.782
2536.019
2532.256
2528.493
2524.730
2520.967
2517.204
2513.441
2509.678
2505.915
2502.152
2498.389
2494.626
2490.863
2487.100
2483.337
2479.574
2475.811
2472.048
2468.285
2464.522
2460.759
2456.996
2453.233
2449.470
2445.707
2441.944
2438.181
2434.418
2430.655
2426.892
2423.129
2419.366
2415.603
2411.840
2408.077
2404.314
2400.551
2396.788
2393.025
2389.262
2385.499
2381.736
2377.973
2374.210
2370.447
2366.684
2362.921
2359.158
2355.395
2351.632
2347.869
2344.106
2340.343
2336.580
2332.817
2329.054
2325.291
2321.528
2317.765
2314.002
2310.239
2306.476
2302.713
2298.950
2295.187
2291.424
2287.661
2283.898
2280.135
2276.372
2272.609
2268.846
2265.083
2261.320
2257.557
2253.794
2250.031
2246.268
2242.505
2238.742
2234.979
2231.216
2227.453
2223.690
2219.927
2216.164
2212.401
2208.638
2204.875
2201.112
2197.349
2193.586
2189.823
2186.060
2182.297
2178.534
2174.771
2171.008
2167.245
2163.482
2159.719
2155.956
2152.193
2148.430
2144.667
2140.904
2137.141
2133.378
2129.615
2125.852
2122.089
2118.326
2114.563
2110.800
2107.037
2103.274
2099.511
2095.748
2091.985
2088.222
2084.459
2080.696
2076.933
2073.170
2069.407
2065.644
2061.881
2058.118
2054.355
2050.592
2046.829
2043.066
2039.303
2035.540
2031.777
2028.014
2024.251
2020.488
2016.725
2012.962
2009.199
2005.436
2001.673
1997.910
1994.147
1990.384
1986.621
1982.858
1979.095
1975.332
1971.569
1967.806
1964.043
1960.280
1956.517
1952.754
1948.991
1945.228
1941.465
1937.702
1933.939
1930.176
1926.413
1922.650
1918.887
1915.124
1911.361
1907.598
1905.862
1904.127
1902.391
1900.656
1898.920
1897.185
1895.449
1893.714
1891.978
1890.243
1888.507
1886.772
1885.036
1883.301
1881.565
1879.830
1878.094
1876.359
1874.623
1872.888
1871.152
1869.417
1867.681
1865.946
1864.210
1862.475
1860.739
1859.004
1857.268
1855.533
1853.797
1852.062
1850.326
1848.591
1846.855
1845.120
1843.384
1841.649
1839.913
1838.178
1836.442
1834.707
1832.971
1831.236
1829.500
1827.765
1826.029
1824.294
1822.558
1820.823
1819.087
1817.352
1815.616
1813.881
1812.145
1810.410
1808.674
1806.939
1805.203
1803.468
1801.732
1799.997
1798.261
1796.526
1794.790
1793.055
1791.319
1789.584
1787.848
1786.113
1784.377
1782.642
1780.906
1779.171
1777.435
1775.700
1773.964
1772.229
1770.493
1768.758
1767.022
1765.287
1763.551
1761.816
1760.080
1758.345
1756.609
1754.874
1753.138
1751.403
1749.667
1747.932
1746.196
1744.461
1742.725
1740.990
1739.254
1737.519
1735.783
1734.048
1732.312
1730.577
1728.841
1727.106
1725.370
1723.635
1721.899
1720.164
1718.428
1716.693
1714.957
1713.222
1711.486
1709.751
1708.015
1706.280
1704.544
1702.809
1701.073
1699.338
1697.602
1695.867
1694.131
1692.396
1690.660
1688.925
1687.189
1685.454
1683.718
1681.983
1680.247
1678.512
1676.776
1675.041
1673.305
1671.570
1669.834
1668.099
1666.363
1664.628
1662.892
1661.157
1659.421
1657.686
1655.950
1654.215
1652.479
1650.744
1649.008
1647.273
1645.537
1643.802
1642.066
1640.331
1638.595
1636.860
1635.124
1633.389
1631.653
1629.918
1628.182
1626.447
1624.711
1622.976
1621.240
1619.505
1617.769
1616.034
1614.298
1612.563
1610.827
1609.092
1607.356
1605.621
1603.885
1602.150
1600.414
1598.679
1596.943
1595.208
1593.472
1591.737
1590.001
1588.266
1586.530
1584.795
1583.059
1581.324
1579.588
1577.853
1576.117
1574.382
1572.646
1570.911
1569.175
1567.440
1565.704
1563.969
1562.233
1560.498
1563.235
1565.972
1568.709
1571.446
1574.183
1576.920
1579.657
1582.394
1585.131
1587.868
1590.605
1593.342
1596.079
1598.816
1601.553
1604.290
1607.027
1609.764
1612.501
1615.238
1617.975
1620.712
1623.449
1626.186
1628.923
1631.660
1634.397
1637.134
1639.871
1642.608
1645.345
1648.082
1650.819
1653.556
1656.293
1659.030
1661.767
1664.504
1667.241
1669.978
1672.715
1675.452
1678.189
1680.926
1683.663
1686.400
1689.137
1691.874
1694.611
1697.348
1700.085
1702.822
1705.559
1708.296
1711.033
1713.770
1716.507
1719.244
1721.981
1724.718
1727.455
1730.192
1732.929
1735.666
1738.403
1741.140
1743.877
1746.614
1749.351
1752.088
1754.825
1757.562
1760.299
1763.036
1765.773
1768.510
1771.247
1773.984
1776.721
1779.458
1782.195
1784.932
1787.669
1790.406
1793.143
1795.880
1798.617
1801.354
1804.091
1806.828
1809.565
1812.302
1815.039
1817.776
1820.513
1823.250
1825.987
1828.724
1831.461
1834.198
1836.935
1839.672
1842.409
1845.146
1847.883
1850.620
1853.357
1856.094
1858.831
1861.568
1864.305
1867.042
1869.779
1872.516
1875.253
1877.990
1880.727
1883.464
1886.201
1888.938
1891.675
1894.412
1897.149
1899.886
1902.623
1905.360
1908.097
1910.834
1913.571
1916.308
1919.045
1921.782
1924.519
1927.256
1929.993
1932.730
1935.467
1938.204
1940.941
1943.678
1946.415
1949.152
1951.889
1954.626
1957.363
1960.100
1962.837
1965.574
1968.311
1971.048
1973.785
1976.522
1979.259
1981.996
1984.733
1987.470
1990.207
1992.944
1995.681
1998.418
2001.155
2003.892
2006.629
2009.366
2012.103
2014.840
2017.577
2020.314
2023.051
2025.788
2028.525
2031.262
2033.999
2036.736
2039.473
2042.210
2044.947
2047.684
2050.421
2053.158
2055.895
2058.632
2061.369
2064.106
2066.843
2069.580
2072.317
2075.054
2077.791
2080.528
2083.265
2086.002
2088.739
2091.476
2094.213
2096.950
2099.687
2102.424
2105.161
94.298
94.298
94.298
94.298
94.298
94.298
94.298
94.298
94.298
94.298
94.298
94.298
94.298
94.298
94.298
94.298
94.298
94.298
94.298
94.298
94.298
94.298
94.298
94.298
94.298
94.298
94.298
94.298
94.298
94.298
94.298
94.298
94.298
94.298
94.298
94.298
94.298
94.298
94.298
94.298
94.298
94.298
94.298
94.298
94.298
94.298
94.298
94.298
94.298
94.298
94.298
94.298
94.298
94.298
94.298
94.298
94.298
94.298
94.298
94.298
94.298
94.298
94.298
94.298
94.298
94.298
94.298
94.298
94.298
94.298
94.298
94.298
94.298
94.298
94.298
94.298
94.298
94.298
94.298
94.298
94.298
94.298
94.298
94.298
94.298
94.298
94.298
94.298
94.298
94.298
94.298
94.298
94.298
94.298
94.298
94.298
94.298
94.298
94.298
94.298
94.298
94.298
94.298
94.298
94.298
94.298
94.298
94.298
94.298
94.298
94.298
94.298
94.298
94.298
94.298
94.298
94.298
94.298
94.298
94.298
94.298
94.298
94.298
94.298
94.298
94.298
94.298
94.298
94.298
94.298
94.298
94.298
94.298
94.298
94.298
94.298
94.298
94.298
94.298
94.298
94.298
94.298
94.298
94.298
94.298
94.298
94.298
94.298
94.298
94.298
94.298
94.298
94.298
94.298
94.298
94.298
94.298
94.298
94.298
94.298
94.298
94.298
94.298
94.298
94.298
94.298
94.298
94.298
94.298
94.298
94.298
94.298
94.298
94.298
94.298
94.298
94.298
94.298
94.298
94.298
94.298
94.298
94.298
94.298
94.298
94.298
94.298
94.298
94.298
94.298
94.298
94.298
94.298
94.298
94.298
94.298
94.298
94.298
94.298
94.298
94.298
94.273
94.249
94.224
94.200
94.175
94.151
94.126
94.102
94.077
94.053
94.028
94.004
93.979
93.955
93.930
93.906
93.881
93.857
93.832
93.808
93.783
93.759
93.734
93.710
93.685
93.661
93.636
93.612
93.587
93.563
93.538
93.514
93.489
93.465
93.440
93.416
93.391
93.367
93.342
93.318
93.293
93.269
93.244
93.220
93.195
93.171
93.146
93.122
93.097
93.073
93.048
93.024
92.999
92.975
92.950
92.926
92.901
92.877
92.852
92.828
92.803
92.779
92.754
92.730
92.705
92.681
92.656
92.632
92.607
92.583
92.558
92.534
92.509
92.485
92.460
92.436
92.411
92.387
92.362
92.338
92.313
92.289
92.264
92.240
92.215
92.191
92.166
92.142
92.117
92.093
92.068
92.044
92.019
91.995
91.970
91.946
91.921
91.897
91.872
91.848
91.823
91.799
91.774
91.750
91.725
91.701
91.676
91.652
91.627
91.603
91.578
91.554
91.529
91.505
91.480
91.456
91.431
91.407
91.382
91.358
91.333
91.309
91.284
91.260
91.235
91.211
91.186
91.162
91.137
91.113
91.088
91.064
91.039
91.015
90.990
90.966
90.941
90.917
90.892
90.868
90.843
90.819
90.794
90.770
90.745
90.721
90.696
90.672
90.647
90.623
90.598
90.574
90.549
90.525
90.500
90.476
90.451
90.427
90.402
90.378
90.353
90.329
90.304
90.280
90.255
90.231
90.206
90.182
90.157
90.133
90.108
90.084
90.059
90.035
90.010
89.986
89.961
89.937
89.912
89.888
89.863
89.839
89.814
89.790
89.765
89.741
89.716
89.692
89.667
89.643
89.618
89.594
89.569
89.545
89.520
89.496
89.471
89.447
89.422
89.398
89.398
89.398
89.398
89.398
89.398
89.398
89.398
89.398
89.398
89.398
89.398
89.398
89.398
89.398
89.398
89.398
89.398
89.398
89.398
89.398
89.398
89.398
89.398
89.398
89.398
89.398
89.398
89.398
89.398
89.398
89.398
89.398
89.398
89.398
89.398
89.398
89.398
89.398
89.398
89.398
89.398
89.398
89.398
89.398
89.398
89.398
89.398
89.398
89.398
89.398
89.398
89.398
89.398
89.398
89.398
89.398
89.398
89.398
89.398
89.398
89.398
89.398
89.398
89.398
89.398
89.398
89.398
89.398
89.398
89.398
89.398
89.398
89.398
89.398
89.398
89.398
89.398
89.398
89.398
89.398
89.398
89.398
89.398
89.398
89.398
89.398
89.398
89.398
89.398
89.398
89.398
89.398
89.398
89.398
89.398
89.398
89.398
89.398
89.398
89.398
89.398
89.398
89.398
89.398
89.398
89.398
89.398
89.398
89.398
89.398
89.398
89.398
89.398
89.398
89.398
89.398
89.398
89.398
89.398
89.398
89.398
89.398
89.398
89.398
89.398
89.398
89.398
89.398
89.398
89.398
89.398
89.398
89.398
89.398
89.398
89.398
89.398
89.398
89.398
89.398
89.398
89.398
89.398
89.398
89.398
89.398
89.398
89.398
89.398
89.398
89.398
89.398
89.398
89.398
89.398
89.398
89.398
89.398
89.398
89.398
89.398
89.398
89.398
89.398
89.398
89.398
89.398
89.398
89.398
89.398
89.398
89.398
89.398
89.398
89.398
89.398
89.398
89.398
89.398
89.398
89.398
89.398
89.398
89.398
89.398
89.398
89.398
89.398
89.398
89.398
89.398
89.398
89.398
89.398
89.398
89.398
89.398
89.398
89.398
89.398
89.422
89.447
89.471
89.496
89.520
