1871.712
1873.839
1875.965
1878.092
1880.218
1882.345
1884.471
1886.598
1888.724
1890.851
1892.977
1895.104
1897.230
1899.357
1901.483
1903.610
1905.736
1907.863
1909.989
1912.116
1914.242
1916.369
1918.495
1920.622
1922.748
1924.875
1927.001
1929.128
1931.254
1933.381
1935.507
1937.634
1939.760
1941.887
1944.013
1946.140
1948.266
1950.393
1952.519
1954.646
1956.772
1958.899
1961.025
1963.152
1965.278
1967.405
1969.531
1971.658
1973.784
1975.911
1978.037
1980.164
1982.290
1984.417
1986.543
1988.670
1990.796
1992.923
1995.049
1997.176
1999.302
2001.429
2003.555
2005.682
2007.808
2009.935
2012.061
2014.188
2016.314
2018.441
2020.567
2022.694
2024.820
2026.947
2029.073
2031.200
2033.326
2035.453
2037.579
2039.706
2041.832
2043.959
2046.085
2048.212
2050.338
2052.465
2054.591
2056.718
2058.844
2060.971
2063.097
2065.224
2067.350
2069.477
2071.603
2073.730
2075.856
2077.983
2080.109
2082.236
2084.362
2086.489
2088.615
2090.742
2092.868
2094.995
2097.121
2099.248
2101.374
2103.501
2105.627
2107.754
2109.880
2112.007
2114.133
2116.260
2118.386
2120.513
2122.639
2124.766
2126.892
2129.019
2125.426
2121.834
2118.241
2114.649
2111.056
2107.464
2103.871
2100.279
2096.686
2093.094
2089.501
2085.909
2082.316
2078.724
2075.131
2071.539
2067.946
2064.354
2060.761
2057.169
2053.576
2049.984
2046.391
2042.799
2039.206
2035.614
2032.021
2028.429
2024.836
2021.244
2017.651
2014.059
2010.466
2006.874
2003.281
1999.689
1996.096
1992.504
1988.911
1985.319
1981.726
1978.134
1974.541
1970.949
1967.356
1963.764
1960.171
1956.579
1952.986
1949.394
1945.801
1942.209
1938.616
1935.024
1931.431
1927.839
1924.246
1920.654
1917.061
1913.469
1909.876
1906.284
1902.691
1899.099
1895.506
1891.914
1888.321
1884.729
1881.136
1877.544
1873.951
1870.359
1866.766
1863.174
1859.581
1855.989
1852.396
1848.804
1845.211
1841.619
1838.026
1834.434
1830.841
1827.249
1823.656
1820.064
1816.471
1812.879
1809.286
1805.694
1802.101
1798.509
1794.916
1791.324
1787.731
1784.139
1780.546
1776.954
1773.361
1769.769
1766.176
1762.584
1758.991
1755.399
1751.806
1748.214
1744.621
1741.029
1737.436
1733.844
1730.251
1726.659
1723.066
1719.474
1715.881
1712.289
1708.696
1705.104
1701.511
1697.919
1694.326
1690.734
1687.141
1683.549
1679.956
1676.364
1672.771
1669.179
1665.586
1661.994
1658.401
1654.809
1651.216
1647.624
1644.031
1640.439
1636.846
1633.254
1629.661
1626.069
1622.476
1618.884
1615.291
1611.699
1608.106
1604.514
1600.921
1597.329
1593.736
1590.144
1586.551
1582.959
1579.366
1575.774
1572.181
1568.589
1564.996
1561.404
1557.811
1554.219
1550.626
1547.034
1543.441
1539.849
1536.256
1532.664
1529.071
1525.479
1521.886
1518.294
1514.701
1511.109
1507.516
1503.924
1500.331
1496.739
1493.146
1489.554
1485.961
1482.369
1478.776
1475.184
1471.591
1467.999
1464.406
1460.814
1457.221
1453.629
1450.036
1446.444
1442.851
1439.259
1435.666
1432.074
1428.481
1424.889
1421.296
1417.704
1414.111
1410.519
1410.836
1411.154
1411.471
1411.789
1412.106
1412.424
1412.741
1413.059
1413.376
1413.694
1414.011
1414.329
1414.646
1414.964
1415.281
1415.599
1415.916
1416.234
1416.551
1416.869
1417.186
1417.504
1417.821
1418.139
1418.456
1418.774
1419.091
1419.409
1419.726
1420.044
1420.361
1420.679
1420.996
1421.314
1421.631
1421.949
1422.266
1422.584
1422.901
1423.219
1423.536
1423.854
1424.171
1424.489
1424.806
1425.124
1425.441
1425.759
1426.076
1426.394
1426.711
1427.029
1427.346
1427.664
1427.981
1428.299
1428.616
1428.934
1429.251
1429.569
1429.886
1430.204
1430.521
1430.839
1431.156
1431.474
1431.791
1432.109
1432.426
1432.744
1433.061
1433.379
1433.696
1434.014
1434.331
1434.649
1434.966
1435.284
1435.601
1435.919
1436.236
1436.554
1436.871
1437.189
1437.506
1437.824
1438.141
1438.459
1438.776
1439.094
1439.411
1439.729
1440.046
1440.364
1440.681
1440.999
1441.316
1441.634
1441.951
1442.269
1442.586
1442.904
1443.221
1443.539
1443.856
1444.174
1444.491
1444.809
1445.126
1445.444
1445.761
1446.079
1446.396
1446.714
1447.031
1447.349
1447.666
1447.984
1448.301
1448.619
1448.936
1449.254
1449.571
1449.889
1450.206
1450.524
1450.841
1451.159
1451.476
1451.794
1452.111
1452.429
1452.746
1453.064
1453.381
1453.699
1454.016
1454.334
1454.651
1454.969
1455.286
1455.604
1455.921
1456.239
1456.556
1456.874
1457.191
1457.509
1457.826
1458.144
1458.461
1458.779
1459.096
1459.414
1459.731
1460.049
1460.366
1460.684
1461.001
1461.319
1461.636
1461.954
1462.271
1462.589
1462.906
1463.224
1463.541
1463.859
1464.176
1464.494
1464.811
1465.129
1465.446
1465.764
1466.081
1466.399
1466.716
1467.034
1467.351
1467.669
1467.986
1468.304
1468.621
1468.939
1469.256
1469.574
1469.891
1470.209
1470.526
1470.844
1471.161
1471.479
1471.796
1472.114
1472.431
1472.749
1473.066
1473.384
1473.701
1474.019
1468.765
1463.511
1458.257
1453.003
1447.749
1442.495
1437.241
1431.987
1426.733
1421.479
1416.225
1410.971
1405.717
1400.463
1395.209
1389.955
1384.701
1379.447
1374.193
1368.939
1363.685
1358.431
1353.177
1347.923
1342.669
1337.415
1332.161
1326.907
1321.653
1316.399
1311.145
1305.891
1300.637
1295.383
1290.129
1284.875
1279.621
1274.367
1269.113
1263.859
1258.605
1253.351
1248.097
1242.843
1237.589
1232.335
1227.081
1221.827
1216.573
1211.319
1206.065
1200.811
1195.557
1190.303
1185.049
1179.795
1174.541
1169.287
1164.033
1158.779
1153.525
1148.271
1143.017
1137.763
1132.509
1127.255
1122.001
1116.747
1111.493
1106.239
1100.985
1095.731
1090.477
1085.223
1079.969
1074.715
1069.461
1064.207
1058.953
1053.699
1048.445
1043.191
1037.937
1032.683
1027.429
1022.175
1016.921
1011.667
1006.413
1001.159
995.905
990.651
985.397
980.143
974.889
969.635
964.381
959.127
953.873
948.619
943.365
938.111
932.857
927.603
922.349
917.095
911.841
906.587
901.333
896.079
890.825
885.571
880.317
875.063
869.809
864.555
859.301
854.047
848.793
843.539
838.285
833.031
827.777
822.523
817.269
812.015
806.761
801.507
796.253
790.999
785.745
780.491
775.237
769.983
764.729
759.475
754.221
748.967
743.713
738.459
733.205
727.951
722.697
717.443
712.189
706.935
701.681
696.427
691.173
685.919
680.665
675.411
670.157
664.903
659.649
654.395
649.141
643.887
638.633
633.379
628.125
622.871
617.617
612.363
607.109
601.855
596.601
591.347
586.093
580.839
575.585
570.331
565.077
559.823
554.569
549.315
544.061
538.807
533.553
528.299
523.045
517.791
512.537
507.283
502.029
496.775
491.521
486.267
481.013
475.759
470.505
465.251
459.997
454.743
449.489
444.235
438.981
433.727
428.473
423.219
421.899
420.580
419.260
417.941
416.621
415.302
413.982
412.663
411.343
410.024
408.704
407.385
406.065
404.746
403.426
402.107
400.787
399.468
398.148
396.829
395.509
394.190
392.870
391.551
390.231
388.912
387.592
386.273
384.953
383.634
382.314
380.995
379.675
378.356
377.036
375.717
374.397
373.078
371.758
370.439
369.119
367.800
366.480
365.161
363.841
362.522
361.202
359.883
358.563
357.244
355.924
354.605
353.285
351.966
350.646
349.327
348.007
346.688
345.368
344.049
342.729
341.410
340.090
338.771
337.451
336.132
334.812
333.493
332.173
330.854
329.534
328.215
326.895
325.576
324.256
322.937
321.617
320.298
318.978
317.659
316.339
315.020
313.700
312.381
311.061
309.742
308.422
307.103
305.783
304.464
303.144
301.825
300.505
299.186
297.866
296.547
295.227
293.908
292.588
291.269
289.949
288.630
287.310
285.991
284.671
283.352
282.032
280.713
279.393
278.074
276.754
275.435
274.115
272.796
271.476
270.157
268.837
267.518
266.198
264.879
263.559
262.240
260.920
259.601
258.281
256.962
255.642
254.323
253.003
251.684
250.364
249.045
247.725
246.406
245.086
243.767
242.447
241.128
239.808
238.489
237.169
235.850
234.530
233.211
231.891
230.572
229.252
227.933
226.613
225.294
223.974
222.655
221.335
220.016
218.696
217.377
216.057
214.738
213.418
212.099
210.779
209.460
208.140
206.821
205.501
204.182
202.862
201.543
200.223
198.904
197.584
196.265
194.945
193.626
192.306
190.987
189.667
188.348
187.028
185.709
184.389
183.070
181.750
180.431
179.111
177.792
176.472
175.153
173.833
172.514
171.194
169.875
168.555
167.236
165.916
164.597
163.277
161.958
160.638
76.219
76.219
76.219
76.219
76.219
76.219
76.219
76.219
76.219
76.219
76.219
76.219
76.219
76.219
76.219
76.219
76.219
76.219
76.219
76.219
76.219
76.219
76.219
76.219
76.219
76.219
76.219
76.219
76.219
76.219
76.219
76.219
76.219
76.219
76.219
76.219
76.219
76.219
76.219
76.219
76.219
76.219
76.219
76.219
76.219
76.219
76.219
76.219
76.219
76.219
76.219
76.219
76.219
76.219
76.219
76.219
76.219
76.219
76.219
76.219
76.219
76.219
76.219
76.219
76.219
76.219
76.219
76.219
76.219
76.219
76.219
76.219
76.219
76.219
76.219
76.219
76.219
76.219
76.219
76.219
76.219
76.219
76.219
76.219
76.219
76.219
76.219
76.219
76.219
76.219
76.219
76.219
76.219
76.219
76.219
76.219
76.219
76.219
76.219
76.219
76.219
76.219
76.219
76.219
76.219
76.219
76.219
76.219
76.219
76.219
76.219
76.219
76.219
76.219
76.219
76.219
76.219
76.219
76.219
76.219
76.219
76.219
76.219
76.219
76.219
76.219
76.219
76.219
76.219
76.219
76.219
76.219
76.219
76.219
76.219
76.219
76.219
76.219
76.219
76.219
76.219
76.219
76.219
76.219
76.219
76.219
76.219
76.219
76.219
76.219
76.219
76.219
76.219
76.219
76.219
76.219
76.219
76.219
76.219
76.219
76.219
76.219
76.219
76.219
76.219
76.219
76.219
76.219
76.219
76.219
76.219
76.219
76.219
76.219
76.219
76.219
76.219
76.219
76.219
76.219
76.219
76.219
76.219
76.219
76.219
76.219
76.219
76.219
76.219
76.219
76.219
76.219
76.219
76.219
76.219
76.219
76.219
76.219
76.219
76.219
76.219
76.219
76.219
76.219
76.219
76.219
76.219
76.219
76.219
76.219
76.219
76.219
76.219
76.219
76.219
76.219
76.219
76.219
76.219
76.219
76.219
76.219
76.219
76.219
76.219
76.219
76.219
76.219
76.219
76.219
76.219
76.219
76.219
76.219
76.219
76.219
76.219
76.219
76.219
76.219
76.219
76.219
76.219
76.219
76.219
76.219
76.219
76.219
76.219
76.219
76.219
76.219
76.219
76.219
76.219
76.219
76.219
76.219
76.219
76.219
76.219
76.219
76.219
76.219
76.219
76.219
76.219
76.219
76.219
76.219
76.219
76.219
76.219
76.219
76.219
76.219
76.219
76.219
76.219
76.219
76.219
76.219
76.219
76.219
76.219
76.219
76.219
76.219
76.219
76.219
76.219
76.219
76.219
76.219
76.219
76.219
76.219
76.219
76.219
76.219
76.219
76.219
76.219
76.219
76.219
76.219
76.219
76.219
76.219
76.219
76.219
76.219
76.219
76.219
76.219
76.219
76.219
76.219
76.219
76.219
76.219
76.219
76.219
76.219
76.219
76.219
76.219
76.219
76.219
76.219
76.219
76.219
76.219
76.219
76.219
76.219
76.219
76.219
76.219
76.219
76.219
76.219
76.219
76.219
76.219
76.219
76.219
76.219
76.219
76.219
76.219
76.219
76.219
76.219
76.219
76.219
76.219
76.219
76.219
76.219
76.219
76.219
76.219
76.219
76.219
76.219
76.219
76.219
76.219
76.219
76.219
76.219
76.219
76.219
76.219
76.219
76.219
76.219
76.219
76.219
76.219
76.219
76.219
76.219
76.219
76.219
76.219
76.219
76.219
76.219
76.219
76.219
76.219
76.219
76.219
76.219
76.219
76.219
76.219
76.219
76.219
76.219
76.219
76.219
76.219
76.219
76.219
76.219
76.219
76.219
76.219
76.219
76.219
76.219
76.219
76.219
76.219
76.219
76.219
76.219
76.219
76.219
76.219
76.219
76.219
76.219
76.219
76.219
76.219
76.219
76.219
76.219
76.219
76.219
76.219
76.219
76.219
76.219
76.219
76.219
76.219
76.219
76.219
76.219
76.219
76.219
76.219
76.219
76.219
76.219
76.219
76.219
76.219
76.219
76.219
76.219
76.219
76.219
76.219
76.219
76.219
76.219
76.219
76.219
76.219
76.219
76.219
76.219
76.219
76.219
76.219
76.219
76.219
76.219
76.219
76.219
76.219
76.219
76.219
76.219
76.219
76.219
76.219
76.219
76.219
76.219
76.219
76.219
76.219
76.219
76.219
76.219
76.219
76.219
76.219
76.219
76.219
76.219
76.219
76.219
76.219
76.219
76.219
76.219
76.219
76.219
76.219
76.219
76.219
76.219
76.219
76.219
76.219
76.219
76.219
76.219
76.219
76.219
76.219
76.219
76.219
76.219
76.219
76.219
76.219
76.219
76.219
76.219
76.219
76.219
76.219
76.219
76.219
76.219
76.219
76.219
76.219
76.219
76.219
76.219
76.219
76.219
76.219
76.219
76.219
76.219
76.219
76.219
76.219
76.219
76.219
76.219
76.219
76.219
76.219
76.219
76.219
76.219
76.219
76.219
76.219
76.219
76.219
76.219
76.219
76.219
76.219
76.219
76.219
76.219
76.219
76.219
76.219
76.219
76.219
76.219
76.219
76.219
76.219
76.219
76.219
76.219
76.219
76.219
76.219
76.219
76.219
76.219
76.219
76.219
76.219
76.219
76.219
76.219
76.219
76.219
76.219
76.219
76.219
76.219
76.219
76.219
76.219
76.219
76.219
76.219
76.219
76.219
76.219
76.219
76.219
76.219
76.219
76.219
76.219
76.219
76.219
76.219
76.219
76.219
76.219
76.219
76.219
76.219
76.219
76.219
76.219
76.219
76.219
76.219
76.219
76.219
76.219
76.219
76.219
76.219
76.219
76.219
76.219
76.219
76.219
76.219
76.219
76.219
76.219
76.219
76.219
76.219
76.219
76.219
76.219
76.219
76.219
76.219
76.219
76.219
76.219
76.219
76.219
76.219
76.219
76.219
76.219
76.219
76.219
76.219
76.219
76.219
76.219
76.219
76.219
76.219
76.219
76.219
76.219
76.219
76.219
76.219
76.219
76.219
76.219
76.219
76.219
76.219
76.219
76.219
76.219
76.219
76.219
76.219
76.219
76.219
76.219
76.219
76.219
76.219
76.219
76.219
76.219
76.219
76.219
76.219
76.219
76.219
76.219
76.219
76.219
76.219
76.219
76.219
76.219
76.219
76.219
76.219
76.219
76.219
76.219
76.219
76.219
76.219
76.219
76.219
76.219
76.219
76.219
76.219
76.219
76.219
76.219
76.219
76.219
76.219
76.219
76.219
76.219
76.219
76.219
76.219
76.219
76.219
76.219
76.219
76.219
76.219
76.219
76.219
76.219
76.219
76.219
76.219
76.219
76.219
76.219
76.219
76.219
76.219
76.219
76.219
76.219
76.219
76.219
76.219
76.219
76.219
76.219
76.219
76.219
76.219
76.219
76.219
76.219
76.219
76.219
76.219
76.219
76.219
76.219
76.219
76.219
76.219
76.219
76.219
76.219
76.219
76.219
76.219
76.219
76.219
76.219
76.219
76.219
76.219
76.219
76.219
76.219
76.219
76.219
76.219
76.219
76.219
76.219
76.219
76.219
76.219
76.219
76.219
76.219
76.219
76.219
76.219
76.219
76.219
76.219
76.219
76.219
76.219
76.219
76.219
76.219
76.219
76.219
76.219
76.219
76.219
76.219
76.219
76.219
76.219
76.219
76.219
76.219
76.219
76.219
76.219
76.219
76.219
76.219
76.219
76.219
76.219
76.219
76.219
76.219
76.219
76.219
76.219
76.219
76.219
76.219
76.219
76.219
76.219
76.219
76.219
76.219
76.219
76.219
76.219
76.219
76.219
76.219
76.219
76.219
76.219
76.219
76.219
76.219
76.219
76.219
76.219
76.219
76.219
76.219
76.219
76.219
76.219
76.219
76.219
76.219
76.219
76.219
76.219
76.219
76.219
76.219
76.219
76.219
76.219
76.219
76.219
76.219
76.219
76.219
76.219
76.219
76.219
76.219
76.219
76.219
76.219
76.219
76.219
76.219
76.219
76.219
76.219
76.219
76.219
76.219
76.219
76.219
76.219
76.219
76.219
76.219
76.219
76.219
76.219
76.219
76.219
76.219
76.219
76.219
76.219
76.219
76.219
76.219
76.219
76.219
76.219
76.219
76.219
76.219
76.219
76.219
76.219
76.219
76.219
76.219
76.219
76.219
76.219
76.219
76.219
76.219
76.219
76.219
76.219
76.219
76.219
76.219
76.219
76.219
76.219
76.219
76.219
76.219
76.219
76.219
76.219
76.219
76.219
76.219
76.219
76.219
76.219
76.219
76.219
76.219
76.219
76.219
76.219
76.219
76.219
76.219
76.219
76.219
76.219
76.219
76.219
76.219
76.219
76.219
76.219
76.219
76.219
76.219
76.219
76.219
76.219
76.219
76.219
76.219
76.219
76.219
76.219
76.219
76.219
76.219
76.219
76.219
76.219
76.219
76.219
76.219
76.219
76.219
76.219
76.219
76.219
76.219
76.219
76.219
76.219
76.219
76.219
76.219
76.219
76.219
76.219
76.219
76.219
76.219
76.219
76.219
76.219
76.219
76.219
76.219
76.219
76.219
76.219
76.219
76.219
76.219
76.219
76.219
76.219
76.219
76.219
76.219
76.219
76.219
76.219
76.219
76.219
76.219
76.219
76.219
76.219
76.219
76.219
76.219
76.219
76.219
76.219
76.219
76.219
76.219
76.219
76.219
76.219
76.219
76.219
76.219
76.219
76.219
76.219
76.219
76.219
76.219
76.219
76.219
76.219
76.219
76.219
76.219
76.219
76.219
