1575.240
1575.020
1574.800
1574.580
1574.360
1574.140
1573.920
1573.700
1573.480
1573.260
1573.040
1572.820
1572.600
1572.380
1572.160
1571.940
1571.720
1571.500
1571.280
1571.060
1570.840
1570.620
1570.400
1570.180
1569.960
1569.740
1569.520
1569.300
1569.080
1568.860
1568.640
1568.420
1568.200
1567.980
1567.760
1567.540
1567.320
1567.100
1566.880
1566.660
1566.440
1566.220
1566.000
1565.780
1565.560
1565.340
1565.120
1564.900
1564.680
1564.460
1564.240
1564.020
1563.800
1563.580
1563.360
1563.140
1562.920
1562.700
1562.480
1562.260
1562.040
1561.820
1561.600
1561.380
1561.160
1560.940
1560.720
1560.500
1560.280
1560.060
1559.840
1559.620
1559.400
1559.180
1558.960
1558.740
1558.520
1558.300
1558.080
1557.860
1557.640
1557.420
1557.200
1556.980
1556.760
1556.540
1556.320
1556.100
1555.880
1555.660
1555.440
1555.220
1555.000
1554.780
1554.560
1554.340
1554.120
1553.900
1553.680
1553.460
1553.240
1553.020
1552.800
1552.580
1552.360
1552.140
1551.920
1551.700
1551.480
1551.260
1551.040
1550.820
1550.600
1550.380
1550.160
1549.940
1549.720
1549.500
1549.280
1549.060
1548.840
1548.620
1548.400
1548.180
1547.960
1547.740
1547.520
1547.300
1547.080
1546.860
1546.640
1546.420
1546.200
1545.980
1545.760
1545.540
1545.320
1545.100
1544.880
1544.660
1544.440
1544.220
1544.000
1543.780
1543.560
1543.340
1543.120
1542.900
1542.680
1542.460
1542.240
1542.020
1541.800
1541.580
1541.360
1541.140
1540.920
1540.700
1540.480
1540.260
1540.040
1539.820
1539.600
1539.380
1539.160
1538.940
1538.720
1538.500
1538.280
1538.060
1537.840
1537.620
1537.400
1537.180
1536.960
1536.740
1536.520
1536.300
1536.080
1535.860
1535.640
1535.420
1535.200
1534.980
1534.760
1534.540
1534.320
1534.100
1533.880
1533.660
1533.440
1533.220
1536.495
1539.769
1543.044
1546.318
1549.593
1552.867
1556.142
1559.416
1562.691
1565.965
1569.240
1572.514
1575.789
1579.063
1582.338
1585.612
1588.887
1592.161
1595.436
1598.710
1601.985
1605.259
1608.534
1611.808
1615.083
1618.357
1621.632
1624.906
1628.181
1631.455
1634.730
1638.004
1641.279
1644.553
1647.828
1651.102
1654.377
1657.651
1660.926
1664.200
1667.475
1670.749
1674.024
1677.298
1680.573
1683.847
1687.122
1690.396
1693.671
1696.945
1700.220
1703.494
1706.769
1710.043
1713.318
1716.592
1719.867
1723.141
1726.416
1729.690
1732.965
1736.239
1739.514
1742.788
1746.063
1749.337
1752.612
1755.886
1759.161
1762.435
1765.710
1768.984
1772.259
1775.533
1778.808
1782.082
1785.357
1788.631
1791.906
1795.180
1798.455
1801.729
1805.004
1808.278
1811.553
1814.827
1818.102
1821.376
1824.651
1827.925
1831.200
1834.474
1837.749
1841.023
1844.298
1847.572
1850.847
1854.121
1857.396
1860.670
1863.945
1867.219
1870.494
1873.768
1877.043
1880.317
1883.592
1886.866
1890.141
1893.415
1896.690
1899.964
1903.239
1906.513
1909.788
1913.062
1916.337
1919.611
1922.886
1926.160
1929.435
1932.709
1935.984
1939.258
1942.533
1945.807
1949.082
1952.356
1955.631
1958.905
1962.180
1965.454
1968.729
1972.003
1975.278
1978.552
1981.827
1985.101
1988.376
1991.650
1994.925
1998.199
2001.474
2004.748
2008.023
2011.297
2014.572
2017.846
2021.121
2024.395
2027.670
2030.944
2034.219
2037.493
2040.768
2044.042
2047.317
2050.591
2053.866
2057.140
2060.415
2063.689
2066.964
2070.238
2073.513
2076.787
2080.062
2083.336
2086.611
2089.885
2093.160
2096.434
2099.709
2102.983
2106.258
2109.532
2112.807
2116.081
2119.356
2122.630
2125.905
2129.179
2132.454
2135.728
2139.003
2142.277
2145.552
2148.826
2152.101
2155.375
2158.650
2161.924
2165.199
2168.473
2171.748
2175.022
2178.297
2181.571
2184.846
2188.120
2185.994
2183.868
2181.742
2179.616
2177.490
2175.364
2173.238
2171.112
2168.986
2166.860
2164.734
2162.608
2160.482
2158.356
2156.230
2154.104
2151.978
2149.852
2147.726
2145.600
2143.474
2141.348
2139.222
2137.096
2134.970
2132.844
2130.718
2128.592
2126.466
2124.340
2122.214
2120.088
2117.962
2115.836
2113.710
2111.584
2109.458
2107.332
2105.206
2103.080
2100.954
2098.828
2096.702
2094.576
2092.450
2090.324
2088.198
2086.072
2083.946
2081.820
2079.694
2077.568
2075.442
2073.316
2071.190
2069.064
2066.938
2064.812
2062.686
2060.560
2058.434
2056.308
2054.182
2052.056
2049.930
2047.804
2045.678
2043.552
2041.426
2039.300
2037.174
2035.048
2032.922
2030.796
2028.670
2026.544
2024.418
2022.292
2020.166
2018.040
2015.914
2013.788
2011.662
2009.536
2007.410
2005.284
2003.158
2001.032
1998.906
1996.780
1994.654
1992.528
1990.402
1988.276
1986.150
1984.024
1981.898
1979.772
1977.646
1975.520
1973.394
1971.268
1969.142
1967.016
1964.890
1962.764
1960.638
1958.512
1956.386
1954.260
1952.134
1950.008
1947.882
1945.756
1943.630
1941.504
1939.378
1937.252
1935.126
1933.000
1930.874
1928.748
1926.622
1924.496
1922.370
1920.244
1918.118
1915.992
1913.866
1911.740
1909.614
1907.488
1905.362
1903.236
1901.110
1898.984
1896.858
1894.732
1892.606
1890.480
1888.354
1886.228
1884.102
1881.976
1879.850
1877.724
1875.598
1873.472
1871.346
1869.220
1867.094
1864.968
1862.842
1860.716
1858.590
1856.464
1854.338
1852.212
1850.086
1847.960
1845.834
1843.708
1841.582
1839.456
1837.330
1835.204
1833.078
1830.952
1828.826
1826.700
1824.574
1822.448
1820.322
1818.196
1816.070
1813.944
1811.818
1809.692
1807.566
1805.440
1803.314
1801.188
1799.062
1796.936
1794.810
1792.684
1790.558
1788.432
1786.306
1784.180
1782.054
1779.928
1777.802
1775.676
1773.550
1771.424
1769.298
1767.172
1765.046
1762.920
1761.894
1760.867
1759.841
1758.814
1757.788
1756.761
1755.735
1754.708
1753.682
1752.655
1751.629
1750.602
1749.576
1748.549
1747.523
1746.496
1745.470
1744.443
1743.417
1742.390
1741.364
1740.337
1739.311
1738.284
1737.258
1736.231
1735.205
1734.178
1733.152
1732.125
1731.099
1730.072
1729.046
1728.019
1726.993
1725.966
1724.940
1723.913
1722.887
1721.860
1720.834
1719.807
1718.781
1717.754
1716.728
1715.701
1714.675
1713.648
1712.622
1711.595
1710.569
1709.542
1708.516
1707.489
1706.463
1705.436
1704.410
1703.383
1702.357
1701.330
1700.304
1699.277
1698.251
1697.224
1696.198
1695.171
1694.145
1693.118
1692.092
1691.065
1690.039
1689.012
1687.986
1686.959
1685.933
1684.906
1683.880
1682.853
1681.827
1680.800
1679.774
1678.747
1677.721
1676.694
1675.668
1674.641
1673.615
1672.588
1671.562
1670.535
1669.509
1668.482
1667.456
1666.429
1665.403
1664.376
1663.350
1662.323
1661.297
1660.270
1659.244
1658.217
1657.191
1656.164
1655.138
1654.111
1653.085
1652.058
1651.032
1650.005
1648.979
1647.952
1646.926
1645.899
1644.873
1643.846
1642.820
1641.793
1640.767
1639.740
1638.714
1637.687
1636.661
1635.634
1634.608
1633.581
1632.555
1631.528
1630.502
1629.475
1628.449
1627.422
1626.396
1625.369
1624.343
1623.316
1622.290
1621.263
1620.237
1619.210
1618.184
1617.157
1616.131
1615.104
1614.078
1613.051
1612.025
1610.998
1609.972
1608.945
1607.919
1606.892
1605.866
1604.839
1603.813
1602.786
1601.760
1600.733
1599.707
1598.680
1597.654
1596.627
1595.601
1594.574
1593.548
1592.521
1591.495
1590.468
1589.442
1588.415
1587.389
1586.362
1585.336
1584.309
1583.283
1582.256
1581.230
1580.203
1579.177
1578.150
1577.124
1576.097
1575.071
1574.044
1573.018
1571.991
1570.965
1569.938
1568.912
1567.885
1566.859
1565.832
1564.806
1563.779
1562.753
1561.726
1560.700
1559.673
1558.647
86.520
86.520
86.520
86.520
86.520
86.520
86.520
86.520
86.520
86.520
86.520
86.520
86.520
86.520
86.520
86.520
86.520
86.520
86.520
86.520
86.520
86.520
86.520
86.520
86.520
86.520
86.520
86.520
86.520
86.520
86.520
86.520
86.520
86.520
86.520
86.520
86.520
86.520
86.520
86.520
86.520
86.520
86.520
86.520
86.520
86.520
86.520
86.520
86.520
86.520
86.520
86.520
86.520
86.520
86.520
86.520
86.520
86.520
86.520
86.520
86.520
86.520
86.520
86.520
86.520
86.520
86.520
86.520
86.520
86.520
86.520
86.520
86.520
86.520
86.520
86.520
86.520
86.520
86.520
86.520
86.520
86.520
86.520
86.520
86.520
86.520
86.520
86.520
86.520
86.520
86.520
86.520
86.520
86.520
86.520
86.520
86.520
86.520
86.520
86.520
86.520
86.520
86.520
86.520
86.520
86.520
86.520
86.520
86.520
86.520
86.520
86.520
86.520
86.520
86.520
86.520
86.520
86.520
86.520
86.520
86.520
86.520
86.520
86.520
86.520
86.520
86.520
86.520
86.520
86.520
86.520
86.520
86.520
86.520
86.520
86.520
86.520
86.520
86.520
86.520
86.520
86.520
86.520
86.520
86.520
86.520
86.520
86.520
86.520
86.520
86.520
86.520
86.520
86.520
86.520
86.520
86.520
86.520
86.520
86.520
86.520
86.520
86.520
86.520
86.520
86.520
86.520
86.520
86.520
86.520
86.520
86.520
86.520
86.520
86.520
86.520
86.520
86.520
86.520
86.520
86.520
86.520
86.520
86.520
86.520
86.520
86.520
86.520
86.520
86.520
86.520
86.520
86.520
86.520
86.520
86.520
86.520
86.520
86.520
86.520
86.520
86.520
86.520
86.520
86.520
86.520
86.520
86.520
86.520
86.520
86.520
86.520
86.520
86.520
86.520
86.520
86.520
86.520
86.520
86.520
86.520
86.520
86.520
86.520
86.520
86.520
86.520
86.520
86.520
86.520
86.520
86.520
86.520
86.520
86.520
86.520
86.520
86.520
86.520
86.520
86.520
86.520
86.520
86.520
86.520
86.520
86.520
86.520
86.520
86.520
86.520
86.520
86.520
86.520
86.520
86.520
86.520
86.520
86.520
86.520
86.520
86.520
86.520
86.520
86.520
86.520
86.520
86.520
86.520
86.520
86.520
86.520
86.520
86.520
86.520
86.520
86.520
86.520
86.520
86.520
86.520
86.520
86.520
86.520
86.520
86.520
86.520
86.520
86.520
86.520
86.520
86.520
86.520
86.520
86.520
86.520
86.520
86.520
86.520
86.520
86.520
86.520
86.520
86.520
86.520
86.520
86.520
86.520
86.520
86.520
86.520
86.520
86.520
86.520
86.520
86.520
86.520
86.520
86.520
86.520
86.520
86.520
86.520
86.520
86.520
86.520
86.520
86.520
86.520
86.520
86.520
86.520
86.520
86.520
86.520
86.520
86.520
86.520
86.520
86.520
86.520
86.520
86.520
86.520
86.520
86.520
86.520
86.520
86.520
86.520
86.520
86.520
86.520
86.520
86.520
86.520
86.520
86.520
86.520
86.520
86.520
86.520
86.520
86.520
86.520
86.520
86.520
86.520
86.520
86.520
86.520
86.520
86.520
86.520
86.520
86.520
86.520
86.520
86.520
86.520
86.520
86.520
86.520
86.520
86.520
86.520
86.520
86.520
86.520
86.520
86.520
86.520
86.520
86.520
86.520
86.520
86.520
86.520
86.520
86.520
86.520
86.520
86.520
86.520
86.520
86.520
86.520
86.520
86.520
86.520
86.520
86.520
86.520
86.520
86.520
86.520
86.520
86.520
86.520
86.520
86.520
86.520
86.520
86.520
86.520
86.520
86.520
86.520
86.520
86.520
86.520
86.520
86.520
86.520
86.520
86.520
86.520
86.520
86.520
86.520
86.520
86.520
86.520
86.520
86.520
86.520
86.520
86.520
86.520
86.520
86.520
86.520
86.520
86.520
86.520
86.520
86.520
86.520
86.520
86.520
86.520
86.520
86.520
86.520
86.520
86.520
86.520
86.520
86.520
86.520
86.520
86.520
86.520
86.520
86.520
86.520
86.520
86.520
86.520
86.520
86.520
86.520
86.520
86.520
86.520
86.520
86.520
86.520
86.520
86.520
86.520
86.520
86.520
86.520
86.520
86.520
86.520
86.520
86.520
86.520
86.520
86.520
86.520
86.520
86.520
86.520
86.520
86.520
86.520
86.520
86.520
86.520
86.520
86.520
86.520
86.520
86.520
86.520
86.520
86.520
86.520
86.520
86.520
86.520
86.520
86.520
86.520
86.520
86.520
86.520
86.520
86.520
86.520
86.520
86.520
86.520
86.520
86.520
86.520
86.520
86.520
86.520
86.520
86.520
86.520
86.520
86.520
86.520
86.520
86.520
86.520
86.520
86.520
86.520
86.520
86.520
86.520
86.520
86.520
86.520
86.520
86.520
86.520
86.520
86.520
86.520
86.520
86.520
86.520
86.520
86.520
86.520
86.520
86.520
86.520
86.520
86.520
86.520
86.520
86.520
86.520
86.520
86.520
86.520
86.520
86.520
86.520
86.520
86.520
86.520
86.520
86.520
86.520
86.520
86.520
86.520
86.520
86.520
86.520
86.520
86.520
86.520
86.520
86.520
86.520
86.520
86.520
86.520
86.520
86.520
86.520
86.520
86.520
86.520
86.520
86.520
86.520
86.520
86.520
86.520
86.520
86.520
86.520
86.520
86.520
86.520
86.520
86.520
86.520
86.520
86.520
86.520
86.520
86.520
86.520
86.520
86.520
86.520
86.520
86.520
86.520
86.520
86.520
86.520
86.520
86.520
86.520
86.520
86.520
86.520
86.520
86.520
86.520
86.520
86.520
86.520
86.520
86.520
86.520
86.520
86.520
86.520
86.520
86.520
86.520
86.520
86.520
86.520
86.520
86.520
86.520
86.520
86.520
86.520
86.520
86.520
86.520
86.520
86.520
86.520
86.520
86.520
86.520
86.520
86.520
86.520
86.520
86.520
86.520
86.520
86.520
86.520
86.520
86.520
86.520
86.520
86.520
86.520
86.520
86.520
86.520
86.520
86.520
86.520
86.520
86.520
86.520
86.520
86.520
86.520
86.520
86.520
86.520
86.520
86.520
86.520
86.520
86.520
86.520
86.520
86.520
86.520
86.520
86.520
86.520
86.520
86.520
86.520
86.520
86.520
86.520
86.520
86.520
86.520
86.520
86.520
86.520
86.520
86.520
86.520
86.520
86.520
86.520
86.520
86.520
86.520
86.520
86.520
86.520
86.520
86.520
86.520
86.520
86.520
86.520
86.520
86.520
86.520
86.520
86.520
86.520
86.520
86.520
86.520
86.520
86.520
86.520
86.520
86.520
86.520
86.520
86.520
86.520
86.520
86.520
86.520
86.520
86.520
86.520
86.520
86.520
86.520
86.520
86.520
86.520
86.520
86.520
86.520
86.520
86.520
86.520
86.520
86.520
86.520
86.520
86.520
86.520
86.520
86.520
86.520
86.520
86.520
86.520
86.520
86.520
86.520
86.520
86.520
86.520
86.520
86.520
86.520
86.520
86.520
86.520
86.520
86.520
86.520
86.520
86.520
86.520
86.520
86.520
86.520
86.520
86.520
86.520
86.520
86.520
86.520
86.520
86.520
86.520
86.520
86.520
86.520
86.520
86.520
86.520
86.520
86.520
86.520
86.520
86.520
86.520
86.520
86.520
86.520
86.520
86.520
86.520
86.520
86.520
86.520
86.520
86.520
86.520
86.520
86.520
86.520
86.520
86.520
86.520
86.520
86.520
86.520
86.520
86.520
86.520
86.520
86.520
86.520
86.520
86.520
86.520
86.520
86.520
86.520
86.520
86.520
86.520
86.520
86.520
86.520
86.520
86.520
86.520
86.520
86.520
86.520
86.520
86.520
86.520
86.520
86.520
86.520
86.520
86.520
86.520
86.520
86.520
86.520
86.520
86.520
86.520
86.520
86.520
86.520
86.520
86.520
86.520
86.520
86.520
86.520
86.520
86.520
86.520
86.520
86.520
86.520
86.520
86.520
86.520
86.520
86.520
86.520
86.520
86.520
86.520
86.520
86.520
86.520
86.520
86.520
86.520
86.520
86.520
86.520
86.520
86.520
86.520
86.520
86.520
86.520
86.520
86.520
86.520
86.520
86.520
86.520
86.520
86.520
86.520
86.520
86.520
86.520
86.520
86.520
86.520
86.520
86.520
86.520
86.520
86.520
86.520
86.520
86.520
86.520
86.520
86.520
86.520
86.520
86.520
86.520
86.520
86.520
86.520
86.520
86.520
86.520
86.520
86.520
86.520
86.520
86.520
86.520
86.520
86.520
86.520
86.520
86.520
86.520
86.520
86.520
86.520
86.520
86.520
86.520
86.520
86.520
86.520
86.520
86.520
86.520
86.520
86.520
86.520
86.520
86.520
86.520
86.520
86.520
86.520
86.520
86.520
86.520
86.520
86.520
86.520
86.520
86.520
86.520
86.520
86.520
86.520
86.520
86.520
86.520
86.520
86.520
86.520
86.520
86.520
86.520
86.520
86.520
86.520
86.520
86.520
86.520
86.520
86.520
86.520
86.520
86.520
86.520
86.520
86.520
86.520
86.520
86.520
86.520
86.520
86.520
86.520
86.520
86.520
86.520
86.520
86.520
86.520
86.520
86.520
86.520
86.520
86.520
86.520
86.520
86.520
86.520
86.520
86.520
86.520
86.520
86.520
86.520
86.520
86.520
86.520
86.520
86.520
86.520
86.520
86.520
86.520
86.520
86.520
86.520
86.520
86.520
86.520
86.520
86.520
86.520
86.520
86.520
86.520
86.520
86.520
86.520
86.520
86.520
86.520
86.520
86.520
86.520
86.520
86.520
86.520
86.520
86.520
86.520
86.520
86.520
86.520
86.520
86.520
86.520
86.520
86.520
86.520
86.520
86.520
86.520
86.520
86.520
86.520
86.520
86.520
86.520
86.520
86.520
86.520
86.520
86.520
86.520
86.520
86.520
86.520
86.520
86.520
86.520
86.520
86.520
86.520
86.520
86.520
86.520
86.520
86.520
86.520
86.520
86.520
86.520
86.520
86.520
86.520
86.520
86.520
86.520
86.520
86.520
86.520
86.520
86.520
86.520
86.520
86.520
86.520
86.520
86.520
86.520
86.520
86.520
86.520
86.520
86.520
86.520
86.520
86.520
86.520
86.520
86.520
86.520
86.520
86.520
86.520
86.520
86.520
86.520
86.520
86.520
86.520
86.520
86.520
86.520
86.520
86.520
86.520
86.520
81.620
81.620
81.620
81.620
81.620
81.620
81.620
81.620
81.620
