2209.522
2206.712
2203.902
2201.092
2198.282
2195.472
2192.662
2189.852
2187.042
2184.232
2181.422
2178.612
2175.802
2172.992
2170.182
2167.372
2164.562
2161.752
2158.942
2156.132
2153.322
2150.512
2147.702
2144.892
2142.082
2139.272
2136.462
2133.652
2130.842
2128.032
2125.222
2122.412
2119.602
2116.792
2113.982
2111.172
2108.362
2105.552
2102.742
2099.932
2097.122
2094.312
2091.502
2088.692
2085.882
2083.072
2080.262
2077.452
2074.642
2071.832
2069.022
2066.212
2063.402
2060.592
2057.782
2054.972
2052.162
2049.352
2046.542
2043.732
2040.922
2038.112
2035.302
2032.492
2029.682
2026.872
2024.062
2021.252
2018.442
2015.632
2012.822
2010.012
2007.202
2004.392
2001.582
1998.772
1995.962
1993.152
1990.342
1987.532
1984.722
1981.912
1979.102
1976.292
1973.482
1970.672
1967.862
1965.052
1962.242
1959.432
1956.622
1953.812
1951.002
1948.192
1945.382
1942.572
1939.762
1936.952
1934.142
1931.332
1925.834
1920.335
1914.837
1909.338
1903.840
1898.341
1892.843
1887.344
1881.846
1876.347
1870.849
1865.350
1859.852
1854.353
1848.855
1843.356
1837.858
1832.359
1826.861
1821.362
1815.864
1810.365
1804.867
1799.368
1793.870
1788.371
1782.873
1777.374
1771.876
1766.377
1760.879
1755.380
1749.882
1744.383
1738.885
1733.386
1727.888
1722.389
1716.891
1711.392
1705.894
1700.395
1694.897
1689.398
1683.900
1678.401
1672.903
1667.404
1661.906
1656.407
1650.909
1645.410
1639.912
1634.413
1628.915
1623.416
1617.918
1612.419
1606.921
1601.422
1595.924
1590.425
1584.927
1579.428
1573.930
1568.431
1562.933
1557.434
1551.936
1546.437
1540.939
1535.440
1529.942
1524.443
1518.945
1513.446
1507.948
1502.449
1496.951
1491.452
1485.954
1480.455
1474.957
1469.458
1463.960
1458.461
1452.963
1447.464
1441.966
1436.467
1430.969
1425.470
1419.972
1414.473
1408.975
1403.476
1397.978
1392.479
1386.981
1381.482
1375.984
1370.485
1364.987
1359.488
1353.990
1348.491
1342.993
1337.494
1331.996
1326.497
1320.999
1315.500
1310.002
1304.503
1299.005
1293.506
1288.008
1282.509
1277.011
1271.512
1266.014
1260.515
1255.017
1249.518
1244.020
1238.521
1233.023
1227.524
1222.026
1216.527
1211.029
1205.530
1200.032
1194.533
1189.035
1183.536
1178.038
1172.539
1167.041
1161.542
1156.044
1150.545
1145.047
1139.548
1134.050
1128.551
1123.053
1117.554
1112.056
1106.557
1101.059
1095.560
1090.062
1084.563
1079.065
1073.566
1068.068
1062.569
1057.071
1051.572
1046.074
1040.575
1035.077
1029.578
1024.080
1018.581
1013.083
1007.584
1002.086
996.587
991.089
985.590
980.092
974.593
969.095
963.596
958.098
952.599
947.101
941.602
936.104
930.605
925.107
919.608
914.110
908.611
903.113
897.614
892.116
886.617
881.119
875.620
870.122
864.623
859.125
853.626
848.128
842.629
837.131
831.632
828.333
825.033
821.734
818.434
815.135
811.835
808.536
805.236
801.937
798.637
795.338
792.038
788.739
785.439
782.140
778.840
775.541
772.241
768.942
765.642
762.343
759.043
755.744
752.444
749.145
745.845
742.546
739.246
735.947
732.647
729.348
726.048
722.749
719.449
716.150
712.850
709.551
706.251
702.952
699.652
696.353
693.053
689.754
686.454
683.155
679.855
676.556
673.256
669.957
666.657
663.358
660.058
656.759
653.459
650.160
646.860
643.561
640.261
636.962
633.662
630.363
627.063
623.764
620.464
617.165
613.865
610.566
607.266
603.967
600.667
597.368
594.068
590.769
587.469
584.170
580.870
577.571
574.271
570.972
567.672
564.373
561.073
557.774
554.474
551.175
547.875
544.576
541.276
537.977
534.677
531.378
528.078
524.779
521.479
518.180
514.880
511.581
508.281
504.982
501.682
498.383
495.083
491.784
488.484
485.185
481.885
478.586
475.286
471.987
468.687
465.388
462.088
458.789
455.489
452.190
448.890
445.591
442.291
438.992
435.692
432.393
429.093
425.794
422.494
419.195
415.895
412.596
409.296
405.997
402.697
399.398
396.098
392.799
389.499
386.200
382.900
379.601
376.301
373.002
369.702
366.403
363.103
359.804
356.504
353.205
349.905
346.606
343.306
340.007
336.707
333.408
330.108
326.809
323.509
320.210
316.910
313.611
310.311
307.012
303.712
300.413
297.113
293.814
290.514
287.215
283.915
280.616
277.316
274.017
270.717
267.418
264.118
260.819
257.519
254.220
250.920
247.621
244.321
241.022
237.722
234.423
231.123
227.824
224.524
221.225
217.925
214.626
211.326
208.027
204.727
201.428
198.128
194.829
191.529
188.230
184.930
181.631
178.331
175.032
78.932
78.932
78.932
78.932
78.932
78.932
78.932
78.932
78.932
78.932
78.932
78.932
78.932
78.932
78.932
78.932
78.932
78.932
78.932
78.932
78.932
78.932
78.932
78.932
78.932
78.932
78.932
78.932
78.932
78.932
78.932
78.932
78.932
78.932
78.932
78.932
78.932
78.932
78.932
78.932
78.932
78.932
78.932
78.932
78.932
78.932
78.932
78.932
78.932
78.932
78.932
78.932
78.932
78.932
78.932
78.932
78.932
78.932
78.932
78.932
78.932
78.932
78.932
78.932
78.932
78.932
78.932
78.932
78.932
78.932
78.932
78.932
78.932
78.932
78.932
78.932
78.932
78.932
78.932
78.932
78.932
78.932
78.932
78.932
78.932
78.932
78.932
78.932
78.932
78.932
78.932
78.932
78.932
78.932
78.932
78.932
78.932
78.932
78.932
78.932
78.932
78.932
78.932
78.932
78.932
78.932
78.932
78.932
78.932
78.932
78.932
78.932
78.932
78.932
78.932
78.932
78.932
78.932
78.932
78.932
78.932
78.932
78.932
78.932
78.932
78.932
78.932
78.932
78.932
78.932
78.932
78.932
78.932
78.932
78.932
78.932
78.932
78.932
78.932
78.932
78.932
78.932
78.932
78.932
78.932
78.932
78.932
78.932
78.932
78.932
78.932
78.932
78.932
78.932
78.932
78.932
78.932
78.932
78.932
78.932
78.932
78.932
78.932
78.932
78.932
78.932
78.932
78.932
78.932
78.932
78.932
78.932
78.932
78.932
78.932
78.932
78.932
78.932
78.932
78.932
78.932
78.932
78.932
78.932
78.932
78.932
78.932
78.932
78.932
78.932
78.932
78.932
78.932
78.932
78.932
78.932
78.932
78.932
78.932
78.932
78.932
78.932
78.932
78.932
78.932
78.932
78.932
78.932
78.932
78.932
78.932
78.932
78.932
78.932
78.932
78.932
78.932
78.932
78.932
78.932
78.932
78.932
78.932
78.932
78.932
78.932
78.932
78.932
78.932
78.932
78.932
78.932
78.932
78.932
78.932
78.932
78.932
78.932
78.932
78.932
78.932
78.932
78.932
78.932
78.932
78.932
78.932
78.932
78.932
78.932
78.932
78.932
78.932
78.932
78.932
78.932
78.932
78.932
78.932
78.932
78.932
78.932
78.932
78.932
78.932
78.932
78.932
78.932
78.932
78.932
78.932
78.932
78.932
78.932
78.932
78.932
78.932
78.932
78.932
78.932
78.932
78.932
78.932
78.932
78.932
78.932
78.932
78.932
78.932
78.932
78.932
78.932
78.932
78.932
78.932
78.932
78.932
78.932
78.932
78.932
78.932
78.932
78.932
78.932
78.932
78.932
78.932
78.932
78.932
78.932
78.932
78.932
78.932
78.932
78.932
78.932
78.932
78.932
78.932
78.932
78.932
78.932
78.932
78.932
78.932
78.932
78.932
78.932
78.932
78.932
78.932
78.932
78.932
78.932
78.932
78.932
78.932
78.932
78.932
78.932
78.932
78.932
78.932
78.932
78.932
78.932
78.932
78.932
78.932
78.932
78.932
78.932
78.932
78.932
78.932
78.932
78.932
78.932
78.932
78.932
78.932
78.932
78.932
78.932
78.932
78.932
78.932
78.932
78.932
78.932
78.932
78.932
78.932
78.932
78.932
78.932
78.932
78.932
78.932
78.932
78.932
78.932
78.932
78.932
78.932
78.932
78.932
78.932
78.932
78.932
78.932
78.932
78.932
78.932
78.932
78.932
78.932
78.932
78.932
78.932
78.932
78.957
78.981
79.006
79.030
79.055
79.079
79.104
79.128
79.153
79.177
79.202
79.226
79.251
79.275
79.300
79.324
79.349
79.373
79.398
79.422
79.447
79.471
79.496
79.520
79.545
79.569
79.594
79.618
79.643
79.667
79.692
79.716
79.741
79.765
79.790
79.814
79.839
79.863
79.888
79.912
79.937
79.961
79.986
80.010
80.035
80.059
80.084
80.108
80.133
80.157
80.182
80.206
80.231
80.255
80.280
80.304
80.329
80.353
80.378
80.402
80.427
80.451
80.476
80.500
80.525
80.549
80.574
80.598
80.623
80.647
80.672
80.696
80.721
80.745
80.770
80.794
80.819
80.843
80.868
80.892
80.917
80.941
80.966
80.990
81.015
81.039
81.064
81.088
81.113
81.137
81.162
81.186
81.211
81.235
81.260
81.284
81.309
81.333
81.358
81.382
81.407
81.431
81.456
81.480
81.505
81.529
81.554
81.578
81.603
81.627
81.652
81.676
81.701
81.725
81.750
81.774
81.799
81.823
81.848
81.872
81.897
81.921
81.946
81.970
81.995
82.019
82.044
82.068
82.093
82.117
82.142
82.166
82.191
82.215
82.240
82.264
82.289
82.313
82.338
82.362
82.387
82.411
82.436
82.460
82.485
82.509
82.534
82.558
82.583
82.607
82.632
82.656
82.681
82.705
82.730
82.754
82.779
82.803
82.828
82.852
82.877
82.901
82.926
82.950
82.975
82.999
83.024
83.048
83.073
83.097
83.122
83.146
83.171
83.195
83.220
83.244
83.269
83.293
83.318
83.342
83.367
83.391
83.416
83.440
83.465
83.489
83.514
83.538
83.563
83.587
83.612
83.636
83.661
83.685
83.710
83.734
83.759
83.783
83.808
83.832
83.808
83.783
83.759
83.734
83.710
83.685
83.661
83.636
83.612
83.587
83.563
83.538
83.514
83.489
83.465
83.440
83.416
83.391
83.367
83.342
83.318
83.293
83.269
83.244
83.220
83.195
83.171
83.146
83.122
83.097
83.073
83.048
83.024
82.999
82.975
82.950
82.926
82.901
82.877
82.852
82.828
82.803
82.779
82.754
82.730
82.705
82.681
82.656
82.632
82.607
82.583
82.558
82.534
82.509
82.485
82.460
82.436
82.411
82.387
82.362
82.338
82.313
82.289
82.264
82.240
82.215
82.191
82.166
82.142
82.117
82.093
82.068
82.044
82.019
81.995
81.970
81.946
81.921
81.897
81.872
81.848
81.823
81.799
81.774
81.750
81.725
81.701
81.676
81.652
81.627
81.603
81.578
81.554
81.529
81.505
81.480
81.456
81.431
81.407
81.382
81.358
81.333
81.309
81.284
81.260
81.235
81.211
81.186
81.162
81.137
81.113
81.088
81.064
81.039
81.015
80.990
80.966
80.941
80.917
80.892
80.868
80.843
80.819
80.794
80.770
80.745
80.721
80.696
80.672
80.647
80.623
80.598
80.574
80.549
80.525
80.500
80.476
80.451
80.427
80.402
80.378
80.353
80.329
80.304
80.280
80.255
80.231
80.206
80.182
80.157
80.133
80.108
80.084
80.059
80.035
80.010
79.986
79.961
79.937
79.912
79.888
79.863
79.839
79.814
79.790
79.765
79.741
79.716
79.692
79.667
79.643
79.618
79.594
79.569
79.545
79.520
79.496
79.471
79.447
79.422
79.398
79.373
79.349
79.324
79.300
79.275
79.251
79.226
79.202
79.177
79.153
79.128
79.104
79.079
79.055
79.030
79.006
78.981
78.957
78.932
78.932
78.932
78.932
78.932
78.932
78.932
78.932
78.932
78.932
78.932
78.932
78.932
78.932
78.932
78.932
78.932
78.932
78.932
78.932
78.932
78.932
78.932
78.932
78.932
78.932
78.932
78.932
78.932
78.932
78.932
78.932
78.932
78.932
78.932
78.932
78.932
78.932
78.932
78.932
78.932
78.932
78.932
78.932
78.932
78.932
78.932
78.932
78.932
78.932
78.932
78.932
78.932
78.932
78.932
78.932
78.932
78.932
78.932
78.932
78.932
78.932
78.932
78.932
78.932
78.932
78.932
78.932
78.932
78.932
78.932
78.932
78.932
78.932
78.932
78.932
78.932
78.932
78.932
78.932
78.932
78.932
78.932
78.932
78.932
78.932
78.932
78.932
78.932
78.932
78.932
78.932
78.932
78.932
78.932
78.932
78.932
78.932
78.932
78.932
78.932
78.932
78.932
78.932
78.932
78.932
78.932
78.932
78.932
78.932
78.932
78.932
78.932
78.932
78.932
78.932
78.932
78.932
78.932
78.932
78.932
78.932
78.932
78.932
78.932
78.932
78.932
78.932
78.932
78.932
78.932
78.932
78.932
78.932
78.932
78.932
78.932
78.932
78.932
78.932
78.932
78.932
78.932
78.932
78.932
78.932
78.932
78.932
78.932
78.932
78.932
78.932
78.932
78.932
78.932
78.932
78.932
78.932
78.932
78.932
78.932
78.932
78.932
78.932
78.932
78.932
78.932
78.932
78.932
78.932
78.932
78.932
78.932
78.932
78.932
78.932
78.932
78.932
78.932
78.932
78.932
78.932
78.932
78.932
78.932
78.932
78.932
78.932
78.932
78.932
78.932
78.932
78.932
78.932
78.932
78.932
78.932
78.932
78.932
78.932
78.932
78.932
78.932
78.932
78.932
78.932
78.932
78.932
78.932
78.932
78.932
78.932
78.932
78.932
78.932
78.932
78.932
78.932
78.932
78.932
78.932
78.932
78.932
78.932
78.932
78.932
78.932
78.932
78.932
78.932
78.932
78.932
78.932
78.932
78.932
78.932
78.932
78.932
78.932
78.932
78.932
78.932
78.932
78.932
78.932
78.932
78.932
78.932
78.932
78.932
78.932
78.932
78.932
78.932
78.932
78.932
78.932
78.932
78.932
78.932
78.932
78.932
78.932
78.932
78.932
78.932
78.932
78.932
78.932
78.932
78.932
78.932
78.932
78.932
78.932
78.932
78.932
78.932
78.932
78.932
78.932
78.932
78.932
78.932
78.932
78.932
78.932
78.932
78.932
78.932
78.932
78.932
78.932
78.932
78.932
78.932
78.932
78.932
78.932
78.932
78.932
78.932
78.932
78.932
78.932
78.932
78.932
78.932
78.932
78.932
78.932
78.932
78.932
78.932
78.932
78.932
78.932
78.932
78.932
78.932
78.932
78.932
78.932
78.932
78.932
78.932
78.932
78.932
78.932
78.932
78.932
78.932
78.932
78.932
78.932
78.932
78.932
78.932
78.932
78.932
78.932
78.932
78.932
78.932
78.932
78.932
78.932
78.932
78.932
78.932
78.932
78.932
78.932
78.932
78.932
78.932
78.932
78.932
78.932
78.932
78.932
78.932
78.932
78.932
78.932
78.932
78.932
78.932
78.932
78.932
78.932
78.932
78.932
78.932
78.932
78.932
78.932
78.932
78.932
78.932
78.932
78.932
78.932
78.932
78.932
78.932
78.932
78.932
78.932
78.932
78.932
78.932
78.932
78.932
78.932
78.932
78.932
78.932
78.932
78.932
78.932
78.932
78.932
78.932
78.932
78.932
78.932
78.932
78.932
78.932
78.932
78.932
78.932
78.932
78.932
78.932
78.932
78.932
78.932
78.932
78.932
78.932
78.932
78.932
78.932
78.932
78.932
78.932
78.932
78.932
78.932
78.932
78.932
78.932
78.932
78.932
78.932
78.932
78.932
78.932
78.932
78.932
78.932
78.932
78.932
78.932
78.932
78.932
78.932
78.932
78.932
78.932
78.932
78.932
78.932
78.932
78.932
78.932
78.932
78.932
78.932
78.932
78.932
78.932
78.932
78.932
78.932
78.932
78.932
78.932
78.932
78.932
78.932
78.932
78.932
78.932
78.932
78.932
78.932
78.932
78.932
78.932
78.932
78.932
78.932
78.932
78.932
78.932
78.932
78.932
78.932
78.932
78.932
78.932
78.932
78.932
78.932
78.932
78.932
78.932
78.932
78.932
78.932
78.932
78.932
78.932
78.932
78.932
78.932
78.932
78.932
78.932
78.932
78.932
78.932
78.932
78.932
78.932
78.932
78.932
78.932
78.932
78.932
78.932
78.932
78.932
78.932
78.932
78.932
78.932
78.932
78.932
78.932
78.932
78.932
78.932
78.932
78.932
78.932
78.932
78.932
78.932
78.932
78.932
78.932
78.932
78.932
78.932
78.932
78.932
78.932
78.932
78.932
78.932
78.932
78.932
78.932
78.932
78.932
78.932
78.932
78.932
78.932
78.932
78.932
78.932
78.932
78.932
78.932
78.932
78.932
78.932
78.932
78.932
78.932
78.932
78.932
78.932
78.932
78.932
78.932
78.932
78.932
78.932
78.932
78.932
78.932
78.932
78.932
78.932
78.932
78.932
78.932
78.932
78.932
78.932
78.932
78.932
78.932
78.932
78.932
78.932
78.932
78.932
78.932
78.932
78.932
78.932
78.932
78.932
78.932
78.932
78.932
78.932
78.932
78.932
78.932
78.932
78.932
78.932
78.932
78.932
78.932
78.932
78.932
78.932
78.932
78.932
78.932
78.932
78.932
78.932
78.932
78.932
78.932
78.932
78.932
78.932
78.932
78.932
78.932
78.932
78.932
78.932
78.932
78.932
78.932
78.932
78.932
78.932
78.932
78.932
78.932
78.932
78.932
78.932
78.932
78.932
78.932
78.932
78.932
78.932
78.932
78.932
78.932
78.932
78.932
78.932
78.932
78.932
78.932
78.932
78.932
78.932
78.932
78.932
78.932
78.932
78.932
78.932
78.932
78.932
78.932
78.932
78.932
78.932
78.932
78.932
78.932
78.932
78.932
78.932
78.932
78.932
78.932
78.932
78.932
78.932
78.932
78.932
78.932
