1625.400
1623.494
1621.588
1619.682
1617.776
1615.870
1613.964
1612.058
1610.152
1608.246
1606.340
1604.434
1602.528
1600.622
1598.716
1596.810
1594.904
1592.998
1592.778
1592.558
1592.338
1592.118
1591.898
1591.678
1591.458
1591.238
1591.018
1590.798
1590.578
1590.358
1590.138
1589.918
1589.698
1589.478
1589.258
1589.038
1588.818
1588.598
1588.378
1588.158
1587.938
1587.718
1587.498
1587.278
1587.058
1586.838
1586.618
1586.398
1586.178
1585.958
1585.738
1585.518
1585.298
1585.078
1584.858
1584.638
1584.418
1584.198
1583.978
1583.758
1583.538
1583.318
1583.098
1582.878
1582.658
1582.438
1582.218
1581.998
1581.778
1581.558
1581.338
1581.118
1580.898
1580.678
1580.458
1580.238
1580.018
1579.798
1579.578
1579.358
1579.138
1578.918
1578.698
1578.478
1578.258
1578.038
1577.818
1577.598
1577.378
1577.158
1576.938
1576.718
1576.498
1576.278
1576.058
1575.838
1575.618
1575.398
1575.178
1574.958
1574.738
1574.518
1574.298
1574.078
1573.858
1573.638
1573.418
1573.198
1572.978
1572.758
1572.538
1572.318
1572.098
1571.878
1571.658
1571.438
1571.218
1570.998
1570.778
1570.558
1570.338
1570.118
1569.898
1569.678
1569.458
1569.238
1569.018
1568.798
1568.578
1568.358
1568.138
1567.918
1567.698
1567.478
1567.258
1567.038
1566.818
1566.598
1566.378
1566.158
1565.938
1565.718
1565.498
1565.278
1565.058
1564.838
1564.618
1564.398
1564.178
1563.958
1563.738
1563.518
1563.298
1563.078
1562.858
1562.638
1562.418
1562.198
1561.978
1561.758
1561.538
1561.318
1561.098
1560.878
1560.658
1560.438
1560.218
1559.998
1559.778
1559.558
1559.338
1559.118
1558.898
1558.678
1558.458
1558.238
1558.018
1557.798
1557.578
1557.358
1557.138
1556.918
1556.698
1556.478
1556.258
1556.038
1555.818
1555.598
1555.378
1555.158
1554.938
1554.718
1554.498
1554.278
1554.058
1553.838
1553.618
1553.398
1553.178
1552.958
1552.738
1552.518
1552.298
1552.078
1551.858
1551.638
1551.418
1551.198
1550.978
1550.758
1550.538
1550.318
1550.098
1549.878
1549.658
1549.438
1549.218
1548.998
1552.273
1555.547
1558.822
1562.096
1565.371
1568.645
1571.920
1575.194
1578.469
1581.743
1585.018
1588.292
1591.567
1594.841
1598.116
1601.390
1604.665
1607.939
1611.214
1614.488
1617.763
1621.037
1624.312
1627.586
1630.861
1634.135
1637.410
1640.684
1643.959
1647.233
1650.508
1653.782
1657.057
1660.331
1663.606
1666.880
1670.155
1673.429
1676.704
1679.978
1683.253
1686.527
1689.802
1693.076
1696.351
1699.625
1702.900
1706.174
1709.449
1712.723
1715.998
1719.272
1722.547
1725.821
1729.096
1732.370
1735.645
1738.919
1742.194
1745.468
1748.743
1752.017
1755.292
1758.566
1761.841
1765.115
1768.390
1771.664
1774.939
1778.213
1781.488
1784.762
1788.037
1791.311
1794.586
1797.860
1801.135
1804.409
1807.684
1810.958
1814.233
1817.507
1820.782
1824.056
1827.331
1830.605
1833.880
1837.154
1840.429
1843.703
1846.978
1850.252
1853.527
1856.801
1860.076
1863.350
1866.625
1869.899
1873.174
1876.448
1879.723
1882.997
1886.272
1889.546
1892.821
1896.095
1899.370
1902.644
1905.919
1909.193
1912.468
1915.742
1919.017
1922.291
1925.566
1928.840
1932.115
1935.389
1938.664
1941.938
1945.213
1948.487
1951.762
1955.036
1958.311
1961.585
1964.860
1968.134
1971.409
1974.683
1977.958
1981.232
1984.507
1987.781
1991.056
1994.330
1997.605
2000.879
2004.154
2007.428
2010.703
2013.977
2017.252
2020.526
2023.801
2027.075
2030.350
2033.624
2036.899
2040.173
2043.448
2046.722
2049.997
2053.271
2056.546
2059.820
2063.095
2066.369
2069.644
2072.918
2076.193
2079.467
2082.742
2086.016
2089.291
2092.565
2095.840
2099.114
2102.389
2105.663
2108.938
2112.212
2115.487
2118.761
2122.036
2125.310
2128.585
2131.859
2135.134
2138.408
2141.683
2144.957
2148.232
2151.506
2154.781
2158.055
2161.330
2164.604
2167.879
2171.153
2174.428
2177.702
2180.977
2184.251
2187.526
2190.800
2194.075
2197.349
2200.624
97.398
97.374
97.349
97.325
97.300
97.276
97.251
97.227
97.202
97.178
97.153
97.129
97.104
97.080
97.055
97.031
97.006
96.982
96.957
96.933
96.908
96.884
96.859
96.835
96.810
96.786
96.761
96.737
96.712
96.688
96.663
96.639
96.614
96.590
96.565
96.541
96.516
96.492
96.467
96.443
96.418
96.394
96.369
96.345
96.320
96.296
96.271
96.247
96.222
96.198
96.173
96.149
96.124
96.100
96.075
96.051
96.026
96.002
95.977
95.953
95.928
95.904
95.879
95.855
95.830
95.806
95.781
95.757
95.732
95.708
95.683
95.659
95.634
95.610
95.585
95.561
95.536
95.512
95.487
95.463
95.438
95.414
95.389
95.365
95.340
95.316
95.291
95.267
95.242
95.218
95.193
95.169
95.144
95.120
95.095
95.071
95.046
95.022
94.997
94.973
94.948
94.924
94.899
94.875
94.850
94.826
94.801
94.777
94.752
94.728
94.703
94.679
94.654
94.630
94.605
94.581
94.556
94.532
94.507
94.483
94.458
94.434
94.409
94.385
94.360
94.336
94.311
94.287
94.262
94.238
94.213
94.189
94.164
94.140
94.115
94.091
94.066
94.042
94.017
93.993
93.968
93.944
93.919
93.895
93.870
93.846
93.821
93.797
93.772
93.748
93.723
93.699
93.674
93.650
93.625
93.601
93.576
93.552
93.527
93.503
93.478
93.454
93.429
93.405
93.380
93.356
93.331
93.307
93.282
93.258
93.233
93.209
93.184
93.160
93.135
93.111
93.086
93.062
93.037
93.013
92.988
92.964
92.939
92.915
92.890
92.866
92.841
92.817
92.792
92.768
92.743
92.719
92.694
92.670
92.645
92.621
92.596
92.572
92.547
92.523
92.498
92.523
92.547
92.572
92.596
92.621
92.645
92.670
92.694
92.719
92.743
92.768
92.792
92.817
92.841
92.866
92.890
92.915
92.939
92.964
92.988
93.013
93.037
93.062
93.086
93.111
93.135
93.160
93.184
93.209
93.233
93.258
93.282
93.307
93.331
93.356
93.380
93.405
93.429
93.454
93.478
93.503
93.527
93.552
93.576
93.601
93.625
93.650
93.674
93.699
93.723
93.748
93.772
93.797
93.821
93.846
93.870
93.895
93.919
93.944
93.968
93.993
94.017
94.042
94.066
94.091
94.115
94.140
94.164
94.189
94.213
94.238
94.262
94.287
94.311
94.336
94.360
94.385
94.409
94.434
94.458
94.483
94.507
94.532
94.556
94.581
94.605
94.630
94.654
94.679
94.703
94.728
94.752
94.777
94.801
94.826
94.850
94.875
94.899
94.924
94.948
94.973
94.997
95.022
95.046
95.071
95.095
95.120
95.144
95.169
95.193
95.218
95.242
95.267
95.291
95.316
95.340
95.365
95.389
95.414
95.438
95.463
95.487
95.512
95.536
95.561
95.585
95.610
95.634
95.659
95.683
95.708
95.732
95.757
95.781
95.806
95.830
95.855
95.879
95.904
95.928
95.953
95.977
96.002
96.026
96.051
96.075
96.100
96.124
96.149
96.173
96.198
96.222
96.247
96.271
96.296
96.320
96.345
96.369
96.394
96.418
96.443
96.467
96.492
96.516
96.541
96.565
96.590
96.614
96.639
96.663
96.688
96.712
96.737
96.761
96.786
96.810
96.835
96.859
96.884
96.908
96.933
96.957
96.982
97.006
97.031
97.055
97.080
97.104
97.129
97.153
97.178
97.202
97.227
97.251
97.276
97.300
97.325
97.349
97.374
97.398
97.398
97.398
97.398
97.398
97.398
97.398
97.398
97.398
97.398
97.398
97.398
97.398
97.398
97.398
97.398
97.398
97.398
97.398
97.398
97.398
97.398
97.398
97.398
97.398
97.398
97.398
97.398
97.398
97.398
97.398
97.398
97.398
97.398
97.398
97.398
97.398
97.398
97.398
97.398
97.398
97.398
97.398
97.398
97.398
97.398
97.398
97.398
97.398
97.398
97.398
97.398
97.398
97.398
97.398
97.398
97.398
97.398
97.398
97.398
97.398
97.398
97.398
97.398
97.398
97.398
97.398
97.398
97.398
97.398
97.398
97.398
97.398
97.398
97.398
97.398
97.398
97.398
97.398
97.398
97.398
97.398
97.398
97.398
97.398
97.398
97.398
97.398
97.398
97.398
97.398
97.398
97.398
97.398
97.398
97.398
97.398
97.398
97.398
97.398
97.398
97.398
97.398
97.398
97.398
97.398
97.398
97.398
97.398
97.398
97.398
97.398
97.398
97.398
97.398
97.398
97.398
97.398
97.398
97.398
97.398
97.398
97.398
97.398
97.398
97.398
97.398
97.398
97.398
97.398
97.398
97.398
97.398
97.398
97.398
97.398
97.398
97.398
97.398
97.398
97.398
97.398
97.398
97.398
97.398
97.398
97.398
97.398
97.398
97.398
97.398
97.398
97.398
97.398
97.398
97.398
97.398
97.398
97.398
97.398
97.398
97.398
97.398
97.398
97.398
97.398
97.398
97.398
97.398
97.398
97.398
97.398
97.398
97.398
97.398
97.398
97.398
97.398
97.398
97.398
97.398
97.398
97.398
97.398
97.398
97.398
97.398
97.398
97.398
97.398
97.398
97.398
97.398
97.398
97.398
97.398
97.398
97.398
97.398
97.398
97.398
97.398
97.398
97.398
97.398
97.398
97.398
97.398
97.398
97.398
97.398
97.398
97.398
97.398
97.398
97.398
97.398
97.398
97.398
97.398
97.398
97.398
97.398
97.398
97.398
97.398
97.398
97.398
97.398
97.398
97.398
97.398
97.398
97.398
97.398
97.398
97.398
97.398
97.398
97.398
97.398
97.398
97.398
97.398
97.398
97.398
97.398
97.398
97.398
97.398
97.398
97.398
97.398
97.398
97.398
97.398
97.398
97.398
97.398
97.398
97.398
97.398
97.398
97.398
97.398
97.398
97.398
97.398
97.398
97.398
97.398
97.398
97.398
97.398
97.398
97.398
97.398
97.398
97.398
97.398
97.398
97.398
97.398
97.398
97.398
97.398
97.398
97.398
97.398
97.398
97.398
97.398
97.398
97.398
97.398
97.398
97.398
97.398
97.398
97.398
97.398
97.398
97.398
97.398
97.398
97.398
97.398
97.398
97.398
97.398
97.398
97.398
97.398
97.398
97.398
97.398
97.398
97.398
97.398
97.398
97.398
97.398
97.398
97.398
97.398
97.398
97.398
97.398
97.398
97.398
97.398
97.398
97.398
97.398
97.398
97.398
97.398
97.398
97.398
97.398
97.398
97.398
97.398
97.398
97.398
97.398
97.398
97.398
97.398
97.398
97.398
97.398
97.398
97.398
97.398
97.398
97.398
97.398
97.398
97.398
97.398
97.398
97.398
97.398
97.398
97.398
97.398
97.398
97.398
97.398
97.398
97.398
97.398
97.398
97.398
97.398
97.398
97.398
97.398
97.398
97.398
97.398
97.398
97.398
97.398
97.398
97.398
97.398
97.398
97.398
97.398
97.398
97.398
97.398
97.398
97.398
97.398
97.398
97.398
97.398
97.398
97.398
97.398
97.398
97.398
97.398
97.398
97.398
97.398
97.398
97.398
97.398
97.398
97.398
97.398
97.398
97.398
97.398
97.398
97.398
97.398
97.398
97.398
97.398
97.398
97.398
97.398
97.398
97.398
97.398
97.398
97.398
97.398
97.398
97.398
97.398
97.398
97.398
97.398
97.398
97.398
97.398
97.398
97.398
97.398
97.398
97.398
97.398
97.398
97.398
97.398
97.398
97.398
97.398
97.398
97.398
97.398
97.398
97.398
97.398
97.398
97.398
97.398
97.398
97.398
97.398
97.398
97.398
97.398
97.398
97.398
97.398
97.398
97.398
97.398
97.398
97.398
97.398
97.398
97.398
97.398
97.398
97.398
97.398
97.398
97.398
97.398
97.398
97.398
97.398
97.398
97.398
97.398
97.398
97.398
97.398
97.398
97.398
97.398
97.398
97.398
97.398
97.398
97.398
97.398
97.398
97.398
97.398
97.398
97.398
97.398
97.398
97.398
97.398
97.398
97.398
97.398
97.398
97.398
97.398
97.398
97.398
97.398
97.398
97.398
97.398
97.398
97.398
97.398
97.398
97.398
97.398
97.398
97.398
97.398
97.398
97.398
97.398
97.398
97.398
97.398
97.398
97.398
97.398
97.398
97.398
97.398
97.398
97.398
97.398
97.398
97.398
97.398
97.398
97.398
97.398
97.398
97.398
97.398
97.398
97.398
97.398
97.398
97.398
97.398
97.398
97.398
97.398
97.398
97.398
97.398
97.398
97.398
97.398
97.398
97.398
97.398
97.398
97.398
97.398
97.398
97.398
97.398
97.398
97.398
97.398
97.398
97.398
97.398
97.398
97.398
97.398
97.398
97.398
97.398
97.398
97.398
97.398
97.398
97.398
97.398
97.398
97.398
97.398
97.398
97.398
97.398
97.398
97.398
97.398
97.398
97.398
97.398
97.398
97.398
97.398
97.398
97.398
97.398
97.398
97.398
97.398
97.398
97.398
97.398
97.398
97.398
97.398
97.398
97.398
97.398
97.398
97.398
97.398
97.398
97.398
97.398
97.398
97.398
97.398
97.398
97.398
97.398
97.398
97.398
97.398
97.398
97.398
97.398
97.398
97.398
97.398
97.398
97.398
97.398
97.398
97.398
97.398
97.398
97.398
97.398
97.398
97.398
97.398
97.398
97.398
97.398
97.398
97.398
97.398
97.398
97.398
97.398
97.398
97.398
97.398
97.398
97.398
97.398
97.398
97.398
97.398
97.398
97.398
97.398
97.398
97.398
97.398
97.398
97.398
97.398
97.398
97.398
97.398
97.398
97.398
97.398
97.398
97.398
97.398
97.398
97.398
97.398
97.398
97.398
97.398
97.398
97.398
97.398
97.398
97.398
97.398
97.398
97.398
97.398
97.398
97.398
97.398
97.398
97.398
97.398
97.398
97.398
97.398
97.398
97.398
97.398
97.398
97.398
97.398
97.398
97.398
97.398
97.398
97.398
97.398
97.398
97.398
97.398
97.398
97.398
97.398
97.398
97.398
97.398
97.398
97.398
97.398
97.398
97.398
97.398
97.398
97.398
97.398
97.398
97.398
97.398
97.398
97.398
97.398
97.398
97.398
97.398
97.398
97.398
97.398
97.398
97.398
97.398
97.398
97.398
97.398
97.398
97.398
97.398
97.398
97.398
97.398
97.398
97.398
97.398
97.398
97.398
97.398
97.398
97.398
97.398
97.398
97.398
97.398
97.398
97.398
97.398
97.398
97.398
97.398
97.398
97.398
97.398
97.398
97.398
97.398
97.398
97.398
97.398
97.398
97.398
97.398
97.398
97.398
97.398
97.398
97.398
97.398
97.398
97.398
97.398
97.398
97.398
97.398
97.398
97.398
97.398
97.398
97.398
97.398
97.398
97.398
97.398
97.398
97.398
97.398
97.398
97.398
97.398
97.398
97.398
97.398
97.398
97.398
97.398
97.398
97.398
97.398
97.398
97.398
97.398
97.398
97.398
97.398
97.398
97.398
97.398
97.398
97.398
97.398
97.398
97.398
97.398
97.398
97.398
97.398
97.398
97.398
97.398
97.398
97.398
97.398
97.398
97.398
97.398
97.398
97.398
97.398
97.398
97.398
97.398
97.398
97.398
97.398
97.398
97.398
97.398
97.398
97.398
97.398
97.398
97.398
97.398
97.398
97.398
97.398
97.398
97.398
97.398
97.398
97.398
97.398
97.398
97.398
97.398
97.398
97.398
97.398
97.398
97.398
97.398
97.398
97.398
97.398
97.398
97.398
97.398
97.398
97.398
97.398
97.398
97.398
97.398
97.398
97.398
97.398
97.398
97.398
97.398
97.398
97.398
97.398
97.398
97.398
97.398
97.398
97.398
97.398
97.398
97.398
97.398
97.398
97.398
97.398
97.398
97.398
97.398
97.398
97.398
97.398
97.398
97.398
97.398
97.398
97.398
97.398
97.398
97.398
97.398
97.398
97.398
97.398
97.398
97.398
97.398
97.398
97.398
97.398
97.398
97.398
97.398
97.398
97.398
97.398
97.398
97.398
97.398
97.398
97.398
97.398
97.398
97.398
97.398
97.398
97.398
97.398
97.398
97.398
97.398
97.398
97.398
97.398
97.398
97.398
97.398
97.398
97.398
97.398
97.398
97.398
97.398
97.398
97.398
97.398
97.398
97.398
97.398
97.398
97.398
97.398
97.398
97.398
97.398
97.398
97.398
97.398
97.398
97.398
97.398
97.398
97.398
97.398
97.398
97.398
97.398
97.398
97.398
97.398
97.398
97.398
97.398
97.398
97.398
97.398
97.398
97.398
97.398
97.398
97.398
97.398
97.398
97.398
97.398
97.398
97.398
97.398
97.398
97.398
97.398
97.398
97.398
97.398
97.398
97.398
97.398
97.398
97.398
97.398
97.398
97.398
97.398
97.398
97.398
97.398
97.398
97.398
97.398
97.398
97.398
97.398
97.398
97.398
97.398
97.398
97.398
97.398
97.398
97.398
97.398
97.398
97.398
97.398
97.398
97.398
97.398
97.398
97.398
97.398
97.398
97.398
97.398
97.398
97.398
97.398
97.398
97.398
97.398
97.398
97.398
97.398
97.398
97.398
97.398
97.398
97.398
97.398
97.398
97.398
97.398
97.398
97.398
97.398
97.398
97.398
97.398
97.398
97.398
97.398
97.398
97.398
97.398
97.398
97.398
97.398
97.398
97.398
97.398
97.398
97.398
97.398
97.398
97.398
97.398
97.398
97.398
97.398
97.398
97.398
97.398
97.398
97.398
97.398
97.398
97.398
97.398
97.398
97.398
97.398
97.398
97.398
97.398
97.398
97.398
97.398
97.398
97.398
97.398
97.398
97.398
97.398
97.398
97.398
97.398
97.398
97.398
97.398
97.398
97.398
97.398
97.398
97.398
97.398
97.398
97.398
97.398
97.398
97.398
97.398
97.398
97.398
97.398
97.398
97.398
97.398
97.398
97.398
97.398
