2551.411
2549.920
2548.429
2546.938
2545.447
2543.956
2542.465
2540.974
2539.483
2537.992
2536.501
2535.010
2533.519
2532.028
2530.537
2529.046
2527.555
2526.064
2524.573
2523.082
2521.591
2520.100
2518.609
2517.118
2515.627
2514.136
2512.645
2511.154
2509.663
2508.172
2506.681
2505.190
2503.699
2502.208
2500.717
2499.226
2497.735
2496.244
2494.753
2493.262
2491.771
2490.280
2488.789
2485.979
2483.169
2480.359
2477.549
2474.739
2471.929
2469.119
2466.309
2463.499
2460.689
2457.879
2455.069
2452.259
2449.449
2446.639
2443.829
2441.019
2438.209
2435.399
2432.589
2429.779
2426.969
2424.159
2421.349
2418.539
2415.729
2412.919
2410.109
2407.299
2404.489
2401.679
2398.869
2396.059
2393.249
2390.439
2387.629
2384.819
2382.009
2379.199
2376.389
2373.579
2370.769
2367.959
2365.149
2362.339
2359.529
2356.719
2353.909
2351.099
2348.289
2345.479
2342.669
2339.859
2337.049
2334.239
2331.429
2328.619
2325.809
2322.999
2320.189
2317.379
2314.569
2311.759
2308.949
2306.139
2303.329
2300.519
2297.709
2294.899
2292.089
2289.279
2286.469
2283.659
2280.849
2278.039
2275.229
2272.419
2269.609
2266.799
2263.989
2261.179
2258.369
2255.559
2252.749
2249.939
2247.129
2244.319
2241.509
2238.699
2235.889
2233.079
2230.269
2227.459
2224.649
2221.839
2219.029
2216.219
2213.409
2210.599
2207.789
2204.979
2202.169
2199.359
2196.549
2193.739
2190.929
2188.119
2185.309
2182.499
2179.689
2176.879
2174.069
2171.259
2168.449
2165.639
2162.829
2160.019
2157.209
2154.399
2151.589
2148.779
2145.969
2143.159
2140.349
2137.539
2134.729
2131.919
2129.109
2126.299
2123.489
2120.679
2117.869
2115.059
2112.249
2109.439
2106.629
2103.819
2101.009
2098.199
2095.389
2092.579
2089.769
2086.959
2084.149
2081.339
2078.529
2075.719
2072.909
2070.099
2067.289
2064.479
2061.669
2058.859
2056.049
2053.239
2050.429
2047.619
2044.809
2041.999
2039.189
2036.379
2033.569
2030.759
2027.949
2025.139
2022.329
2019.519
2016.709
2013.899
2011.089
2008.279
2005.469
2002.659
1999.849
1997.039
1994.229
1991.419
1988.609
1985.799
1982.989
1980.179
1977.369
1974.559
1971.749
1968.939
1966.129
1963.319
1960.509
1957.699
1954.889
1952.079
1949.269
1946.459
1943.649
1940.839
1938.029
1935.219
1932.409
1929.599
74.389
74.389
74.389
74.389
74.389
74.389
74.389
74.389
74.389
74.389
74.389
74.389
74.389
74.389
74.389
74.389
74.389
74.389
74.389
74.389
74.389
74.389
74.389
74.389
74.389
74.389
74.389
74.389
74.389
74.389
74.389
74.389
74.389
74.389
74.389
74.389
74.389
74.389
74.389
74.389
74.389
74.389
74.389
74.389
74.389
74.389
74.389
74.389
74.389
74.389
74.389
74.389
74.389
74.389
74.389
74.389
74.389
74.389
74.389
74.389
74.389
74.389
74.389
74.389
74.389
74.389
74.389
74.389
74.389
74.389
74.389
74.389
74.389
74.389
74.389
74.389
74.389
74.389
74.389
74.389
74.389
74.389
74.389
74.389
74.389
74.389
74.389
74.389
74.389
74.389
74.389
74.389
74.389
74.389
74.389
74.389
74.389
74.389
74.389
74.389
74.389
74.389
74.389
74.389
74.389
74.389
74.389
74.389
74.389
74.389
74.389
74.389
74.389
74.389
74.389
74.389
74.389
74.389
74.389
74.389
74.389
74.389
74.389
74.389
74.389
74.389
74.389
74.389
74.389
74.389
74.389
74.389
74.389
74.389
74.389
74.389
74.389
74.389
74.389
74.389
74.389
74.389
74.389
74.389
74.389
74.389
74.389
74.389
74.389
74.389
74.389
74.389
74.389
74.389
74.389
74.389
74.389
74.389
74.389
74.389
74.389
74.389
74.389
74.389
74.389
74.389
74.389
74.389
74.389
74.389
74.389
74.389
74.389
74.389
74.389
74.389
74.389
74.389
74.389
74.389
74.389
74.389
74.389
74.389
74.389
74.389
74.389
74.389
74.389
74.389
74.389
74.389
74.389
74.389
74.389
74.389
74.389
74.389
74.389
74.389
74.389
74.414
74.438
74.463
74.487
74.512
74.536
74.561
74.585
74.610
74.634
74.659
74.683
74.708
74.732
74.757
74.781
74.806
74.830
74.855
74.879
74.904
74.928
74.953
74.977
75.002
75.026
75.051
75.075
75.100
75.124
75.149
75.173
75.198
75.222
75.247
75.271
75.296
75.320
75.345
75.369
75.394
75.418
75.443
75.467
75.492
75.516
75.541
75.565
75.590
75.614
75.639
75.663
75.688
75.712
75.737
75.761
75.786
75.810
75.835
75.859
75.884
75.908
75.933
75.957
75.982
76.006
76.031
76.055
76.080
76.104
76.129
76.153
76.178
76.202
76.227
76.251
76.276
76.300
76.325
76.349
76.374
76.398
76.423
76.447
76.472
76.496
76.521
76.545
76.570
76.594
76.619
76.643
76.668
76.692
76.717
76.741
76.766
76.790
76.815
76.839
76.864
76.888
76.913
76.937
76.962
76.986
77.011
77.035
77.060
77.084
77.109
77.133
77.158
77.182
77.207
77.231
77.256
77.280
77.305
77.329
77.354
77.378
77.403
77.427
77.452
77.476
77.501
77.525
77.550
77.574
77.599
77.623
77.648
77.672
77.697
77.721
77.746
77.770
77.795
77.819
77.844
77.868
77.893
77.917
77.942
77.966
77.991
78.015
78.040
78.064
78.089
78.113
78.138
78.162
78.187
78.211
78.236
78.260
78.285
78.309
78.334
78.358
78.383
78.407
78.432
78.456
78.481
78.505
78.530
78.554
78.579
78.603
78.628
78.652
78.677
78.701
78.726
78.750
78.775
78.799
78.824
78.848
78.873
78.897
78.922
78.946
78.971
78.995
79.020
79.044
79.069
79.093
79.118
79.142
79.167
79.191
79.216
79.240
79.265
79.289
79.265
79.240
79.216
79.191
79.167
79.142
79.118
79.093
79.069
79.044
79.020
78.995
78.971
78.946
78.922
78.897
78.873
78.848
78.824
78.799
78.775
78.750
78.726
78.701
78.677
78.652
78.628
78.603
78.579
78.554
78.530
78.505
78.481
78.456
78.432
78.407
78.383
78.358
78.334
78.309
78.285
78.260
78.236
78.211
78.187
78.162
78.138
78.113
78.089
78.064
78.040
78.015
77.991
77.966
77.942
77.917
77.893
77.868
77.844
77.819
77.795
77.770
77.746
77.721
77.697
77.672
77.648
77.623
77.599
77.574
77.550
77.525
77.501
77.476
77.452
77.427
77.403
77.378
77.354
77.329
77.305
77.280
77.256
77.231
77.207
77.182
77.158
77.133
77.109
77.084
77.060
77.035
77.011
76.986
76.962
76.937
76.913
76.888
76.864
76.839
76.815
76.790
76.766
76.741
76.717
76.692
76.668
76.643
76.619
76.594
76.570
76.545
76.521
76.496
76.472
76.447
76.423
76.398
76.374
76.349
76.325
76.300
76.276
76.251
76.227
76.202
76.178
76.153
76.129
76.104
76.080
76.055
76.031
76.006
75.982
75.957
75.933
75.908
75.884
75.859
75.835
75.810
75.786
75.761
75.737
75.712
75.688
75.663
75.639
75.614
75.590
75.565
75.541
75.516
75.492
75.467
75.443
75.418
75.394
75.369
75.345
75.320
75.296
75.271
75.247
75.222
75.198
75.173
75.149
75.124
75.100
75.075
75.051
75.026
75.002
74.977
74.953
74.928
74.904
74.879
74.855
74.830
74.806
74.781
74.757
74.732
74.708
74.683
74.659
74.634
74.610
74.585
74.561
74.536
74.512
74.487
74.463
74.438
74.414
74.389
74.389
74.389
74.389
74.389
74.389
74.389
74.389
74.389
74.389
74.389
74.389
74.389
74.389
74.389
74.389
74.389
74.389
74.389
74.389
74.389
74.389
74.389
74.389
74.389
74.389
74.389
74.389
74.389
74.389
74.389
74.389
74.389
74.389
74.389
74.389
74.389
74.389
74.389
74.389
74.389
74.389
74.389
74.389
74.389
74.389
74.389
74.389
74.389
74.389
74.389
74.389
74.389
74.389
74.389
74.389
74.389
74.389
74.389
74.389
74.389
74.389
74.389
74.389
74.389
74.389
74.389
74.389
74.389
74.389
74.389
74.389
74.389
74.389
74.389
74.389
74.389
74.389
74.389
74.389
74.389
74.389
74.389
74.389
74.389
74.389
74.389
74.389
74.389
74.389
74.389
74.389
74.389
74.389
74.389
74.389
74.389
74.389
74.389
74.389
74.389
74.389
74.389
74.389
74.389
74.389
74.389
74.389
74.389
74.389
74.389
74.389
74.389
74.389
74.389
74.389
74.389
74.389
74.389
74.389
74.389
74.389
74.389
74.389
74.389
74.389
74.389
74.389
74.389
74.389
74.389
74.389
74.389
74.389
74.389
74.389
74.389
74.389
74.389
74.389
74.389
74.389
74.389
74.389
74.389
74.389
74.389
74.389
74.389
74.389
74.389
74.389
74.389
74.389
74.389
74.389
74.389
74.389
74.389
74.389
74.389
74.389
74.389
74.389
74.389
74.389
74.389
74.389
74.389
74.389
74.389
74.389
74.389
74.389
74.389
74.389
74.389
74.389
74.389
74.389
74.389
74.389
74.389
74.389
74.389
74.389
74.389
74.389
74.389
74.389
74.389
74.389
74.389
74.389
74.389
74.389
74.389
74.389
74.389
74.389
74.389
74.389
74.389
74.389
74.389
74.389
74.389
74.389
74.389
74.389
74.389
74.389
74.389
74.389
74.389
74.389
74.389
74.389
74.389
74.389
74.389
74.389
74.389
74.389
74.389
74.389
74.389
74.389
74.389
74.389
74.389
74.389
74.389
74.389
74.389
74.389
74.389
74.389
74.389
74.389
74.389
74.389
74.389
74.389
74.389
74.389
74.389
74.389
74.389
74.389
74.389
74.389
74.389
74.389
74.389
74.389
74.389
74.389
74.389
74.389
74.389
74.389
74.389
74.389
74.389
74.389
74.389
74.389
74.389
74.389
74.389
74.389
74.389
74.389
74.389
74.389
74.389
74.389
74.389
74.389
74.389
74.389
74.389
74.389
74.389
74.389
74.389
74.389
74.389
74.389
74.389
74.389
74.389
74.389
74.389
74.389
74.389
74.389
74.389
74.389
74.389
74.389
74.389
74.389
74.389
74.389
74.389
74.389
74.389
74.389
74.389
74.389
74.389
74.389
74.389
74.389
74.389
74.389
74.389
74.389
74.389
74.389
74.389
74.389
74.389
74.389
74.389
74.389
74.389
74.389
74.389
74.389
74.389
74.389
74.389
74.389
74.389
74.389
74.389
74.389
74.389
74.389
74.389
74.389
74.389
74.389
74.389
74.389
74.389
74.389
74.389
74.389
74.389
74.389
74.389
74.389
74.389
74.389
74.389
74.389
74.389
74.389
74.389
74.389
74.389
74.389
74.389
74.389
74.389
74.389
74.389
74.389
74.389
74.389
74.389
74.389
74.389
74.389
74.389
74.389
74.389
74.389
74.389
74.389
74.389
74.389
74.389
74.389
74.389
74.389
74.389
74.389
74.389
74.389
74.389
74.389
74.389
74.389
74.389
74.389
74.389
74.389
74.389
74.389
74.389
74.389
74.389
74.389
74.389
74.389
74.389
74.389
74.389
74.389
74.389
74.389
74.389
74.389
74.389
74.389
74.389
74.389
74.389
74.389
74.389
74.389
74.389
74.389
74.389
74.389
74.389
74.389
74.389
74.389
74.389
74.389
74.389
74.389
74.389
74.389
74.389
74.389
74.389
74.389
74.389
74.389
74.389
74.389
74.389
74.389
74.389
74.389
74.389
74.389
74.389
74.389
74.389
74.389
74.389
74.389
74.389
74.389
74.389
74.389
74.389
74.389
74.389
74.389
74.389
74.389
74.389
74.389
74.389
74.389
74.389
74.389
74.389
74.389
74.389
74.389
74.389
74.389
74.389
74.389
74.389
74.389
74.389
74.389
74.389
74.389
74.389
74.389
74.389
74.389
74.389
74.389
74.389
74.389
74.389
74.389
74.389
74.389
74.389
74.389
74.389
74.389
74.389
74.389
74.389
74.389
74.389
74.389
74.389
74.389
74.389
74.389
74.389
74.389
74.389
74.389
74.389
74.389
74.389
74.389
74.389
74.389
74.389
74.389
74.389
74.389
74.389
74.389
74.389
74.389
74.389
74.389
74.389
74.389
74.389
74.389
74.389
74.389
74.389
74.389
74.389
74.389
74.389
74.389
74.389
74.389
74.389
74.389
74.389
74.389
74.389
74.389
74.389
74.389
74.389
74.389
74.389
74.389
74.389
74.389
74.389
74.389
74.389
74.389
74.389
74.389
74.389
74.389
74.389
74.389
74.389
74.389
74.389
74.389
74.389
74.389
74.389
74.389
74.389
74.389
74.389
74.389
74.389
74.389
74.389
74.389
74.389
74.389
74.389
74.389
74.389
74.389
74.389
74.389
74.389
74.389
84.089
84.041
83.992
83.944
83.895
83.847
83.798
83.750
83.701
83.653
83.604
83.556
83.507
83.459
83.410
83.362
83.313
83.265
83.216
83.168
83.119
83.071
83.022
82.974
82.925
82.877
82.828
82.780
82.731
82.683
82.634
82.586
82.537
82.489
82.440
82.392
82.343
82.295
82.246
82.198
82.149
82.101
82.052
82.004
81.955
81.907
81.858
81.810
81.761
81.713
81.664
81.616
81.567
81.519
81.470
81.422
81.373
81.325
81.276
81.228
81.179
81.131
81.082
81.034
80.985
80.937
80.888
80.840
80.791
80.743
80.694
80.646
80.597
80.549
80.500
80.452
80.403
80.355
80.306
80.258
80.209
80.161
80.112
80.064
80.015
79.967
79.918
79.870
79.821
79.773
79.724
79.676
79.627
79.579
79.530
79.482
79.433
79.385
79.336
79.288
79.239
79.191
79.142
79.094
79.045
78.997
78.948
78.900
78.851
78.803
78.754
78.706
78.657
78.609
78.560
78.512
78.463
78.415
78.366
78.318
78.269
78.221
78.172
78.124
78.075
78.027
77.978
77.930
77.881
77.833
77.784
77.736
77.687
77.639
77.590
77.542
77.493
77.445
77.396
77.348
77.299
77.251
77.202
77.154
77.105
77.057
77.008
76.960
76.911
76.863
76.814
76.766
76.717
76.669
76.620
76.572
76.523
76.475
76.426
76.378
76.329
76.281
76.232
76.184
76.135
76.087
76.038
75.990
75.941
75.893
75.844
75.796
75.747
75.699
75.650
75.602
75.553
75.505
75.456
75.408
75.359
75.311
75.262
75.214
75.165
75.117
75.068
75.020
74.971
74.923
74.874
74.826
74.777
74.729
74.680
74.632
74.583
74.535
74.486
74.438
74.389
74.389
74.389
74.389
74.389
74.389
74.389
74.389
74.389
74.389
74.389
74.389
74.389
74.389
74.389
74.389
74.389
74.389
74.389
74.389
74.389
74.389
74.389
74.389
74.389
74.389
74.389
74.389
74.389
74.389
74.389
74.389
74.389
74.389
74.389
74.389
74.389
74.389
74.389
74.389
74.389
74.389
74.389
74.389
74.389
74.389
74.389
74.389
74.389
74.389
74.389
74.389
74.389
74.389
74.389
74.389
74.389
74.389
74.389
74.389
74.389
74.389
74.389
74.389
74.389
74.389
74.389
74.389
74.389
74.389
74.389
74.389
74.389
74.389
74.389
74.389
74.389
74.389
74.389
74.389
74.389
74.389
74.389
74.389
74.389
74.389
74.389
74.389
74.389
74.389
74.389
74.389
74.389
74.389
74.389
74.389
74.389
74.389
74.389
74.389
74.389
74.389
74.389
74.389
74.389
74.389
74.389
74.389
74.389
74.389
74.389
74.389
74.389
74.389
74.389
74.389
74.389
74.389
74.389
74.389
74.389
74.389
74.389
74.389
74.389
74.389
74.389
74.389
74.389
74.389
74.389
74.389
74.389
74.389
74.389
74.389
74.389
74.389
74.389
74.389
74.389
74.389
74.389
74.389
74.389
74.389
74.389
74.389
74.389
74.389
74.389
74.389
74.389
74.389
74.389
74.389
74.389
74.389
74.389
74.389
74.389
74.389
74.389
74.389
74.389
74.389
74.389
74.389
74.389
74.389
74.389
74.389
74.389
74.389
74.389
74.389
74.389
74.389
74.389
74.389
74.389
74.389
74.389
74.389
74.389
74.389
74.389
74.389
74.389
74.389
74.389
74.389
74.389
74.389
74.389
74.389
74.389
74.389
74.389
74.389
74.389
74.365
74.340
74.316
74.291
74.267
74.242
74.218
74.193
74.169
74.144
74.120
74.095
74.071
74.046
74.022
73.997
73.973
73.948
73.924
73.899
73.875
73.850
73.826
73.801
73.777
73.752
73.728
73.703
73.679
73.654
73.630
73.605
73.581
73.556
73.532
73.507
73.483
73.458
73.434
73.409
73.385
73.360
73.336
73.311
73.287
73.262
73.238
73.213
73.189
73.164
73.140
73.115
73.091
73.066
73.042
73.017
72.993
72.968
72.944
72.919
72.895
72.870
72.846
72.821
72.797
72.772
72.748
72.723
72.699
72.674
72.650
72.625
72.601
72.576
72.552
72.527
72.503
72.478
72.454
72.429
72.405
72.380
72.356
72.331
72.307
72.282
72.258
72.233
72.209
72.184
72.160
72.135
72.111
72.086
72.062
72.037
72.013
71.988
71.964
71.939
71.915
71.890
71.866
71.841
71.817
71.792
71.768
71.743
71.719
71.694
71.670
71.645
71.621
71.596
71.572
71.547
71.523
71.498
71.474
71.449
71.425
71.400
71.376
71.351
71.327
71.302
71.278
71.253
71.229
71.204
71.180
71.155
71.131
71.106
71.082
71.057
71.033
71.008
70.984
70.959
70.935
70.910
70.886
70.861
70.837
70.812
70.788
70.763
70.739
70.714
70.690
70.665
70.641
70.616
70.592
70.567
70.543
