1827.281
1829.309
1831.337
1833.365
1835.393
1837.421
1839.449
1841.477
1843.505
1845.533
1847.561
1849.589
1851.617
1853.645
1855.673
1857.701
1859.729
1861.757
1863.785
1865.813
1867.841
1869.869
1871.897
1873.925
1875.953
1877.981
1880.009
1882.037
1884.065
1886.093
1888.121
1890.149
1892.177
1894.205
1896.233
1898.261
1900.289
1902.317
1904.345
1906.373
1908.401
1908.425
1908.450
1908.474
1908.499
1908.523
1908.548
1908.572
1908.597
1908.621
1908.646
1908.670
1908.695
1908.719
1908.744
1908.768
1908.793
1908.817
1908.842
1908.866
1908.891
1908.915
1908.940
1908.964
1908.989
1909.013
1909.038
1909.062
1909.087
1909.111
1909.136
1909.160
1909.185
1909.209
1909.234
1909.258
1909.283
1909.307
1909.332
1909.356
1909.381
1909.405
1909.430
1909.454
1909.479
1909.503
1909.528
1909.552
1909.577
1909.601
1909.626
1909.650
1909.675
1909.699
1909.724
1909.748
1909.773
1909.797
1909.822
1909.846
1909.871
1909.895
1909.920
1909.944
1909.969
1909.993
1910.018
1910.042
1910.067
1910.091
1910.116
1910.140
1910.165
1910.189
1910.214
1910.238
1910.263
1910.287
1910.312
1910.336
1910.361
1910.385
1910.410
1910.434
1910.459
1910.483
1910.508
1910.532
1910.557
1910.581
1910.606
1910.630
1910.655
1910.679
1910.704
1910.728
1910.753
1910.777
1910.802
1910.826
1910.851
1910.875
1910.900
1910.924
1910.949
1910.973
1910.998
1911.022
1911.047
1911.071
1911.096
1911.120
1911.145
1911.169
1911.194
1911.218
1911.243
1911.267
1911.292
1911.316
1911.341
1911.365
1911.390
1911.414
1911.439
1911.463
1911.488
1911.512
1911.537
1911.561
1911.586
1911.610
1911.635
1911.659
1911.684
1911.708
1911.733
1911.757
1911.782
1911.806
1911.831
1911.855
1911.880
1911.904
1911.929
1911.953
1911.978
1912.002
1912.027
1912.051
1912.076
1912.100
1912.125
1912.149
1912.174
1912.198
1912.223
1912.247
1912.272
1912.296
1912.321
1912.345
1912.370
1912.394
1912.419
1912.443
1912.468
1912.492
1912.517
1912.541
1912.566
1912.590
1912.615
1912.639
1912.664
1912.688
1912.713
1912.737
1912.762
1912.786
1912.811
1912.835
1912.860
1912.884
1912.909
1912.933
1912.958
1912.982
1913.007
1913.031
1913.056
1913.080
1913.105
1913.129
1913.154
1913.178
1913.203
1913.227
1913.252
1913.276
1913.301
1914.767
1916.234
1917.700
1919.167
1920.633
1922.100
1923.566
1925.033
1926.499
1927.966
1929.432
1930.899
1932.365
1933.832
1935.298
1936.765
1938.231
1939.698
1941.164
1942.631
1944.097
1945.564
1947.030
1948.497
1949.963
1951.430
1952.896
1954.363
1955.829
1957.296
1958.762
1960.229
1961.695
1963.162
1964.628
1966.095
1967.561
1969.028
1970.494
1971.961
1973.427
1974.894
1976.360
1977.827
1979.293
1980.760
1982.226
1983.693
1985.159
1986.626
1988.092
1989.559
1991.025
1992.492
1993.958
1995.425
1996.891
1998.358
1999.824
2001.291
2002.757
2004.224
2005.690
2007.157
2008.623
2010.090
2011.556
2013.023
2014.489
2015.956
2017.422
2018.889
2020.355
2021.822
2023.288
2024.755
2026.221
2027.688
2029.154
2030.621
2032.087
2033.554
2035.020
2036.487
2037.953
2039.420
2040.886
2042.353
2043.819
2045.286
2046.752
2048.219
2049.685
2051.152
2052.618
2054.085
2055.551
2057.018
2058.484
2059.951
2061.417
2062.884
2064.350
2065.817
2067.283
2068.750
2070.216
2071.683
2073.149
2074.616
2076.082
2077.549
2079.015
2080.482
2081.948
2083.415
2084.881
2086.348
2087.814
2089.281
2090.747
2092.214
2093.680
2095.147
2096.613
2098.080
2099.546
2101.013
2102.479
2103.946
2105.412
2106.879
2108.345
2109.812
2111.278
2112.745
2114.211
2115.678
2117.144
2118.611
2120.077
2121.544
2123.010
2124.477
2125.943
2127.410
2128.876
2130.343
2131.809
2133.276
2134.742
2136.209
2137.675
2139.142
2140.608
2142.075
2143.541
2145.008
2146.474
2147.941
2149.407
2150.874
2152.340
2153.807
2155.273
2156.740
2158.206
2159.673
2161.139
2162.606
2164.072
2165.539
2167.005
2168.472
2169.938
2171.405
2172.871
2174.338
2175.804
2177.271
2178.737
2180.204
2181.670
2183.137
2184.603
2186.070
2187.536
2189.003
2190.469
2191.936
2193.402
2194.869
2196.335
2197.802
2199.268
2200.735
2202.201
2203.668
2205.134
2206.601
2206.649
2206.698
2206.746
2206.795
2206.843
2206.892
2206.940
2206.989
2207.037
2207.086
2207.134
2207.183
2207.231
2207.280
2207.328
2207.377
2207.425
2207.474
2207.522
2207.571
2207.619
2207.668
2207.716
2207.765
2207.813
2207.862
2207.910
2207.959
2208.007
2208.056
2208.104
2208.153
2208.201
2208.250
2208.298
2208.347
2208.395
2208.444
2208.492
2208.541
2208.589
2208.638
2208.686
2208.735
2208.783
2208.832
2208.880
2208.929
2208.977
2209.026
2209.074
2209.123
2209.171
2209.220
2209.268
2209.317
2209.365
2209.414
2209.462
2209.511
2209.559
2209.608
2209.656
2209.705
2209.753
2209.802
2209.850
2209.899
2209.947
2209.996
2210.044
2210.093
2210.141
2210.190
2210.238
2210.287
2210.335
2210.384
2210.432
2210.481
2210.529
2210.578
2210.626
2210.675
2210.723
2210.772
2210.820
2210.869
2210.917
2210.966
2211.014
2211.063
2211.111
2211.160
2211.208
2211.257
2211.305
2211.354
2211.402
2211.451
2211.499
2211.548
2211.596
2211.645
2211.693
2211.742
2211.790
2211.839
2211.887
2211.936
2211.984
2212.033
2212.081
2212.130
2212.178
2212.227
2212.275
2212.324
2212.372
2212.421
2212.469
2212.518
2212.566
2212.615
2212.663
2212.712
2212.760
2212.809
2212.857
2212.906
2212.954
2213.003
2213.051
2213.100
2213.148
2213.197
2213.245
2213.294
2213.342
2213.391
2213.439
2213.488
2213.536
2213.585
2213.633
2213.682
2213.730
2213.779
2213.827
2213.876
2213.924
2213.973
2214.021
2214.070
2214.118
2214.167
2214.215
2214.264
2214.312
2214.361
2214.409
2214.458
2214.506
2214.555
2214.603
2214.652
2214.700
2214.749
2214.797
2214.846
2214.894
2214.943
2214.991
2215.040
2215.088
2215.137
2215.185
2215.234
2215.282
2215.331
2215.379
2215.428
2215.476
2215.525
2215.573
2215.622
2215.670
2215.719
2215.767
2215.816
2215.864
2215.913
2215.961
2216.010
2216.058
2216.107
2216.155
2216.204
2216.252
2216.301
2216.277
2216.253
2216.229
2216.205
2216.181
2216.157
2216.133
2216.109
2216.085
2216.061
2216.037
2216.013
2215.989
2215.965
2215.941
2215.917
2215.893
2215.869
2215.845
2215.821
2215.797
2215.773
2215.749
2215.725
2215.701
2215.677
2215.653
2215.629
2215.605
2215.581
2215.557
2215.533
2215.509
2215.485
2215.461
2215.437
2215.413
2215.389
2215.365
2215.341
2215.317
2215.293
2215.269
2215.245
2215.221
2215.197
2215.173
2215.149
2215.125
2215.101
2215.077
2215.053
2215.029
2215.005
2214.981
2214.957
2214.933
2214.909
2214.885
2214.861
2214.837
2214.813
2214.789
2214.765
2214.741
2214.717
2214.693
2214.669
2214.645
2214.621
2214.597
2214.573
2214.549
2214.525
2214.501
2214.477
2214.453
2214.429
2214.405
2214.381
2214.357
2214.333
2214.309
2214.285
2214.261
2214.237
2214.213
2214.189
2214.165
2214.141
2214.117
2214.093
2214.069
2214.045
2214.021
2213.997
2213.973
2213.949
2213.925
2213.901
2213.877
2213.853
2213.829
2213.805
2213.781
2213.757
2213.733
2213.709
2213.685
2213.661
2213.637
2213.613
2213.589
2213.565
2213.541
2213.517
2213.493
2213.469
2213.445
2213.421
2213.397
2213.373
2213.349
2213.325
2213.301
2213.277
2213.253
2213.229
2213.205
2213.181
2213.157
2213.133
2213.109
2213.085
2213.061
2213.037
2213.013
2212.989
2212.965
2212.941
2212.917
2212.893
2212.869
2212.845
2212.821
2212.797
2212.773
2212.749
2212.725
2212.701
2212.677
2212.653
2212.629
2212.605
2212.581
2212.557
2212.533
2212.509
2212.485
2212.461
2212.437
2212.413
2212.389
2212.365
2212.341
2212.317
2212.293
2212.269
2212.245
2212.221
2212.197
2212.173
2212.149
2212.125
2212.101
2212.077
2212.053
2212.029
2212.005
2211.981
2211.957
2211.933
2211.909
2211.885
2211.861
2211.837
2211.813
2211.789
2211.765
2211.741
2211.717
2211.693
2211.669
2211.645
2211.621
2211.597
2211.573
2211.549
2211.525
2211.501
2212.185
2212.869
2213.553
2214.237
2214.921
2215.605
2216.289
2216.973
2217.657
2218.341
2219.025
2219.709
2220.393
2221.077
2221.761
2222.445
2223.129
2223.813
2224.497
2225.181
2225.865
2226.549
2227.233
2227.917
2228.601
2229.285
2229.969
2230.653
2231.337
2232.021
2232.705
2233.389
2234.073
2234.757
2235.441
2236.125
2236.809
2237.493
2238.177
2238.861
2239.545
2240.229
2240.913
2241.597
2242.281
2242.965
2243.649
2244.333
2245.017
2245.701
2246.385
2247.069
2247.753
2248.437
2249.121
2249.805
2250.489
2251.173
2251.857
2252.541
2253.225
2253.909
2254.593
2255.277
2255.961
2256.645
2257.329
2258.013
2258.697
2259.381
2260.065
2260.749
2261.433
2262.117
2262.801
2263.485
2264.169
2264.853
2265.537
2266.221
2266.905
2267.589
2268.273
2268.957
2269.641
2270.325
2271.009
2271.693
2272.377
2273.061
2273.745
2274.429
2275.113
2275.797
2276.481
2277.165
2277.849
2278.533
2279.217
2279.901
2280.585
2281.269
2281.953
2282.637
2283.321
2284.005
2284.689
2285.373
2286.057
2286.741
2287.425
2288.109
2288.793
2289.477
2290.161
2290.845
2291.529
2292.213
2292.897
2293.581
2294.265
2294.949
2295.633
2296.317
2297.001
2297.685
2298.369
2299.053
2299.737
2300.421
2301.105
2301.789
2302.473
2303.157
2303.841
2304.525
2305.209
2305.893
2306.577
2307.261
2307.945
2308.629
2309.313
2309.997
2310.681
2311.365
2312.049
2312.733
2313.417
2314.101
2314.785
2315.469
2316.153
2316.837
2317.521
2318.205
2318.889
2319.573
2320.257
2320.941
2321.625
2322.309
2322.993
2323.677
2324.361
2325.045
2325.729
2326.413
2327.097
2327.781
2328.465
2329.149
2329.833
2330.517
2331.201
2331.885
2332.569
2333.253
2333.937
2334.621
2335.305
2335.989
2336.673
2337.357
2338.041
2338.725
2339.409
2340.093
2340.777
2341.461
2342.145
2342.829
2343.513
2344.197
2344.881
2345.565
2346.249
2346.933
2347.617
2348.301
2346.908
2345.515
2344.122
2342.729
2341.336
2339.943
2338.550
2337.157
2335.764
2334.371
2332.978
2331.585
2330.192
2328.799
2327.406
2326.013
2324.620
2323.227
2321.834
2320.441
2319.048
2317.655
2316.262
2314.869
2313.476
2312.083
2310.690
2309.297
2307.904
2306.511
2305.118
2303.725
2302.332
2300.939
2299.546
2298.153
2296.760
2295.367
2293.974
2292.581
2291.188
2289.795
2288.402
2287.009
2285.616
2284.223
2282.830
2281.437
2280.044
2278.651
2277.258
2275.865
2274.472
2273.079
2271.686
2270.293
2268.900
2267.507
2266.114
2264.721
2263.328
2261.935
2260.542
2259.149
2257.756
2256.363
2254.970
2253.577
2252.184
2250.791
2249.398
2248.005
2246.612
2245.219
2243.826
2242.433
2241.040
2239.647
2238.254
2236.861
2235.468
2234.075
2232.682
2231.289
2229.896
2228.503
2227.110
2225.717
2224.324
2222.931
2221.538
2220.145
2218.752
2217.359
2215.966
2214.573
2213.180
2211.787
2210.394
2209.001
2207.608
2206.215
2204.822
2203.429
2202.036
2200.643
2199.250
2197.857
2196.464
2195.071
2193.678
2192.285
2190.892
2189.499
2188.106
2186.713
2185.320
2183.927
2182.534
2181.141
2179.748
2178.355
2176.962
2175.569
2174.176
2172.783
2171.390
2169.997
2168.604
2167.211
2165.818
2164.425
2163.032
2161.639
2160.246
2158.853
2157.460
2156.067
2154.674
2153.281
2151.888
2150.495
2149.102
2147.709
2146.316
2144.923
2143.530
2142.137
2140.744
2139.351
2137.958
2136.565
2135.172
2133.779
2132.386
2130.993
2129.600
2128.207
2126.814
2125.421
2124.028
2122.635
2121.242
2119.849
2118.456
2117.063
2115.670
2114.277
2112.884
2111.491
2110.098
2108.705
2107.312
2105.919
2104.526
2103.133
2101.740
2100.347
2098.954
2097.561
2096.168
2094.775
2093.382
2091.989
2090.596
2089.203
2087.810
2086.417
2085.024
2083.631
2082.238
2080.845
2079.452
2078.059
2076.666
2075.273
2073.880
2072.487
2071.094
2069.701
2069.408
2069.115
2068.822
2068.529
2068.236
2067.943
2067.650
2067.357
2067.064
2066.771
2066.478
2066.185
2065.892
2065.599
2065.306
2065.013
2064.720
2064.427
2064.134
2063.841
2063.548
2063.255
2062.962
2062.669
2062.376
2062.083
2061.790
2061.497
2061.204
2060.911
2060.618
2060.325
2060.032
2059.739
2059.446
2059.153
2058.860
2058.567
2058.274
2057.981
2057.688
2057.395
2057.102
2056.809
2056.516
2056.223
2055.930
2055.637
2055.344
2055.051
2054.758
2054.465
2054.172
2053.879
2053.586
2053.293
2053.000
2052.707
2052.414
2052.121
2051.828
2051.535
2051.242
2050.949
2050.656
2050.363
2050.070
2049.777
2049.484
2049.191
2048.898
2048.605
2048.312
2048.019
2047.726
2047.433
2047.140
2046.847
2046.554
2046.261
2045.968
2045.675
2045.382
2045.089
2044.796
2044.503
2044.210
2043.917
2043.624
2043.331
2043.038
2042.745
2042.452
2042.159
2041.866
2041.573
2041.280
2040.987
2040.694
2040.401
2040.108
2039.815
2039.522
2039.229
2038.936
2038.643
2038.350
2038.057
2037.764
2037.471
2037.178
2036.885
2036.592
2036.299
2036.006
2035.713
2035.420
2035.127
2034.834
2034.541
2034.248
2033.955
2033.662
2033.369
2033.076
2032.783
2032.490
2032.197
2031.904
2031.611
2031.318
2031.025
2030.732
2030.439
2030.146
2029.853
2029.560
2029.267
2028.974
2028.681
2028.388
2028.095
2027.802
2027.509
2027.216
2026.923
2026.630
2026.337
2026.044
2025.751
2025.458
2025.165
2024.872
2024.579
2024.286
2023.993
2023.700
2023.407
2023.114
2022.821
2022.528
2022.235
2021.942
2021.649
2021.356
2021.063
2020.770
2020.477
2020.184
2019.891
2019.598
2019.305
2019.012
2018.719
2018.426
2018.133
2017.840
2017.547
2017.254
2016.961
2016.668
2016.375
2016.082
2015.789
2015.496
2015.203
2014.910
2014.617
2014.324
2014.031
2013.738
2013.445
2013.152
2012.859
2012.566
2012.273
2011.980
2011.687
2011.394
2011.101
2003.427
1995.754
1988.080
1980.407
1972.733
1965.060
1957.386
1949.713
1942.039
1934.366
1926.692
1919.019
1911.345
1903.672
1895.998
1888.325
1880.651
1872.978
1865.304
1857.631
1849.957
1842.284
1834.610
1826.937
1819.263
1811.590
1803.916
1796.243
1788.569
1780.896
1773.222
1765.549
1757.875
1750.202
1742.528
1734.855
1727.181
1719.508
1711.834
1704.161
1696.487
1688.814
1681.140
1673.467
1665.793
1658.120
1650.446
1642.773
1635.099
1627.426
1619.752
1612.079
1604.405
1596.732
1589.058
1581.385
1573.711
1566.038
1558.364
1550.691
1543.017
1535.344
1527.670
1519.997
1512.323
1504.650
1496.976
1489.303
1481.629
1473.956
1466.282
1458.609
1450.935
1443.262
1435.588
1427.915
1420.241
1412.568
1404.894
1397.221
1389.547
1381.874
1374.200
1366.527
1358.853
1351.180
1343.506
1335.833
1328.159
1320.486
1312.812
1305.139
1297.465
1289.792
1282.118
1274.445
1266.771
1259.098
1251.424
1243.751
1236.077
1228.404
1220.730
1213.057
1205.383
1197.710
1190.036
1182.363
1174.689
1167.016
1159.342
1151.669
1143.995
1136.322
1128.648
1120.975
1113.301
1105.628
1097.954
1090.281
1082.607
1074.934
1067.260
1059.587
1051.913
1044.240
1036.566
1028.893
1021.219
1013.546
1005.872
998.199
990.525
982.852
975.178
967.505
959.831
952.158
944.484
936.811
929.137
921.464
913.790
906.117
898.443
890.770
883.096
875.423
867.749
860.076
852.402
844.729
837.055
829.382
821.708
814.035
806.361
798.688
791.014
783.341
775.667
767.994
760.320
752.647
744.973
737.300
729.626
721.953
714.279
706.606
698.932
691.259
683.585
675.912
668.238
660.565
652.891
645.218
637.544
629.871
622.197
614.524
606.850
599.177
591.503
583.830
576.156
568.483
560.809
553.136
545.462
537.789
530.115
522.442
514.768
507.095
499.421
491.748
484.074
476.401
475.252
474.103
472.954
471.805
470.656
469.507
468.358
467.209
466.060
464.911
463.762
462.613
461.464
460.315
459.166
458.017
456.868
455.719
454.570
453.421
452.272
451.123
449.974
448.825
447.676
446.527
445.378
444.229
443.080
441.931
440.782
439.633
438.484
437.335
436.186
435.037
433.888
432.739
431.590
430.441
429.292
428.143
426.994
425.845
424.696
423.547
422.398
421.249
420.100
418.951
417.802
416.653
415.504
414.355
413.206
412.057
410.908
409.759
408.610
407.461
406.312
405.163
404.014
402.865
401.716
400.567
399.418
398.269
397.120
395.971
394.822
393.673
392.524
391.375
390.226
389.077
387.928
386.779
385.630
384.481
383.332
382.183
381.034
379.885
378.736
377.587
376.438
375.289
374.140
372.991
371.842
370.693
369.544
368.395
367.246
366.097
364.948
363.799
362.650
361.501
360.352
359.203
358.054
356.905
355.756
354.607
353.458
352.309
351.160
350.011
348.862
347.713
346.564
345.415
344.266
343.117
341.968
340.819
339.670
338.521
337.372
336.223
335.074
333.925
332.776
331.627
330.478
329.329
328.180
327.031
325.882
324.733
323.584
322.435
321.286
320.137
318.988
317.839
316.690
315.541
314.392
313.243
312.094
310.945
309.796
308.647
307.498
306.349
305.200
304.051
302.902
301.753
300.604
299.455
298.306
297.157
296.008
294.859
293.710
292.561
291.412
290.263
289.114
287.965
286.816
285.667
284.518
283.369
282.220
281.071
279.922
278.773
277.624
276.475
275.326
274.177
273.028
271.879
270.730
269.581
268.432
267.283
266.134
264.985
263.836
262.687
261.538
260.389
259.240
258.091
256.942
255.793
254.644
253.495
252.346
251.197
250.048
248.899
247.750
80.501
80.501
80.501
80.501
80.501
80.501
80.501
80.501
80.501
80.501
80.501
80.501
80.501
80.501
80.501
80.501
80.501
80.501
80.501
80.501
80.501
80.501
80.501
80.501
80.501
80.501
80.501
80.501
80.501
80.501
80.501
80.501
80.501
80.501
80.501
80.501
80.501
80.501
80.501
80.501
80.501
80.501
80.501
80.501
80.501
80.501
80.501
80.501
80.501
80.501
80.501
80.501
80.501
80.501
80.501
80.501
80.501
80.501
80.501
80.501
80.501
80.501
80.501
80.501
80.501
80.501
80.501
80.501
80.501
80.501
80.501
80.501
80.501
80.501
80.501
80.501
80.501
80.501
80.501
80.501
80.501
80.501
80.501
80.501
80.501
80.501
80.501
80.501
80.501
80.501
80.501
80.501
80.501
80.501
80.501
80.501
80.501
80.501
80.501
80.501
80.501
80.501
80.501
80.501
80.501
80.501
80.501
80.501
80.501
80.501
80.501
80.501
80.501
80.501
80.501
80.501
80.501
80.501
80.501
80.501
80.501
80.501
80.501
80.501
80.501
80.501
80.501
80.501
80.501
80.501
80.501
80.501
80.501
80.501
80.501
80.501
80.501
80.501
80.501
80.501
80.501
80.501
80.501
80.501
80.501
80.501
80.501
80.501
80.501
80.501
80.501
80.501
80.501
80.501
80.501
80.501
80.501
80.501
80.501
80.501
