2046.072
2051.790
2057.509
2063.227
2068.946
2074.664
2080.383
2086.101
2091.820
2097.538
2103.257
2108.975
2114.694
2120.412
2126.131
2131.849
2137.568
2143.286
2149.005
2154.723
2160.442
2166.160
2171.879
2177.597
2183.316
2189.034
2194.753
2200.471
2206.190
2211.908
2217.627
2223.345
2229.064
2234.782
2240.501
2246.219
2251.938
2257.656
2263.375
2269.093
2274.812
2280.530
2286.249
2291.967
2297.686
2303.404
2309.123
2314.841
2320.560
2326.278
2331.997
2337.715
2343.434
2349.152
2354.871
2360.589
2366.308
2372.026
2377.745
2383.463
2389.182
2394.900
2400.619
2406.337
2412.056
2417.774
2423.493
2429.211
2434.930
2431.264
2427.598
2423.932
2420.266
2416.600
2412.934
2409.268
2405.602
2401.936
2398.270
2394.604
2390.938
2387.272
2383.606
2379.940
2376.274
2372.608
2368.942
2365.276
2361.610
2357.944
2354.278
2350.612
2346.946
2343.280
2339.614
2335.948
2332.282
2328.616
2324.950
2321.284
2317.618
2313.952
2310.286
2306.620
2302.954
2299.288
2295.622
2291.956
2288.290
2284.624
2280.958
2277.292
2273.626
2269.960
2266.294
2262.628
2258.962
2255.296
2251.630
2247.964
2244.298
2240.632
2236.966
2233.300
2229.634
2225.968
2222.302
2218.636
2214.970
2211.304
2207.638
2203.972
2200.306
2196.640
2192.974
2189.308
2185.642
2181.976
2178.310
2174.644
2170.978
2167.312
2163.646
2159.980
2156.314
2152.648
2148.982
2145.316
2141.650
2137.984
2134.318
2130.652
2126.986
2123.320
2119.654
2115.988
2112.322
2108.656
2104.990
2101.324
2097.658
2093.992
2090.326
2086.660
2082.994
2079.328
2075.662
2071.996
2068.330
2064.664
2060.998
2057.332
2053.666
2050.000
2046.334
2042.668
2039.002
2035.336
2031.670
2028.004
2024.338
2020.672
2017.006
2013.340
2009.674
2006.008
2002.342
1998.676
1995.010
1991.344
1987.678
1984.012
1980.346
1976.680
1973.014
1969.348
1965.682
1962.016
1958.350
1954.684
1951.018
1947.352
1943.686
1940.020
1936.354
1932.688
1929.022
1925.356
1921.690
1918.024
1914.358
1910.692
1907.026
1903.360
1899.694
1896.028
1892.362
1888.696
1885.030
1881.364
1877.698
1874.032
1870.366
1866.700
1863.034
1859.368
1855.702
1852.036
1848.370
1844.704
1841.038
1837.372
1833.706
1830.040
1826.374
1822.708
1819.042
1815.376
1811.710
1808.044
1804.378
1800.712
1797.046
1793.380
1789.714
1786.048
1782.382
1778.716
1775.050
1771.384
1767.718
1764.052
1760.386
1756.720
1753.054
1749.388
1745.722
1742.056
1738.390
1734.724
1731.058
1727.392
1723.726
1720.060
1716.394
1712.728
1709.062
1705.396
1701.730
1703.758
1705.787
1707.815
1709.844
1711.872
1713.901
1715.929
1717.958
1719.986
1722.015
1724.043
1726.072
1728.100
1730.129
1732.157
1734.186
1736.214
1738.243
1740.271
1742.300
1744.328
1746.357
1748.385
1750.414
1752.442
1754.471
1756.499
1758.528
1760.556
1762.585
1764.613
1766.642
1768.670
1770.699
1772.727
1774.756
1776.784
1778.813
1780.841
1782.870
1784.898
1786.927
1788.955
1790.984
1793.012
1795.041
1797.069
1799.098
1801.126
1803.155
1805.183
1807.212
1809.240
1811.269
1813.297
1815.326
1817.354
1819.383
1821.411
1823.440
1825.468
1827.497
1829.525
1831.554
1833.582
1835.611
1837.639
1839.668
1841.696
1843.725
1845.753
1847.782
1849.810
1851.839
1853.867
1855.896
1857.924
1859.953
1861.981
1864.010
1866.038
1868.067
1870.095
1872.124
1874.152
1876.181
1878.209
1880.238
1882.266
1884.295
1886.323
1888.352
1890.380
1892.409
1894.437
1896.466
1898.494
1900.523
1902.551
1904.580
1906.608
1908.637
1910.665
1912.694
1914.722
1916.751
1918.779
1920.808
1922.836
1924.865
1926.893
1928.922
1930.950
1932.979
1935.007
1937.036
1939.064
1941.093
1943.121
1945.150
1947.178
1949.207
1951.235
1953.264
1955.292
1957.321
1959.349
1961.378
1963.406
1965.435
1967.463
1969.492
1971.520
1973.549
1975.577
1977.606
1979.634
1981.663
1983.691
1985.720
1987.748
1989.777
1991.805
1993.834
1995.862
1997.891
1999.919
2001.948
2003.976
2006.005
2008.033
2010.062
2012.090
2014.119
2016.147
2018.176
2020.204
2022.233
2024.261
2026.290
2028.318
2030.347
2032.375
2034.404
2036.432
2038.461
2040.489
2042.518
2044.546
2046.575
2048.603
2050.632
2052.660
2054.689
2056.717
2058.746
2060.774
2062.803
2064.831
2066.860
2068.888
2070.917
2072.945
2074.974
2077.002
2079.031
2081.059
2083.088
2085.116
2087.145
2089.173
2091.202
2093.230
2095.259
2097.287
2099.316
2101.344
2103.373
2105.401
2107.430
2108.505
2109.580
2110.655
2111.730
2112.805
2113.880
2114.955
2116.030
2117.105
2118.180
2119.255
2120.330
2121.405
2122.480
2123.555
2124.630
2125.705
2126.780
2127.855
2128.930
2130.005
2131.080
2132.155
2133.230
2134.305
2135.380
2136.455
2137.530
2138.605
2139.680
2140.755
2141.830
2142.905
2143.980
2145.055
2146.130
2147.205
2148.280
2149.355
2150.430
2151.505
2152.580
2153.655
2154.730
2155.805
2156.880
2157.955
2159.030
2160.105
2161.180
2162.255
2163.330
2164.405
2165.480
2166.555
2167.630
2168.705
2169.780
2170.855
2171.930
2173.005
2174.080
2175.155
2176.230
2177.305
2178.380
2179.455
2180.530
2181.605
2182.680
2183.755
2184.830
2185.905
2186.980
2188.055
2189.130
2190.205
2191.280
2192.355
2193.430
2194.505
2195.580
2196.655
2197.730
2198.805
2199.880
2200.955
2202.030
2203.105
2204.180
2205.255
2206.330
2207.405
2208.480
2209.555
2210.630
2211.705
2212.780
2213.855
2214.930
2216.005
2217.080
2218.155
2219.230
2220.305
2221.380
2222.455
2223.530
2224.605
2225.680
2226.755
2227.830
2228.905
2229.980
2231.055
2232.130
2233.205
2234.280
2235.355
2236.430
2237.505
2238.580
2239.655
2240.730
2241.805
2242.880
2243.955
2245.030
2246.105
2247.180
2248.255
2249.330
2250.405
2251.480
2252.555
2253.630
2254.705
2255.780
2256.855
2257.930
2259.005
2260.080
2261.155
2262.230
2263.305
2264.380
2265.455
2266.530
2267.605
2268.680
2269.755
2270.830
2271.905
2272.980
2274.055
2275.130
2276.205
2277.280
2278.355
2279.430
2280.505
2281.580
2282.655
2283.730
2284.805
2285.880
2286.955
2288.030
2289.105
2290.180
2291.255
2292.330
2293.405
2294.480
2295.555
2296.630
2297.705
2298.780
2299.855
2300.930
2302.005
2303.080
2304.155
2305.230
2306.305
2307.380
2308.455
2309.530
2310.605
2311.680
2312.755
2313.830
2314.905
2315.980
2317.055
2318.130
2319.205
2320.280
2321.355
2322.430
2324.189
2325.949
2327.708
2329.468
2331.227
2332.987
2334.746
2336.506
2338.265
2340.025
2341.784
2343.544
2345.303
2347.063
2348.822
2350.582
2352.341
2354.101
2355.860
2357.620
2359.379
2361.139
2362.898
2364.658
2366.417
2368.177
2369.936
2371.696
2373.455
2375.215
2376.974
2378.734
2380.493
2382.253
2384.012
2385.772
2387.531
2389.291
2391.050
2392.810
2394.569
2396.329
2398.088
2399.848
2401.607
2403.367
2405.126
2406.886
2408.645
2410.405
2412.164
2413.924
2415.683
2417.443
2419.202
2420.962
2422.721
2424.481
2426.240
2428.000
2429.759
2431.519
2433.278
2435.038
2436.797
2438.557
2440.316
2442.076
2443.835
2445.595
2447.354
2449.114
2450.873
2452.633
2454.392
2456.152
2457.911
2459.671
2461.430
2463.190
2464.949
2466.709
2468.468
2470.228
2471.987
2473.747
2475.506
2477.266
2479.025
2480.785
2482.544
2484.304
2486.063
2487.823
2489.582
2491.342
2493.101
2494.861
2496.620
2498.380
2500.139
2501.899
2503.658
2505.418
2507.177
2508.937
2510.696
2512.456
2514.215
2515.975
2517.734
2519.494
2521.253
2523.013
2524.772
2526.532
2528.291
2530.051
2531.810
2533.570
2535.329
2537.089
2538.848
2540.608
2542.367
2544.127
2545.886
2547.646
2549.405
2551.165
2552.924
2554.684
2556.443
2558.203
2559.962
2561.722
2563.481
2565.241
2567.000
2568.760
2570.519
2572.279
2574.038
2575.798
2577.557
2579.317
2581.076
2582.836
2584.595
2586.355
2588.114
2589.874
2591.633
2593.393
2595.152
2596.912
2598.671
2600.431
2602.190
2603.950
2605.709
2607.469
2609.228
2610.988
2612.747
2614.507
2616.266
2618.026
2619.785
2621.545
2623.304
2625.064
2626.823
2628.583
2630.342
2632.102
2633.861
2635.621
2637.380
2639.140
2640.899
2642.659
2644.418
2646.178
2647.937
2649.697
2651.456
2653.216
2654.975
2656.735
2658.494
2660.254
2662.013
2663.773
2665.532
2667.292
2669.051
2670.811
2672.570
2674.330
2670.567
2666.804
2663.041
2659.278
2655.515
2651.752
2647.989
2644.226
2640.463
2636.700
2632.937
2629.174
2625.411
2621.648
2617.885
2614.122
2610.359
2606.596
2602.833
2599.070
2595.307
2591.544
2587.781
2584.018
2580.255
2576.492
2572.729
2568.966
2565.203
2561.440
2557.677
2553.914
2550.151
2546.388
2542.625
2538.862
2535.099
2531.336
2527.573
2523.810
2520.047
2516.284
2512.521
2508.758
2504.995
2501.232
2497.469
2493.706
2489.943
2486.180
2482.417
2478.654
2474.891
2471.128
2467.365
2463.602
2459.839
2456.076
2452.313
2448.550
2444.787
2441.024
2437.261
2433.498
2429.735
2425.972
2422.209
2418.446
2414.683
2410.920
2407.157
2403.394
2399.631
2395.868
2392.105
2388.342
2384.579
2380.816
2377.053
2373.290
2369.527
2365.764
2362.001
2358.238
2354.475
2350.712
2346.949
2343.186
2339.423
2335.660
2331.897
2328.134
2324.371
2320.608
2316.845
2313.082
2309.319
2305.556
2301.793
2298.030
2294.267
2290.504
2286.741
2282.978
2279.215
2275.452
2271.689
2267.926
2264.163
2260.400
2256.637
2252.874
2249.111
2245.348
2241.585
2237.822
2234.059
2230.296
2226.533
2222.770
2219.007
2215.244
2211.481
2207.718
2203.955
2200.192
2196.429
2192.666
2188.903
2185.140
2181.377
2177.614
2173.851
2170.088
2166.325
2162.562
2158.799
2155.036
2151.273
2147.510
2143.747
2139.984
2136.221
2132.458
2128.695
2124.932
2121.169
2117.406
2113.643
2109.880
2106.117
2102.354
2098.591
2094.828
2091.065
2087.302
2083.539
2079.776
2076.013
2072.250
2068.487
2064.724
2060.961
2057.198
2053.435
2049.672
2045.909
2042.146
2038.383
2034.620
2030.857
2027.094
2023.331
2019.568
2015.805
2012.042
2008.279
2004.516
2000.753
1996.990
1993.227
1989.464
1985.701
1981.938
1978.175
1974.412
1970.649
1966.886
1963.123
1959.360
1955.597
1951.834
1948.071
1944.308
1940.545
1936.782
1933.019
1929.256
1925.493
1921.730
1919.994
1918.259
1916.523
1914.788
1913.052
1911.317
1909.581
1907.846
1906.110
1904.375
1902.639
1900.904
1899.168
1897.433
1895.697
1893.962
1892.226
1890.491
1888.755
1887.020
1885.284
1883.549
1881.813
1880.078
1878.342
1876.607
1874.871
1873.136
1871.400
1869.665
1867.929
1866.194
1864.458
1862.723
1860.987
1859.252
1857.516
1855.781
1854.045
1852.310
1850.574
1848.839
1847.103
1845.368
1843.632
1841.897
1840.161
1838.426
1836.690
1834.955
1833.219
1831.484
1829.748
1828.013
1826.277
1824.542
1822.806
1821.071
1819.335
1817.600
1815.864
1814.129
1812.393
1810.658
1808.922
1807.187
1805.451
1803.716
1801.980
1800.245
1798.509
1796.774
1795.038
1793.303
1791.567
1789.832
1788.096
1786.361
1784.625
1782.890
1781.154
1779.419
1777.683
1775.948
1774.212
1772.477
1770.741
1769.006
1767.270
1765.535
1763.799
1762.064
1760.328
1758.593
1756.857
1755.122
1753.386
1751.651
1749.915
1748.180
1746.444
1744.709
1742.973
1741.238
1739.502
1737.767
1736.031
1734.296
1732.560
1730.825
1729.089
1727.354
1725.618
1723.883
1722.147
1720.412
1718.676
1716.941
1715.205
1713.470
1711.734
1709.999
1708.263
1706.528
1704.792
1703.057
1701.321
1699.586
1697.850
1696.115
1694.379
1692.644
1690.908
1689.173
1687.437
1685.702
1683.966
1682.231
1680.495
1678.760
1677.024
1675.289
1673.553
1671.818
1670.082
1668.347
1666.611
1664.876
1663.140
1661.405
1659.669
1657.934
1656.198
1654.463
1652.727
1650.992
1649.256
1647.521
1645.785
1644.050
1642.314
1640.579
1638.843
1637.108
1635.372
1633.637
1631.901
1630.166
1628.430
1626.695
1624.959
1623.224
1621.488
1619.753
1618.017
1616.282
1614.546
1612.811
1611.075
1609.340
1607.604
1605.869
1604.133
1602.398
1600.662
1598.927
1597.191
1595.456
1593.720
1591.985
1590.249
1588.514
1586.778
1585.043
1583.307
1581.572
1579.836
1578.101
1576.365
1574.630
1577.367
1580.104
1582.841
1585.578
1588.315
1591.052
1593.789
1596.526
1599.263
1602.000
1604.737
1607.474
1610.211
1612.948
1615.685
1618.422
1621.159
1623.896
1626.633
1629.370
1632.107
1634.844
1637.581
1640.318
1643.055
1645.792
1648.529
1651.266
1654.003
1656.740
1659.477
1662.214
1664.951
1667.688
1670.425
1673.162
1675.899
1678.636
1681.373
1684.110
1686.847
1689.584
1692.321
1695.058
1697.795
1700.532
1703.269
1706.006
1708.743
1711.480
1714.217
1716.954
1719.691
1722.428
1725.165
1727.902
1730.639
1733.376
1736.113
1738.850
1741.587
1744.324
1747.061
1749.798
1752.535
1755.272
1758.009
1760.746
1763.483
1766.220
1768.957
1771.694
1774.431
1777.168
1779.905
1782.642
1785.379
1788.116
1790.853
1793.590
1796.327
1799.064
1801.801
1804.538
1807.275
1810.012
1812.749
1815.486
1818.223
1820.960
1823.697
1826.434
1829.171
1831.908
1834.645
1837.382
1840.119
1842.856
1845.593
1848.330
1851.067
1853.804
1856.541
1859.278
1862.015
1864.752
1867.489
1870.226
1872.963
1875.700
1878.437
1881.174
1883.911
1886.648
1889.385
1892.122
1894.859
1897.596
1900.333
1903.070
1905.807
1908.544
1911.281
1914.018
1916.755
1919.492
1922.229
1924.966
1927.703
1930.440
1933.177
1935.914
1938.651
1941.388
1944.125
1946.862
1949.599
1952.336
1955.073
1957.810
1960.547
1963.284
1966.021
1968.758
1971.495
1974.232
1976.969
1979.706
1982.443
1985.180
1987.917
1990.654
1993.391
1996.128
1998.865
2001.602
2004.339
2007.076
2009.813
2012.550
2015.287
2018.024
2020.761
2023.498
2026.235
2028.972
2031.709
2034.446
2037.183
2039.920
2042.657
2045.394
2048.131
2050.868
2053.605
2056.342
2059.079
2061.816
2064.553
2067.290
2070.027
2072.764
2075.501
2078.238
2080.975
2083.712
2086.449
2089.186
2091.923
2094.660
2097.397
2100.134
2102.871
2105.608
2108.345
2111.082
2113.819
2116.556
2119.293
103.530
103.554
103.579
103.603
103.628
103.652
103.677
103.701
103.726
103.750
103.775
103.799
103.824
103.848
103.873
103.897
103.922
103.946
103.971
103.995
104.020
104.044
104.069
104.093
104.118
104.142
104.167
104.191
104.216
104.240
104.265
104.289
104.314
104.338
104.363
104.387
104.412
104.436
104.461
104.485
104.510
104.534
104.559
104.583
104.608
104.632
104.657
104.681
104.706
104.730
104.755
104.779
104.804
104.828
104.853
104.877
104.902
104.926
104.951
104.975
105.000
105.024
105.049
105.073
105.098
105.122
105.147
105.171
105.196
105.220
105.245
105.269
105.294
105.318
105.343
105.367
105.392
105.416
105.441
105.465
105.490
105.514
105.539
105.563
105.588
105.612
105.637
105.661
105.686
105.710
105.735
105.759
105.784
105.808
105.833
105.857
105.882
105.906
105.931
105.955
105.980
106.004
106.029
106.053
106.078
106.102
106.127
106.151
106.176
106.200
106.225
106.249
106.274
106.298
106.323
106.347
106.372
106.396
106.421
106.445
106.470
106.494
106.519
106.543
106.568
106.592
106.617
106.641
106.666
106.690
106.715
106.739
106.764
106.788
106.813
106.837
106.862
106.886
106.911
106.935
106.960
106.984
107.009
107.033
107.058
107.082
107.107
107.131
107.156
107.180
107.205
107.229
107.254
107.278
107.303
107.327
107.352
107.376
107.401
107.425
107.450
107.474
107.499
107.523
107.548
107.572
107.597
107.621
107.646
107.670
107.695
107.719
107.744
107.768
107.793
107.817
107.842
107.866
107.891
107.915
107.940
107.964
107.989
108.013
108.038
108.062
108.087
108.111
108.136
108.160
108.185
108.209
108.234
108.258
108.283
108.307
108.332
108.356
108.381
108.405
108.430
108.430
108.430
108.430
108.430
108.430
108.430
108.430
108.430
108.430
108.430
108.430
108.430
108.430
108.430
108.430
108.430
108.430
108.430
108.430
108.430
108.430
108.430
108.430
108.430
108.430
108.430
108.430
108.430
108.430
108.430
108.430
108.430
108.430
108.430
108.430
108.430
108.430
108.430
108.430
108.430
108.430
108.430
108.430
108.430
108.430
108.430
108.430
108.430
108.430
108.430
108.430
108.430
108.430
108.430
108.430
108.430
108.430
108.430
108.430
108.430
108.430
108.430
108.430
108.430
108.430
108.430
108.430
108.430
108.430
108.430
108.430
108.430
108.430
108.430
108.430
108.430
108.430
108.430
108.430
108.430
108.430
108.430
108.430
108.430
108.430
108.430
108.430
108.430
108.430
108.430
108.430
108.430
108.430
108.430
108.430
108.430
108.430
108.430
108.430
108.430
108.430
108.430
108.430
108.430
108.430
108.430
108.430
108.430
108.430
108.430
108.430
108.430
108.430
108.430
108.430
108.430
108.430
108.430
108.430
108.430
108.430
108.430
108.430
108.430
108.430
108.430
108.430
108.430
108.430
108.430
108.430
108.430
108.430
108.430
108.430
108.430
108.430
108.430
108.430
108.430
108.430
108.430
108.430
108.430
108.430
108.430
108.430
108.430
108.430
108.430
108.430
108.430
108.430
108.430
108.430
108.430
108.430
108.430
108.430
108.430
108.430
108.430
108.430
108.430
108.430
108.430
108.430
108.430
108.430
108.430
108.430
108.430
108.430
108.430
108.430
108.430
108.430
108.430
108.430
108.430
108.430
108.430
108.430
108.430
108.430
108.430
108.430
108.430
108.430
108.430
108.430
108.430
108.430
108.430
108.430
108.430
108.430
108.430
108.430
108.430
108.430
108.430
108.430
108.430
108.430
108.430
108.430
108.430
108.430
108.430
108.430
108.430
108.430
108.430
108.430
108.430
108.430
108.430
108.430
108.430
108.430
108.430
108.430
108.430
108.430
108.430
108.430
108.430
108.430
108.430
108.430
108.430
108.430
108.430
108.430
108.430
108.430
108.430
108.430
108.430
108.430
108.430
108.430
108.430
108.430
108.430
108.430
108.430
108.430
108.430
108.430
108.430
108.430
108.430
108.430
108.430
108.430
108.430
108.430
108.430
108.430
108.430
108.430
108.430
108.430
108.430
108.430
108.430
108.430
108.430
108.430
108.430
108.430
108.430
108.430
108.430
108.430
108.430
108.430
108.430
108.430
108.430
108.430
108.430
108.430
108.430
108.430
108.430
108.430
108.430
108.430
108.430
108.430
108.430
108.430
108.430
108.430
108.430
108.430
108.430
108.430
108.430
108.430
108.430
108.430
108.430
108.430
108.430
108.430
108.430
108.430
108.430
108.430
108.430
108.430
108.430
108.430
108.430
108.430
108.430
108.430
108.430
108.430
108.430
108.430
108.430
108.430
108.430
108.430
108.430
108.430
