2078.620
2077.838
2077.056
2076.274
2075.492
2074.710
2073.928
2073.146
2072.364
2071.582
2070.800
2070.018
2069.236
2068.454
2067.672
2066.890
2066.108
2065.326
2064.544
2063.762
2062.980
2062.198
2061.416
2060.634
2059.852
2059.070
2058.288
2057.506
2056.724
2055.942
2055.160
2054.378
2053.596
2052.814
2052.032
2051.250
2050.468
2049.686
2048.904
2048.122
2047.340
2046.558
2045.776
2044.994
2044.212
2043.430
2042.648
2041.866
2041.084
2040.302
2039.520
2038.738
2037.956
2037.174
2036.392
2035.610
2034.828
2034.046
2033.264
2032.482
2031.700
2030.918
2030.136
2029.354
2028.572
2027.790
2027.008
2026.226
2025.444
2024.662
2023.880
2023.098
2022.316
2021.534
2020.752
2019.970
2019.188
2018.406
2017.624
2016.842
2016.060
2015.278
2014.496
2013.714
2012.932
2012.150
2011.368
2010.586
2009.804
2009.022
2008.240
2007.458
2006.676
2005.894
2005.112
2003.743
2002.375
2001.006
1999.638
1998.269
1996.901
1995.532
1994.164
1992.795
1991.427
1990.058
1988.690
1987.321
1985.953
1984.584
1983.216
1981.847
1980.479
1979.110
1977.742
1976.373
1975.005
1973.636
1972.268
1970.899
1969.531
1968.162
1966.794
1965.425
1964.057
1962.688
1961.320
1959.951
1958.583
1957.214
1955.846
1954.477
1953.109
1951.740
1950.372
1949.003
1947.635
1946.266
1944.898
1943.529
1942.161
1940.792
1939.424
1938.055
1936.687
1935.318
1933.950
1932.581
1931.213
1929.844
1928.476
1927.107
1925.739
1924.370
1923.002
1921.633
1920.265
1918.896
1917.528
1916.159
1914.791
1913.422
1912.054
1910.685
1909.317
1907.948
1906.580
1905.211
1903.843
1902.474
1901.106
1899.737
1898.369
1897.000
1895.632
1894.263
1892.895
1891.526
1890.158
1888.789
1887.421
1886.052
1884.684
1883.315
1881.947
1880.578
1879.210
1877.841
1876.473
1875.104
1873.736
1872.367
1870.999
1869.630
1868.262
1866.893
1865.525
1864.156
1862.788
1861.419
1860.051
1858.682
1857.314
1855.945
1854.577
1853.208
1851.840
1850.471
1849.103
1847.734
1846.366
1844.997
1843.629
1842.260
1840.892
1839.523
1838.155
1836.786
1835.418
1834.049
1832.681
1831.312
1829.944
1828.575
1827.207
1825.838
1824.470
1823.101
1821.733
1820.364
1818.996
1817.627
1816.259
1814.890
1813.522
1812.153
1810.785
1809.416
1808.048
1806.679
1805.311
1803.942
1802.574
1801.205
1799.837
1798.468
1797.100
1795.731
1794.363
1792.994
1791.626
1790.257
1788.889
1787.520
1786.152
1784.783
1783.415
1782.046
1780.678
1779.309
1777.941
1776.572
1775.204
1773.835
1772.467
1771.098
1769.730
1768.361
1766.993
1765.624
1764.256
1762.887
1761.519
1760.150
1758.782
1757.413
1756.045
1754.676
1753.308
1751.939
1750.571
1749.202
1747.834
1746.465
1745.097
1743.728
1742.360
1740.991
1739.623
1738.254
1736.886
1735.517
1734.149
1732.780
1731.412
1733.538
1735.665
1737.791
1739.918
1742.044
1744.171
1746.297
1748.424
1750.550
1752.677
1754.803
1756.930
1759.056
1761.183
1763.309
1765.436
1767.562
1769.689
1771.815
1773.942
1776.068
1778.195
1780.321
1782.448
1784.574
1786.701
1788.827
1790.954
1793.080
1795.207
1797.333
1799.460
1801.586
1803.713
1805.839
1807.966
1810.092
1812.219
1814.345
1816.472
1818.598
1820.725
1822.851
1824.978
1827.104
1829.231
1831.357
1833.484
1835.610
1837.737
1839.863
1841.990
1844.116
1846.243
1848.369
1850.496
1852.622
1854.749
1856.875
1859.002
1861.128
1863.255
1865.381
1867.508
1869.634
1871.761
1873.887
1876.014
1878.140
1880.267
1882.393
1884.520
1886.646
1888.773
1890.899
1893.026
1895.152
1897.279
1899.405
1901.532
1903.658
1905.785
1907.911
1910.038
1912.164
1914.291
1916.417
1918.544
1920.670
1922.797
1924.923
1927.050
1929.176
1931.303
1933.429
1935.556
1937.682
1939.809
1941.935
1944.062
1946.188
1948.315
1950.441
1952.568
1954.694
1956.821
1958.947
1961.074
1963.200
1965.327
1967.453
1969.580
1971.706
1973.833
1975.959
1978.086
1980.212
1982.339
1984.465
1986.592
1988.718
1990.845
1992.971
1995.098
1997.224
1999.351
2001.477
2003.604
2005.730
2007.857
2009.983
2012.110
2014.236
2016.363
2018.489
2020.616
2022.742
2024.869
2026.995
2029.122
2031.248
2033.375
2035.501
2037.628
2039.754
2041.881
2044.007
2046.134
2048.260
2050.387
2052.513
2054.640
2056.766
2058.893
2061.019
2063.146
2065.272
2067.399
2069.525
2071.652
2073.778
2075.905
2078.031
2080.158
2082.284
2084.411
2086.537
2088.664
2090.790
2092.917
2095.043
2097.170
2099.296
2101.423
2103.549
2105.676
2107.802
2109.929
2112.055
2114.182
2116.308
2118.435
2120.561
2122.688
2124.814
2126.941
2129.067
2131.194
2133.320
2135.447
2137.573
2139.700
2141.826
2143.953
2146.079
2148.206
2150.332
2152.459
2154.585
2156.712
2153.119
2149.527
2145.934
2142.342
2138.749
2135.157
2131.564
2127.972
2124.379
2120.787
2117.194
2113.602
2110.009
2106.417
2102.824
2099.232
2095.639
2092.047
2088.454
2084.862
2081.269
2077.677
2074.084
2070.492
2066.899
2063.307
2059.714
2056.122
2052.529
2048.937
2045.344
2041.752
2038.159
2034.567
2030.974
2027.382
2023.789
2020.197
2016.604
2013.012
2009.419
2005.827
2002.234
1998.642
1995.049
1991.457
1987.864
1984.272
1980.679
1977.087
1973.494
1969.902
1966.309
1962.717
1959.124
1955.532
1951.939
1948.347
1944.754
1941.162
1937.569
1933.977
1930.384
1926.792
1923.199
1919.607
1916.014
1912.422
1908.829
1905.237
1901.644
1898.052
1894.459
1890.867
1887.274
1883.682
1880.089
1876.497
1872.904
1869.312
1865.719
1862.127
1858.534
1854.942
1851.349
1847.757
1844.164
1840.572
1836.979
1833.387
1829.794
1826.202
1822.609
1819.017
1815.424
1811.832
1808.239
1804.647
1801.054
1797.462
1793.869
1790.277
1786.684
1783.092
1779.499
1775.907
1772.314
1768.722
1765.129
1761.537
1757.944
1754.352
1750.759
1747.167
1743.574
1739.982
1736.389
1732.797
1729.204
1725.612
1722.019
1718.427
1714.834
1711.242
1707.649
1704.057
1700.464
1696.872
1693.279
1689.687
1686.094
1682.502
1678.909
1675.317
1671.724
1668.132
1664.539
1660.947
1657.354
1653.762
1650.169
1646.577
1642.984
1639.392
1635.799
1632.207
1628.614
1625.022
1621.429
1617.837
1614.244
1610.652
1607.059
1603.467
1599.874
1596.282
1592.689
1589.097
1585.504
1581.912
1578.319
1574.727
1571.134
1567.542
1563.949
1560.357
1556.764
1553.172
1549.579
1545.987
1542.394
1538.802
1535.209
1531.617
1528.024
1524.432
1520.839
1517.247
1513.654
1510.062
1506.469
1502.877
1499.284
1495.692
1492.099
1488.507
1484.914
1481.322
1477.729
1474.137
1470.544
1466.952
1463.359
1459.767
1456.174
1452.582
1448.989
1445.397
1441.804
1438.212
1438.529
1438.847
1439.164
1439.482
1439.799
1440.117
1440.434
1440.752
1441.069
1441.387
1441.704
1442.022
1442.339
1442.657
1442.974
1443.292
1443.609
1443.927
1444.244
1444.562
1444.879
1445.197
1445.514
1445.832
1446.149
1446.467
1446.784
1447.102
1447.419
1447.737
1448.054
1448.372
1448.689
1449.007
1449.324
1449.642
1449.959
1450.277
1450.594
1450.912
1451.229
1451.547
1451.864
1452.182
1452.499
1452.817
1453.134
1453.452
1453.769
1454.087
1454.404
1454.722
1455.039
1455.357
1455.674
1455.992
1456.309
1456.627
1456.944
1457.262
1457.579
1457.897
1458.214
1458.532
1458.849
1459.167
1459.484
1459.802
1460.119
1460.437
1460.754
1461.072
1461.389
1461.707
1462.024
1462.342
1462.659
1462.977
1463.294
1463.612
1463.929
1464.247
1464.564
1464.882
1465.199
1465.517
1465.834
1466.152
1466.469
1466.787
1467.104
1467.422
1467.739
1468.057
1468.374
1468.692
1469.009
1469.327
1469.644
1469.962
1470.279
1470.597
1470.914
1471.232
1471.549
1471.867
1472.184
1472.502
1472.819
1473.137
1473.454
1473.772
1474.089
1474.407
1474.724
1475.042
1475.359
1475.677
1475.994
1476.312
1476.629
1476.947
1477.264
1477.582
1477.899
1478.217
1478.534
1478.852
1479.169
1479.487
1479.804
1480.122
1480.439
1480.757
1481.074
1481.392
1481.709
1482.027
1482.344
1482.662
1482.979
1483.297
1483.614
1483.932
1484.249
1484.567
1484.884
1485.202
1485.519
1485.837
1486.154
1486.472
1486.789
1487.107
1487.424
1487.742
1488.059
1488.377
1488.694
1489.012
1489.329
1489.647
1489.964
1490.282
1490.599
1490.917
1491.234
1491.552
1491.869
1492.187
1492.504
1492.822
1493.139
1493.457
1493.774
1494.092
1494.409
1494.727
1495.044
1495.362
1495.679
1495.997
1496.314
1496.632
1496.949
1497.267
1497.584
1497.902
1498.219
1498.537
1498.854
1499.172
1499.489
1499.807
1500.124
1500.442
1500.759
1501.077
1501.394
1501.712
1496.458
1491.204
1485.950
1480.696
1475.442
1470.188
1464.934
1459.680
1454.426
1449.172
1443.918
1438.664
1433.410
1428.156
1422.902
1417.648
1412.394
1407.140
1401.886
1396.632
1391.378
1386.124
1380.870
1375.616
1370.362
1365.108
1359.854
1354.600
1349.346
1344.092
1338.838
1333.584
1328.330
1323.076
1317.822
1312.568
1307.314
1302.060
1296.806
1291.552
1286.298
1281.044
1275.790
1270.536
1265.282
1260.028
1254.774
1249.520
1244.266
1239.012
1233.758
1228.504
1223.250
1217.996
1212.742
1207.488
1202.234
1196.980
1191.726
1186.472
1181.218
1175.964
1170.710
1165.456
1160.202
1154.948
1149.694
1144.440
1139.186
1133.932
1128.678
1123.424
1118.170
1112.916
1107.662
1102.408
1097.154
1091.900
1086.646
1081.392
1076.138
1070.884
1065.630
1060.376
1055.122
1049.868
1044.614
1039.360
1034.106
1028.852
1023.598
1018.344
1013.090
1007.836
1002.582
997.328
992.074
986.820
981.566
976.312
971.058
965.804
960.550
955.296
950.042
944.788
939.534
934.280
929.026
923.772
918.518
913.264
908.010
902.756
897.502
892.248
886.994
881.740
876.486
871.232
865.978
860.724
855.470
850.216
844.962
839.708
834.454
829.200
823.946
818.692
813.438
808.184
802.930
797.676
792.422
787.168
781.914
776.660
771.406
766.152
760.898
755.644
750.390
745.136
739.882
734.628
729.374
724.120
718.866
713.612
708.358
703.104
697.850
692.596
687.342
682.088
676.834
671.580
666.326
661.072
655.818
650.564
645.310
640.056
634.802
629.548
624.294
619.040
613.786
608.532
603.278
598.024
592.770
587.516
582.262
577.008
571.754
566.500
561.246
555.992
550.738
545.484
540.230
534.976
529.722
524.468
519.214
513.960
508.706
503.452
498.198
492.944
487.690
482.436
477.182
471.928
466.674
461.420
456.166
450.912
449.592
448.273
446.953
445.634
444.314
442.995
441.675
440.356
439.036
437.717
436.397
435.078
433.758
432.439
431.119
429.800
428.480
427.161
425.841
424.522
423.202
421.883
420.563
419.244
417.924
416.605
415.285
413.966
412.646
411.327
410.007
408.688
407.368
406.049
404.729
403.410
402.090
400.771
399.451
398.132
396.812
395.493
394.173
392.854
391.534
390.215
388.895
387.576
386.256
384.937
383.617
382.298
380.978
379.659
378.339
377.020
375.700
374.381
373.061
371.742
370.422
369.103
367.783
366.464
365.144
363.825
362.505
361.186
359.866
358.547
357.227
355.908
354.588
353.269
351.949
350.630
349.310
347.991
346.671
345.352
344.032
342.713
341.393
340.074
338.754
337.435
336.115
334.796
333.476
332.157
330.837
329.518
328.198
326.879
325.559
324.240
322.920
321.601
320.281
318.962
317.642
316.323
315.003
313.684
312.364
311.045
309.725
308.406
307.086
305.767
304.447
303.128
301.808
300.489
299.169
297.850
296.530
295.211
293.891
292.572
291.252
289.933
288.613
287.294
285.974
284.655
283.335
282.016
280.696
279.377
278.057
276.738
275.418
274.099
272.779
271.460
270.140
268.821
267.501
266.182
264.862
263.543
262.223
260.904
259.584
258.265
256.945
255.626
254.306
252.987
251.667
250.348
249.028
247.709
246.389
245.070
243.750
242.431
241.111
239.792
238.472
237.153
235.833
234.514
233.194
231.875
230.555
229.236
227.916
226.597
225.277
223.958
222.638
221.319
219.999
218.680
217.360
216.041
214.721
213.402
212.082
210.763
209.443
208.124
206.804
205.485
204.165
202.846
201.526
200.207
198.887
197.568
196.248
194.929
193.609
192.290
190.970
189.651
188.331
187.012
187.012
187.012
187.012
187.012
187.012
187.012
187.012
187.012
187.012
187.012
187.012
187.012
187.012
187.012
187.012
187.012
187.012
187.012
187.012
187.012
187.012
187.012
187.012
187.012
187.012
187.012
187.012
187.012
187.012
187.012
187.012
187.012
187.012
187.012
187.012
187.012
187.012
187.012
187.012
187.012
187.012
187.012
187.012
187.012
187.012
187.012
187.012
187.012
187.012
187.012
187.012
187.012
187.012
187.012
187.012
187.012
187.012
187.012
187.012
187.012
187.012
187.012
187.012
187.012
187.012
187.012
187.012
187.012
187.012
187.012
187.012
187.012
187.012
187.012
187.012
187.012
187.012
187.012
187.012
187.012
187.012
187.012
187.012
187.012
187.012
187.012
187.012
187.012
187.012
187.012
187.012
187.012
187.012
187.012
187.012
187.012
187.012
187.012
187.012
187.012
187.012
187.012
187.012
187.012
187.012
187.012
187.012
187.012
187.012
187.012
187.012
187.012
187.012
187.012
187.012
187.012
187.012
187.012
187.012
187.012
187.012
187.012
187.012
187.012
187.012
187.012
187.012
187.012
187.012
187.012
187.012
187.012
187.012
187.012
187.012
187.012
187.012
187.012
187.012
187.012
187.012
187.012
187.012
187.012
187.012
187.012
187.012
187.012
187.012
187.012
187.012
187.012
187.012
187.012
187.012
187.012
187.012
187.012
187.012
187.012
187.012
187.012
187.012
187.012
187.012
187.012
187.012
187.012
187.012
187.012
187.012
187.012
187.012
187.012
187.012
187.012
187.012
187.012
187.012
187.012
187.012
187.012
187.012
187.012
187.012
187.012
187.012
187.012
187.012
187.012
187.012
187.012
187.012
187.012
187.012
187.012
187.012
187.012
187.012
103.912
103.887
103.863
103.838
103.814
103.789
103.765
103.740
103.716
103.691
103.667
103.642
103.618
103.593
103.569
103.544
103.520
103.495
103.471
103.446
103.422
103.397
103.373
103.348
103.324
103.299
103.275
103.250
103.226
103.201
103.177
103.152
103.128
103.103
103.079
103.054
103.030
103.005
102.981
102.956
102.932
102.907
102.883
102.858
102.834
102.809
102.785
102.760
102.736
102.711
102.687
102.662
102.638
102.613
102.589
102.564
102.540
102.515
102.491
102.466
102.442
102.417
102.393
102.368
102.344
102.319
102.295
102.270
102.246
102.221
102.197
102.172
102.148
102.123
102.099
102.074
102.050
102.025
102.001
101.976
101.952
101.927
101.903
101.878
101.854
101.829
101.805
101.780
101.756
101.731
101.707
101.682
101.658
101.633
101.609
101.584
101.560
101.535
101.511
101.486
101.462
101.437
101.413
101.388
101.364
101.339
101.315
101.290
101.266
101.241
101.217
101.192
101.168
101.143
101.119
101.094
101.070
101.045
101.021
100.996
100.972
100.947
100.923
100.898
100.874
100.849
100.825
100.800
100.776
100.751
100.727
100.702
100.678
100.653
100.629
100.604
100.580
100.555
100.531
100.506
100.482
100.457
100.433
100.408
100.384
100.359
100.335
100.310
100.286
100.261
100.237
100.212
100.188
100.163
100.139
100.114
100.090
100.065
100.041
100.016
99.992
99.967
99.943
99.918
99.894
99.869
99.845
99.820
99.796
99.771
99.747
99.722
99.698
99.673
99.649
99.624
99.600
99.575
99.551
99.526
99.502
99.477
99.453
99.428
99.404
99.379
99.355
99.330
99.306
99.281
99.257
99.232
99.208
99.183
99.159
99.134
99.110
99.085
99.061
99.036
99.012
99.036
99.061
99.085
99.110
99.134
99.159
99.183
99.208
99.232
99.257
99.281
99.306
99.330
99.355
99.379
99.404
99.428
99.453
99.477
99.502
99.526
99.551
99.575
99.600
99.624
99.649
99.673
99.698
99.722
99.747
99.771
99.796
99.820
99.845
99.869
99.894
99.918
99.943
99.967
99.992
100.016
100.041
100.065
100.090
100.114
100.139
100.163
100.188
100.212
100.237
100.261
100.286
100.310
100.335
100.359
100.384
100.408
100.433
100.457
100.482
100.506
100.531
100.555
100.580
100.604
100.629
100.653
100.678
100.702
100.727
100.751
100.776
100.800
100.825
100.849
100.874
100.898
100.923
100.947
100.972
100.996
101.021
101.045
101.070
101.094
101.119
101.143
101.168
101.192
101.217
101.241
101.266
101.290
101.315
101.339
101.364
101.388
101.413
101.437
101.462
101.486
101.511
101.535
101.560
101.584
101.609
101.633
101.658
101.682
101.707
101.731
101.756
101.780
101.805
101.829
101.854
101.878
101.903
101.927
101.952
101.976
102.001
102.025
102.050
102.074
102.099
102.123
102.148
102.172
102.197
102.221
102.246
102.270
102.295
102.319
102.344
102.368
102.393
102.417
102.442
102.466
102.491
102.515
102.540
102.564
102.589
102.613
102.638
102.662
102.687
102.711
102.736
102.760
102.785
102.809
102.834
102.858
102.883
102.907
102.932
102.956
102.981
103.005
103.030
103.054
103.079
103.103
103.128
103.152
103.177
103.201
103.226
103.250
103.275
103.299
103.324
103.348
103.373
103.397
103.422
103.446
103.471
103.495
103.520
103.544
103.569
103.593
103.618
103.642
103.667
103.691
103.716
103.740
103.765
103.789
103.814
103.838
103.863
103.887
103.912
103.912
103.912
103.912
103.912
103.912
103.912
103.912
103.912
103.912
103.912
103.912
103.912
103.912
103.912
103.912
103.912
103.912
103.912
103.912
103.912
103.912
103.912
103.912
103.912
103.912
103.912
103.912
103.912
103.912
103.912
103.912
103.912
103.912
103.912
103.912
103.912
103.912
103.912
103.912
103.912
103.912
103.912
103.912
103.912
103.912
103.912
103.912
103.912
103.912
103.912
103.912
103.912
103.912
103.912
103.912
103.912
103.912
103.912
103.912
103.912
103.912
103.912
103.912
103.912
103.912
103.912
103.912
103.912
103.912
103.912
103.912
103.912
103.912
103.912
103.912
103.912
103.912
103.912
103.912
103.912
103.912
103.912
103.912
103.912
103.912
103.912
103.912
103.912
103.912
103.912
103.912
103.912
103.912
103.912
103.912
103.912
103.912
103.912
103.912
103.912
103.912
103.912
103.912
103.912
103.912
