2221.279
2221.963
2222.647
2223.331
2224.015
2224.699
2225.383
2226.067
2226.751
2227.435
2228.119
2228.803
2229.487
2230.171
2230.855
2231.539
2232.223
2232.907
2233.591
2234.275
2234.959
2235.643
2236.327
2237.011
2237.695
2238.379
2239.063
2239.747
2240.431
2241.115
2241.799
2242.483
2243.167
2243.851
2244.535
2245.219
2245.903
2246.587
2247.271
2247.955
2248.639
2249.323
2250.007
2250.691
2251.375
2252.059
2252.743
2253.427
2254.111
2254.795
2255.479
2256.163
2256.847
2257.531
2258.215
2258.899
2259.583
2260.267
2260.951
2261.635
2262.319
2263.003
2263.687
2264.371
2265.055
2265.739
2266.423
2267.107
2267.791
2268.475
2269.159
2269.843
2270.527
2271.211
2271.895
2272.579
2273.263
2273.947
2274.631
2275.315
2275.999
2276.683
2277.367
2278.051
2278.735
2279.419
2280.103
2280.787
2281.471
2282.155
2282.839
2283.523
2284.207
2284.891
2285.575
2286.259
2286.943
2287.627
2288.311
2288.995
2289.679
2290.363
2291.047
2291.731
2292.415
2293.099
2293.783
2294.467
2295.151
2295.835
2296.519
2297.203
2297.887
2298.571
2299.255
2299.939
2300.623
2301.307
2301.991
2302.675
2303.359
2304.043
2304.727
2305.411
2306.095
2306.779
2307.463
2308.147
2308.831
2309.515
2310.199
2310.883
2311.567
2312.251
2312.935
2313.619
2314.303
2314.987
2315.671
2316.355
2317.039
2317.723
2318.407
2319.091
2319.775
2320.459
2321.143
2321.827
2322.511
2323.195
2323.879
2324.563
2325.247
2325.931
2326.615
2327.299
2327.983
2328.667
2329.351
2330.035
2330.719
2331.403
2332.087
2332.771
2333.455
2334.139
2334.823
2335.507
2336.191
2336.875
2337.559
2338.243
2338.927
2339.611
2340.295
2340.979
2341.663
2342.347
2343.031
2343.715
2344.399
2345.083
2345.767
2346.451
2347.135
2347.819
2348.503
2349.187
2349.871
2350.555
2351.239
2351.923
2352.607
2353.291
2353.975
2352.582
2351.189
2349.796
2348.403
2347.010
2345.617
2344.224
2342.831
2341.438
2340.045
2338.652
2337.259
2335.866
2334.473
2333.080
2331.687
2330.294
2328.901
2327.508
2326.115
2324.722
2323.329
2321.936
2320.543
2319.150
2317.757
2316.364
2314.971
2313.578
2312.185
2310.792
2309.399
2308.006
2306.613
2305.220
2303.827
2302.434
2301.041
2299.648
2298.255
2296.862
2295.469
2294.076
2292.683
2291.290
2289.897
2288.504
2287.111
2285.718
2284.325
2282.932
2281.539
2280.146
2278.753
2277.360
2275.967
2274.574
2273.181
2271.788
2270.395
2269.002
2267.609
2266.216
2264.823
2263.430
2262.037
2260.644
2259.251
2257.858
2256.465
2255.072
2253.679
2252.286
2250.893
2249.500
2248.107
2246.714
2245.321
2243.928
2242.535
2241.142
2239.749
2238.356
2236.963
2235.570
2234.177
2232.784
2231.391
2229.998
2228.605
2227.212
2225.819
2224.426
2223.033
2221.640
2220.247
2218.854
2217.461
2216.068
2214.675
2213.282
2211.889
2210.496
2209.103
2207.710
2206.317
2204.924
2203.531
2202.138
2200.745
2199.352
2197.959
2196.566
2195.173
2193.780
2192.387
2190.994
2189.601
2188.208
2186.815
2185.422
2184.029
2182.636
2181.243
2179.850
2178.457
2177.064
2175.671
2174.278
2172.885
2171.492
2170.099
2168.706
2167.313
2165.920
2164.527
2163.134
2161.741
2160.348
2158.955
2157.562
2156.169
2154.776
2153.383
2151.990
2150.597
2149.204
2147.811
2146.418
2145.025
2143.632
2142.239
2140.846
2139.453
2138.060
2136.667
2135.274
2133.881
2132.488
2131.095
2129.702
2128.309
2126.916
2125.523
2124.130
2122.737
2121.344
2119.951
2118.558
2117.165
2115.772
2114.379
2112.986
2111.593
2110.200
2108.807
2107.414
2106.021
2104.628
2103.235
2101.842
2100.449
2099.056
2097.663
2096.270
2094.877
2093.484
2092.091
2090.698
2089.305
2087.912
2086.519
2085.126
2083.733
2082.340
2080.947
2079.554
2078.161
2076.768
2075.375
2075.082
2074.789
2074.496
2074.203
2073.910
2073.617
2073.324
2073.031
2072.738
2072.445
2072.152
2071.859
2071.566
2071.273
2070.980
2070.687
2070.394
2070.101
2069.808
2069.515
2069.222
2068.929
2068.636
2068.343
2068.050
2067.757
2067.464
2067.171
2066.878
2066.585
2066.292
2065.999
2065.706
2065.413
2065.120
2064.827
2064.534
2064.241
2063.948
2063.655
2063.362
2063.069
2062.776
2062.483
2062.190
2061.897
2061.604
2061.311
2061.018
2060.725
2060.432
2060.139
2059.846
2059.553
2059.260
2058.967
2058.674
2058.381
2058.088
2057.795
2057.502
2057.209
2056.916
2056.623
2056.330
2056.037
2055.744
2055.451
2055.158
2054.865
2054.572
2054.279
2053.986
2053.693
2053.400
2053.107
2052.814
2052.521
2052.228
2051.935
2051.642
2051.349
2051.056
2050.763
2050.470
2050.177
2049.884
2049.591
2049.298
2049.005
2048.712
2048.419
2048.126
2047.833
2047.540
2047.247
2046.954
2046.661
2046.368
2046.075
2045.782
2045.489
2045.196
2044.903
2044.610
2044.317
2044.024
2043.731
2043.438
2043.145
2042.852
2042.559
2042.266
2041.973
2041.680
2041.387
2041.094
2040.801
2040.508
2040.215
2039.922
2039.629
2039.336
2039.043
2038.750
2038.457
2038.164
2037.871
2037.578
2037.285
2036.992
2036.699
2036.406
2036.113
2035.820
2035.527
2035.234
2034.941
2034.648
2034.355
2034.062
2033.769
2033.476
2033.183
2032.890
2032.597
2032.304
2032.011
2031.718
2031.425
2031.132
2030.839
2030.546
2030.253
2029.960
2029.667
2029.374
2029.081
2028.788
2028.495
2028.202
2027.909
2027.616
2027.323
2027.030
2026.737
2026.444
2026.151
2025.858
2025.565
2025.272
2024.979
2024.686
2024.393
2024.100
2023.807
2023.514
2023.221
2022.928
2022.635
2022.342
2022.049
2021.756
2021.463
2021.170
2020.877
2020.584
2020.291
2019.998
2019.705
2019.412
2019.119
2018.826
2018.533
2018.240
2017.947
2017.654
2017.361
2017.068
2016.775
2009.101
2001.428
1993.754
1986.081
1978.407
1970.734
1963.060
1955.387
1947.713
1940.040
1932.366
1924.693
1917.019
1909.346
1901.672
1893.999
1886.325
1878.652
1870.978
1863.305
1855.631
1847.958
1840.284
1832.611
1824.937
1817.264
1809.590
1801.917
1794.243
1786.570
1778.896
1771.223
1763.549
1755.876
1748.202
1740.529
1732.855
1725.182
1717.508
1709.835
1702.161
1694.488
1686.814
1679.141
1671.467
1663.794
1656.120
1648.447
1640.773
1633.100
1625.426
1617.753
1610.079
1602.406
1594.732
1587.059
1579.385
1571.712
1564.038
1556.365
1548.691
1541.018
1533.344
1525.671
1517.997
1510.324
1502.650
1494.977
1487.303
1479.630
1471.956
1464.283
1456.609
1448.936
1441.262
1433.589
1425.915
1418.242
1410.568
1402.895
1395.221
1387.548
1379.874
1372.201
1364.527
1356.854
1349.180
1341.507
1333.833
1326.160
1318.486
1310.813
1303.139
1295.466
1287.792
1280.119
1272.445
1264.772
1257.098
1249.425
1241.751
1234.078
1226.404
1218.731
1211.057
1203.384
1195.710
1188.037
1180.363
1172.690
1165.016
1157.343
1149.669
1141.996
1134.322
1126.649
1118.975
1111.302
1103.628
1095.955
1088.281
1080.608
1072.934
1065.261
1057.587
1049.914
1042.240
1034.567
1026.893
1019.220
1011.546
1003.873
996.199
988.526
980.852
973.179
965.505
957.832
950.158
942.485
934.811
927.138
919.464
911.791
904.117
896.444
888.770
881.097
873.423
865.750
858.076
850.403
842.729
835.056
827.382
819.709
812.035
804.362
796.688
789.015
781.341
773.668
765.994
758.321
750.647
742.974
735.300
727.627
719.953
712.280
704.606
696.933
689.259
681.586
673.912
666.239
658.565
650.892
643.218
635.545
627.871
620.198
612.524
604.851
597.177
589.504
581.830
574.157
566.483
558.810
551.136
543.463
535.789
528.116
520.442
512.769
505.095
497.422
489.748
482.075
480.926
479.777
478.628
477.479
476.330
475.181
474.032
472.883
471.734
470.585
469.436
468.287
467.138
465.989
464.840
463.691
462.542
461.393
460.244
459.095
457.946
456.797
455.648
454.499
453.350
452.201
451.052
449.903
448.754
447.605
446.456
445.307
444.158
443.009
441.860
440.711
439.562
438.413
437.264
436.115
434.966
433.817
432.668
431.519
430.370
429.221
428.072
426.923
425.774
424.625
423.476
422.327
421.178
420.029
418.880
417.731
416.582
415.433
414.284
413.135
411.986
410.837
409.688
408.539
407.390
406.241
405.092
403.943
402.794
401.645
400.496
399.347
398.198
397.049
395.900
394.751
393.602
392.453
391.304
390.155
389.006
387.857
386.708
385.559
384.410
383.261
382.112
380.963
379.814
378.665
377.516
376.367
375.218
374.069
372.920
371.771
370.622
369.473
368.324
367.175
366.026
364.877
363.728
362.579
361.430
360.281
359.132
357.983
356.834
355.685
354.536
353.387
352.238
351.089
349.940
348.791
347.642
346.493
345.344
344.195
343.046
341.897
340.748
339.599
338.450
337.301
336.152
335.003
333.854
332.705
331.556
330.407
329.258
328.109
326.960
325.811
324.662
323.513
322.364
321.215
320.066
318.917
317.768
316.619
315.470
314.321
313.172
312.023
310.874
309.725
308.576
307.427
306.278
305.129
303.980
302.831
301.682
300.533
299.384
298.235
297.086
295.937
294.788
293.639
292.490
291.341
290.192
289.043
287.894
286.745
285.596
284.447
283.298
282.149
281.000
279.851
278.702
277.553
276.404
275.255
274.106
272.957
271.808
270.659
269.510
268.361
267.212
266.063
264.914
263.765
262.616
261.467
260.318
259.169
258.020
256.871
255.722
254.573
253.424
81.275
81.299
81.324
81.348
81.373
81.397
81.422
81.446
81.471
81.495
81.520
81.544
81.569
81.593
81.618
81.642
81.667
81.691
81.716
81.740
81.765
81.789
81.814
81.838
81.863
81.887
81.912
81.936
81.961
81.985
82.010
82.034
82.059
82.083
82.108
82.132
82.157
82.181
82.206
82.230
82.255
82.279
82.304
82.328
82.353
82.377
82.402
82.426
82.451
82.475
82.500
82.524
82.549
82.573
82.598
82.622
82.647
82.671
82.696
82.720
82.745
82.769
82.794
82.818
82.843
82.867
82.892
82.916
82.941
82.965
82.990
83.014
83.039
83.063
83.088
83.112
83.137
83.161
83.186
83.210
83.235
83.259
83.284
83.308
83.333
83.357
83.382
83.406
83.431
83.455
83.480
83.504
83.529
83.553
83.578
83.602
83.627
83.651
83.676
83.700
83.725
83.749
83.774
83.798
83.823
83.847
83.872
83.896
83.921
83.945
83.970
83.994
84.019
84.043
84.068
84.092
84.117
84.141
84.166
84.190
84.215
84.239
84.264
84.288
84.313
84.337
84.362
84.386
84.411
84.435
84.460
84.484
84.509
84.533
84.558
84.582
84.607
84.631
84.656
84.680
84.705
84.729
84.754
84.778
84.803
84.827
84.852
84.876
84.901
84.925
84.950
84.974
84.999
85.023
85.048
85.072
85.097
85.121
85.146
85.170
85.195
85.219
85.244
85.268
85.293
85.317
85.342
85.366
85.391
85.415
85.440
85.464
85.489
85.513
85.538
85.562
85.587
85.611
85.636
85.660
85.685
85.709
85.734
85.758
85.783
85.807
85.832
85.856
85.881
85.905
85.930
85.954
85.979
86.003
86.028
86.052
86.077
86.101
86.126
86.150
86.175
86.175
86.175
86.175
86.175
86.175
86.175
86.175
86.175
86.175
86.175
86.175
86.175
86.175
86.175
86.175
86.175
86.175
86.175
86.175
86.175
86.175
86.175
86.175
86.175
86.175
86.175
86.175
86.175
86.175
86.175
86.175
86.175
86.175
86.175
86.175
86.175
86.175
86.175
86.175
86.175
86.175
86.175
86.175
86.175
86.175
86.175
86.175
86.175
86.175
86.175
86.175
86.175
86.175
86.175
86.175
86.175
86.175
86.175
86.175
86.175
86.175
86.175
86.175
86.175
86.175
86.175
86.175
86.175
86.175
86.175
86.175
86.175
86.175
86.175
86.175
86.175
86.175
86.175
86.175
86.175
86.175
86.175
86.175
86.175
86.175
86.175
86.175
86.175
86.175
86.175
86.175
86.175
86.175
86.175
86.175
86.175
86.175
86.175
86.175
86.175
86.175
86.175
86.175
86.175
86.175
86.175
86.175
86.175
86.175
86.175
86.175
86.175
86.175
86.175
86.175
86.175
86.175
86.175
86.175
86.175
86.175
86.175
86.175
86.175
86.175
86.175
86.175
86.175
86.175
86.175
86.175
86.175
86.175
86.175
86.175
86.175
86.175
86.175
86.175
86.175
86.175
86.175
86.175
86.175
86.175
86.175
86.175
86.175
86.175
86.175
86.175
86.175
86.175
86.175
86.175
86.175
86.175
86.175
86.175
86.175
86.175
86.175
86.175
86.175
86.175
86.175
86.175
86.175
86.175
86.175
86.175
86.175
86.175
86.175
86.175
86.175
86.175
86.175
86.175
86.175
86.175
86.175
86.175
86.175
86.175
86.175
86.175
86.175
86.175
86.175
86.175
86.175
86.175
86.175
86.175
86.175
86.175
86.175
86.175
86.175
86.175
86.175
86.175
86.175
86.175
86.175
86.175
86.175
86.175
86.175
86.175
86.175
86.175
86.175
86.175
86.175
86.175
86.175
86.175
86.175
86.175
86.175
86.175
86.175
86.175
86.175
86.175
86.175
86.175
86.175
86.175
86.175
86.175
86.175
86.175
86.175
86.175
86.175
86.175
86.175
86.175
86.175
86.175
86.175
86.175
86.175
86.175
86.175
86.175
86.175
86.175
86.175
86.175
86.175
86.175
86.175
86.175
86.175
86.175
86.175
86.175
86.175
86.175
86.175
86.175
86.175
86.175
86.175
86.175
86.175
86.175
86.175
86.175
86.175
86.175
86.175
86.175
86.175
86.175
86.175
86.175
86.175
86.175
86.175
86.175
86.175
86.175
86.175
86.175
86.175
86.175
86.175
86.175
86.175
86.175
86.175
86.175
86.175
86.175
86.175
86.175
86.175
86.175
86.175
86.175
86.175
86.175
86.175
86.175
86.175
86.175
86.175
86.175
86.175
86.175
86.175
86.175
86.175
86.175
86.175
86.175
86.175
86.175
86.175
86.175
86.175
86.175
86.175
86.175
86.175
86.175
86.175
86.175
86.175
86.175
86.175
86.175
86.175
86.175
86.175
86.175
86.175
86.175
86.175
86.175
86.175
86.175
86.175
86.175
86.175
86.175
86.175
86.175
86.175
86.175
86.175
86.175
86.175
86.175
86.175
86.175
86.175
86.175
86.175
86.175
86.175
86.175
86.175
86.175
86.175
86.175
86.175
86.175
86.175
86.175
86.175
86.175
86.175
86.175
86.175
86.175
86.175
86.175
86.175
86.175
86.175
86.175
86.175
86.175
86.175
86.175
86.175
86.175
86.175
86.175
86.175
86.175
86.175
86.175
86.175
86.175
86.175
86.175
86.175
86.175
86.175
86.175
86.175
86.175
86.175
86.175
86.175
86.175
86.175
86.175
86.175
86.175
86.175
86.175
86.175
86.175
86.175
86.175
86.175
86.175
86.175
86.175
86.175
86.175
86.175
86.175
86.175
86.175
86.175
86.175
86.175
86.175
86.175
86.175
86.175
86.175
86.175
86.175
86.175
86.175
86.175
86.175
86.175
86.175
86.175
86.175
86.175
86.175
86.175
86.175
86.175
86.175
86.175
86.175
86.175
86.175
86.175
86.175
86.175
86.175
86.175
86.175
86.175
86.175
86.175
86.175
86.175
86.175
86.175
86.175
86.175
86.175
86.175
86.175
86.175
86.175
86.175
86.175
86.175
86.175
86.175
86.175
86.175
86.175
86.175
86.175
86.175
86.175
86.175
86.175
86.175
86.175
86.175
86.175
86.175
86.175
86.175
86.175
86.175
86.175
86.175
86.175
86.175
86.175
86.175
86.175
86.175
86.175
86.175
86.175
86.175
86.175
86.175
86.175
86.175
86.175
86.175
86.175
86.175
86.175
86.175
86.175
86.175
86.175
86.175
86.175
86.175
86.175
86.175
86.175
86.175
86.175
86.175
86.175
86.175
86.175
86.175
86.175
86.175
86.175
86.175
86.175
86.175
86.175
86.175
86.175
86.175
86.175
86.175
86.175
86.175
86.175
86.175
86.175
86.175
86.175
86.175
86.175
86.175
86.175
86.175
86.175
86.175
86.175
86.175
86.175
86.175
86.175
86.175
86.175
86.175
86.175
86.175
86.175
86.175
86.175
86.175
86.175
86.175
86.175
86.175
86.175
86.175
86.175
86.175
86.175
86.175
86.175
86.175
86.175
86.175
86.175
86.175
86.175
86.175
86.175
86.175
86.175
86.175
86.175
86.175
86.175
86.175
86.175
86.175
86.175
86.175
86.175
86.175
86.175
86.175
86.175
86.175
86.175
86.175
86.175
86.175
86.175
86.175
86.175
86.175
86.175
86.175
86.175
86.175
86.175
86.175
86.175
86.175
86.175
86.175
86.175
86.175
86.175
86.175
86.175
86.175
86.175
86.175
86.175
86.175
86.175
86.175
86.175
86.175
86.175
86.175
86.175
86.175
86.175
86.175
86.175
86.175
86.175
86.175
86.175
86.175
86.175
86.175
86.175
86.175
86.175
86.175
86.175
86.175
86.175
86.175
86.175
86.175
86.175
86.175
86.175
86.175
86.175
86.175
86.175
86.175
86.175
86.175
86.175
86.175
86.175
86.175
86.175
86.175
86.175
86.175
86.175
86.175
86.175
86.175
86.175
86.175
86.175
86.175
86.175
86.175
86.175
86.175
86.175
86.175
86.175
86.175
86.175
86.175
86.175
86.175
86.175
86.175
86.175
86.175
86.175
86.175
86.175
86.175
86.175
86.175
86.175
86.175
86.175
86.175
86.175
86.175
86.175
86.175
86.175
86.175
86.175
86.175
86.175
86.175
86.175
86.175
86.175
86.175
86.175
86.175
86.175
86.175
86.175
86.175
86.175
86.175
86.175
86.175
86.175
86.175
86.175
86.175
86.175
86.175
86.175
86.175
86.175
86.175
86.175
86.175
86.175
86.175
86.175
86.175
86.175
86.175
86.175
86.175
86.175
86.175
86.175
86.175
86.175
86.175
86.175
86.175
86.175
86.175
86.175
86.175
86.175
86.175
86.175
86.175
86.175
86.175
86.175
86.175
86.175
86.175
86.175
86.175
86.175
86.175
86.175
86.175
86.175
86.175
86.175
86.175
86.175
86.175
86.175
