1830.934
1829.565
1828.197
1826.828
1825.460
1824.091
1822.723
1821.354
1819.986
1818.617
1817.249
1815.880
1814.512
1813.143
1811.775
1810.406
1809.038
1807.669
1806.301
1804.932
1803.564
1802.195
1800.827
1799.458
1798.090
1796.721
1795.353
1793.984
1792.616
1791.247
1789.879
1788.510
1787.142
1785.773
1784.405
1783.036
1781.668
1780.299
1778.931
1777.562
1776.194
1774.825
1773.457
1772.088
1770.720
1769.351
1767.983
1766.614
1765.246
1763.877
1762.509
1761.140
1759.772
1758.403
1757.035
1755.666
1754.298
1752.929
1751.561
1750.192
1748.824
1747.455
1746.087
1744.718
1743.350
1741.981
1740.613
1739.244
1737.876
1736.507
1735.139
1733.770
1732.402
1731.033
1729.665
1728.296
1726.928
1725.559
1724.191
1722.822
1721.454
1720.085
1718.717
1717.348
1715.980
1714.611
1713.243
1711.874
1710.506
1712.632
1714.759
1716.885
1719.012
1721.138
1723.265
1725.391
1727.518
1729.644
1731.771
1733.897
1736.024
1738.150
1740.277
1742.403
1744.530
1746.656
1748.783
1750.909
1753.036
1755.162
1757.289
1759.415
1761.542
1763.668
1765.795
1767.921
1770.048
1772.174
1774.301
1776.427
1778.554
1780.680
1782.807
1784.933
1787.060
1789.186
1791.313
1793.439
1795.566
1797.692
1799.819
1801.945
1804.072
1806.198
1808.325
1810.451
1812.578
1814.704
1816.831
1818.957
1821.084
1823.210
1825.337
1827.463
1829.590
1831.716
1833.843
1835.969
1838.096
1840.222
1842.349
1844.475
1846.602
1848.728
1850.855
1852.981
1855.108
1857.234
1859.361
1861.487
1863.614
1865.740
1867.867
1869.993
1872.120
1874.246
1876.373
1878.499
1880.626
1882.752
1884.879
1887.005
1889.132
1891.258
1893.385
1895.511
1897.638
1899.764
1901.891
1904.017
1906.144
1908.270
1910.397
1912.523
1914.650
1916.776
1918.903
1921.029
1923.156
1925.282
1927.409
1929.535
1931.662
1933.788
1935.915
1938.041
1940.168
1942.294
1944.421
1946.547
1948.674
1950.800
1952.927
1955.053
1957.180
1959.306
1961.433
1963.559
1965.686
1967.812
1969.939
1972.065
1974.192
1976.318
1978.445
1980.571
1982.698
1984.824
1986.951
1989.077
1991.204
1993.330
1995.457
1997.583
1999.710
2001.836
2003.963
2006.089
2008.216
2010.342
2012.469
2014.595
2016.722
2018.848
2020.975
2023.101
2025.228
2027.354
2029.481
2031.607
2033.734
2035.860
2037.987
2040.113
2042.240
2044.366
2046.493
2048.619
2050.746
2052.872
2054.999
2057.125
2059.252
2061.378
2063.505
2065.631
2067.758
2069.884
2072.011
2074.137
2076.264
2078.390
2080.517
2082.643
2084.770
2086.896
2089.023
2091.149
2093.276
2095.402
2097.529
2099.655
2101.782
2103.908
2106.035
2108.161
2110.288
2112.414
2114.541
2116.667
2118.794
2120.920
2123.047
2125.173
2127.300
2129.426
2131.553
2133.679
2135.806
2132.213
2128.621
2125.028
2121.436
2117.843
2114.251
2110.658
2107.066
2103.473
2099.881
2096.288
2092.696
2089.103
2085.511
2081.918
2078.326
2074.733
2071.141
2067.548
2063.956
2060.363
2056.771
2053.178
2049.586
2045.993
2042.401
2038.808
2035.216
2031.623
2028.031
2024.438
2020.846
2017.253
2013.661
2010.068
2006.476
2002.883
1999.291
1995.698
1992.106
1988.513
1984.921
1981.328
1977.736
1974.143
1970.551
1966.958
1963.366
1959.773
1956.181
1952.588
1948.996
1945.403
1941.811
1938.218
1934.626
1931.033
1927.441
1923.848
1920.256
1916.663
1913.071
1909.478
1905.886
1902.293
1898.701
1895.108
1891.516
1887.923
1884.331
1880.738
1877.146
1873.553
1869.961
1866.368
1862.776
1859.183
1855.591
1851.998
1848.406
1844.813
1841.221
1837.628
1834.036
1830.443
1826.851
1823.258
1819.666
1816.073
1812.481
1808.888
1805.296
1801.703
1798.111
1794.518
1790.926
1787.333
1783.741
1780.148
1776.556
1772.963
1769.371
1765.778
1762.186
1758.593
1755.001
1751.408
1747.816
1744.223
1740.631
1737.038
1733.446
1729.853
1726.261
1722.668
1719.076
1715.483
1711.891
1708.298
1704.706
1701.113
1697.521
1693.928
1690.336
1686.743
1683.151
1679.558
1675.966
1672.373
1668.781
1665.188
1661.596
1658.003
1654.411
1650.818
1647.226
1643.633
1640.041
1636.448
1632.856
1629.263
1625.671
1622.078
1618.486
1614.893
1611.301
1607.708
1604.116
1600.523
1596.931
1593.338
1589.746
1586.153
1582.561
1578.968
1575.376
1571.783
1568.191
1564.598
1561.006
1557.413
1553.821
1550.228
1546.636
1543.043
1539.451
1535.858
1532.266
1528.673
1525.081
1521.488
1517.896
1514.303
1510.711
1507.118
1503.526
1499.933
1496.341
1492.748
1489.156
1485.563
1481.971
1478.378
1474.786
1471.193
1467.601
1464.008
1460.416
1456.823
1453.231
1449.638
1446.046
1442.453
1438.861
1435.268
1431.676
1428.083
1424.491
1420.898
1417.306
1417.623
1417.941
1418.258
1418.576
1418.893
1419.211
1419.528
1419.846
1420.163
1420.481
1420.798
1421.116
1421.433
1421.751
1422.068
1422.386
1422.703
1423.021
1423.338
1423.656
1423.973
1424.291
1424.608
1424.926
1425.243
1425.561
1425.878
1426.196
1426.513
1426.831
1427.148
1427.466
1427.783
1428.101
1428.418
1428.736
1429.053
1429.371
1429.688
1430.006
1430.323
1430.641
1430.958
1431.276
1431.593
1431.911
1432.228
1432.546
1432.863
1433.181
1433.498
1433.816
1434.133
1434.451
1434.768
1435.086
1435.403
1435.721
1436.038
1436.356
1436.673
1436.991
1437.308
1437.626
1437.943
1438.261
1438.578
1438.896
1439.213
1439.531
1439.848
1440.166
1440.483
1440.801
1441.118
1441.436
1441.753
1442.071
1442.388
1442.706
1443.023
1443.341
1443.658
1443.976
1444.293
1444.611
1444.928
1445.246
1445.563
1445.881
1446.198
1446.516
1446.833
1447.151
1447.468
1447.786
1448.103
1448.421
1448.738
1449.056
1449.373
1449.691
1450.008
1450.326
1450.643
1450.961
1451.278
1451.596
1451.913
1452.231
1452.548
1452.866
1453.183
1453.501
1453.818
1454.136
1454.453
1454.771
1455.088
1455.406
1455.723
1456.041
1456.358
1456.676
1456.993
1457.311
1457.628
1457.946
1458.263
1458.581
1458.898
1459.216
1459.533
1459.851
1460.168
1460.486
1460.803
1461.121
1461.438
1461.756
1462.073
1462.391
1462.708
1463.026
1463.343
1463.661
1463.978
1464.296
1464.613
1464.931
1465.248
1465.566
1465.883
1466.201
1466.518
1466.836
1467.153
1467.471
1467.788
1468.106
1468.423
1468.741
1469.058
1469.376
1469.693
1470.011
1470.328
1470.646
1470.963
1471.281
1471.598
1471.916
1472.233
1472.551
1472.868
1473.186
1473.503
1473.821
1474.138
1474.456
1474.773
1475.091
1475.408
1475.726
1476.043
1476.361
1476.678
1476.996
1477.313
1477.631
1477.948
1478.266
1478.583
1478.901
1479.218
1479.536
1479.853
1480.171
1480.488
1480.806
1475.552
1470.298
1465.044
1459.790
1454.536
1449.282
1444.028
1438.774
1433.520
1428.266
1423.012
1417.758
1412.504
1407.250
1401.996
1396.742
1391.488
1386.234
1380.980
1375.726
1370.472
1365.218
1359.964
1354.710
1349.456
1344.202
1338.948
1333.694
1328.440
1323.186
1317.932
1312.678
1307.424
1302.170
1296.916
1291.662
1286.408
1281.154
1275.900
1270.646
1265.392
1260.138
1254.884
1249.630
1244.376
1239.122
1233.868
1228.614
1223.360
1218.106
1212.852
1207.598
1202.344
1197.090
1191.836
1186.582
1181.328
1176.074
1170.820
1165.566
1160.312
1155.058
1149.804
1144.550
1139.296
1134.042
1128.788
1123.534
1118.280
1113.026
1107.772
1102.518
1097.264
1092.010
1086.756
1081.502
1076.248
1070.994
1065.740
1060.486
1055.232
1049.978
1044.724
1039.470
1034.216
1028.962
1023.708
1018.454
1013.200
1007.946
1002.692
997.438
992.184
986.930
981.676
976.422
971.168
965.914
960.660
955.406
950.152
944.898
939.644
934.390
929.136
923.882
918.628
913.374
908.120
902.866
897.612
892.358
887.104
881.850
876.596
871.342
866.088
860.834
855.580
850.326
845.072
839.818
834.564
829.310
824.056
818.802
813.548
808.294
803.040
797.786
792.532
787.278
782.024
776.770
771.516
766.262
761.008
755.754
750.500
745.246
739.992
734.738
729.484
724.230
718.976
713.722
708.468
703.214
697.960
692.706
687.452
682.198
676.944
671.690
666.436
661.182
655.928
650.674
645.420
640.166
634.912
629.658
624.404
619.150
613.896
608.642
603.388
598.134
592.880
587.626
582.372
577.118
571.864
566.610
561.356
556.102
550.848
545.594
540.340
535.086
529.832
524.578
519.324
514.070
508.816
503.562
498.308
493.054
487.800
482.546
477.292
472.038
466.784
461.530
456.276
451.022
445.768
440.514
435.260
83.006
83.006
83.006
83.006
83.006
83.006
83.006
83.006
83.006
83.006
83.006
83.006
83.006
83.006
83.006
83.006
83.006
83.006
83.006
83.006
83.006
83.006
83.006
83.006
83.006
83.006
83.006
83.006
83.006
83.006
83.006
83.006
83.006
83.006
83.006
83.006
83.006
83.006
83.006
83.006
83.006
83.006
83.006
83.006
83.006
83.006
83.006
83.006
83.006
83.006
83.006
83.006
83.006
83.006
83.006
83.006
83.006
83.006
83.006
83.006
83.006
83.006
83.006
83.006
83.006
83.006
83.006
83.006
83.006
83.006
83.006
83.006
83.006
83.006
83.006
83.006
83.006
83.006
83.006
83.006
83.006
83.006
83.006
83.006
83.006
83.006
83.006
83.006
83.006
83.006
83.006
83.006
83.006
83.006
83.006
83.006
83.006
83.006
83.006
83.006
83.006
83.006
83.006
83.006
83.006
83.006
83.006
83.006
83.006
83.006
83.006
83.006
83.006
83.006
83.006
83.006
83.006
83.006
83.006
83.006
83.006
83.006
83.006
83.006
83.006
83.006
83.006
83.006
83.006
83.006
83.006
83.006
83.006
83.006
83.006
83.006
83.006
83.006
83.006
83.006
83.006
83.006
83.006
83.006
83.006
83.006
83.006
83.006
83.006
83.006
83.006
83.006
83.006
83.006
83.006
83.006
83.006
83.006
83.006
83.006
83.006
83.006
83.006
83.006
83.006
83.006
83.006
83.006
83.006
83.006
83.006
83.006
83.006
83.006
83.006
83.006
83.006
83.006
83.006
83.006
83.006
83.006
83.006
83.006
83.006
83.006
83.006
83.006
83.006
83.006
83.006
83.006
83.006
83.006
83.006
83.006
83.006
83.006
83.006
83.006
83.006
83.006
83.006
83.006
83.006
83.006
83.006
83.006
83.006
83.006
83.006
83.006
83.006
83.006
83.006
83.006
83.006
83.006
83.006
83.006
83.006
83.006
83.006
83.006
83.006
83.006
83.006
83.006
83.006
83.006
83.006
83.006
83.006
83.006
83.006
83.006
83.006
83.006
83.006
83.006
83.006
83.006
83.006
83.006
83.006
83.006
83.006
83.006
83.006
83.006
83.006
83.006
83.006
83.006
83.006
83.006
83.006
83.006
83.006
83.006
83.006
83.006
83.006
83.006
83.006
83.006
83.006
83.006
83.006
83.006
83.006
83.006
83.006
83.006
83.006
83.006
83.006
83.006
83.006
83.006
83.006
83.006
83.006
83.006
83.006
83.006
83.006
83.006
83.006
83.006
83.006
83.006
83.006
83.006
83.006
83.006
83.006
83.006
83.006
83.006
83.006
83.006
83.006
83.006
83.006
83.006
83.006
83.006
83.006
83.006
83.006
83.006
83.006
83.006
83.006
83.006
83.006
83.006
83.006
83.006
83.006
83.006
83.006
83.006
83.006
83.006
83.006
83.006
83.006
83.006
83.006
83.006
83.006
83.006
83.006
83.006
83.006
83.006
83.006
83.006
83.006
83.006
83.006
83.006
83.006
83.006
83.006
83.006
83.006
83.006
83.006
83.006
83.006
83.006
83.006
83.006
83.006
83.006
83.006
83.006
83.006
83.006
83.006
83.006
83.006
83.006
83.006
83.006
83.006
83.006
83.006
83.006
83.006
83.006
83.006
83.006
83.006
83.006
83.006
83.006
83.006
83.006
83.006
83.006
83.006
83.006
83.006
83.006
83.006
83.006
83.006
83.006
83.006
83.006
83.006
83.006
83.006
83.006
83.006
83.006
83.006
82.981
82.957
82.932
82.908
82.883
82.859
82.834
82.810
82.785
82.761
82.736
82.712
82.687
82.663
82.638
82.614
82.589
82.565
82.540
82.516
82.491
82.467
82.442
82.418
82.393
82.369
82.344
82.320
82.295
82.271
82.246
82.222
82.197
82.173
82.148
82.124
82.099
82.075
82.050
82.026
82.001
81.977
81.952
81.928
81.903
81.879
81.854
81.830
81.805
81.781
81.756
81.732
81.707
81.683
81.658
81.634
81.609
81.585
81.560
81.536
81.511
81.487
81.462
81.438
81.413
81.389
81.364
81.340
81.315
81.291
81.266
81.242
81.217
81.193
81.168
81.144
81.119
81.095
81.070
81.046
81.021
80.997
80.972
80.948
80.923
80.899
80.874
80.850
80.825
80.801
80.776
80.752
80.727
80.703
80.678
80.654
80.629
80.605
80.580
80.556
80.531
80.507
80.482
80.458
80.433
80.409
80.384
80.360
80.335
80.311
80.286
80.262
80.237
80.213
80.188
80.164
80.139
80.115
80.090
80.066
80.041
80.017
79.992
79.968
79.943
79.919
79.894
79.870
79.845
79.821
79.796
79.772
79.747
79.723
79.698
79.674
79.649
79.625
79.600
79.576
79.551
79.527
79.502
79.478
79.453
79.429
79.404
79.380
79.355
79.331
79.306
79.282
79.257
79.233
79.208
79.184
79.159
79.135
79.110
79.086
79.061
79.037
79.012
78.988
78.963
78.939
78.914
78.890
78.865
78.841
78.816
78.792
78.767
78.743
78.718
78.694
78.669
78.645
78.620
78.596
78.571
78.547
78.522
78.498
78.473
78.449
78.424
78.400
78.375
78.351
78.326
78.302
78.277
78.253
78.228
78.204
78.179
78.155
78.130
78.106
78.106
78.106
78.106
78.106
78.106
78.106
78.106
78.106
78.106
78.106
78.106
78.106
78.106
78.106
78.106
78.106
78.106
78.106
78.106
78.106
78.106
78.106
78.106
78.106
78.106
78.106
78.106
78.106
78.106
78.106
78.106
78.106
78.106
78.106
78.106
78.106
78.106
78.106
78.106
78.106
78.106
78.106
78.106
78.106
78.106
78.106
78.106
78.106
78.106
78.106
78.106
78.106
78.106
78.106
78.106
78.106
78.106
78.106
78.106
78.106
78.106
78.106
78.106
78.106
78.106
78.106
78.106
78.106
78.106
78.106
78.106
78.106
78.106
78.106
78.106
78.106
78.106
78.106
78.106
78.106
78.106
78.106
78.106
78.106
78.106
78.106
78.106
78.106
78.106
78.106
78.106
78.106
78.106
78.106
78.106
78.106
78.106
78.106
78.106
78.106
78.106
78.106
78.106
78.106
78.106
78.106
78.106
78.106
78.106
78.106
78.106
78.106
78.106
78.106
78.106
78.106
78.106
78.106
78.106
78.106
78.106
78.106
78.106
78.106
78.106
78.106
78.106
78.106
78.106
78.106
78.106
78.106
78.106
78.106
78.106
78.106
78.106
78.106
78.106
78.106
78.106
78.106
78.106
78.106
78.106
78.106
78.106
78.106
78.106
78.106
78.106
78.106
78.106
78.106
78.106
78.106
78.106
78.106
78.106
78.106
78.106
78.106
78.106
78.106
78.106
78.106
78.106
78.106
78.106
78.106
78.106
78.106
78.106
78.106
78.106
78.106
78.106
78.106
78.106
78.106
78.106
78.106
78.106
78.106
78.106
78.106
78.106
78.106
78.106
78.106
78.106
78.106
78.106
78.106
78.106
78.106
78.106
78.106
78.106
78.106
78.130
78.155
78.179
78.204
78.228
78.253
78.277
78.302
78.326
78.351
78.375
78.400
78.424
78.449
78.473
78.498
78.522
78.547
78.571
78.596
78.620
78.645
78.669
78.694
78.718
78.743
78.767
78.792
78.816
78.841
78.865
78.890
78.914
78.939
78.963
78.988
79.012
79.037
79.061
79.086
79.110
79.135
79.159
79.184
79.208
79.233
79.257
79.282
79.306
79.331
79.355
79.380
79.404
79.429
79.453
79.478
79.502
79.527
79.551
79.576
79.600
79.625
79.649
79.674
79.698
79.723
79.747
79.772
79.796
79.821
79.845
79.870
79.894
79.919
79.943
79.968
79.992
80.017
80.041
80.066
80.090
80.115
80.139
80.164
80.188
80.213
80.237
80.262
80.286
80.311
80.335
80.360
80.384
80.409
80.433
80.458
80.482
80.507
80.531
80.556
80.580
80.605
80.629
80.654
80.678
80.703
80.727
80.752
80.776
80.801
80.825
80.850
80.874
80.899
80.923
80.948
80.972
80.997
81.021
81.046
81.070
81.095
81.119
81.144
81.168
81.193
81.217
81.242
81.266
81.291
81.315
81.340
81.364
81.389
81.413
81.438
81.462
81.487
81.511
81.536
81.560
81.585
81.609
81.634
81.658
81.683
81.707
81.732
81.756
81.781
81.805
81.830
81.854
81.879
81.903
81.928
81.952
81.977
82.001
82.026
82.050
82.075
82.099
82.124
82.148
82.173
82.197
82.222
82.246
82.271
82.295
82.320
82.344
82.369
82.393
82.418
82.442
82.467
82.491
82.516
82.540
82.565
82.589
82.614
82.638
82.663
82.687
82.712
82.736
82.761
82.785
82.810
82.834
82.859
82.883
82.908
82.932
82.957
82.981
83.006
82.981
82.957
82.932
82.908
82.883
82.859
82.834
82.810
82.785
82.761
82.736
82.712
82.687
82.663
82.638
82.614
82.589
82.565
82.540
82.516
82.491
82.467
82.442
82.418
82.393
82.369
82.344
82.320
82.295
82.271
82.246
82.222
82.197
82.173
82.148
82.124
82.099
82.075
82.050
82.026
82.001
81.977
81.952
81.928
81.903
81.879
81.854
81.830
81.805
81.781
81.756
81.732
81.707
81.683
81.658
81.634
81.609
81.585
81.560
81.536
81.511
81.487
81.462
81.438
81.413
81.389
81.364
81.340
81.315
81.291
81.266
81.242
81.217
81.193
81.168
81.144
81.119
81.095
81.070
81.046
81.021
80.997
80.972
80.948
80.923
80.899
80.874
80.850
80.825
80.801
80.776
80.752
80.727
80.703
80.678
80.654
80.629
80.605
80.580
80.556
80.531
80.507
80.482
80.458
80.433
80.409
80.384
80.360
80.335
80.311
80.286
