2226.860
2226.005
2225.150
2224.295
2223.440
2222.585
2221.730
2220.875
2220.020
2219.165
2218.310
2217.455
2216.600
2215.745
2214.890
2214.035
2213.180
2212.325
2211.470
2210.615
2209.760
2208.905
2208.050
2207.195
2206.340
2205.485
2204.630
2203.775
2202.920
2202.065
2201.210
2200.355
2199.500
2198.645
2197.790
2196.935
2196.080
2195.225
2194.370
2193.515
2192.660
2191.805
2190.950
2190.095
2189.240
2188.385
2187.530
2186.675
2185.820
2184.965
2184.110
2183.255
2182.400
2181.545
2180.690
2179.835
2178.980
2178.125
2177.270
2176.415
2175.560
2174.705
2173.850
2172.995
2172.140
2171.285
2170.430
2169.575
2168.720
2167.865
2167.010
2166.155
2165.300
2164.445
2163.590
2162.735
2161.880
2161.025
2160.170
2159.315
2158.460
2157.605
2156.750
2155.895
2155.040
2154.185
2153.330
2152.475
2151.620
2150.765
2149.910
2149.055
2148.200
2147.345
2146.490
2145.635
2144.780
2143.925
2141.701
2139.477
2137.253
2135.029
2132.805
2130.581
2128.357
2126.133
2123.909
2121.685
2119.461
2117.237
2115.013
2112.789
2110.565
2108.341
2106.117
2103.893
2101.669
2099.445
2097.221
2094.997
2092.773
2090.549
2088.325
2086.101
2083.877
2081.653
2079.429
2077.205
2074.981
2072.757
2070.533
2068.309
2066.085
2063.861
2061.637
2059.413
2057.189
2054.965
2052.741
2050.517
2048.293
2046.069
2043.845
2041.621
2039.397
2037.173
2034.949
2032.725
2030.501
2028.277
2026.053
2023.829
2021.605
2019.381
2017.157
2014.933
2012.709
2010.485
2008.261
2006.037
2003.813
2001.589
1999.365
1997.141
1994.917
1992.693
1990.469
1988.245
1986.021
1983.797
1981.573
1979.349
1977.125
1974.901
1972.677
1970.453
1968.229
1966.005
1963.781
1961.557
1959.333
1957.109
1954.885
1952.661
1950.437
1948.213
1945.989
1943.765
1941.541
1939.317
1937.093
1934.869
1932.645
1930.421
1928.197
1925.973
1923.749
1921.525
1919.301
1917.077
1914.853
1912.629
1910.405
1908.181
1905.957
1903.733
1901.509
1899.285
1897.061
1894.837
1892.613
1890.389
1888.165
1885.941
1883.717
1881.493
1879.269
1877.045
1874.821
1872.597
1870.373
1868.149
1865.925
1863.701
1861.477
1859.253
1857.029
1854.805
1852.581
1850.357
1848.133
1845.909
1843.685
1841.461
1839.237
1837.013
1834.789
1832.565
1830.341
1828.117
1825.893
1823.669
1821.445
1819.221
1816.997
1814.773
1812.549
1810.325
1808.101
1805.877
1803.653
1801.429
1799.205
1796.981
1794.757
1792.533
1790.309
1788.085
1785.861
1783.637
1781.413
1779.189
1776.965
1774.741
1772.517
1770.293
1768.069
1765.845
1763.621
1761.397
1759.173
1756.949
1754.725
1752.501
1750.277
1748.053
1745.829
1743.605
1741.381
1739.157
1736.933
1734.709
1732.485
1730.261
1728.037
1725.813
1723.589
1721.365
1719.141
1716.917
1714.693
1712.469
1710.245
1708.021
1705.797
1703.573
1701.349
1699.125
1701.446
1703.768
1706.089
1708.411
1710.732
1713.054
1715.375
1717.697
1720.018
1722.340
1724.661
1726.983
1729.304
1731.626
1733.947
1736.269
1738.590
1740.912
1743.233
1745.555
1747.876
1750.198
1752.519
1754.841
1757.162
1759.484
1761.805
1764.127
1766.448
1768.770
1771.091
1773.413
1775.734
1778.056
1780.377
1782.699
1785.020
1787.342
1789.663
1791.985
1794.306
1796.628
1798.949
1801.271
1803.592
1805.914
1808.235
1810.557
1812.878
1815.200
1817.521
1819.843
1822.164
1824.486
1826.807
1829.129
1831.450
1833.772
1836.093
1838.415
1840.736
1843.058
1845.379
1847.701
1850.022
1852.344
1854.665
1856.987
1859.308
1861.630
1863.951
1866.273
1868.594
1870.916
1873.237
1875.559
1877.880
1880.202
1882.523
1884.845
1887.166
1889.488
1891.809
1894.131
1896.452
1898.774
1901.095
1903.417
1905.738
1908.060
1910.381
1912.703
1915.024
1917.346
1919.667
1921.989
1924.310
1926.632
1928.953
1931.275
1933.596
1935.918
1938.239
1940.561
1942.882
1945.204
1947.525
1949.847
1952.168
1954.490
1956.811
1959.133
1961.454
1963.776
1966.097
1968.419
1970.740
1973.062
1975.383
1977.705
1980.026
1982.348
1984.669
1986.991
1989.312
1991.634
1993.955
1996.277
1998.598
2000.920
2003.241
2005.563
2007.884
2010.206
2012.527
2014.849
2017.170
2019.492
2021.813
2024.135
2026.456
2028.778
2031.099
2033.421
2035.742
2038.064
2040.385
2042.707
2045.028
2047.350
2049.671
2051.993
2054.314
2056.636
2058.957
2061.279
2063.600
2065.922
2068.243
2070.565
2072.886
2075.208
2077.529
2079.851
2082.172
2084.494
2086.815
2089.137
2091.458
2093.780
2096.101
2098.423
2100.744
2103.066
2105.387
2107.709
2110.030
2112.352
2114.673
2116.995
2119.316
2121.638
2123.959
2126.281
2128.602
2130.924
2133.245
2135.567
2137.888
2140.210
2142.531
2144.853
2147.174
2149.496
2151.817
2154.139
2156.460
2158.782
2161.103
2163.425
2166.846
2170.268
2173.689
2177.111
2180.532
2183.954
2187.375
2190.797
2194.218
2197.640
2201.061
2204.483
2207.904
2211.326
2214.747
2218.169
2221.590
2225.012
2228.433
2231.855
2235.276
2238.698
2242.119
2245.541
2248.962
2252.384
2255.805
2259.227
2262.648
2266.070
2269.491
2272.913
2276.334
2279.756
2283.177
2286.599
2290.020
2293.442
2296.863
2300.285
2303.706
2307.128
2310.549
2313.971
2317.392
2320.814
2324.235
2327.657
2331.078
2334.500
2337.921
2341.343
2344.764
2348.186
2351.607
2355.029
2358.450
2361.872
2365.293
2368.715
2372.136
2375.558
2378.979
2382.401
2385.822
2389.244
2392.665
2396.087
2399.508
2402.930
2406.351
2409.773
2413.194
2416.616
2420.037
2423.459
2426.880
2430.302
2433.723
2437.145
2440.566
2443.988
2447.409
2450.831
2454.252
2457.674
2461.095
2464.517
2467.938
2471.360
2474.781
2478.203
2481.624
2485.046
2488.467
2491.889
2495.310
2498.732
2502.153
2505.575
2508.996
2512.418
2515.839
2519.261
2522.682
2526.104
2529.525
2532.947
2536.368
2539.790
2543.211
2546.633
2550.054
2553.476
2556.897
2560.319
2563.740
2567.162
2570.583
2574.005
2577.426
2580.848
2584.269
2587.691
2591.112
2594.534
2597.955
2601.377
2604.798
2608.220
2611.641
2615.063
2618.484
2621.906
2625.327
2628.749
2632.170
2635.592
2639.013
2642.435
2645.856
2649.278
2652.699
2656.121
2659.542
2662.964
2666.385
2669.807
2673.228
2676.650
2680.071
2683.493
2686.914
2690.336
2693.757
2697.179
2700.600
2704.022
2707.443
2710.865
2714.286
2717.708
2721.129
2724.551
2727.972
2731.394
2734.815
2738.237
2741.658
2745.080
2748.501
2751.923
2755.344
2758.766
2762.187
2765.609
2769.030
2772.452
2775.873
2779.295
2782.716
2786.138
2789.559
2792.981
2796.402
2799.824
2803.245
2806.667
2810.088
2813.510
2816.931
2820.353
2823.774
2827.196
2830.617
2834.039
2837.460
2840.882
2844.303
2847.725
2845.012
2842.300
2839.587
2836.875
2834.162
2831.450
2828.737
2826.025
2823.312
2820.600
2817.887
2815.175
2812.462
2809.750
2807.037
2804.325
2801.612
2798.900
2796.187
2793.475
2790.762
2788.050
2785.337
2782.625
2779.912
2777.200
2774.487
2771.775
2769.062
2766.350
2763.637
2760.925
2758.212
2755.500
2752.787
2750.075
2747.362
2744.650
2741.937
2739.225
2736.512
2733.800
2731.087
2728.375
2725.662
2722.950
2720.237
2717.525
2714.812
2712.100
2709.387
2706.675
2703.962
2701.250
2698.537
2695.825
2693.112
2690.400
2687.687
2684.975
2682.262
2679.550
2676.837
2674.125
2671.412
2668.700
2665.987
2663.275
2660.562
2657.850
2655.137
2652.425
2649.712
2647.000
2644.287
2641.575
2638.862
2636.150
2633.437
2630.725
2628.012
2625.300
2622.587
2619.875
2617.162
2614.450
2611.737
2609.025
2606.312
2603.600
2600.887
2598.175
2595.462
2592.750
2590.037
2587.325
2584.612
2581.900
2579.187
2576.475
2573.762
2571.050
2568.337
2565.625
2562.912
2560.200
2557.487
2554.775
2552.062
2549.350
2546.637
2543.925
2541.212
2538.500
2535.787
2533.075
2530.362
2527.650
2524.937
2522.225
2519.512
2516.800
2514.087
2511.375
2508.662
2505.950
2503.237
2500.525
2497.812
2495.100
2492.387
2489.675
2486.962
2484.250
2481.537
2478.825
2476.112
2473.400
2470.687
2467.975
2465.262
2462.550
2459.837
2457.125
2454.412
2451.700
2448.987
2446.275
2443.562
2440.850
2438.137
2435.425
2432.712
2430.000
2427.287
2424.575
2421.862
2419.150
2416.437
2413.725
2411.012
2408.300
2405.587
2402.875
2400.162
2397.450
2394.737
2392.025
2389.312
2386.600
2383.887
2381.175
2378.462
2375.750
2373.037
2370.325
2367.612
2364.900
2362.187
2359.475
2356.762
2354.050
2351.337
2348.625
2345.912
2343.200
2340.487
2337.775
2335.062
2332.350
2329.637
2326.925
2324.212
2321.500
2318.787
2316.075
2313.362
2310.650
2307.937
2305.225
2297.429
2289.633
2281.837
2274.041
2266.245
2258.449
2250.653
2242.857
2235.061
2227.265
2219.469
2211.673
2203.877
2196.081
2188.285
2180.489
2172.693
2164.897
2157.101
2149.305
2141.509
2133.713
2125.917
2118.121
2110.325
2102.529
2094.733
2086.937
2079.141
2071.345
2063.549
2055.753
2047.957
2040.161
2032.365
2024.569
2016.773
2008.977
2001.181
1993.385
1985.589
1977.793
1969.997
1962.201
1954.405
1946.609
1938.813
1931.017
1923.221
1915.425
1907.629
1899.833
1892.037
1884.241
1876.445
1868.649
1860.853
1853.057
1845.261
1837.465
1829.669
1821.873
1814.077
1806.281
1798.485
1790.689
1782.893
1775.097
1767.301
1759.505
1751.709
1743.913
1736.117
1728.321
1720.525
1712.729
1704.933
1697.137
1689.341
1681.545
1673.749
1665.953
1658.157
1650.361
1642.565
1634.769
1626.973
1619.177
1611.381
1603.585
1595.789
1587.993
1580.197
1572.401
1564.605
1556.809
1549.013
1541.217
1533.421
1525.625
1517.829
1510.033
1502.237
1494.441
1486.645
1478.849
1471.053
1463.257
1455.461
1447.665
1439.869
1432.073
1424.277
1416.481
1408.685
1400.889
1393.093
1385.297
1377.501
1369.705
1361.909
1354.113
1346.317
1338.521
1330.725
1322.929
1315.133
1307.337
1299.541
1291.745
1283.949
1276.153
1268.357
1260.561
1252.765
1244.969
1237.173
1229.377
1221.581
1213.785
1205.989
1198.193
1190.397
1182.601
1174.805
1167.009
1159.213
1151.417
1143.621
1135.825
1128.029
1120.233
1112.437
1104.641
1096.845
1089.049
1081.253
1073.457
1065.661
1057.865
1050.069
1042.273
1034.477
1026.681
1018.885
1011.089
1003.293
995.497
987.701
979.905
972.109
964.313
956.517
948.721
940.925
933.129
925.333
917.537
909.741
901.945
894.149
886.353
878.557
870.761
862.965
855.169
847.373
839.577
831.781
823.985
816.189
808.393
800.597
792.801
785.005
777.209
769.413
761.617
753.821
96.025
96.025
96.025
96.025
96.025
96.025
96.025
96.025
96.025
96.025
96.025
96.025
96.025
96.025
96.025
96.025
96.025
96.025
96.025
96.025
96.025
96.025
96.025
96.025
96.025
96.025
96.025
96.025
96.025
96.025
96.025
96.025
96.025
96.025
96.025
96.025
96.025
96.025
96.025
96.025
96.025
96.025
96.025
96.025
96.025
96.025
96.025
96.025
96.025
96.025
96.025
96.025
96.025
96.025
96.025
96.025
96.025
96.025
96.025
96.025
96.025
96.025
96.025
96.025
96.025
96.025
96.025
96.025
96.025
96.025
96.025
96.025
96.025
96.025
96.025
96.025
96.025
96.025
96.025
96.025
96.025
96.025
96.025
96.025
96.025
96.025
96.025
96.025
96.025
96.025
96.025
96.025
96.025
96.025
96.025
96.025
96.025
96.025
96.025
96.025
96.025
96.025
96.025
96.025
96.025
96.025
96.025
96.025
96.025
96.025
96.025
96.025
96.025
96.025
96.025
96.025
96.025
96.025
96.025
96.025
96.025
96.025
96.025
96.025
96.025
96.025
96.025
96.025
96.025
96.025
96.025
96.025
96.025
96.025
96.025
96.025
96.025
96.025
96.025
96.025
96.025
96.025
96.025
96.025
96.025
96.025
96.025
96.025
96.025
96.025
96.025
96.025
96.025
96.025
96.025
96.025
96.025
96.025
96.025
96.025
96.025
96.025
96.025
96.025
96.025
96.025
96.025
96.025
96.025
96.025
96.025
96.025
96.025
96.025
96.025
96.025
96.025
96.025
96.025
96.025
96.025
96.025
96.025
96.025
96.025
96.025
96.025
96.025
96.025
96.025
96.025
96.025
96.025
96.025
96.025
96.025
96.025
96.025
96.025
96.025
96.025
96.025
96.025
96.025
96.025
96.025
96.025
96.025
96.025
96.025
96.025
96.025
96.025
96.025
96.025
96.025
96.025
96.025
96.025
96.025
96.025
96.025
96.025
96.025
96.025
96.025
96.025
96.025
96.025
96.025
96.025
96.025
96.025
96.025
96.025
96.025
96.025
96.025
96.025
96.025
96.025
96.025
96.025
96.025
96.025
96.025
96.025
96.025
96.025
96.025
96.025
96.025
96.025
96.025
96.025
96.025
96.025
96.025
96.025
96.025
96.025
96.025
96.025
96.025
96.025
96.025
96.025
96.025
96.025
96.025
96.025
96.025
96.025
96.025
96.025
96.025
96.025
96.025
96.025
96.025
96.025
96.025
96.025
96.025
96.025
96.025
96.025
96.025
96.025
96.025
96.025
96.025
96.025
96.025
96.025
96.025
96.025
96.025
96.025
96.025
96.025
96.025
96.025
96.025
96.025
96.025
96.025
96.025
96.025
96.025
96.025
96.025
96.025
96.025
96.025
96.025
96.025
96.025
96.025
96.025
96.025
96.025
96.025
96.025
96.025
96.025
96.025
96.025
96.025
96.025
96.025
96.025
96.025
96.025
96.025
96.025
96.025
96.025
96.025
96.025
96.025
96.025
96.025
96.025
96.025
96.025
96.025
96.025
96.025
96.025
96.025
96.025
96.025
96.025
96.025
96.025
96.025
96.025
96.025
96.025
96.025
96.025
96.025
96.025
96.025
96.025
96.025
96.025
96.025
96.025
96.025
96.025
96.025
96.025
96.025
96.025
96.025
96.025
96.025
96.025
96.025
96.025
96.025
96.025
96.025
96.025
96.025
96.025
96.025
96.025
96.025
96.025
96.025
96.025
96.025
96.025
96.025
96.025
96.025
96.025
96.025
96.025
96.025
96.025
96.025
96.025
96.025
96.025
96.025
96.025
96.025
96.025
96.025
96.025
96.025
96.025
96.025
96.025
96.025
96.025
96.025
96.025
96.025
96.025
96.025
96.025
96.025
96.025
96.025
96.025
96.025
96.025
96.025
96.025
96.025
96.025
96.025
96.025
96.025
96.025
96.025
96.025
96.025
96.025
96.025
96.025
96.025
96.025
96.025
96.025
96.025
96.025
96.025
96.025
96.025
96.025
96.025
96.025
96.025
96.025
96.025
96.025
96.025
96.025
96.025
96.025
96.025
96.025
96.025
96.025
96.025
96.025
96.025
96.025
96.025
96.025
96.025
96.025
96.025
96.025
96.025
96.025
96.025
96.025
96.025
96.025
96.025
96.025
96.025
96.025
96.025
96.025
96.025
96.025
96.025
96.025
96.025
96.025
96.025
96.025
96.025
96.025
96.025
96.025
96.025
96.025
96.025
96.025
96.025
96.025
96.025
96.025
96.025
96.025
96.025
96.025
96.025
96.025
96.025
96.025
96.025
96.025
96.025
96.025
96.025
96.025
96.025
96.025
96.025
96.025
96.025
96.025
96.025
96.025
96.025
96.025
96.025
96.025
96.025
96.025
96.025
96.025
96.025
96.025
96.025
96.025
96.025
96.025
96.025
96.025
96.025
96.025
96.025
96.025
96.025
96.025
96.025
96.025
96.025
96.025
96.025
96.025
96.025
96.025
96.025
96.025
96.025
96.025
96.025
96.025
96.025
96.025
96.025
96.025
96.025
96.025
96.025
96.025
96.025
96.025
96.025
96.025
96.025
96.025
96.025
96.025
96.025
96.025
96.025
96.025
96.025
96.025
96.025
96.025
96.025
96.025
96.025
96.025
96.025
96.025
96.025
96.025
96.025
96.025
96.025
96.025
96.025
96.025
96.025
96.025
96.025
96.025
96.025
96.025
96.025
96.025
96.025
96.025
96.025
96.025
96.025
96.025
96.025
96.025
96.025
96.025
96.025
96.025
96.025
96.025
96.025
96.025
96.025
96.025
96.025
96.025
96.025
96.025
96.025
96.025
96.025
96.025
96.025
96.025
96.025
96.025
96.025
96.025
96.025
96.025
96.025
96.025
96.025
96.025
96.025
96.025
96.025
96.025
96.025
96.025
96.025
96.025
96.025
96.025
96.025
96.025
96.025
96.025
96.025
96.025
96.025
96.025
96.025
96.025
96.025
96.025
96.025
96.025
96.025
96.025
96.025
96.025
96.025
96.025
96.025
96.025
96.025
96.025
96.025
96.025
96.025
96.025
96.025
96.025
96.025
96.025
96.025
96.025
96.025
96.025
96.025
96.025
96.025
96.025
96.025
96.025
96.025
96.025
96.025
96.025
96.025
96.025
96.025
96.025
96.025
96.025
96.025
96.025
96.025
96.025
96.025
96.025
96.025
96.025
96.025
96.025
96.025
96.025
96.025
96.025
96.025
96.025
96.025
96.025
96.025
96.025
96.025
96.025
96.025
96.025
96.025
96.025
96.025
96.025
96.025
96.025
96.025
96.025
96.025
96.025
96.025
96.025
96.025
96.025
96.025
96.025
96.025
96.025
96.025
96.025
96.025
96.025
96.025
96.025
96.025
96.025
96.025
96.025
96.025
96.025
96.025
96.025
96.025
96.025
96.025
96.025
96.025
96.025
96.025
96.025
96.025
96.025
96.025
96.025
96.025
96.025
96.025
96.025
96.025
96.025
96.025
96.025
96.025
96.025
96.025
96.025
96.025
96.025
96.025
96.025
96.025
96.025
96.025
96.025
96.025
96.025
96.025
96.025
96.025
96.025
96.025
96.025
96.025
96.025
96.025
96.025
96.025
96.025
96.025
96.025
96.025
96.025
96.025
96.025
96.025
96.025
96.025
96.025
96.025
96.025
96.025
96.025
96.025
96.025
96.025
96.025
96.025
96.025
96.025
96.025
96.025
96.025
96.025
96.025
96.025
96.025
96.025
96.025
96.025
96.025
96.025
96.025
96.025
96.025
96.025
96.025
96.025
96.025
96.025
96.025
96.025
96.025
96.025
96.025
96.025
96.025
96.025
96.025
96.025
96.025
96.025
96.025
96.025
96.025
96.025
96.025
96.025
96.025
96.025
96.025
96.025
96.025
96.025
96.025
96.025
96.025
96.025
96.025
96.025
96.025
96.025
96.025
96.025
96.025
96.025
96.025
96.025
96.025
96.025
96.025
96.025
96.025
96.025
