1626.321
1628.349
1630.377
1632.405
1634.433
1636.461
1638.489
1640.517
1642.545
1644.573
1646.601
1648.629
1650.657
1652.685
1654.713
1656.741
1658.769
1660.797
1662.825
1664.853
1666.881
1668.909
1670.937
1672.965
1674.993
1677.021
1679.049
1681.077
1683.105
1685.133
1687.161
1689.189
1691.217
1693.245
1695.273
1697.301
1699.329
1701.357
1703.385
1705.413
1707.441
1709.469
1711.497
1713.525
1715.553
1717.581
1719.609
1721.637
1723.665
1725.693
1727.721
1729.749
1731.777
1733.805
1735.833
1737.861
1739.889
1741.917
1743.945
1745.973
1748.001
1750.029
1752.057
1754.085
1756.113
1758.141
1760.169
1762.197
1764.225
1766.253
1768.281
1770.309
1772.337
1774.365
1776.393
1778.421
1780.449
1782.477
1784.505
1786.533
1788.561
1790.589
1792.617
1794.645
1796.673
1798.701
1800.729
1802.757
1804.785
1806.813
1808.841
1810.869
1812.897
1814.925
1816.953
1818.981
1821.009
1823.037
1825.065
1827.093
1829.121
1831.149
1833.177
1835.205
1837.233
1839.261
1841.289
1843.317
1845.345
1847.373
1849.401
1851.429
1853.457
1855.485
1857.513
1859.541
1861.569
1863.597
1865.625
1867.653
1869.681
1871.709
1873.737
1875.765
1877.793
1879.821
1881.849
1883.877
1885.905
1887.933
1889.961
1891.989
1894.017
1896.045
1898.073
1900.101
1902.129
1904.157
1906.185
1908.213
1910.241
1912.269
1914.297
1916.325
1918.353
1920.381
1922.409
1924.437
1926.465
1928.493
1930.521
1932.549
1934.577
1936.605
1936.630
1936.654
1936.679
1936.703
1936.728
1936.752
1936.777
1936.801
1936.826
1936.850
1936.875
1936.899
1936.924
1936.948
1936.973
1936.997
1937.022
1937.046
1937.071
1937.095
1937.120
1937.144
1937.169
1937.193
1937.218
1937.242
1937.267
1937.291
1937.316
1937.340
1937.365
1937.389
1937.414
1937.438
1937.463
1937.487
1937.512
1937.536
1937.561
1937.585
1937.610
1937.634
1937.659
1937.683
1937.708
1937.732
1937.757
1937.781
1937.806
1937.830
1937.855
1937.879
1937.904
1937.928
1937.953
1937.977
1938.002
1938.026
1938.051
1938.075
1938.100
1938.124
1938.149
1938.173
1938.198
1938.222
1938.247
1938.271
1938.296
1938.320
1938.345
1938.369
1938.394
1938.418
1938.443
1938.467
1938.492
1938.516
1938.541
1938.565
1938.590
1938.614
1938.639
1938.663
1938.688
1938.712
1938.737
1938.761
1938.786
1938.810
1938.835
1938.859
1938.884
1938.908
1938.933
1938.957
1938.982
1939.006
1939.031
1939.055
1939.080
1939.104
1939.129
1939.153
1939.178
1939.202
1939.227
1939.251
1939.276
1939.300
1939.325
1939.349
1939.374
1939.398
1939.423
1939.447
1939.472
1939.496
1939.521
1939.545
1939.570
1939.594
1939.619
1939.643
1939.668
1939.692
1939.717
1939.741
1939.766
1939.790
1939.815
1939.839
1939.864
1939.888
1939.913
1939.937
1939.962
1939.986
1940.011
1940.035
1940.060
1940.084
1940.109
1940.133
1940.158
1940.182
1940.207
1940.231
1940.256
1940.280
1940.305
1940.329
1940.354
1940.378
1940.403
1940.427
1940.452
1940.476
1940.501
1940.525
1940.550
1940.574
1940.599
1940.623
1940.648
1940.672
1940.697
1940.721
1940.746
1940.770
1940.795
1940.819
1940.844
1940.868
1940.893
1940.917
1940.942
1940.966
1940.991
1941.015
1941.040
1941.064
1941.089
1941.113
1941.138
1941.162
1941.187
1941.211
1941.236
1941.260
1941.285
1941.309
1941.334
1941.358
1941.383
1941.407
1941.432
1941.456
1941.481
1941.505
1942.972
1944.438
1945.905
1947.371
1948.838
1950.304
1951.771
1953.237
1954.704
1956.170
1957.637
1959.103
1960.570
1962.036
1963.503
1964.969
1966.436
1967.902
1969.369
1970.835
1972.302
1973.768
1975.235
1976.701
1978.168
1979.634
1981.101
1982.567
1984.034
1985.500
1986.967
1988.433
1989.900
1991.366
1992.833
1994.299
1995.766
1997.232
1998.699
2000.165
2001.632
2003.098
2004.565
2006.031
2007.498
2008.964
2010.431
2011.897
2013.364
2014.830
2016.297
2017.763
2019.230
2020.696
2022.163
2023.629
2025.096
2026.562
2028.029
2029.495
2030.962
2032.428
2033.895
2035.361
2036.828
2038.294
2039.761
2041.227
2042.694
2044.160
2045.627
2047.093
2048.560
2050.026
2051.493
2052.959
2054.426
2055.892
2057.359
2058.825
2060.292
2061.758
2063.225
2064.691
2066.158
2067.624
2069.091
2070.557
2072.024
2073.490
2074.957
2076.423
2077.890
2079.356
2080.823
2082.289
2083.756
2085.222
2086.689
2088.155
2089.622
2091.088
2092.555
2094.021
2095.488
2096.954
2098.421
2099.887
2101.354
2102.820
2104.287
2105.753
2107.220
2108.686
2110.153
2111.619
2113.086
2114.552
2116.019
2117.485
2118.952
2120.418
2121.885
2123.351
2124.818
2126.284
2127.751
2129.217
2130.684
2132.150
2133.617
2135.083
2136.550
2138.016
2139.483
2140.949
2142.416
2143.882
2145.349
2146.815
2148.282
2149.748
2151.215
2152.681
2154.148
2155.614
2157.081
2158.547
2160.014
2161.480
2162.947
2164.413
2165.880
2167.346
2168.813
2170.279
2171.746
2173.212
2174.679
2176.145
2177.612
2179.078
2180.545
2182.011
2183.478
2184.944
2186.411
2187.877
2189.344
2190.810
2192.277
2193.743
2195.210
2196.676
2198.143
2199.609
2201.076
2202.542
2204.009
2205.475
2206.942
2208.408
2209.875
2211.341
2212.808
2214.274
2215.741
2217.207
2218.674
2220.140
2221.607
2223.073
2224.540
2226.006
2227.473
2228.939
2230.406
2231.872
2233.339
2234.805
2234.854
2234.902
2234.951
2234.999
2235.048
2235.096
2235.145
2235.193
2235.242
2235.290
2235.339
2235.387
2235.436
2235.484
2235.533
2235.581
2235.630
2235.678
2235.727
2235.775
2235.824
2235.872
2235.921
2235.969
2236.018
2236.066
2236.115
2236.163
2236.212
2236.260
2236.309
2236.357
2236.406
2236.454
2236.503
2236.551
2236.600
2236.648
2236.697
2236.745
2236.794
2236.842
2236.891
2236.939
2236.988
2237.036
2237.085
2237.133
2237.182
2237.230
2237.279
2237.327
2237.376
2237.424
2237.473
2237.521
2237.570
2237.618
2237.667
2237.715
2237.764
2237.812
2237.861
2237.909
2237.958
2238.006
2238.055
2238.103
2238.152
2238.200
2238.249
2238.297
2238.346
2238.394
2238.443
2238.491
2238.540
2238.588
2238.637
2238.685
2238.734
2238.782
2238.831
2238.879
2238.928
2238.976
2239.025
2239.073
2239.122
2239.170
2239.219
2239.267
2239.316
2239.364
2239.413
2239.461
2239.510
2239.558
2239.607
2239.655
2239.704
2239.752
2239.801
2239.849
2239.898
2239.946
2239.995
2240.043
2240.092
2240.140
2240.189
2240.237
2240.286
2240.334
2240.383
2240.431
2240.480
2240.528
2240.577
2240.625
2240.674
2240.722
2240.771
2240.819
2240.868
2240.916
2240.965
2241.013
2241.062
2241.110
2241.159
2241.207
2241.256
2241.304
2241.353
2241.401
2241.450
2241.498
2241.547
2241.595
2241.644
2241.692
2241.741
2241.789
2241.838
2241.886
2241.935
2241.983
2242.032
2242.080
2242.129
2242.177
2242.226
2242.274
2242.323
2242.371
2242.420
2242.468
2242.517
2242.565
2242.614
2242.662
2242.711
2242.759
2242.808
2242.856
2242.905
2242.953
2243.002
2243.050
2243.099
2243.147
2243.196
2243.244
2243.293
2243.341
2243.390
2243.438
2243.487
2243.535
2243.584
2243.632
2243.681
2243.729
2243.778
2243.826
2243.875
2243.923
2243.972
2244.020
2244.069
2244.117
2244.166
2244.214
2244.263
2244.311
2244.360
2244.408
2244.457
2244.505
2244.481
2244.457
2244.433
2244.409
2244.385
2244.361
2244.337
2244.313
2244.289
2244.265
2244.241
2244.217
2244.193
2244.169
2244.145
2244.121
2244.097
2244.073
2244.049
2244.025
2244.001
2243.977
2243.953
2243.929
2243.905
2243.881
2243.857
2243.833
2243.809
2243.785
2243.761
2243.737
2243.713
2243.689
2243.665
2243.641
2243.617
2243.593
2243.569
2243.545
2243.521
2243.497
2243.473
2243.449
2243.425
2243.401
2243.377
2243.353
2243.329
2243.305
2243.281
2243.257
2243.233
2243.209
2243.185
2243.161
2243.137
2243.113
2243.089
2243.065
2243.041
2243.017
2242.993
2242.969
2242.945
2242.921
2242.897
2242.873
2242.849
2242.825
2242.801
2242.777
2242.753
2242.729
2242.705
2242.681
2242.657
2242.633
2242.609
2242.585
2242.561
2242.537
2242.513
2242.489
2242.465
2242.441
2242.417
2242.393
2242.369
2242.345
2242.321
2242.297
2242.273
2242.249
2242.225
2242.201
2242.177
2242.153
2242.129
2242.105
2242.081
2242.057
2242.033
2242.009
2241.985
2241.961
2241.937
2241.913
2241.889
2241.865
2241.841
2241.817
2241.793
2241.769
2241.745
2241.721
2241.697
2241.673
2241.649
2241.625
2241.601
2241.577
2241.553
2241.529
2241.505
2241.481
2241.457
2241.433
2241.409
2241.385
2241.361
2241.337
2241.313
2241.289
2241.265
2241.241
2241.217
2241.193
2241.169
2241.145
2241.121
2241.097
2241.073
2241.049
2241.025
2241.001
2240.977
2240.953
2240.929
2240.905
2240.881
2240.857
2240.833
2240.809
2240.785
2240.761
2240.737
2240.713
2240.689
2240.665
2240.641
2240.617
2240.593
2240.569
2240.545
2240.521
2240.497
2240.473
2240.449
2240.425
2240.401
2240.377
2240.353
2240.329
2240.305
2240.281
2240.257
2240.233
2240.209
2240.185
2240.161
2240.137
2240.113
2240.089
2240.065
2240.041
2240.017
2239.993
2239.969
2239.945
2239.921
2239.897
2239.873
2239.849
2239.825
2239.801
2239.777
2239.753
2239.729
2239.705
2240.389
2241.073
2241.757
2242.441
2243.125
2243.809
2244.493
2245.177
2245.861
2246.545
2247.229
2247.913
2248.597
2249.281
2249.965
2250.649
2251.333
2252.017
2252.701
2253.385
2254.069
2254.753
2255.437
2256.121
2256.805
2257.489
2258.173
2258.857
2259.541
2260.225
2260.909
2261.593
2262.277
2262.961
2263.645
2264.329
2265.013
2265.697
2266.381
2267.065
2267.749
2268.433
2269.117
2269.801
2270.485
2271.169
2271.853
2272.537
2273.221
2273.905
2274.589
2275.273
2275.957
2276.641
2277.325
2278.009
2278.693
2279.377
2280.061
2280.745
2281.429
2282.113
2282.797
2283.481
2284.165
2284.849
2285.533
2286.217
2286.901
2287.585
2288.269
2288.953
2289.637
2290.321
2291.005
2291.689
2292.373
2293.057
2293.741
2294.425
2295.109
2295.793
2296.477
2297.161
2297.845
2298.529
2299.213
2299.897
2300.581
2301.265
2301.949
2302.633
2303.317
2304.001
2304.685
2305.369
2306.053
2306.737
2307.421
2308.105
2308.789
2309.473
2310.157
2310.841
2311.525
2312.209
2312.893
2313.577
2314.261
2314.945
2315.629
2316.313
2316.997
2317.681
2318.365
2319.049
2319.733
2320.417
2321.101
2321.785
2322.469
2323.153
2323.837
2324.521
2325.205
2325.889
2326.573
2327.257
2327.941
2328.625
2329.309
2329.993
2330.677
2331.361
2332.045
2332.729
2333.413
2334.097
2334.781
2335.465
2336.149
2336.833
2337.517
2338.201
2338.885
2339.569
2340.253
2340.937
2341.621
2342.305
2342.989
2343.673
2344.357
2345.041
2345.725
2346.409
2347.093
2347.777
2348.461
2349.145
2349.829
2350.513
2351.197
2351.881
2352.565
2353.249
2353.933
2354.617
2355.301
2355.985
2356.669
2357.353
2358.037
2358.721
2359.405
2360.089
2360.773
2361.457
2362.141
2362.825
2363.509
2364.193
2364.877
2365.561
2366.245
2366.929
2367.613
2368.297
2368.981
2369.665
2370.349
2371.033
2371.717
2372.401
2373.085
2373.769
2374.453
2375.137
2375.821
2376.505
2375.112
2373.719
2372.326
2370.933
2369.540
2368.147
2366.754
2365.361
2363.968
2362.575
2361.182
2359.789
2358.396
2357.003
2355.610
2354.217
2352.824
2351.431
2350.038
2348.645
2347.252
2345.859
2344.466
2343.073
2341.680
2340.287
2338.894
2337.501
2336.108
2334.715
2333.322
2331.929
2330.536
2329.143
2327.750
2326.357
2324.964
2323.571
2322.178
2320.785
2319.392
2317.999
2316.606
2315.213
2313.820
2312.427
2311.034
2309.641
2308.248
2306.855
2305.462
2304.069
2302.676
2301.283
2299.890
2298.497
2297.104
2295.711
2294.318
2292.925
2291.532
2290.139
2288.746
2287.353
2285.960
2284.567
2283.174
2281.781
2280.388
2278.995
2277.602
2276.209
2274.816
2273.423
2272.030
2270.637
2269.244
2267.851
2266.458
2265.065
2263.672
2262.279
2260.886
2259.493
2258.100
2256.707
2255.314
2253.921
2252.528
2251.135
2249.742
2248.349
2246.956
2245.563
2244.170
2242.777
2241.384
2239.991
2238.598
2237.205
2235.812
2234.419
2233.026
2231.633
2230.240
2228.847
2227.454
2226.061
2224.668
2223.275
2221.882
2220.489
2219.096
2217.703
2216.310
2214.917
2213.524
2212.131
2210.738
2209.345
2207.952
2206.559
2205.166
2203.773
2202.380
2200.987
2199.594
2198.201
2196.808
2195.415
2194.022
2192.629
2191.236
2189.843
2188.450
2187.057
2185.664
2184.271
2182.878
2181.485
2180.092
2178.699
2177.306
2175.913
2174.520
2173.127
2171.734
2170.341
2168.948
2167.555
2166.162
2164.769
2163.376
2161.983
2160.590
2159.197
2157.804
2156.411
2155.018
2153.625
2152.232
2150.839
2149.446
2148.053
2146.660
2145.267
2143.874
2142.481
2141.088
2139.695
2138.302
2136.909
2135.516
2134.123
2132.730
2131.337
2129.944
2128.551
2127.158
2125.765
2124.372
2122.979
2121.586
2120.193
2118.800
2117.407
2116.014
2114.621
2113.228
2111.835
2110.442
2109.049
2107.656
2106.263
2104.870
2103.477
2102.084
2100.691
2099.298
2097.905
2097.612
2097.319
2097.026
2096.733
2096.440
2096.147
2095.854
2095.561
2095.268
2094.975
2094.682
2094.389
2094.096
2093.803
2093.510
2093.217
2092.924
2092.631
2092.338
2092.045
2091.752
2091.459
2091.166
2090.873
2090.580
2090.287
2089.994
2089.701
2089.408
2089.115
2088.822
2088.529
2088.236
2087.943
2087.650
2087.357
2087.064
2086.771
2086.478
2086.185
2085.892
2085.599
2085.306
2085.013
2084.720
2084.427
2084.134
2083.841
2083.548
2083.255
2082.962
2082.669
2082.376
2082.083
2081.790
2081.497
2081.204
2080.911
2080.618
2080.325
2080.032
2079.739
2079.446
2079.153
2078.860
2078.567
2078.274
2077.981
2077.688
2077.395
2077.102
2076.809
2076.516
2076.223
2075.930
2075.637
2075.344
2075.051
2074.758
2074.465
2074.172
2073.879
2073.586
2073.293
2073.000
2072.707
2072.414
2072.121
2071.828
2071.535
2071.242
2070.949
2070.656
2070.363
2070.070
2069.777
2069.484
2069.191
2068.898
2068.605
2068.312
2068.019
2067.726
2067.433
2067.140
2066.847
2066.554
2066.261
2065.968
2065.675
2065.382
2065.089
2064.796
2064.503
2064.210
2063.917
2063.624
2063.331
2063.038
2062.745
2062.452
2062.159
2061.866
2061.573
2061.280
2060.987
2060.694
2060.401
2060.108
2059.815
2059.522
2059.229
2058.936
2058.643
2058.350
2058.057
2057.764
2057.471
2057.178
2056.885
2056.592
2056.299
2056.006
2055.713
2055.420
2055.127
2054.834
2054.541
2054.248
2053.955
2053.662
2053.369
2053.076
2052.783
2052.490
2052.197
2051.904
2051.611
2051.318
2051.025
2050.732
2050.439
2050.146
2049.853
2049.560
2049.267
2048.974
2048.681
2048.388
2048.095
2047.802
2047.509
2047.216
2046.923
2046.630
2046.337
2046.044
2045.751
2045.458
2045.165
2044.872
2044.579
2044.286
2043.993
2043.700
2043.407
2043.114
2042.821
2042.528
2042.235
2041.942
2041.649
2041.356
2041.063
2040.770
2040.477
2040.184
2039.891
2039.598
2039.305
2031.632
2023.958
2016.285
2008.611
2000.938
1993.264
1985.591
1977.917
1970.244
1962.570
1954.897
1947.223
1939.550
1931.876
1924.203
1916.529
1908.856
1901.182
1893.509
1885.835
1878.162
1870.488
1862.815
1855.141
1847.468
1839.794
1832.121
1824.447
1816.774
1809.100
1801.427
1793.753
1786.080
1778.406
1770.733
1763.059
1755.386
1747.712
1740.039
1732.365
1724.692
1717.018
1709.345
1701.671
1693.998
1686.324
1678.651
1670.977
1663.304
1655.630
1647.957
1640.283
1632.610
1624.936
1617.263
1609.589
1601.916
1594.242
1586.569
1578.895
1571.222
1563.548
1555.875
1548.201
1540.528
1532.854
1525.181
1517.507
1509.834
1502.160
1494.487
1486.813
1479.140
1471.466
1463.793
1456.119
1448.446
1440.772
1433.099
1425.425
1417.752
1410.078
1402.405
1394.731
1387.058
1379.384
1371.711
1364.037
1356.364
1348.690
1341.017
1333.343
1325.670
1317.996
1310.323
1302.649
1294.976
1287.302
1279.629
1271.955
1264.282
1256.608
1248.935
1241.261
1233.588
1225.914
1218.241
1210.567
1202.894
1195.220
1187.547
1179.873
1172.200
1164.526
1156.853
1149.179
1141.506
1133.832
1126.159
1118.485
1110.812
1103.138
1095.465
1087.791
1080.118
1072.444
1064.771
1057.097
1049.424
1041.750
1034.077
1026.403
1018.730
1011.056
1003.383
995.709
988.036
980.362
972.689
965.015
957.342
949.668
941.995
934.321
926.648
918.974
911.301
903.627
895.954
888.280
880.607
872.933
865.260
857.586
849.913
842.239
834.566
826.892
819.219
811.545
803.872
796.198
788.525
780.851
773.178
765.504
757.831
750.157
742.484
734.810
727.137
719.463
711.790
704.116
696.443
688.769
681.096
673.422
665.749
658.075
650.402
642.728
635.055
627.381
619.708
612.034
604.361
596.687
589.014
581.340
573.667
565.993
558.320
550.646
542.973
535.299
527.626
519.952
512.279
504.605
503.456
502.307
501.158
500.009
498.860
497.711
496.562
495.413
494.264
493.115
491.966
490.817
489.668
488.519
487.370
486.221
485.072
483.923
482.774
481.625
480.476
479.327
478.178
477.029
475.880
474.731
473.582
472.433
471.284
470.135
468.986
467.837
466.688
465.539
464.390
463.241
462.092
460.943
459.794
458.645
457.496
456.347
455.198
454.049
452.900
451.751
450.602
449.453
448.304
447.155
446.006
444.857
443.708
442.559
441.410
440.261
439.112
437.963
436.814
435.665
434.516
433.367
432.218
431.069
429.920
428.771
427.622
426.473
425.324
424.175
423.026
421.877
420.728
419.579
418.430
417.281
416.132
414.983
413.834
412.685
411.536
410.387
409.238
408.089
406.940
405.791
404.642
403.493
402.344
401.195
400.046
398.897
397.748
396.599
395.450
394.301
393.152
392.003
390.854
389.705
388.556
387.407
386.258
385.109
383.960
382.811
381.662
380.513
379.364
378.215
377.066
375.917
374.768
373.619
372.470
371.321
370.172
369.023
367.874
366.725
365.576
364.427
363.278
362.129
360.980
359.831
358.682
357.533
356.384
355.235
354.086
352.937
351.788
350.639
349.490
348.341
347.192
346.043
344.894
343.745
342.596
341.447
340.298
339.149
338.000
336.851
335.702
334.553
333.404
332.255
331.106
329.957
328.808
327.659
326.510
325.361
324.212
323.063
321.914
320.765
319.616
318.467
317.318
316.169
315.020
313.871
312.722
311.573
310.424
309.275
308.126
306.977
305.828
304.679
303.530
302.381
301.232
300.083
298.934
297.785
296.636
295.487
294.338
293.189
292.040
290.891
289.742
288.593
287.444
286.295
285.146
283.997
282.848
281.699
280.550
279.401
278.252
277.103
275.954
108.705
108.705
108.705
108.705
108.705
108.705
108.705
108.705
108.705
108.705
108.705
108.705
108.705
108.705
108.705
108.705
108.705
108.705
108.705
108.705
108.705
108.705
108.705
108.705
108.705
108.705
108.705
108.705
108.705
108.705
108.705
108.705
108.705
108.705
108.705
108.705
108.705
108.705
108.705
108.705
108.705
108.705
108.705
108.705
108.705
108.705
108.705
