1480.024
1480.342
1475.088
1469.834
1464.580
1459.326
1454.072
1448.818
1443.564
1438.310
1433.056
1427.802
1422.548
1417.294
1412.040
1406.786
1401.532
1396.278
1391.024
1385.770
1380.516
1375.262
1370.008
1364.754
1359.500
1354.246
1348.992
1343.738
1338.484
1333.230
1327.976
1322.722
1317.468
1312.214
1306.960
1301.706
1296.452
1291.198
1285.944
1280.690
1275.436
1270.182
1264.928
1259.674
1254.420
1249.166
1243.912
1238.658
1233.404
1228.150
1222.896
1217.642
1212.388
1207.134
1201.880
1196.626
1191.372
1186.118
1180.864
1175.610
1170.356
1165.102
1159.848
1154.594
1149.340
1144.086
1138.832
1133.578
1128.324
1123.070
1117.816
1112.562
1107.308
1102.054
1096.800
1091.546
1086.292
1081.038
1075.784
1070.530
1065.276
1060.022
1054.768
1049.514
1044.260
1039.006
1033.752
1028.498
1023.244
1017.990
1012.736
1007.482
1002.228
996.974
991.720
986.466
981.212
975.958
970.704
965.450
960.196
954.942
949.688
944.434
939.180
933.926
928.672
923.418
918.164
912.910
907.656
902.402
897.148
891.894
886.640
881.386
876.132
870.878
865.624
860.370
855.116
849.862
844.608
839.354
834.100
828.846
823.592
818.338
813.084
807.830
802.576
797.322
792.068
786.814
781.560
776.306
771.052
765.798
760.544
755.290
750.036
744.782
739.528
734.274
729.020
723.766
718.512
713.258
708.004
702.750
697.496
692.242
686.988
681.734
676.480
671.226
665.972
660.718
655.464
650.210
644.956
639.702
634.448
629.194
623.940
618.686
613.432
608.178
602.924
597.670
592.416
587.162
581.908
576.654
571.400
566.146
560.892
555.638
550.384
545.130
539.876
534.622
529.368
524.114
518.860
513.606
508.352
503.098
497.844
492.590
487.336
482.082
476.828
471.574
466.320
461.066
455.812
450.558
445.304
440.050
434.796
429.542
428.222
426.903
425.583
424.264
422.944
421.625
420.305
418.986
417.666
416.347
415.027
413.708
412.388
411.069
409.749
408.430
407.110
405.791
404.471
403.152
401.832
400.513
399.193
397.874
396.554
395.235
393.915
392.596
391.276
389.957
388.637
387.318
385.998
384.679
383.359
382.040
380.720
379.401
378.081
376.762
375.442
374.123
372.803
371.484
370.164
368.845
367.525
366.206
364.886
363.567
362.247
360.928
359.608
358.289
356.969
355.650
354.330
353.011
351.691
350.372
349.052
347.733
346.413
345.094
343.774
342.455
341.135
339.816
338.496
337.177
335.857
334.538
333.218
331.899
330.579
329.260
327.940
326.621
325.301
323.982
322.662
321.343
320.023
318.704
317.384
316.065
314.745
313.426
312.106
310.787
309.467
308.148
306.828
305.509
304.189
302.870
301.550
300.231
298.911
297.592
296.272
294.953
293.633
292.314
290.994
289.675
288.355
287.036
285.716
284.397
283.077
281.758
280.438
279.119
277.799
276.480
275.160
273.841
272.521
271.202
269.882
268.563
267.243
265.924
264.604
263.285
261.965
260.646
259.326
258.007
256.687
255.368
254.048
252.729
251.409
250.090
248.770
247.451
246.131
244.812
243.492
242.173
240.853
239.534
238.214
236.895
235.575
234.256
232.936
231.617
230.297
228.978
227.658
226.339
225.019
223.700
222.380
221.061
219.741
218.422
217.102
215.783
214.463
213.144
211.824
210.505
209.185
207.866
206.546
205.227
203.907
202.588
201.268
199.949
198.629
197.310
195.990
194.671
193.351
192.032
190.712
189.393
188.073
186.754
185.434
184.115
182.795
181.476
180.156
178.837
177.517
176.198
174.878
173.559
172.239
170.920
169.600
168.281
166.961
92.242
92.193
92.145
92.096
92.048
91.999
91.951
91.902
91.854
91.805
91.757
91.708
91.660
91.611
91.563
91.514
91.466
91.417
91.369
91.320
91.272
91.223
91.175
91.126
91.078
91.029
90.981
90.932
90.884
90.835
90.787
90.738
90.690
90.641
90.593
90.544
90.496
90.447
90.399
90.350
90.302
90.253
90.205
90.156
90.108
90.059
90.011
89.962
89.914
89.865
89.817
89.768
89.720
89.671
89.623
89.574
89.526
89.477
89.429
89.380
89.332
89.283
89.235
89.186
89.138
89.089
89.041
88.992
88.944
88.895
88.847
88.798
88.750
88.701
88.653
88.604
88.556
88.507
88.459
88.410
88.362
88.313
88.265
88.216
88.168
88.119
88.071
88.022
87.974
87.925
87.877
87.828
87.780
87.731
87.683
87.634
87.586
87.537
87.489
87.440
87.392
87.343
87.295
87.246
87.198
87.149
87.101
87.052
87.004
86.955
86.907
86.858
86.810
86.761
86.713
86.664
86.616
86.567
86.519
86.470
86.422
86.373
86.325
86.276
86.228
86.179
86.131
86.082
86.034
85.985
85.937
85.888
85.840
85.791
85.743
85.694
85.646
85.597
85.549
85.500
85.452
85.403
85.355
85.306
85.258
85.209
85.161
85.112
85.064
85.015
84.967
84.918
84.870
84.821
84.773
84.724
84.676
84.627
84.579
84.530
84.482
84.433
84.385
84.336
84.288
84.239
84.191
84.142
84.094
84.045
83.997
83.948
83.900
83.851
83.803
83.754
83.706
83.657
83.609
83.560
83.512
83.463
83.415
83.366
83.318
83.269
83.221
83.172
83.124
83.075
83.027
82.978
82.930
82.881
82.833
82.784
82.736
82.687
82.639
82.590
82.542
82.517
82.493
82.468
82.444
82.419
82.395
82.370
82.346
82.321
82.297
82.272
82.248
82.223
82.199
82.174
82.150
82.125
82.101
82.076
82.052
82.027
82.003
81.978
81.954
81.929
81.905
81.880
81.856
81.831
81.807
81.782
81.758
81.733
81.709
81.684
81.660
81.635
81.611
81.586
81.562
81.537
81.513
81.488
81.464
81.439
81.415
81.390
81.366
81.341
81.317
81.292
81.268
81.243
81.219
81.194
81.170
81.145
81.121
81.096
81.072
81.047
81.023
80.998
80.974
80.949
80.925
80.900
80.876
80.851
80.827
80.802
80.778
80.753
80.729
80.704
80.680
80.655
80.631
80.606
80.582
80.557
80.533
80.508
80.484
80.459
80.435
80.410
80.386
80.361
80.337
80.312
80.288
80.263
80.239
80.214
80.190
80.165
80.141
80.116
80.092
80.067
80.043
80.018
79.994
79.969
79.945
79.920
79.896
79.871
79.847
79.822
79.798
79.773
79.749
79.724
79.700
79.675
79.651
79.626
79.602
79.577
79.553
79.528
79.504
79.479
79.455
79.430
79.406
79.381
79.357
79.332
79.308
79.283
79.259
79.234
79.210
79.185
79.161
79.136
79.112
79.087
79.063
79.038
79.014
78.989
78.965
78.940
78.916
78.891
78.867
78.842
78.818
78.793
78.769
78.744
78.720
78.695
78.671
78.646
78.622
78.597
78.573
78.548
78.524
78.499
78.475
78.450
78.426
78.401
78.377
78.352
78.328
78.303
78.279
78.254
78.230
78.205
78.181
78.156
78.132
78.107
78.083
78.058
78.034
78.009
77.985
77.960
77.936
77.911
77.887
77.862
77.838
77.813
77.789
77.764
77.740
77.715
77.691
77.666
77.642
77.666
77.691
77.715
77.740
77.764
77.789
77.813
77.838
77.862
77.887
77.911
77.936
77.960
77.985
78.009
78.034
78.058
78.083
78.107
78.132
78.156
78.181
78.205
78.230
78.254
78.279
78.303
78.328
78.352
78.377
78.401
78.426
78.450
78.475
78.499
78.524
78.548
78.573
78.597
78.622
78.646
78.671
78.695
78.720
78.744
78.769
78.793
78.818
78.842
78.867
78.891
78.916
78.940
78.965
78.989
79.014
79.038
79.063
79.087
79.112
79.136
79.161
79.185
79.210
79.234
79.259
79.283
79.308
79.332
79.357
79.381
79.406
79.430
79.455
79.479
79.504
79.528
79.553
79.577
79.602
79.626
79.651
79.675
79.700
79.724
79.749
79.773
79.798
79.822
79.847
79.871
79.896
79.920
79.945
79.969
79.994
80.018
80.043
80.067
80.092
80.116
80.141
80.165
80.190
80.214
80.239
80.263
80.288
80.312
80.337
80.361
80.386
80.410
80.435
80.459
80.484
80.508
80.533
80.557
80.582
80.606
80.631
80.655
80.680
80.704
80.729
80.753
80.778
80.802
80.827
80.851
80.876
80.900
80.925
80.949
80.974
80.998
81.023
81.047
81.072
81.096
81.121
81.145
81.170
81.194
81.219
81.243
81.268
81.292
81.317
81.341
81.366
81.390
81.415
81.439
81.464
81.488
81.513
81.537
81.562
81.586
81.611
81.635
81.660
81.684
81.709
81.733
81.758
81.782
81.807
81.831
81.856
81.880
81.905
81.929
81.954
81.978
82.003
82.027
82.052
82.076
82.101
82.125
82.150
82.174
82.199
82.223
82.248
82.272
82.297
82.321
82.346
82.370
82.395
82.419
82.444
82.468
82.493
82.517
82.542
82.542
82.542
82.542
82.542
82.542
82.542
82.542
82.542
82.542
82.542
82.542
82.542
82.542
82.542
82.542
82.542
82.542
82.542
82.542
82.542
82.542
82.542
82.542
82.542
82.542
82.542
82.542
82.542
82.542
82.542
82.542
82.542
82.542
82.542
82.542
82.542
82.542
82.542
82.542
82.542
82.542
82.542
82.542
82.542
82.542
82.542
82.542
82.542
82.542
82.542
82.542
82.542
82.542
82.542
82.542
82.542
82.542
82.542
82.542
82.542
82.542
82.542
82.542
82.542
82.542
82.542
82.542
82.542
82.542
82.542
82.542
82.542
82.542
82.542
82.542
82.542
82.542
82.542
82.542
82.542
82.542
82.542
82.542
82.542
82.542
82.542
82.542
82.542
82.542
82.542
82.542
82.542
82.542
82.542
82.542
82.542
82.542
82.542
82.542
82.542
82.542
82.542
82.542
82.542
82.542
82.542
82.542
82.542
82.542
82.542
82.542
82.542
82.542
82.542
82.542
82.542
82.542
82.542
82.542
82.542
82.542
82.542
82.542
82.542
82.542
82.542
82.542
82.542
82.542
82.542
82.542
82.542
82.542
82.542
82.542
82.542
82.542
82.542
82.542
82.542
82.542
82.542
82.542
82.542
82.542
82.542
82.542
82.542
82.542
82.542
82.542
82.542
82.542
82.542
82.542
82.542
82.542
82.542
82.542
82.542
82.542
82.542
82.542
82.542
82.542
82.542
82.542
82.542
82.542
82.542
82.542
82.542
82.542
82.542
82.542
82.542
82.542
82.542
82.542
82.542
82.542
82.542
82.542
82.542
82.542
82.542
82.542
82.542
82.542
82.542
82.542
82.542
82.542
82.542
82.542
82.542
82.542
82.542
82.542
82.542
82.542
82.542
82.542
82.542
82.542
82.542
82.542
82.542
82.542
82.542
82.542
82.542
82.542
82.542
82.542
82.542
82.542
82.542
82.542
82.542
82.542
82.542
82.542
82.542
82.542
82.542
82.542
82.542
82.542
82.542
82.542
82.542
82.542
82.542
82.542
82.542
82.542
82.542
82.542
82.542
82.542
82.542
82.542
82.542
82.542
82.542
82.542
82.542
82.542
82.542
82.542
82.542
82.542
82.542
82.542
82.542
82.542
82.542
82.542
82.542
82.542
82.542
82.542
82.542
82.542
82.542
82.542
82.542
82.542
82.542
82.542
82.542
82.542
82.542
82.542
82.542
82.542
82.542
82.542
82.542
82.542
82.542
82.542
82.542
82.542
82.542
82.542
82.542
82.542
82.542
82.542
82.542
82.542
82.542
82.542
82.542
82.542
82.542
82.542
82.542
82.542
82.542
82.542
82.542
82.542
82.542
82.542
82.542
82.542
82.542
82.542
82.542
82.542
82.542
82.542
82.542
82.542
82.542
82.542
82.542
82.542
82.542
82.542
82.542
82.542
82.542
82.542
82.542
82.542
82.542
82.542
82.542
82.542
82.542
82.542
82.542
82.542
82.542
82.542
82.542
82.542
82.542
82.542
82.542
82.542
82.542
82.542
82.542
82.542
82.542
82.542
82.542
82.542
82.542
82.542
82.542
82.542
82.542
82.542
82.542
82.542
82.542
82.542
82.542
82.542
82.542
82.542
82.542
82.542
82.542
82.542
82.542
82.542
82.542
82.542
82.542
82.542
82.542
82.542
82.542
82.542
82.542
82.542
82.542
82.542
82.542
82.542
82.542
82.542
82.542
82.542
82.542
82.542
82.542
82.542
82.542
82.542
82.542
82.542
82.542
82.542
82.542
82.542
82.542
82.542
82.542
82.542
82.542
82.542
82.542
82.542
82.542
82.542
82.542
82.542
82.542
82.542
82.542
82.542
82.542
82.542
82.542
82.542
82.542
82.542
82.542
82.542
82.542
82.542
82.542
82.542
82.542
82.542
82.542
82.542
82.542
82.542
82.542
82.542
82.542
82.542
82.542
82.542
82.542
82.542
82.542
82.542
82.542
82.542
82.542
82.542
82.542
82.542
82.542
82.542
82.542
82.542
82.542
82.542
82.542
82.542
82.542
82.542
82.542
82.542
82.542
82.542
82.542
82.542
82.542
82.542
82.542
82.542
82.542
82.542
82.542
82.542
82.542
82.542
82.542
82.542
82.542
82.542
82.542
82.542
82.542
82.542
82.542
82.542
82.542
82.542
82.542
82.542
82.542
82.542
82.542
82.542
82.542
82.542
82.542
82.542
82.542
82.542
82.542
82.542
82.542
82.542
82.542
82.542
82.542
82.542
82.542
82.542
82.542
82.542
82.542
82.542
82.542
82.542
82.542
82.542
82.542
82.542
82.542
82.542
82.542
82.542
82.542
82.542
82.542
82.542
82.542
82.542
82.542
82.542
82.542
82.542
82.542
82.542
82.542
82.542
82.542
82.542
82.542
82.542
82.542
82.542
82.542
82.542
82.542
82.542
82.542
82.542
82.542
82.542
82.542
82.542
82.542
82.542
82.542
82.542
82.542
82.542
82.542
82.542
82.542
82.542
82.542
82.542
82.542
82.542
82.542
82.542
82.542
82.542
82.542
82.542
82.542
82.542
82.542
82.542
82.542
82.542
82.542
82.542
82.542
82.542
82.542
82.542
82.542
82.542
82.542
82.542
82.542
82.542
82.542
82.542
82.542
82.542
82.542
82.542
82.542
82.542
82.542
82.542
82.542
82.542
82.542
82.542
82.542
82.542
82.542
82.542
82.542
82.542
82.542
82.542
82.542
82.542
82.542
82.542
82.542
82.542
82.542
82.542
82.542
82.542
82.542
82.542
82.542
82.542
82.542
82.542
82.542
82.542
82.542
82.542
82.542
82.542
82.542
82.542
82.542
82.542
82.542
82.542
82.542
82.542
82.542
82.542
82.542
82.542
82.542
82.542
82.542
82.542
82.542
82.542
82.542
82.542
82.542
82.542
82.542
82.542
82.542
82.542
82.542
82.542
82.542
82.542
82.542
82.542
82.542
82.542
82.542
82.542
82.542
82.542
82.542
82.542
82.542
82.542
82.542
82.542
82.542
82.542
82.542
82.542
82.542
82.542
82.542
82.542
82.542
82.542
82.542
82.542
82.542
82.542
82.542
82.542
82.542
82.542
82.542
82.542
82.542
82.542
82.542
82.542
82.542
82.542
82.542
82.542
82.542
82.542
82.542
82.542
82.542
82.542
82.542
82.542
82.542
82.542
82.542
82.542
82.542
82.542
82.542
82.542
82.542
82.542
82.542
82.542
82.542
82.542
82.542
82.542
82.542
82.542
82.542
82.542
82.542
82.542
82.542
82.542
82.542
82.542
82.542
82.542
82.542
82.542
82.542
82.542
82.542
82.542
82.542
82.542
82.542
82.542
82.542
82.542
82.542
82.542
82.542
82.542
82.542
82.542
82.542
82.542
82.542
82.542
82.542
82.542
82.542
82.542
82.542
82.542
82.542
82.542
82.542
82.542
82.542
82.542
82.542
82.542
82.542
82.542
82.542
82.542
82.542
82.542
82.542
82.542
82.542
82.542
82.542
82.542
82.542
82.542
82.542
82.542
82.542
82.542
82.542
82.542
82.542
82.542
82.542
82.542
82.542
82.542
82.542
82.542
82.542
82.542
82.542
82.542
82.542
82.542
82.542
82.542
82.542
82.542
82.542
82.542
82.542
82.542
82.542
82.542
82.542
82.542
82.542
82.542
82.542
82.542
82.542
82.542
82.542
82.542
82.542
82.542
82.542
82.542
82.542
82.542
82.542
82.542
82.542
82.542
82.542
82.542
82.542
82.542
82.542
82.542
82.542
82.542
82.542
82.542
82.542
82.542
82.542
82.542
82.542
82.542
82.542
82.542
82.542
82.542
82.542
82.542
82.542
82.542
82.542
82.542
82.542
82.542
82.542
82.542
82.542
82.542
82.542
82.542
82.542
82.542
82.542
82.542
82.542
82.542
82.542
82.542
82.542
82.542
82.542
82.542
82.542
82.542
82.542
82.542
82.542
82.542
82.542
82.542
82.542
82.542
82.542
82.542
82.542
82.542
82.542
82.542
82.542
82.542
82.542
82.542
82.542
82.542
82.542
82.542
82.542
82.542
82.542
82.542
82.542
82.542
82.542
82.542
82.542
82.542
82.542
82.542
82.542
82.542
82.542
82.542
82.542
82.542
82.542
82.542
82.542
82.542
82.542
82.542
82.542
82.542
82.542
82.542
82.542
82.542
82.542
82.542
82.542
82.542
82.542
82.542
82.542
82.542
82.542
82.542
82.542
82.542
82.542
82.542
82.542
82.542
82.542
82.542
82.542
82.542
82.542
82.542
82.542
82.542
82.542
82.542
82.542
82.542
82.542
82.542
82.542
82.542
82.542
82.542
82.542
82.542
82.542
82.542
82.542
82.542
82.542
82.542
82.542
82.542
82.542
82.542
82.542
82.542
82.542
82.542
82.542
