1714.287
1713.114
1711.941
1710.768
1709.595
1708.422
1707.249
1706.076
1704.903
1703.730
1702.557
1701.384
1700.211
1699.038
1697.865
1696.692
1695.519
1694.346
1693.173
1692.000
1690.827
1689.654
1688.481
1687.308
1686.135
1684.962
1683.789
1682.616
1681.443
1680.270
1677.215
1674.161
1671.106
1668.052
1664.997
1661.943
1658.888
1655.834
1652.779
1649.725
1646.670
1643.616
1640.561
1637.507
1634.452
1631.398
1628.343
1625.289
1622.234
1619.180
1616.125
1613.071
1610.016
1606.962
1603.907
1600.853
1597.798
1594.744
1591.689
1588.635
1585.580
1582.526
1579.471
1576.417
1573.362
1570.308
1567.253
1564.199
1561.144
1558.090
1555.035
1551.981
1548.926
1545.872
1542.817
1539.763
1536.708
1533.654
1530.599
1527.545
1524.490
1521.436
1518.381
1515.327
1512.272
1509.218
1506.163
1503.109
1500.054
1497.000
1493.945
1490.891
1487.836
1484.782
1481.727
1478.673
1475.618
1472.564
1469.509
1466.455
1463.400
1460.346
1457.291
1454.237
1451.182
1448.128
1445.073
1442.019
1438.964
1435.910
1432.855
1429.801
1426.746
1423.692
1420.637
1417.583
1414.528
1411.474
1408.419
1405.365
1402.310
1399.256
1396.201
1393.147
1390.092
1387.038
1383.983
1380.929
1377.874
1374.820
1371.765
1368.711
1365.656
1362.602
1359.547
1356.493
1353.438
1350.384
1347.329
1344.275
1341.220
1338.166
1335.111
1332.057
1329.002
1325.948
1322.893
1319.839
1316.784
1313.730
1310.675
1307.621
1304.566
1301.512
1298.457
1295.403
1292.348
1289.294
1286.239
1283.185
1280.130
1277.076
1274.021
1270.967
1267.912
1264.858
1261.803
1258.749
1255.694
1252.640
1249.585
1246.531
1243.476
1240.422
1237.367
1234.313
1231.258
1228.204
1225.149
1222.095
1219.040
1215.986
1212.931
1209.877
1206.822
1203.768
1200.713
1197.659
1194.604
1191.550
1188.495
1185.441
1182.386
1179.332
1176.277
1173.223
1170.168
1167.114
1164.059
1161.005
1157.950
1154.896
1151.841
1148.787
1145.732
1142.678
1139.623
1136.569
1133.514
1130.460
1127.405
1124.351
1121.296
1118.242
1115.187
1112.133
1109.078
1106.024
1102.969
1099.915
1096.860
1093.806
1090.751
1087.697
1084.642
1081.588
1078.533
1075.479
1072.424
1069.370
1072.840
1076.310
1079.780
1083.250
1086.720
1090.190
1093.660
1097.130
1100.600
1104.070
1107.540
1111.010
1114.480
1117.950
1121.420
1124.890
1128.360
1131.830
1135.300
1138.770
1142.240
1145.710
1149.180
1152.650
1156.120
1159.590
1163.060
1166.530
1170.000
1173.470
1176.940
1180.410
1183.880
1187.350
1190.820
1194.290
1197.760
1201.230
1204.700
1208.170
1211.640
1215.110
1218.580
1222.050
1225.520
1228.990
1232.460
1235.930
1239.400
1242.870
1246.340
1249.810
1253.280
1256.750
1260.220
1263.690
1267.160
1270.630
1274.100
1277.570
1281.040
1284.510
1287.980
1291.450
1294.920
1298.390
1301.860
1305.330
1308.800
1312.270
1315.740
1319.210
1322.680
1326.150
1329.620
1333.090
1336.560
1340.030
1343.500
1346.970
1350.440
1353.910
1357.380
1360.850
1364.320
1367.790
1371.260
1374.730
1378.200
1381.670
1385.140
1388.610
1392.080
1395.550
1399.020
1402.490
1405.960
1409.430
1412.900
1416.370
1419.840
1423.310
1426.780
1430.250
1433.720
1437.190
1440.660
1444.130
1447.600
1451.070
1454.540
1458.010
1461.480
1464.950
1468.420
1471.890
1475.360
1478.830
1482.300
1485.770
1489.240
1492.710
1496.180
1499.650
1503.120
1506.590
1510.060
1513.530
1517.000
1520.470
1523.940
1527.410
1530.880
1534.350
1537.820
1541.290
1544.760
1548.230
1551.700
1555.170
1558.640
1562.110
1565.580
1569.050
1572.520
1575.990
1579.460
1582.930
1586.400
1589.870
1593.340
1596.810
1600.280
1603.750
1607.220
1610.690
1614.160
1617.630
1621.100
1624.570
1628.040
1631.510
1634.980
1638.450
1641.920
1645.390
1648.860
1652.330
1655.800
1659.270
1662.740
1666.210
1669.680
1673.150
1676.620
1680.090
1683.560
1687.030
1690.500
1693.970
1697.440
1700.910
1704.380
1707.850
1711.320
1714.790
1718.260
1721.730
1725.200
1728.670
1732.140
1735.610
1739.080
1742.550
1746.020
1749.490
1752.960
1756.430
1759.900
1763.370
1756.478
1749.587
1742.695
1735.804
1728.912
1722.021
1715.129
1708.238
1701.346
1694.455
1687.563
1680.672
1673.780
1666.889
1659.997
1653.106
1646.214
1639.323
1632.431
1625.540
1618.648
1611.757
1604.865
1597.974
1591.082
1584.191
1577.299
1570.408
1563.516
1556.625
1549.733
1542.842
1535.950
1529.059
1522.167
1515.276
1508.384
1501.493
1494.601
1487.710
1480.818
1473.927
1467.035
1460.144
1453.252
1446.361
1439.469
1432.578
1425.686
1418.795
1411.903
1405.012
1398.120
1391.229
1384.337
1377.446
1370.554
1363.663
1356.771
1349.880
1342.988
1336.097
1329.205
1322.314
1315.422
1308.531
1301.639
1294.748
1287.856
1280.965
1274.073
1267.182
1260.290
1253.399
1246.507
1239.616
1232.724
1225.833
1218.941
1212.050
1205.158
1198.267
1191.375
1184.484
1177.592
1170.701
1163.809
1156.918
1150.026
1143.135
1136.243
1129.352
1122.460
1115.569
1108.677
1101.786
1094.894
1088.003
1081.111
1074.220
1067.328
1060.437
1053.545
1046.654
1039.762
1032.871
1025.979
1019.088
1012.196
1005.305
998.413
991.522
984.630
977.739
970.847
963.956
957.064
950.173
943.281
936.390
929.498
922.607
915.715
908.824
901.932
895.041
888.149
881.258
874.366
867.475
860.583
853.692
846.800
839.909
833.017
826.126
819.234
812.343
805.451
798.560
791.668
784.777
777.885
770.994
764.102
757.211
750.319
743.428
736.536
729.645
722.753
715.862
708.970
702.079
695.187
688.296
681.404
674.513
667.621
660.730
653.838
646.947
640.055
633.164
626.272
619.381
612.489
605.598
598.706
591.815
584.923
578.032
571.140
564.249
557.357
550.466
543.574
536.683
529.791
522.900
516.008
509.117
502.225
495.334
488.442
481.551
474.659
467.768
460.876
453.985
447.093
440.202
433.310
426.419
419.527
412.636
405.744
398.853
391.961
96.670
96.597
96.524
96.451
96.378
96.305
96.232
96.159
96.086
96.013
95.940
95.867
95.794
95.721
95.648
95.575
95.502
95.429
95.356
95.283
95.210
95.137
95.064
94.991
94.918
94.845
94.772
94.699
94.626
94.553
94.480
94.407
94.334
94.261
94.188
94.115
94.042
93.969
93.896
93.823
93.750
93.677
93.604
93.531
93.458
93.385
93.312
93.239
93.166
93.093
93.020
92.947
92.874
92.801
92.728
92.655
92.582
92.509
92.436
92.363
92.290
92.217
92.144
92.071
91.998
91.925
91.852
91.779
91.706
91.633
91.560
91.487
91.414
91.341
91.268
91.195
91.122
91.049
90.976
90.903
90.830
90.757
90.684
90.611
90.538
90.465
90.392
90.319
90.246
90.173
90.100
90.027
89.954
89.881
89.808
89.735
89.662
89.589
89.516
89.443
89.370
89.297
89.224
89.151
89.078
89.005
88.932
88.859
88.786
88.713
88.640
88.567
88.494
88.421
88.348
88.275
88.202
88.129
88.056
87.983
87.910
87.837
87.764
87.691
87.618
87.545
87.472
87.399
87.326
87.253
87.180
87.107
87.034
86.961
86.888
86.815
86.742
86.669
86.596
86.523
86.450
86.377
86.304
86.231
86.158
86.085
86.012
85.939
85.866
85.793
85.720
85.647
85.574
85.501
85.428
85.355
85.282
85.209
85.136
85.063
84.990
84.917
84.844
84.771
84.698
84.625
84.552
84.479
84.406
84.333
84.260
84.187
84.114
84.041
83.968
83.895
83.822
83.749
83.676
83.603
83.530
83.457
83.384
83.311
83.238
83.165
83.092
83.019
82.946
82.873
82.800
82.727
82.654
82.581
82.508
82.435
82.362
82.289
82.216
82.143
82.070
82.070
82.070
82.070
82.070
82.070
82.070
82.070
82.070
82.070
82.070
82.070
82.070
82.070
82.070
82.070
82.070
82.070
82.070
82.070
82.070
82.070
82.070
82.070
82.070
82.070
82.070
82.070
82.070
82.070
82.070
82.070
82.070
82.070
82.070
82.070
82.070
82.070
82.070
82.070
82.070
82.070
82.070
82.070
82.070
82.070
82.070
82.070
82.070
82.070
82.070
82.070
82.070
82.070
82.070
82.070
82.070
82.070
82.070
82.070
82.070
82.070
82.070
82.070
82.070
82.070
82.070
82.070
82.070
82.070
82.070
82.070
82.070
82.070
82.070
82.070
82.070
82.070
82.070
82.070
82.070
82.070
82.070
82.070
82.070
82.070
82.070
82.070
82.070
82.070
82.070
82.070
82.070
82.070
82.070
82.070
82.070
82.070
82.070
82.070
82.070
82.070
82.070
82.070
82.070
82.070
82.070
82.070
82.070
82.070
82.070
82.070
82.070
82.070
82.070
82.070
82.070
82.070
82.070
82.070
82.070
82.070
82.070
82.070
82.070
82.070
82.070
82.070
82.070
82.070
82.070
82.070
82.070
82.070
82.070
82.070
82.070
82.070
82.070
82.070
82.070
82.070
82.070
82.070
82.070
82.070
82.070
82.070
82.070
82.070
82.070
82.070
82.070
82.070
82.070
82.070
82.070
82.070
82.070
82.070
82.070
82.070
82.070
82.070
82.070
82.070
82.070
82.070
82.070
82.070
82.070
82.070
82.070
82.070
82.070
82.070
82.070
82.070
82.070
82.070
82.070
82.070
82.070
82.070
82.070
82.070
82.070
82.070
82.070
82.070
82.070
82.070
82.070
82.070
82.070
82.070
82.070
82.070
82.070
82.070
82.070
82.070
82.070
82.070
82.070
82.070
82.070
82.070
82.070
82.070
82.070
82.070
82.070
82.070
82.070
82.070
82.070
82.070
82.070
82.070
82.070
82.070
82.070
82.070
82.070
82.070
82.070
82.070
82.070
82.070
82.070
82.070
82.070
82.070
82.070
82.070
82.070
82.070
82.070
82.070
82.070
82.070
82.070
82.070
82.070
82.070
82.070
82.070
82.070
82.070
82.070
82.070
82.070
82.070
82.070
82.070
82.070
82.070
82.070
82.070
82.070
82.070
82.070
82.070
82.070
82.070
82.070
82.070
82.070
82.070
82.070
82.070
82.070
82.070
82.070
82.070
82.070
82.070
82.070
82.070
82.070
82.070
82.070
82.070
82.070
82.070
82.070
82.070
82.070
82.070
82.070
82.070
82.070
82.070
82.070
82.070
82.070
82.070
82.070
82.070
82.070
82.070
82.070
82.070
82.070
82.070
82.070
82.070
82.070
82.070
82.070
82.070
82.070
82.070
82.070
82.070
82.070
82.070
82.070
82.070
82.070
82.070
82.070
82.070
82.070
82.070
82.070
82.070
82.070
82.070
82.070
82.070
82.070
82.070
82.070
82.070
82.070
82.070
82.070
82.070
82.070
82.070
82.070
82.070
82.070
82.070
82.070
82.070
82.070
82.070
82.070
82.070
82.070
82.070
82.070
82.070
82.070
82.070
82.070
82.070
82.070
82.070
82.070
82.070
82.070
82.070
82.070
82.070
82.070
82.070
82.070
82.070
82.070
82.070
82.070
82.070
82.070
82.070
82.070
82.070
82.070
82.070
82.070
82.070
82.070
82.070
82.070
82.070
82.070
82.070
82.070
82.070
82.070
82.070
82.070
82.070
82.070
82.070
82.070
82.070
82.070
82.070
82.070
82.070
82.070
82.070
82.070
82.070
82.070
82.070
82.070
82.070
82.070
82.070
82.070
82.070
82.070
82.070
82.070
82.070
82.070
82.070
82.070
82.070
82.070
82.070
82.070
82.070
82.070
82.070
82.070
82.070
82.070
82.070
82.070
82.070
82.070
82.070
82.070
82.070
82.070
82.070
82.070
82.070
82.070
82.070
82.070
82.070
82.070
82.070
82.070
82.070
82.070
82.070
82.070
82.070
82.070
82.070
82.070
82.070
82.070
82.070
82.070
82.070
82.070
82.070
82.070
82.070
82.070
82.070
82.070
82.070
82.070
82.070
82.070
82.070
82.070
82.070
82.070
82.070
82.070
82.070
82.070
82.070
82.070
82.070
82.070
82.070
82.070
82.070
82.070
82.070
82.070
82.070
82.070
82.070
82.070
82.070
82.070
82.070
82.070
82.070
82.070
82.070
82.070
82.070
82.070
82.070
82.070
82.070
82.070
82.070
82.070
82.070
82.070
82.070
82.070
82.070
82.070
82.070
82.070
82.070
82.070
82.070
82.070
82.070
82.070
82.070
82.070
82.070
82.070
82.070
82.070
82.070
82.070
82.070
82.070
82.070
82.070
82.070
82.070
82.070
82.070
82.070
82.070
82.070
82.070
82.070
82.070
82.070
82.070
82.070
82.070
82.070
82.070
82.070
82.070
82.070
82.070
82.070
82.070
82.070
82.070
82.070
82.070
82.070
82.070
82.070
82.070
82.070
82.070
82.070
82.070
82.070
82.070
82.070
82.070
82.070
82.070
82.070
82.070
82.070
82.070
82.070
82.070
82.070
82.070
82.070
82.070
82.070
82.070
82.070
82.070
82.070
82.070
82.070
82.070
82.070
82.070
82.070
82.070
82.070
82.070
82.070
82.070
82.070
82.070
82.070
82.070
82.070
82.070
82.070
82.070
82.070
82.070
82.070
82.070
82.070
82.070
82.070
82.070
82.070
82.070
82.070
82.070
82.070
82.070
82.070
82.070
82.070
82.070
82.070
82.070
82.070
82.070
82.070
82.070
82.070
82.070
82.070
82.070
82.070
82.070
82.070
82.070
82.070
82.070
82.070
82.070
82.070
82.070
82.070
82.070
82.070
82.070
82.070
82.070
82.070
82.070
82.070
82.070
82.070
82.070
82.070
82.070
82.070
82.070
82.070
82.070
82.070
82.070
82.070
82.070
82.070
82.070
82.070
82.070
82.070
82.070
82.070
82.070
82.070
82.070
82.070
82.070
82.070
82.070
82.070
82.070
82.070
82.070
82.070
82.070
82.070
82.070
82.070
82.070
82.070
82.070
82.070
82.070
82.070
82.070
82.070
82.070
82.070
82.070
82.070
82.070
82.070
82.070
82.070
82.070
82.070
82.070
82.070
82.070
82.070
82.070
82.070
82.070
82.070
82.070
82.070
82.070
82.070
82.070
82.070
82.070
82.070
82.070
82.070
82.070
82.070
82.070
82.070
82.070
82.070
82.070
82.070
82.070
82.070
82.070
82.070
82.070
82.070
82.070
82.070
82.070
82.070
82.070
82.070
82.070
82.070
82.070
82.070
82.070
82.070
82.070
82.070
82.070
82.070
82.070
82.070
82.070
82.070
82.070
82.070
82.070
82.070
82.070
82.070
82.070
82.070
82.070
82.070
82.070
82.070
82.070
82.070
82.070
82.070
82.070
82.070
82.070
82.070
82.070
82.070
82.070
82.070
82.070
82.070
82.070
82.070
82.070
82.070
82.070
82.070
82.070
82.070
82.070
82.070
82.070
82.070
82.070
82.070
82.070
82.070
82.070
82.070
82.070
82.070
82.070
82.070
82.070
82.070
82.070
82.070
82.070
82.070
82.070
82.070
82.070
82.070
82.070
82.070
82.070
82.070
82.070
82.070
82.070
82.070
82.070
82.070
82.070
82.070
82.070
82.070
82.070
82.070
82.070
82.070
82.070
82.070
82.070
82.070
82.070
82.070
82.070
82.070
82.070
82.070
82.070
82.070
82.070
82.070
82.070
82.070
82.070
82.070
82.070
82.070
82.070
82.070
82.070
82.070
82.070
82.070
82.070
82.070
82.070
82.070
82.070
82.070
82.070
82.070
82.070
82.070
82.070
82.070
82.070
82.070
82.070
82.070
82.070
82.070
82.070
82.070
82.070
82.070
82.070
82.070
82.070
82.070
82.070
82.070
82.070
82.070
82.070
82.070
82.070
82.070
82.070
82.070
82.070
82.070
82.070
82.070
82.070
82.070
82.070
82.070
82.070
82.070
82.070
82.070
82.070
82.070
82.070
82.070
82.070
82.070
82.070
82.070
82.070
82.070
82.070
82.070
82.070
82.070
82.070
82.070
82.070
82.070
82.070
82.070
82.070
82.070
82.070
82.070
82.070
82.070
82.070
82.070
82.070
82.070
82.070
82.070
82.070
82.070
82.070
82.070
82.070
82.070
82.070
82.070
82.070
82.070
82.070
82.070
82.070
82.070
82.070
82.070
82.070
82.070
82.070
82.070
82.070
82.070
82.070
82.070
82.070
82.070
82.070
82.070
82.070
82.070
82.070
82.070
82.070
82.070
82.070
82.070
82.070
82.070
82.070
82.070
82.070
82.070
82.070
82.070
82.070
82.070
82.070
82.070
82.070
82.070
82.070
82.070
82.070
82.070
82.070
82.070
82.070
82.070
82.070
82.070
82.070
82.070
82.070
82.070
82.070
82.070
82.070
82.070
82.070
82.070
82.070
82.070
82.070
82.070
82.070
82.070
82.070
82.070
82.070
82.070
82.070
82.070
82.070
82.070
82.070
82.070
82.070
82.070
82.070
82.070
82.070
82.070
82.070
82.070
82.070
82.070
82.070
82.070
82.070
82.070
82.070
82.070
82.070
82.070
82.070
82.070
82.070
82.070
82.070
82.070
82.070
82.070
82.070
82.070
82.070
82.070
82.070
82.070
82.070
82.070
82.070
82.070
82.070
82.070
82.070
82.070
82.070
82.070
82.070
82.070
82.070
82.070
82.070
82.070
82.070
82.070
82.070
82.070
82.070
82.070
82.070
82.070
82.070
82.070
82.070
82.070
82.070
82.070
82.070
82.070
82.070
82.070
82.070
82.070
82.070
82.070
82.070
82.070
82.070
82.070
82.070
82.070
82.070
82.070
82.070
82.070
82.070
82.070
82.070
82.070
82.070
82.070
82.070
82.070
82.070
82.070
82.070
82.070
82.070
82.070
82.070
82.070
82.070
82.070
82.070
82.070
82.070
82.070
82.070
82.070
82.070
82.070
82.070
82.070
82.070
82.070
82.070
82.070
82.070
82.070
82.070
82.070
82.070
82.070
82.070
82.070
82.070
82.070
82.070
82.070
82.070
82.070
82.070
82.070
82.070
82.070
82.070
82.070
82.070
82.070
82.070
82.070
82.070
