2018.398
2017.616
2016.834
2016.052
2015.270
2014.488
2013.706
2012.924
2012.142
2011.360
2010.578
2009.796
2009.014
2008.232
2007.450
2006.668
2005.886
2005.104
2004.322
2003.540
2002.758
2001.976
2001.194
2000.412
1999.630
1998.848
1998.066
1997.284
1996.502
1995.720
1994.938
1994.156
1992.788
1991.419
1990.051
1988.682
1987.314
1985.945
1984.577
1983.208
1981.840
1980.471
1979.103
1977.734
1976.366
1974.997
1973.629
1972.260
1970.892
1969.523
1968.155
1966.786
1965.418
1964.049
1962.681
1961.312
1959.944
1958.575
1957.207
1955.838
1954.470
1953.101
1951.733
1950.364
1948.996
1947.627
1946.259
1944.890
1943.522
1942.153
1940.785
1939.416
1938.048
1936.679
1935.311
1933.942
1932.574
1931.205
1929.837
1928.468
1927.100
1925.731
1924.363
1922.994
1921.626
1920.257
1918.889
1917.520
1916.152
1914.783
1913.415
1912.046
1910.678
1909.309
1907.941
1906.572
1905.204
1903.835
1902.467
1901.098
1899.730
1898.361
1896.993
1895.624
1894.256
1892.887
1891.519
1890.150
1888.782
1887.413
1886.045
1884.676
1883.308
1881.939
1880.571
1879.202
1877.834
1876.465
1875.097
1873.728
1872.360
1870.991
1869.623
1868.254
1866.886
1865.517
1864.149
1862.780
1861.412
1860.043
1858.675
1857.306
1855.938
1854.569
1853.201
1851.832
1850.464
1849.095
1847.727
1846.358
1844.990
1843.621
1842.253
1840.884
1839.516
1838.147
1836.779
1835.410
1834.042
1832.673
1831.305
1829.936
1828.568
1827.199
1825.831
1824.462
1823.094
1821.725
1820.357
1818.988
1817.620
1816.251
1814.883
1813.514
1812.146
1810.777
1809.409
1808.040
1806.672
1805.303
1803.935
1802.566
1801.198
1799.829
1798.461
1797.092
1795.724
1794.355
1792.987
1791.618
1790.250
1788.881
1787.513
1786.144
1784.776
1783.407
1782.039
1780.670
1779.302
1777.933
1776.565
1775.196
1773.828
1772.459
1771.091
1769.722
1768.354
1766.985
1765.617
1764.248
1762.880
1761.511
1760.143
1758.774
1757.406
1756.037
1754.669
1753.300
1751.932
1750.563
1749.195
1747.826
1746.458
1745.089
1743.721
1742.352
1740.984
1739.615
1738.247
1736.878
1735.510
1734.141
1732.773
1731.404
1730.036
1728.667
1727.299
1725.930
1724.562
1723.193
1721.825
1720.456
1722.583
1724.709
1726.836
1728.962
1731.089
1733.215
1735.342
1737.468
1739.595
1741.721
1743.848
1745.974
1748.101
1750.227
1752.354
1754.480
1756.607
1758.733
1760.860
1762.986
1765.113
1767.239
1769.366
1771.492
1773.619
1775.745
1777.872
1779.998
1782.125
1784.251
1786.378
1788.504
1790.631
1792.757
1794.884
1797.010
1799.137
1801.263
1803.390
1805.516
1807.643
1809.769
1811.896
1814.022
1816.149
1818.275
1820.402
1822.528
1824.655
1826.781
1828.908
1831.034
1833.161
1835.287
1837.414
1839.540
1841.667
1843.793
1845.920
1848.046
1850.173
1852.299
1854.426
1856.552
1858.679
1860.805
1862.932
1865.058
1867.185
1869.311
1871.438
1873.564
1875.691
1877.817
1879.944
1882.070
1884.197
1886.323
1888.450
1890.576
1892.703
1894.829
1896.956
1899.082
1901.209
1903.335
1905.462
1907.588
1909.715
1911.841
1913.968
1916.094
1918.221
1920.347
1922.474
1924.600
1926.727
1928.853
1930.980
1933.106
1935.233
1937.359
1939.486
1941.612
1943.739
1945.865
1947.992
1950.118
1952.245
1954.371
1956.498
1958.624
1960.751
1962.877
1965.004
1967.130
1969.257
1971.383
1973.510
1975.636
1977.763
1979.889
1982.016
1984.142
1986.269
1988.395
1990.522
1992.648
1994.775
1996.901
1999.028
2001.154
2003.281
2005.407
2007.534
2009.660
2011.787
2013.913
2016.040
2018.166
2020.293
2022.419
2024.546
2026.672
2028.799
2030.925
2033.052
2035.178
2037.305
2039.431
2041.558
2043.684
2045.811
2047.937
2050.064
2052.190
2054.317
2056.443
2058.570
2060.696
2062.823
2064.949
2067.076
2069.202
2071.329
2073.455
2075.582
2077.708
2079.835
2081.961
2084.088
2086.214
2088.341
2090.467
2092.594
2094.720
2096.847
2098.973
2101.100
2103.226
2105.353
2107.479
2109.606
2111.732
2113.859
2115.985
2118.112
2120.238
2122.365
2124.491
2126.618
2128.744
2130.871
2132.997
2135.124
2137.250
2139.377
2141.503
2143.630
2145.756
2142.164
2138.571
2134.979
2131.386
2127.794
2124.201
2120.609
2117.016
2113.424
2109.831
2106.239
2102.646
2099.054
2095.461
2091.869
2088.276
2084.684
2081.091
2077.499
2073.906
2070.314
2066.721
2063.129
2059.536
2055.944
2052.351
2048.759
2045.166
2041.574
2037.981
2034.389
2030.796
2027.204
2023.611
2020.019
2016.426
2012.834
2009.241
2005.649
2002.056
1998.464
1994.871
1991.279
1987.686
1984.094
1980.501
1976.909
1973.316
1969.724
1966.131
1962.539
1958.946
1955.354
1951.761
1948.169
1944.576
1940.984
1937.391
1933.799
1930.206
1926.614
1923.021
1919.429
1915.836
1912.244
1908.651
1905.059
1901.466
1897.874
1894.281
1890.689
1887.096
1883.504
1879.911
1876.319
1872.726
1869.134
1865.541
1861.949
1858.356
1854.764
1851.171
1847.579
1843.986
1840.394
1836.801
1833.209
1829.616
1826.024
1822.431
1818.839
1815.246
1811.654
1808.061
1804.469
1800.876
1797.284
1793.691
1790.099
1786.506
1782.914
1779.321
1775.729
1772.136
1768.544
1764.951
1761.359
1757.766
1754.174
1750.581
1746.989
1743.396
1739.804
1736.211
1732.619
1729.026
1725.434
1721.841
1718.249
1714.656
1711.064
1707.471
1703.879
1700.286
1696.694
1693.101
1689.509
1685.916
1682.324
1678.731
1675.139
1671.546
1667.954
1664.361
1660.769
1657.176
1653.584
1649.991
1646.399
1642.806
1639.214
1635.621
1632.029
1628.436
1624.844
1621.251
1617.659
1614.066
1610.474
1606.881
1603.289
1599.696
1596.104
1592.511
1588.919
1585.326
1581.734
1578.141
1574.549
1570.956
1567.364
1563.771
1560.179
1556.586
1552.994
1549.401
1545.809
1542.216
1538.624
1535.031
1531.439
1527.846
1524.254
1520.661
1517.069
1513.476
1509.884
1506.291
1502.699
1499.106
1495.514
1491.921
1488.329
1484.736
1481.144
1477.551
1473.959
1470.366
1466.774
1463.181
1459.589
1455.996
1452.404
1448.811
1445.219
1441.626
1438.034
1434.441
1430.849
1427.256
1427.574
1427.891
1428.209
1428.526
1428.844
1429.161
1429.479
1429.796
1430.114
1430.431
1430.749
1431.066
1431.384
1431.701
1432.019
1432.336
1432.654
1432.971
1433.289
1433.606
1433.924
1434.241
1434.559
1434.876
1435.194
1435.511
1435.829
1436.146
1436.464
1436.781
1437.099
1437.416
1437.734
1438.051
1438.369
1438.686
1439.004
1439.321
1439.639
1439.956
1440.274
1440.591
1440.909
1441.226
1441.544
1441.861
1442.179
1442.496
1442.814
1443.131
1443.449
1443.766
1444.084
1444.401
1444.719
1445.036
1445.354
1445.671
1445.989
1446.306
1446.624
1446.941
1447.259
1447.576
1447.894
1448.211
1448.529
1448.846
1449.164
1449.481
1449.799
1450.116
1450.434
1450.751
1451.069
1451.386
1451.704
1452.021
1452.339
1452.656
1452.974
1453.291
1453.609
1453.926
1454.244
1454.561
1454.879
1455.196
1455.514
1455.831
1456.149
1456.466
1456.784
1457.101
1457.419
1457.736
1458.054
1458.371
1458.689
1459.006
1459.324
1459.641
1459.959
1460.276
1460.594
1460.911
1461.229
1461.546
1461.864
1462.181
1462.499
1462.816
1463.134
1463.451
1463.769
1464.086
1464.404
1464.721
1465.039
1465.356
1465.674
1465.991
1466.309
1466.626
1466.944
1467.261
1467.579
1467.896
1468.214
1468.531
1468.849
1469.166
1469.484
1469.801
1470.119
1470.436
1470.754
1471.071
1471.389
1471.706
1472.024
1472.341
1472.659
1472.976
1473.294
1473.611
1473.929
1474.246
1474.564
1474.881
1475.199
1475.516
1475.834
1476.151
1476.469
1476.786
1477.104
1477.421
1477.739
1478.056
1478.374
1478.691
1479.009
1479.326
1479.644
1479.961
1480.279
1480.596
1480.914
1481.231
1481.549
1481.866
1482.184
1482.501
1482.819
1483.136
1483.454
1483.771
1484.089
1484.406
1484.724
1485.041
1485.359
1485.676
1485.994
1486.311
1486.629
1486.946
1487.264
1487.581
1487.899
1488.216
1488.534
1488.851
1489.169
1489.486
1489.804
1490.121
1490.439
1490.756
1485.502
1480.248
1474.994
1469.740
1464.486
1459.232
1453.978
1448.724
1443.470
1438.216
1432.962
1427.708
1422.454
1417.200
1411.946
1406.692
1401.438
1396.184
1390.930
1385.676
1380.422
1375.168
1369.914
1364.660
1359.406
1354.152
1348.898
1343.644
1338.390
1333.136
1327.882
1322.628
1317.374
1312.120
1306.866
1301.612
1296.358
1291.104
1285.850
1280.596
1275.342
1270.088
1264.834
1259.580
1254.326
1249.072
1243.818
1238.564
1233.310
1228.056
1222.802
1217.548
1212.294
1207.040
1201.786
1196.532
1191.278
1186.024
1180.770
1175.516
1170.262
1165.008
1159.754
1154.500
1149.246
1143.992
1138.738
1133.484
1128.230
1122.976
1117.722
1112.468
1107.214
1101.960
1096.706
1091.452
1086.198
1080.944
1075.690
1070.436
1065.182
1059.928
1054.674
1049.420
1044.166
1038.912
1033.658
1028.404
1023.150
1017.896
1012.642
1007.388
1002.134
996.880
991.626
986.372
981.118
975.864
970.610
965.356
960.102
954.848
949.594
944.340
939.086
933.832
928.578
923.324
918.070
912.816
907.562
902.308
897.054
891.800
886.546
881.292
876.038
870.784
865.530
860.276
855.022
849.768
844.514
839.260
834.006
828.752
823.498
818.244
812.990
807.736
802.482
797.228
791.974
786.720
781.466
776.212
770.958
765.704
760.450
755.196
749.942
744.688
739.434
734.180
728.926
723.672
718.418
713.164
707.910
702.656
697.402
692.148
686.894
681.640
676.386
671.132
665.878
660.624
655.370
650.116
644.862
639.608
634.354
629.100
623.846
618.592
613.338
608.084
602.830
597.576
592.322
587.068
581.814
576.560
571.306
566.052
560.798
555.544
550.290
545.036
539.782
534.528
529.274
524.020
518.766
513.512
508.258
503.004
497.750
492.496
487.242
481.988
476.734
471.480
466.226
460.972
455.718
450.464
445.210
439.956
438.637
437.317
435.998
434.678
433.359
432.039
430.720
429.400
428.081
426.761
425.442
424.122
422.803
421.483
420.164
418.844
417.525
416.205
414.886
413.566
412.247
410.927
409.608
408.288
406.969
405.649
404.330
403.010
401.691
400.371
399.052
397.732
396.413
395.093
393.774
392.454
391.135
389.815
388.496
387.176
385.857
384.537
383.218
381.898
380.579
379.259
377.940
376.620
375.301
373.981
372.662
371.342
370.023
368.703
367.384
366.064
364.745
363.425
362.106
360.786
359.467
358.147
356.828
355.508
354.189
352.869
351.550
350.230
348.911
347.591
346.272
344.952
343.633
342.313
340.994
339.674
338.355
337.035
335.716
334.396
333.077
331.757
330.438
329.118
327.799
326.479
325.160
323.840
322.521
321.201
319.882
318.562
317.243
315.923
314.604
313.284
311.965
310.645
309.326
308.006
306.687
305.367
304.048
302.728
301.409
300.089
298.770
297.450
296.131
294.811
293.492
292.172
290.853
289.533
288.214
286.894
285.575
284.255
282.936
281.616
280.297
278.977
277.658
276.338
275.019
273.699
272.380
271.060
269.741
268.421
267.102
265.782
264.463
263.143
261.824
260.504
259.185
257.865
256.546
255.226
253.907
252.587
251.268
249.948
248.629
247.309
245.990
244.670
243.351
242.031
240.712
239.392
238.073
236.753
235.434
234.114
232.795
231.475
230.156
228.836
227.517
226.197
224.878
223.558
222.239
220.919
219.600
218.280
216.961
215.641
214.322
213.002
211.683
210.363
209.044
207.724
206.405
205.085
203.766
202.446
201.127
199.807
198.488
197.168
195.849
194.529
193.210
191.890
190.571
189.251
187.932
186.612
185.293
183.973
182.654
181.334
180.015
178.695
177.376
176.056
176.056
176.056
176.056
176.056
176.056
176.056
176.056
176.056
176.056
176.056
176.056
176.056
176.056
176.056
176.056
176.056
176.056
176.056
176.056
176.056
176.056
176.056
176.056
176.056
176.056
176.056
176.056
176.056
176.056
176.056
176.056
176.056
176.056
176.056
176.056
176.056
176.056
176.056
176.056
176.056
176.056
176.056
176.056
176.056
176.056
176.056
176.056
176.056
176.056
176.056
176.056
176.056
176.056
176.056
176.056
176.056
176.056
176.056
176.056
176.056
176.056
176.056
176.056
176.056
176.056
176.056
176.056
176.056
176.056
176.056
176.056
176.056
176.056
176.056
176.056
176.056
176.056
176.056
176.056
176.056
176.056
176.056
176.056
176.056
176.056
176.056
176.056
176.056
176.056
176.056
176.056
176.056
176.056
176.056
176.056
176.056
176.056
176.056
176.056
176.056
176.056
176.056
176.056
176.056
176.056
176.056
176.056
176.056
176.056
176.056
176.056
176.056
176.056
176.056
176.056
176.056
176.056
176.056
176.056
176.056
176.056
176.056
176.056
176.056
176.056
176.056
176.056
176.056
176.056
176.056
176.056
176.056
176.056
176.056
176.056
176.056
176.056
176.056
176.056
176.056
176.056
176.056
176.056
176.056
176.056
176.056
176.056
176.056
176.056
176.056
176.056
176.056
176.056
176.056
176.056
176.056
176.056
176.056
176.056
176.056
176.056
176.056
176.056
176.056
176.056
176.056
176.056
176.056
176.056
176.056
176.056
176.056
176.056
176.056
176.056
176.056
176.056
176.056
176.056
176.056
176.056
176.056
176.056
176.056
176.056
176.056
176.056
176.056
176.056
176.056
176.056
176.056
176.056
176.056
176.056
176.056
176.056
176.056
176.056
92.956
92.956
92.956
92.956
92.956
92.956
92.956
92.956
92.956
92.956
92.956
92.956
92.956
92.956
92.956
92.956
92.956
92.956
92.956
92.956
92.956
92.956
92.956
92.956
92.956
92.956
92.956
92.956
92.956
92.956
92.956
92.956
92.956
92.956
92.956
92.956
92.956
92.956
92.956
92.956
92.956
92.956
92.956
92.956
92.956
92.956
92.956
92.956
92.956
92.956
92.956
92.956
92.956
92.956
92.956
92.956
92.956
92.956
92.956
92.956
92.956
92.956
92.956
92.956
92.956
92.956
92.956
92.956
92.956
92.956
92.956
92.956
92.956
92.956
92.956
92.956
92.956
92.956
92.956
92.956
92.956
92.956
92.956
92.956
92.956
92.956
92.956
92.956
92.956
92.956
92.956
92.956
92.956
92.956
92.956
92.956
92.956
92.956
92.956
92.956
92.956
92.956
92.956
92.956
92.956
92.956
92.956
92.956
92.956
92.956
92.956
92.956
92.956
92.956
92.956
92.956
92.956
92.956
92.956
92.956
92.956
92.956
92.956
92.956
92.956
92.956
92.956
92.956
92.956
92.956
92.956
92.956
92.956
92.956
92.956
92.956
92.956
92.956
92.956
92.956
92.956
92.956
92.956
92.956
92.956
92.956
92.956
92.956
92.956
92.956
92.956
92.956
92.956
92.956
92.956
92.956
92.956
92.956
92.956
92.956
92.956
92.956
92.956
92.956
92.956
92.956
92.956
92.956
92.956
92.956
92.956
92.956
92.956
92.956
92.956
92.956
92.956
92.956
92.956
92.956
92.956
92.956
92.956
92.956
92.956
92.956
92.956
92.956
92.956
92.956
92.956
92.956
92.956
92.956
92.956
92.956
92.956
92.956
92.956
92.956
92.956
92.956
92.956
92.956
92.956
92.956
92.956
92.956
92.956
92.956
92.956
92.956
92.956
92.956
92.956
92.956
92.956
92.956
92.956
92.956
92.956
92.956
92.956
92.956
92.956
92.956
92.956
92.956
92.956
92.956
92.956
92.956
92.956
92.956
92.956
92.956
92.956
92.956
92.956
92.956
92.956
92.956
92.956
92.956
92.956
92.956
92.956
92.956
92.956
92.956
92.956
92.956
92.956
92.956
92.956
92.956
92.956
92.956
92.956
92.956
92.956
92.956
92.956
92.956
92.956
92.956
92.956
92.956
92.956
92.956
92.956
92.956
92.956
92.956
92.956
92.956
92.956
92.956
92.956
92.956
92.956
92.956
92.956
92.956
92.956
92.956
92.956
92.956
92.956
92.956
92.956
92.956
92.956
92.956
92.956
92.956
92.956
92.956
92.956
92.956
92.956
92.956
92.956
92.956
92.956
92.956
92.956
92.956
92.956
92.956
92.956
92.956
92.956
92.956
92.956
92.956
92.956
92.956
92.956
92.956
92.956
92.956
92.956
92.956
92.956
92.956
92.956
92.956
92.956
92.956
92.956
92.956
92.956
92.956
92.956
92.956
92.956
92.956
92.956
92.956
92.956
92.956
92.956
92.956
92.956
92.956
92.956
92.956
92.956
92.956
92.956
92.956
92.956
92.956
92.956
92.956
92.956
92.956
92.956
92.956
92.956
92.956
92.956
92.956
92.956
92.956
92.956
92.956
92.956
92.956
92.956
92.956
92.956
92.956
92.956
92.956
92.956
92.956
92.956
92.956
92.956
92.956
92.956
92.956
92.956
92.956
92.956
92.956
92.956
92.956
92.956
92.956
92.956
92.956
92.956
92.956
92.956
92.956
92.956
92.956
92.956
92.956
92.956
92.956
92.956
92.956
92.956
92.956
92.956
92.956
92.956
92.956
92.956
92.956
92.956
92.956
92.956
92.956
92.956
92.956
92.956
92.956
92.956
92.956
92.956
92.956
92.956
92.956
92.956
92.956
92.956
92.956
92.956
92.956
92.956
92.956
92.956
92.956
92.956
92.956
92.956
92.956
92.956
92.956
92.956
92.956
92.956
92.956
92.956
92.956
92.956
92.956
92.956
92.956
92.956
92.956
92.956
92.956
92.956
92.956
92.956
92.956
92.956
92.956
92.956
92.956
92.956
92.956
92.956
92.956
92.956
92.956
92.956
92.956
92.956
92.956
92.956
92.956
92.956
92.956
92.956
92.956
92.956
92.956
92.956
92.956
92.956
92.956
92.956
92.956
92.956
92.956
92.956
92.956
92.956
92.956
92.956
92.956
92.956
92.956
92.956
92.956
92.956
92.956
92.956
92.956
92.956
92.956
92.956
92.956
92.956
92.956
92.956
92.956
92.956
92.956
92.956
92.956
92.956
92.956
92.956
92.956
92.956
92.956
92.956
92.956
92.956
92.956
92.956
92.956
92.956
92.956
92.956
92.956
92.956
92.956
92.956
92.956
92.956
92.956
92.956
92.956
92.956
92.956
92.956
92.956
92.956
92.956
92.956
92.956
92.956
92.956
92.956
92.956
92.956
92.956
92.956
92.956
92.956
92.956
92.956
92.956
92.956
92.956
92.956
92.956
92.956
92.956
92.956
