1988.332
1990.434
1992.536
1994.638
1996.740
1998.842
2000.944
2003.046
2005.148
2007.250
2009.352
2011.454
2013.556
2015.658
2017.760
2019.862
2021.964
2024.066
2026.168
2028.270
2030.372
2032.474
2032.987
2033.500
2034.013
2034.526
2035.039
2035.552
2036.065
2036.578
2037.091
2037.604
2038.117
2038.630
2039.143
2039.656
2040.169
2040.682
2041.195
2041.708
2042.221
2042.734
2043.247
2043.760
2044.273
2044.786
2045.299
2045.812
2046.325
2046.838
2047.351
2047.864
2048.377
2048.890
2049.403
2049.916
2050.429
2050.942
2051.455
2051.968
2052.481
2052.994
2053.507
2054.020
2054.533
2055.046
2055.559
2056.072
2056.585
2057.098
2057.611
2058.124
2058.637
2059.150
2059.663
2060.176
2060.689
2061.202
2061.715
2062.228
2062.741
2063.254
2063.767
2064.280
2064.793
2065.306
2065.819
2066.332
2066.845
2067.358
2067.871
2068.384
2068.897
2069.410
2069.923
2070.436
2070.949
2071.462
2071.975
2072.488
2073.001
2073.514
2074.027
2074.540
2075.053
2075.566
2076.079
2076.592
2077.105
2077.618
2078.131
2078.644
2079.157
2079.670
2080.183
2080.696
2081.209
2081.722
2082.235
2082.748
2083.261
2083.774
2084.287
2084.800
2085.313
2085.826
2086.339
2086.852
2087.365
2087.878
2088.391
2088.904
2089.417
2089.930
2090.443
2090.956
2091.469
2091.982
2092.495
2093.008
2093.521
2094.034
2094.547
2095.060
2095.573
2096.086
2096.599
2097.112
2097.625
2098.138
2098.651
2099.164
2099.677
2100.190
2100.703
2101.216
2101.729
2102.242
2102.755
2103.268
2103.781
2104.294
2104.807
2105.320
2105.833
2106.346
2106.859
2107.372
2107.885
2108.398
2108.911
2109.424
2109.937
2110.450
2110.963
2111.476
2111.989
2112.502
2113.015
2113.528
2114.041
2114.554
2115.067
2115.580
2116.093
2116.606
2117.119
2117.632
2118.145
2118.658
2119.171
2119.684
2120.197
2120.710
2121.223
2121.736
2122.249
2122.762
2123.275
2123.788
2124.301
2124.814
2125.327
2125.840
2126.353
2126.866
2127.379
2127.892
2128.405
2128.918
2129.431
2129.944
2130.457
2130.970
2131.483
2131.996
2132.509
2133.022
2133.535
2134.048
2134.561
2135.074
2133.632
2132.190
2130.748
2129.306
2127.864
2126.422
2124.980
2123.538
2122.096
2120.654
2119.212
2117.770
2116.328
2114.886
2113.444
2112.002
2110.560
2109.118
2107.676
2106.234
2104.792
2103.350
2101.908
2100.466
2099.024
2097.582
2096.140
2094.698
2093.256
2091.814
2090.372
2088.930
2087.488
2086.046
2084.604
2083.162
2081.720
2080.278
2078.836
2077.394
2075.952
2074.510
2073.068
2071.626
2070.184
2068.742
2067.300
2065.858
2064.416
2062.974
2061.532
2060.090
2058.648
2057.206
2055.764
2054.322
2052.880
2051.438
2049.996
2048.554
2047.112
2045.670
2044.228
2042.786
2041.344
2039.902
2038.460
2037.018
2035.576
2034.134
2032.692
2031.250
2029.808
2028.366
2026.924
2025.482
2024.040
2022.598
2021.156
2019.714
2018.272
2016.830
2015.388
2013.946
2012.504
2011.062
2009.620
2008.178
2006.736
2005.294
2003.852
2002.410
2000.968
1999.526
1998.084
1996.642
1995.200
1993.758
1992.316
1990.874
1989.432
1987.990
1986.548
1985.106
1983.664
1982.222
1980.780
1979.338
1977.896
1976.454
1975.012
1973.570
1972.128
1970.686
1969.244
1967.802
1966.360
1964.918
1963.476
1962.034
1960.592
1959.150
1957.708
1956.266
1954.824
1953.382
1951.940
1950.498
1949.056
1947.614
1946.172
1944.730
1943.288
1941.846
1940.404
1938.962
1937.520
1936.078
1934.636
1933.194
1931.752
1930.310
1928.868
1927.426
1925.984
1924.542
1923.100
1921.658
1920.216
1918.774
1917.332
1915.890
1914.448
1913.006
1911.564
1910.122
1908.680
1907.238
1905.796
1904.354
1902.912
1901.470
1900.028
1898.586
1897.144
1895.702
1894.260
1892.818
1891.376
1889.934
1888.492
1887.050
1885.608
1884.166
1882.724
1881.282
1879.840
1878.398
1876.956
1875.514
1874.072
1872.630
1871.188
1869.746
1868.304
1866.862
1865.420
1863.978
1862.536
1861.094
1859.652
1858.210
1856.768
1855.326
1853.884
1852.442
1851.000
1849.558
1848.116
1846.674
1849.045
1851.415
1853.786
1856.156
1858.527
1860.897
1863.268
1865.638
1868.009
1870.379
1872.750
1875.120
1877.491
1879.861
1882.232
1884.602
1886.973
1889.343
1891.714
1894.084
1896.455
1898.825
1901.196
1903.566
1905.937
1908.307
1910.678
1913.048
1915.419
1917.789
1920.160
1922.530
1924.901
1927.271
1929.642
1932.012
1934.383
1936.753
1939.124
1941.494
1943.865
1946.235
1948.606
1950.976
1953.347
1955.717
1958.088
1960.458
1962.829
1965.199
1967.570
1969.940
1972.311
1974.681
1977.052
1979.422
1981.793
1984.163
1986.534
1988.904
1991.275
1993.645
1996.016
1998.386
2000.757
2003.127
2005.498
2007.868
2010.239
2012.609
2014.980
2017.350
2019.721
2022.091
2024.462
2026.832
2029.203
2031.573
2033.944
2036.314
2038.685
2041.055
2043.426
2045.796
2048.167
2050.537
2052.908
2055.278
2057.649
2060.019
2062.390
2064.760
2067.131
2069.501
2071.872
2074.242
2076.613
2078.983
2081.354
2083.724
2086.095
2088.465
2090.836
2093.206
2095.577
2097.947
2100.318
2102.688
2105.059
2107.429
2109.800
2112.170
2114.541
2116.911
2119.282
2121.652
2124.023
2126.393
2128.764
2131.134
2133.505
2135.875
2138.246
2140.616
2142.987
2145.357
2147.728
2150.098
2152.469
2154.839
2157.210
2159.580
2161.951
2164.321
2166.692
2169.062
2171.433
2173.803
2176.174
2178.544
2180.915
2183.285
2185.656
2188.026
2190.397
2192.767
2195.138
2197.508
2199.879
2202.249
2204.620
2206.990
2209.361
2211.731
2214.102
2216.472
2218.843
2221.213
2223.584
2225.954
2228.325
2230.695
2233.066
2235.436
2237.807
2240.177
2242.548
2244.918
2247.289
2249.659
2252.030
2254.400
2256.771
2259.141
2261.512
2263.882
2266.253
2268.623
2270.994
2273.364
2275.735
2278.105
2280.476
2282.846
2285.217
2287.587
2289.958
2292.328
2294.699
2297.069
2299.440
2301.810
2304.181
2306.551
2308.922
2311.292
2313.663
2316.033
2318.404
2320.774
2319.919
2319.064
2318.209
2317.354
2316.499
2315.644
2314.789
2313.934
2313.079
2312.224
2311.369
2310.514
2309.659
2308.804
2307.949
2307.094
2306.239
2305.384
2304.529
2303.674
2302.819
2301.964
2301.109
2300.254
2299.399
2298.544
2297.689
2296.834
2295.979
2295.124
2294.269
2293.414
2292.559
2291.704
2290.849
2289.994
2289.139
2288.284
2287.429
2286.574
2285.719
2284.864
2284.009
2283.154
2282.299
2281.444
2280.589
2279.734
2278.879
2278.024
2277.169
2276.314
2275.459
2274.604
2273.749
2272.894
2272.039
2271.184
2270.329
2269.474
2268.619
2267.764
2266.909
2266.054
2265.199
2264.344
2263.489
2262.634
2261.779
2260.924
2260.069
2259.214
2258.359
2257.504
2256.649
2255.794
2254.939
2254.084
2253.229
2252.374
2251.519
2250.664
2249.809
2248.954
2248.099
2247.244
2246.389
2245.534
2244.679
2243.824
2242.969
2242.114
2241.259
2240.404
2239.549
2238.694
2237.839
2236.984
2236.129
2235.274
2234.419
2233.564
2232.709
2231.854
2230.999
2230.144
2229.289
2228.434
2227.579
2226.724
2225.869
2225.014
2224.159
2223.304
2222.449
2221.594
2220.739
2219.884
2219.029
2218.174
2217.319
2216.464
2215.609
2214.754
2213.899
2213.044
2212.189
2211.334
2210.479
2209.624
2208.769
2207.914
2207.059
2206.204
2205.349
2204.494
2203.639
2202.784
2201.929
2201.074
2200.219
2199.364
2198.509
2197.654
2196.799
2195.944
2195.089
2194.234
2193.379
2192.524
2191.669
2190.814
2189.959
2189.104
2188.249
2187.394
2186.539
2185.684
2184.829
2183.974
2183.119
2182.264
2181.409
2180.554
2179.699
2178.844
2177.989
2177.134
2176.279
2175.424
2174.569
2173.714
2172.859
2172.004
2171.149
2170.294
2169.439
2168.584
2167.729
2166.874
2166.019
2165.164
2164.309
2163.454
2162.599
2161.744
2160.889
2160.034
2159.179
2158.324
2157.469
2156.614
2155.759
2154.904
2154.049
2153.194
2152.339
2151.484
2150.629
2149.774
2147.550
2145.326
2143.102
2140.878
2138.654
2136.430
2134.206
2131.982
2129.758
2127.534
2125.310
2123.086
2120.862
2118.638
2116.414
2114.190
2111.966
2109.742
2107.518
2105.294
2103.070
2100.846
2098.622
2096.398
2094.174
2091.950
2089.726
2087.502
2085.278
2083.054
2080.830
2078.606
2076.382
2074.158
2071.934
2069.710
2067.486
2065.262
2063.038
2060.814
2058.590
2056.366
2054.142
2051.918
2049.694
2047.470
2045.246
2043.022
2040.798
2038.574
2036.350
2034.126
2031.902
2029.678
2027.454
2025.230
2023.006
2020.782
2018.558
2016.334
2014.110
2011.886
2009.662
2007.438
2005.214
2002.990
2000.766
1998.542
1996.318
1994.094
1991.870
1989.646
1987.422
1985.198
1982.974
1980.750
1978.526
1976.302
1974.078
1971.854
1969.630
1967.406
1965.182
1962.958
1960.734
1958.510
1956.286
1954.062
1951.838
1949.614
1947.390
1945.166
1942.942
1940.718
1938.494
1936.270
1934.046
1931.822
1929.598
1927.374
1925.150
1922.926
1920.702
1918.478
1916.254
1914.030
1911.806
1909.582
1907.358
1905.134
1902.910
1900.686
1898.462
1896.238
1894.014
1891.790
1889.566
1887.342
1885.118
1882.894
1880.670
1878.446
1876.222
1873.998
1871.774
1869.550
1867.326
1865.102
1862.878
1860.654
1858.430
1856.206
1853.982
1851.758
1849.534
1847.310
1845.086
1842.862
1840.638
1838.414
1836.190
1833.966
1831.742
1829.518
1827.294
1825.070
1822.846
1820.622
1818.398
1816.174
1813.950
1811.726
1809.502
1807.278
1805.054
1802.830
1800.606
1798.382
1796.158
1793.934
1791.710
1789.486
1787.262
1785.038
1782.814
1780.590
1778.366
1776.142
1773.918
1771.694
1769.470
1767.246
1765.022
1762.798
1760.574
1758.350
1756.126
1753.902
1751.678
1749.454
1747.230
1745.006
1742.782
1740.558
1738.334
1736.110
1733.886
1731.662
1729.438
1727.214
1724.990
1722.766
1720.542
1718.318
1716.094
1713.870
1711.646
1709.422
1707.198
1704.974
1707.296
1709.617
1711.939
1714.260
1716.582
1718.903
1721.225
1723.546
1725.868
1728.189
1730.511
1732.832
1735.154
1737.475
1739.797
1742.118
1744.440
1746.761
1749.083
1751.404
1753.726
1756.047
1758.369
1760.690
1763.012
1765.333
1767.655
1769.976
1772.298
1774.619
1776.941
1779.262
1781.584
1783.905
1786.227
1788.548
1790.870
1793.191
1795.513
1797.834
1800.156
1802.477
1804.799
1807.120
1809.442
1811.763
1814.085
1816.406
1818.728
1821.049
1823.371
1825.692
1828.014
1830.335
1832.657
1834.978
1837.300
1839.621
1841.943
1844.264
1846.586
1848.907
1851.229
1853.550
1855.872
1858.193
1860.515
1862.836
1865.158
1867.479
1869.801
1872.122
1874.444
1876.765
1879.087
1881.408
1883.730
1886.051
1888.373
1890.694
1893.016
1895.337
1897.659
1899.980
1902.302
1904.623
1906.945
1909.266
1911.588
1913.909
1916.231
1918.552
1920.874
1923.195
1925.517
1927.838
1930.160
1932.481
1934.803
1937.124
1939.446
1941.767
1944.089
1946.410
1948.732
1951.053
1953.375
1955.696
1958.018
1960.339
1962.661
1964.982
1967.304
1969.625
1971.947
1974.268
1976.590
1978.911
1981.233
1983.554
1985.876
1988.197
1990.519
1992.840
1995.162
1997.483
1999.805
2002.126
2004.448
2006.769
2009.091
2011.412
2013.734
2016.055
2018.377
2020.698
2023.020
2025.341
2027.663
2029.984
2032.306
2034.627
2036.949
2039.270
2041.592
2043.913
2046.235
2048.556
2050.878
2053.199
2055.521
2057.842
2060.164
2062.485
2064.807
2067.128
2069.450
2071.771
2074.093
2076.414
2078.736
2081.057
2083.379
2085.700
2088.022
2090.343
2092.665
2094.986
2097.308
2099.629
2101.951
2104.272
2106.594
2108.915
2111.237
2113.558
2115.880
2118.201
2120.523
2122.844
2125.166
2127.487
2129.809
2132.130
2134.452
2136.773
2139.095
2141.416
2143.738
2146.059
2148.381
2150.702
2153.024
2155.345
2157.667
2159.988
2162.310
2164.631
2166.953
2169.274
2172.696
2176.117
2179.539
2182.960
2186.382
2189.803
2193.225
2196.646
2200.068
2203.489
2206.911
2210.332
2213.754
2217.175
2220.597
2224.018
2227.440
2230.861
2234.283
2237.704
2241.126
2244.547
2247.969
2251.390
2254.812
2258.233
2261.655
2265.076
2268.498
2271.919
2275.341
2278.762
2282.184
2285.605
2289.027
2292.448
2295.870
2299.291
2302.713
2306.134
2309.556
2312.977
2316.399
2319.820
2323.242
2326.663
2330.085
2333.506
2336.928
2340.349
2343.771
2347.192
2350.614
2354.035
2357.457
2360.878
2364.300
2367.721
2371.143
2374.564
2377.986
2381.407
2384.829
2388.250
2391.672
2395.093
2398.515
2401.936
2405.358
2408.779
2412.201
2415.622
2419.044
2422.465
2425.887
2429.308
2432.730
2436.151
2439.573
2442.994
2446.416
2449.837
2453.259
2456.680
2460.102
2463.523
2466.945
2470.366
2473.788
2477.209
2480.631
2484.052
2487.474
2490.895
2494.317
2497.738
2501.160
2504.581
2508.003
2511.424
2514.846
2518.267
2521.689
2525.110
2528.532
2531.953
2535.375
2538.796
2542.218
2545.639
2549.061
2552.482
2555.904
2559.325
2562.747
2566.168
2569.590
2573.011
2576.433
2579.854
2583.276
2586.697
2590.119
2593.540
2596.962
2600.383
2603.805
2607.226
2610.648
2614.069
2617.491
2620.912
2624.334
2627.755
2631.177
2634.598
2638.020
2641.441
2644.863
2648.284
2651.706
2655.127
2658.549
2661.970
2665.392
2668.813
2672.235
2675.656
2679.078
2682.499
2685.921
2689.342
2692.764
2696.185
2699.607
2703.028
2706.450
2709.871
2713.293
2716.714
2720.136
2723.557
2726.979
2730.400
2733.822
2737.243
2740.665
2744.086
2747.508
2750.929
2754.351
2757.772
2761.194
2764.615
2768.037
2771.458
2774.880
2778.301
2781.723
2785.144
2788.566
2791.987
2795.409
2798.830
2802.252
2805.673
2809.095
2812.516
2815.938
2819.359
2822.781
2826.202
2829.624
2833.045
2836.467
2839.888
2843.310
2846.731
2850.153
2853.574
2850.862
2848.149
2845.437
2842.724
2840.012
2837.299
2834.587
2831.874
2829.162
2826.449
2823.737
2821.024
2818.312
2815.599
2812.887
2810.174
2807.462
2804.749
2802.037
2799.324
2796.612
2793.899
2791.187
2788.474
2785.762
2783.049
2780.337
2777.624
2774.912
2772.199
2769.487
2766.774
2764.062
2761.349
2758.637
2755.924
2753.212
2750.499
2747.787
2745.074
2742.362
2739.649
2736.937
2734.224
2731.512
2728.799
2726.087
2723.374
2720.662
2717.949
2715.237
2712.524
2709.812
2707.099
2704.387
2701.674
2698.962
2696.249
2693.537
2690.824
2688.112
2685.399
2682.687
2679.974
2677.262
2674.549
2671.837
2669.124
2666.412
2663.699
2660.987
2658.274
2655.562
2652.849
2650.137
2647.424
2644.712
2641.999
2639.287
2636.574
2633.862
2631.149
2628.437
2625.724
2623.012
2620.299
2617.587
2614.874
2612.162
2609.449
2606.737
2604.024
2601.312
2598.599
2595.887
2593.174
2590.462
2587.749
2585.037
2582.324
2579.612
2576.899
2574.187
2571.474
2568.762
2566.049
2563.337
2560.624
2557.912
2555.199
2552.487
2549.774
2547.062
2544.349
2541.637
2538.924
2536.212
2533.499
2530.787
2528.074
2525.362
2522.649
2519.937
2517.224
2514.512
2511.799
2509.087
2506.374
2503.662
2500.949
2498.237
2495.524
2492.812
2490.099
2487.387
2484.674
2481.962
2479.249
2476.537
2473.824
2471.112
2468.399
2465.687
2462.974
2460.262
2457.549
2454.837
2452.124
2449.412
2446.699
2443.987
2441.274
2438.562
2435.849
2433.137
2430.424
2427.712
2424.999
2422.287
2419.574
2416.862
2414.149
2411.437
2408.724
2406.012
2403.299
2400.587
2397.874
2395.162
2392.449
2389.737
2387.024
2384.312
2381.599
2378.887
2376.174
2373.462
2370.749
2368.037
2365.324
2362.612
2359.899
2357.187
2354.474
2351.762
2349.049
2346.337
2343.624
2340.912
2338.199
2335.487
2332.774
2330.062
2327.349
2324.637
2321.924
2319.212
2316.499
2313.787
2311.074
2303.278
2295.482
2287.686
2279.890
2272.094
2264.298
2256.502
2248.706
2240.910
2233.114
2225.318
2217.522
2209.726
2201.930
2194.134
2186.338
2178.542
2170.746
2162.950
2155.154
2147.358
2139.562
2131.766
2123.970
2116.174
2108.378
2100.582
2092.786
2084.990
2077.194
2069.398
2061.602
2053.806
2046.010
2038.214
2030.418
2022.622
2014.826
2007.030
1999.234
1991.438
1983.642
1975.846
1968.050
1960.254
1952.458
1944.662
1936.866
1929.070
1921.274
1913.478
1905.682
1897.886
1890.090
1882.294
1874.498
1866.702
1858.906
1851.110
1843.314
1835.518
1827.722
1819.926
1812.130
1804.334
1796.538
1788.742
1780.946
1773.150
1765.354
1757.558
1749.762
1741.966
1734.170
1726.374
1718.578
1710.782
1702.986
1695.190
1687.394
1679.598
1671.802
1664.006
1656.210
1648.414
1640.618
1632.822
1625.026
1617.230
1609.434
1601.638
1593.842
1586.046
1578.250
1570.454
1562.658
1554.862
1547.066
1539.270
1531.474
1523.678
1515.882
1508.086
1500.290
1492.494
1484.698
1476.902
1469.106
1461.310
1453.514
1445.718
1437.922
1430.126
1422.330
1414.534
1406.738
1398.942
1391.146
1383.350
1375.554
1367.758
1359.962
1352.166
1344.370
1336.574
1328.778
1320.982
1313.186
1305.390
1297.594
1289.798
1282.002
1274.206
1266.410
1258.614
1250.818
1243.022
1235.226
1227.430
1219.634
1211.838
1204.042
1196.246
1188.450
1180.654
1172.858
1165.062
1157.266
1149.470
1141.674
1133.878
1126.082
1118.286
1110.490
1102.694
1094.898
1087.102
1079.306
1071.510
1063.714
1055.918
1048.122
1040.326
1032.530
1024.734
1016.938
1009.142
1001.346
993.550
985.754
977.958
970.162
962.366
954.570
946.774
938.978
931.182
923.386
915.590
907.794
899.998
892.202
884.406
876.610
868.814
861.018
853.222
845.426
837.630
829.834
822.038
814.242
806.446
798.650
790.854
783.058
775.262
767.466
759.670
101.874
101.850
101.825
101.801
101.776
101.752
101.727
101.703
101.678
101.654
101.629
101.605
101.580
101.556
101.531
101.507
101.482
101.458
101.433
101.409
101.384
101.360
101.335
101.311
101.286
101.262
101.237
101.213
101.188
101.164
101.139
101.115
101.090
101.066
101.041
101.017
100.992
100.968
100.943
100.919
100.894
100.870
100.845
100.821
100.796
100.772
100.747
100.723
100.698
100.674
100.649
100.625
100.600
100.576
100.551
100.527
100.502
100.478
100.453
100.429
100.404
100.380
100.355
100.331
100.306
100.282
100.257
100.233
100.208
100.184
100.159
100.135
100.110
100.086
100.061
100.037
100.012
99.988
99.963
99.939
99.914
99.890
99.865
99.841
99.816
99.792
99.767
99.743
99.718
99.694
99.669
99.645
99.620
99.596
99.571
99.547
99.522
99.498
99.473
99.449
99.424
99.400
99.375
99.351
99.326
99.302
99.277
99.253
99.228
99.204
99.179
99.155
99.130
99.106
99.081
99.057
99.032
99.008
98.983
98.959
98.934
98.910
98.885
98.861
98.836
98.812
98.787
98.763
98.738
98.714
98.689
98.665
98.640
98.616
98.591
98.567
98.542
98.518
98.493
98.469
98.444
98.420
98.395
98.371
98.346
98.322
98.297
98.273
98.248
98.224
98.199
98.175
98.150
98.126
98.101
98.077
98.052
98.028
98.003
97.979
97.954
97.930
97.905
97.881
97.856
97.832
97.807
97.783
97.758
97.734
97.709
97.685
97.660
97.636
97.611
97.587
97.562
97.538
97.513
