1439.164
1440.142
1441.120
1442.098
1443.076
1444.054
1445.032
1446.010
1446.988
1447.966
1448.944
1449.922
1450.900
1451.878
1452.856
1453.834
1454.812
1455.790
1456.768
1457.746
1458.724
1459.702
1460.680
1461.658
1462.636
1463.614
1464.592
1465.570
1466.548
1467.526
1468.504
1469.482
1470.460
1471.438
1472.416
1473.394
1474.372
1475.350
1476.328
1477.306
1478.284
1479.262
1480.240
1481.218
1482.196
1483.174
1484.152
1485.130
1486.108
1487.086
1488.064
1489.042
1490.020
1490.998
1491.976
1492.954
1493.932
1494.910
1495.888
1496.866
1497.844
1498.822
1499.800
1500.778
1501.756
1502.734
1503.712
1504.690
1505.668
1506.646
1507.624
1508.602
1509.580
1510.558
1511.536
1512.514
1513.492
1514.470
1515.448
1516.426
1517.404
1518.382
1519.360
1520.338
1521.316
1522.294
1523.272
1525.300
1527.328
1529.356
1531.384
1533.412
1535.440
1537.468
1539.496
1541.524
1543.552
1545.580
1547.608
1549.636
1551.664
1553.692
1555.720
1557.748
1559.776
1561.804
1563.832
1565.860
1567.888
1569.916
1571.944
1573.972
1576.000
1578.028
1580.056
1582.084
1584.112
1586.140
1588.168
1590.196
1592.224
1594.252
1596.280
1598.308
1600.336
1602.364
1604.392
1606.420
1608.448
1610.476
1612.504
1614.532
1616.560
1618.588
1620.616
1622.644
1624.672
1626.700
1628.728
1630.756
1632.784
1634.812
1636.840
1638.868
1640.896
1642.924
1644.952
1646.980
1649.008
1651.036
1653.064
1655.092
1657.120
1659.148
1661.176
1663.204
1665.232
1667.260
1669.288
1671.316
1673.344
1675.372
1677.400
1679.428
1681.456
1683.484
1685.512
1687.540
1689.568
1691.596
1693.624
1695.652
1697.680
1699.708
1701.736
1703.764
1705.792
1707.820
1709.848
1711.876
1713.904
1715.932
1717.960
1719.988
1722.016
1724.044
1726.072
1728.100
1730.128
1732.156
1734.184
1736.212
1738.240
1740.268
1742.296
1744.324
1746.352
1748.380
1750.408
1752.436
1754.464
1756.492
1758.520
1760.548
1762.576
1764.604
1766.632
1768.660
1770.688
1772.716
1774.744
1776.772
1778.800
1780.828
1782.856
1784.884
1786.912
1788.940
1790.968
1792.996
1795.024
1797.052
1799.080
1801.108
1803.136
1805.164
1807.192
1809.220
1811.248
1813.276
1815.304
1817.332
1819.360
1821.388
1823.416
1825.444
1827.472
1829.500
1831.528
1833.556
1835.584
1837.612
1839.640
1841.668
1843.696
1845.724
1847.752
1849.780
1851.808
1853.836
1855.864
1857.892
1859.920
1861.948
1863.976
1866.004
1868.032
1870.060
1872.088
1874.116
1876.144
1878.172
1880.200
1882.228
1884.256
1886.284
1888.312
1890.340
1892.368
1894.396
1896.424
1898.452
1900.480
1902.508
1904.536
1906.564
1908.592
1910.620
1912.648
1914.676
1916.704
1918.732
1920.760
1922.788
1924.816
1926.844
1928.872
1928.897
1928.921
1928.946
1928.970
1928.995
1929.019
1929.044
1929.068
1929.093
1929.117
1929.142
1929.166
1929.191
1929.215
1929.240
1929.264
1929.289
1929.313
1929.338
1929.362
1929.387
1929.411
1929.436
1929.460
1929.485
1929.509
1929.534
1929.558
1929.583
1929.607
1929.632
1929.656
1929.681
1929.705
1929.730
1929.754
1929.779
1929.803
1929.828
1929.852
1929.877
1929.901
1929.926
1929.950
1929.975
1929.999
1930.024
1930.048
1930.073
1930.097
1930.122
1930.146
1930.171
1930.195
1930.220
1930.244
1930.269
1930.293
1930.318
1930.342
1930.367
1930.391
1930.416
1930.440
1930.465
1930.489
1930.514
1930.538
1930.563
1930.587
1930.612
1930.636
1930.661
1930.685
1930.710
1930.734
1930.759
1930.783
1930.808
1930.832
1930.857
1930.881
1930.906
1930.930
1930.955
1930.979
1931.004
1931.028
1931.053
1931.077
1931.102
1931.126
1931.151
1931.175
1931.200
1931.224
1931.249
1931.273
1931.298
1931.322
1931.347
1931.371
1931.396
1931.420
1931.445
1931.469
1931.494
1931.518
1931.543
1931.567
1931.592
1931.616
1931.641
1931.665
1931.690
1931.714
1931.739
1931.763
1931.788
1931.812
1931.837
1931.861
1931.886
1931.910
1931.935
1931.959
1931.984
1932.008
1932.033
1932.057
1932.082
1932.106
1932.131
1932.155
1932.180
1932.204
1932.229
1932.253
1932.278
1932.302
1932.327
1932.351
1932.376
1932.400
1932.425
1932.449
1932.474
1932.498
1932.523
1932.547
1932.572
1932.596
1932.621
1932.645
1932.670
1932.694
1932.719
1932.743
1932.768
1932.792
1932.817
1932.841
1932.866
1932.890
1932.915
1932.939
1932.964
1932.988
1933.013
1933.037
1933.062
1933.086
1933.111
1933.135
1933.160
1933.184
1933.209
1933.233
1933.258
1933.282
1933.307
1933.331
1933.356
1933.380
1933.405
1933.429
1933.454
1933.478
1933.503
1933.527
1933.552
1933.576
1933.601
1933.625
1933.650
1933.674
1933.699
1933.723
1933.748
1933.772
1935.239
1936.705
1938.172
1939.638
1941.105
1942.571
1944.038
1945.504
1946.971
1948.437
1949.904
1951.370
1952.837
1954.303
1955.770
1957.236
1958.703
1960.169
1961.636
1963.102
1964.569
1966.035
1967.502
1968.968
1970.435
1971.901
1973.368
1974.834
1976.301
1977.767
1979.234
1980.700
1982.167
1983.633
1985.100
1986.566
1988.033
1989.499
1990.966
1992.432
1993.899
1995.365
1996.832
1998.298
1999.765
2001.231
2002.698
2004.164
2005.631
2007.097
2008.564
2010.030
2011.497
2012.963
2014.430
2015.896
2017.363
2018.829
2020.296
2021.762
2023.229
2024.695
2026.162
2027.628
2029.095
2030.561
2032.028
2033.494
2034.961
2036.427
2037.894
2039.360
2040.827
2042.293
2043.760
2045.226
2046.693
2048.159
2049.626
2051.092
2052.559
2054.025
2055.492
2056.958
2058.425
2059.891
2061.358
2062.824
2064.291
2065.757
2067.224
2068.690
2070.157
2071.623
2073.090
2074.556
2076.023
2077.489
2078.956
2080.422
2081.889
2083.355
2084.822
2086.288
2087.755
2089.221
2090.688
2092.154
2093.621
2095.087
2096.554
2098.020
2099.487
2100.953
2102.420
2103.886
2105.353
2106.819
2108.286
2109.752
2111.219
2112.685
2114.152
2115.618
2117.085
2118.551
2120.018
2121.484
2122.951
2124.417
2125.884
2127.350
2128.817
2130.283
2131.750
2133.216
2134.683
2136.149
2137.616
2139.082
2140.549
2142.015
2143.482
2144.948
2146.415
2147.881
2149.348
2150.814
2152.281
2153.747
2155.214
2156.680
2158.147
2159.613
2161.080
2162.546
2164.013
2165.479
2166.946
2168.412
2169.879
2171.345
2172.812
2174.278
2175.745
2177.211
2178.678
2180.144
2181.611
2183.077
2184.544
2186.010
2187.477
2188.943
2190.410
2191.876
2193.343
2194.809
2196.276
2197.742
2199.209
2200.675
2202.142
2203.608
2205.075
2206.541
2208.008
2209.474
2210.941
2212.407
2213.874
2215.340
2216.807
2218.273
2219.740
2221.206
2222.673
2224.139
2225.606
2227.072
2227.121
2227.169
2227.218
2227.266
2227.315
2227.363
2227.412
2227.460
2227.509
2227.557
2227.606
2227.654
2227.703
2227.751
2227.800
2227.848
2227.897
2227.945
2227.994
2228.042
2228.091
2228.139
2228.188
2228.236
2228.285
2228.333
2228.382
2228.430
2228.479
2228.527
2228.576
2228.624
2228.673
2228.721
2228.770
2228.818
2228.867
2228.915
2228.964
2229.012
2229.061
2229.109
2229.158
2229.206
2229.255
2229.303
2229.352
2229.400
2229.449
2229.497
2229.546
2229.594
2229.643
2229.691
2229.740
2229.788
2229.837
2229.885
2229.934
2229.982
2230.031
2230.079
2230.128
2230.176
2230.225
2230.273
2230.322
2230.370
2230.419
2230.467
2230.516
2230.564
2230.613
2230.661
2230.710
2230.758
2230.807
2230.855
2230.904
2230.952
2231.001
2231.049
2231.098
2231.146
2231.195
2231.243
2231.292
2231.340
2231.389
2231.437
2231.486
2231.534
2231.583
2231.631
2231.680
2231.728
2231.777
2231.825
2231.874
2231.922
2231.971
2232.019
2232.068
2232.116
2232.165
2232.213
2232.262
2232.310
2232.359
2232.407
2232.456
2232.504
2232.553
2232.601
2232.650
2232.698
2232.747
2232.795
2232.844
2232.892
2232.941
2232.989
2233.038
2233.086
2233.135
2233.183
2233.232
2233.280
2233.329
2233.377
2233.426
2233.474
2233.523
2233.571
2233.620
2233.668
2233.717
2233.765
2233.814
2233.862
2233.911
2233.959
2234.008
2234.056
2234.105
2234.153
2234.202
2234.250
2234.299
2234.347
2234.396
2234.444
2234.493
2234.541
2234.590
2234.638
2234.687
2234.735
2234.784
2234.832
2234.881
2234.929
2234.978
2235.026
2235.075
2235.123
2235.172
2235.220
2235.269
2235.317
2235.366
2235.414
2235.463
2235.511
2235.560
2235.608
2235.657
2235.705
2235.754
2235.802
2235.851
2235.899
2235.948
2235.996
2236.045
2236.093
2236.142
2236.190
2236.239
2236.287
2236.336
2236.384
2236.433
2236.481
2236.530
2236.578
2236.627
2236.675
2236.724
2236.772
2236.748
2236.724
2236.700
2236.676
2236.652
2236.628
2236.604
2236.580
2236.556
2236.532
2236.508
2236.484
2236.460
2236.436
2236.412
2236.388
2236.364
2236.340
2236.316
2236.292
2236.268
2236.244
2236.220
2236.196
2236.172
2236.148
2236.124
2236.100
2236.076
2236.052
2236.028
2236.004
2235.980
2235.956
2235.932
2235.908
2235.884
2235.860
2235.836
2235.812
2235.788
2235.764
2235.740
2235.716
2235.692
2235.668
2235.644
2235.620
2235.596
2235.572
2235.548
2235.524
2235.500
2235.476
2235.452
2235.428
2235.404
2235.380
2235.356
2235.332
2235.308
2235.284
2235.260
2235.236
2235.212
2235.188
2235.164
2235.140
2235.116
2235.092
2235.068
2235.044
2235.020
2234.996
2234.972
2234.948
2234.924
2234.900
2234.876
2234.852
2234.828
2234.804
2234.780
2234.756
2234.732
2234.708
2234.684
2234.660
2234.636
2234.612
2234.588
2234.564
2234.540
2234.516
2234.492
2234.468
2234.444
2234.420
2234.396
2234.372
2234.348
2234.324
2234.300
2234.276
2234.252
2234.228
2234.204
2234.180
2234.156
2234.132
2234.108
2234.084
2234.060
2234.036
2234.012
2233.988
2233.964
2233.940
2233.916
2233.892
2233.868
2233.844
2233.820
2233.796
2233.772
2233.748
2233.724
2233.700
2233.676
2233.652
2233.628
2233.604
2233.580
2233.556
2233.532
2233.508
2233.484
2233.460
2233.436
2233.412
2233.388
2233.364
2233.340
2233.316
2233.292
2233.268
2233.244
2233.220
2233.196
2233.172
2233.148
2233.124
2233.100
2233.076
2233.052
2233.028
2233.004
2232.980
2232.956
2232.932
2232.908
2232.884
2232.860
2232.836
2232.812
2232.788
2232.764
2232.740
2232.716
2232.692
2232.668
2232.644
2232.620
2232.596
2232.572
2232.548
2232.524
2232.500
2232.476
2232.452
2232.428
2232.404
2232.380
2232.356
2232.332
2232.308
2232.284
2232.260
2232.236
2232.212
2232.188
2232.164
2232.140
2232.116
2232.092
2232.068
2232.044
2232.020
2231.996
2231.972
2232.656
2233.340
2234.024
2234.708
2235.392
2236.076
2236.760
2237.444
2238.128
2238.812
2239.496
2240.180
2240.864
2241.548
2242.232
2242.916
2243.600
2244.284
2244.968
2245.652
2246.336
2247.020
2247.704
2248.388
2249.072
2249.756
2250.440
2251.124
2251.808
2252.492
2253.176
2253.860
2254.544
2255.228
2255.912
2256.596
2257.280
2257.964
2258.648
2259.332
2260.016
2260.700
2261.384
2262.068
2262.752
2263.436
2264.120
2264.804
2265.488
2266.172
2266.856
2267.540
2268.224
2268.908
2269.592
2270.276
2270.960
2271.644
2272.328
2273.012
2273.696
2274.380
2275.064
2275.748
2276.432
2277.116
2277.800
2278.484
2279.168
2279.852
2280.536
2281.220
2281.904
2282.588
2283.272
2283.956
2284.640
2285.324
2286.008
2286.692
2287.376
2288.060
2288.744
2289.428
2290.112
2290.796
2291.480
2292.164
2292.848
2293.532
2294.216
2294.900
2295.584
2296.268
2296.952
2297.636
2298.320
2299.004
2299.688
2300.372
2301.056
2301.740
2302.424
2303.108
2303.792
2304.476
2305.160
2305.844
2306.528
2307.212
2307.896
2308.580
2309.264
2309.948
2310.632
2311.316
2312.000
2312.684
2313.368
2314.052
2314.736
2315.420
2316.104
2316.788
2317.472
2318.156
2318.840
2319.524
2320.208
2320.892
2321.576
2322.260
2322.944
2323.628
2324.312
2324.996
2325.680
2326.364
2327.048
2327.732
2328.416
2329.100
2329.784
2330.468
2331.152
2331.836
2332.520
2333.204
2333.888
2334.572
2335.256
2335.940
2336.624
2337.308
2337.992
2338.676
2339.360
2340.044
2340.728
2341.412
2342.096
2342.780
2343.464
2344.148
2344.832
2345.516
2346.200
2346.884
2347.568
2348.252
2348.936
2349.620
2350.304
2350.988
2351.672
2352.356
2353.040
2353.724
2354.408
2355.092
2355.776
2356.460
2357.144
2357.828
2358.512
2359.196
2359.880
2360.564
2361.248
2361.932
2362.616
2363.300
2363.984
2364.668
2365.352
2366.036
2366.720
2367.404
2368.088
2368.772
2367.379
2365.986
2364.593
2363.200
2361.807
2360.414
2359.021
2357.628
2356.235
2354.842
2353.449
2352.056
2350.663
2349.270
2347.877
2346.484
2345.091
2343.698
2342.305
2340.912
2339.519
2338.126
2336.733
2335.340
2333.947
2332.554
2331.161
2329.768
2328.375
2326.982
2325.589
2324.196
2322.803
2321.410
2320.017
2318.624
2317.231
2315.838
2314.445
2313.052
2311.659
2310.266
2308.873
2307.480
2306.087
2304.694
2303.301
2301.908
2300.515
2299.122
2297.729
2296.336
2294.943
2293.550
2292.157
2290.764
2289.371
2287.978
2286.585
2285.192
2283.799
2282.406
2281.013
2279.620
2278.227
2276.834
2275.441
2274.048
2272.655
2271.262
2269.869
2268.476
2267.083
2265.690
2264.297
2262.904
2261.511
2260.118
2258.725
2257.332
2255.939
2254.546
2253.153
2251.760
2250.367
2248.974
2247.581
2246.188
2244.795
2243.402
2242.009
2240.616
2239.223
2237.830
2236.437
2235.044
2233.651
2232.258
2230.865
2229.472
2228.079
2226.686
2225.293
2223.900
2222.507
2221.114
2219.721
2218.328
2216.935
2215.542
2214.149
2212.756
2211.363
2209.970
2208.577
2207.184
2205.791
2204.398
2203.005
2201.612
2200.219
2198.826
2197.433
2196.040
2194.647
2193.254
2191.861
2190.468
2189.075
2187.682
2186.289
2184.896
2183.503
2182.110
2180.717
2179.324
2177.931
2176.538
2175.145
2173.752
2172.359
2170.966
2169.573
2168.180
2166.787
2165.394
2164.001
2162.608
2161.215
2159.822
2158.429
2157.036
2155.643
2154.250
2152.857
2151.464
2150.071
2148.678
2147.285
2145.892
2144.499
2143.106
2141.713
2140.320
2138.927
2137.534
2136.141
2134.748
2133.355
2131.962
2130.569
2129.176
2127.783
2126.390
2124.997
2123.604
2122.211
2120.818
2119.425
2118.032
2116.639
2115.246
2113.853
2112.460
2111.067
2109.674
2108.281
2106.888
2105.495
2104.102
2102.709
2101.316
2099.923
2098.530
2097.137
2095.744
2094.351
2092.958
2091.565
2090.172
2089.879
2089.586
2089.293
2089.000
2088.707
2088.414
2088.121
2087.828
2087.535
2087.242
2086.949
2086.656
2086.363
2086.070
2085.777
2085.484
2085.191
2084.898
2084.605
2084.312
2084.019
2083.726
2083.433
2083.140
2082.847
2082.554
2082.261
2081.968
2081.675
2081.382
2081.089
2080.796
2080.503
2080.210
2079.917
2079.624
2079.331
2079.038
2078.745
2078.452
2078.159
2077.866
2077.573
2077.280
2076.987
2076.694
2076.401
2076.108
2075.815
2075.522
2075.229
2074.936
2074.643
2074.350
2074.057
2073.764
2073.471
2073.178
2072.885
2072.592
2072.299
2072.006
2071.713
2071.420
2071.127
2070.834
2070.541
2070.248
2069.955
2069.662
2069.369
2069.076
2068.783
2068.490
2068.197
2067.904
2067.611
2067.318
2067.025
2066.732
2066.439
2066.146
2065.853
2065.560
2065.267
2064.974
2064.681
2064.388
2064.095
2063.802
2063.509
2063.216
2062.923
2062.630
2062.337
2062.044
2061.751
2061.458
2061.165
2060.872
2060.579
2060.286
2059.993
2059.700
2059.407
2059.114
2058.821
2058.528
2058.235
2057.942
2057.649
2057.356
2057.063
2056.770
2056.477
2056.184
2055.891
2055.598
2055.305
2055.012
2054.719
2054.426
2054.133
2053.840
2053.547
2053.254
2052.961
2052.668
2052.375
2052.082
2051.789
2051.496
2051.203
2050.910
2050.617
2050.324
2050.031
2049.738
2049.445
2049.152
2048.859
2048.566
2048.273
2047.980
2047.687
2047.394
2047.101
2046.808
2046.515
2046.222
2045.929
2045.636
2045.343
2045.050
2044.757
2044.464
2044.171
2043.878
2043.585
2043.292
2042.999
2042.706
2042.413
2042.120
2041.827
2041.534
2041.241
2040.948
2040.655
2040.362
2040.069
2039.776
2039.483
2039.190
2038.897
2038.604
2038.311
2038.018
2037.725
2037.432
2037.139
2036.846
2036.553
2036.260
2035.967
2035.674
2035.381
2035.088
2034.795
2034.502
2034.209
2033.916
2033.623
2033.330
2033.037
2032.744
2032.451
2032.158
2031.865
100.972
100.948
100.923
100.899
100.874
100.850
100.825
100.801
100.776
100.752
100.727
100.703
100.678
100.654
100.629
100.605
100.580
100.556
100.531
100.507
100.482
100.458
100.433
100.409
100.384
100.360
100.335
100.311
100.286
100.262
100.237
100.213
100.188
100.164
100.139
100.115
100.090
100.066
100.041
100.017
99.992
99.968
99.943
99.919
99.894
99.870
99.845
99.821
99.796
99.772
99.747
99.723
99.698
99.674
99.649
99.625
99.600
99.576
99.551
99.527
99.502
99.478
99.453
99.429
99.404
99.380
99.355
99.331
99.306
99.282
99.257
99.233
99.208
99.184
99.159
99.135
99.110
99.086
99.061
99.037
99.012
98.988
98.963
98.939
98.914
98.890
98.865
98.841
98.816
98.792
98.767
98.743
98.718
98.694
98.669
98.645
98.620
98.596
98.571
98.547
98.522
98.498
98.473
98.449
98.424
98.400
98.375
98.351
98.326
98.302
98.277
98.253
98.228
98.204
98.179
98.155
98.130
98.106
98.081
98.057
98.032
98.008
97.983
97.959
97.934
97.910
97.885
97.861
97.836
97.812
97.787
97.763
97.738
97.714
97.689
97.665
97.640
97.616
97.591
97.567
97.542
97.518
97.493
97.469
97.444
97.420
97.395
97.371
97.346
97.322
97.297
97.273
97.248
97.224
97.199
97.175
97.150
97.126
97.101
97.077
97.052
97.028
97.003
96.979
96.954
96.930
96.905
96.881
96.856
96.832
96.807
96.783
96.758
96.734
96.709
96.685
96.660
96.636
96.611
96.587
96.562
96.538
96.513
96.489
96.464
96.440
96.415
96.391
96.366
96.342
96.317
96.293
96.268
96.244
96.219
96.195
96.170
96.146
96.121
96.097
96.072
96.097
96.121
96.146
96.170
96.195
96.219
96.244
96.268
96.293
96.317
96.342
96.366
96.391
96.415
96.440
96.464
96.489
96.513
96.538
96.562
96.587
96.611
96.636
96.660
96.685
96.709
96.734
96.758
96.783
96.807
96.832
96.856
96.881
96.905
96.930
96.954
96.979
97.003
97.028
97.052
97.077
97.101
97.126
97.150
97.175
97.199
97.224
97.248
97.273
97.297
97.322
97.346
97.371
97.395
97.420
97.444
97.469
97.493
97.518
97.542
97.567
97.591
97.616
97.640
97.665
97.689
97.714
97.738
97.763
97.787
97.812
97.836
97.861
97.885
97.910
97.934
97.959
97.983
98.008
98.032
98.057
98.081
98.106
98.130
98.155
98.179
98.204
98.228
98.253
98.277
98.302
98.326
98.351
98.375
98.400
98.424
98.449
98.473
98.498
98.522
98.547
98.571
98.596
98.620
98.645
98.669
98.694
98.718
98.743
98.767
98.792
98.816
98.841
