1763.511
1763.267
1763.023
1762.779
1762.535
1762.291
1762.047
1761.803
1761.559
1761.315
1761.071
1760.827
1760.583
1760.339
1760.095
1759.851
1759.607
1759.363
1759.119
1758.875
1758.631
1758.387
1758.143
1757.899
1757.655
1757.411
1757.167
1756.923
1756.679
1756.435
1756.191
1755.947
1755.703
1755.459
1755.215
1754.971
1754.727
1754.483
1754.239
1753.995
1753.751
1753.507
1753.263
1753.019
1752.775
1752.531
1752.287
1752.043
1751.799
1751.555
1751.311
1751.067
1750.823
1750.579
1750.335
1750.091
1749.847
1749.603
1749.359
1749.115
1748.871
1748.627
1748.383
1748.139
1747.895
1747.651
1747.407
1747.163
1746.919
1746.675
1746.431
1746.187
1745.943
1745.699
1745.455
1745.211
1744.967
1744.723
1744.479
1744.235
1743.991
1743.747
1743.503
1743.259
1743.015
1742.771
1742.527
1742.283
1742.039
1741.795
1741.551
1741.307
1741.063
1740.819
1740.575
1740.331
1740.087
1739.843
1739.599
1739.355
1739.111
1738.867
1738.623
1738.379
1738.135
1737.891
1737.647
1737.403
1737.159
1736.915
1736.671
1736.427
1736.183
1735.939
1735.695
1735.451
1735.207
1734.963
1734.719
1734.475
1734.231
1733.987
1733.743
1733.499
1733.255
1733.011
1732.767
1732.523
1732.279
1732.035
1731.791
1731.547
1731.303
1731.059
1730.815
1730.571
1730.327
1730.083
1729.839
1729.595
1729.351
1729.107
1728.863
1728.619
1728.375
1728.131
1727.887
1727.643
1727.399
1727.155
1726.911
1726.667
1726.423
1726.179
1725.935
1725.691
1725.447
1725.203
1724.959
1724.715
1724.471
1724.227
1723.983
1723.739
1723.495
1723.251
1723.007
1722.763
1722.519
1722.275
1722.031
1721.787
1721.543
1721.299
1721.055
1720.811
1720.567
1720.323
1720.079
1719.835
1719.591
1719.347
1721.570
1723.794
1726.017
1728.241
1730.464
1732.688
1734.911
1737.135
1739.358
1741.582
1743.805
1746.029
1748.252
1750.476
1752.699
1754.923
1757.146
1759.370
1761.593
1763.817
1766.040
1768.264
1770.487
1772.711
1774.934
1777.158
1779.381
1781.605
1783.828
1786.052
1788.275
1790.499
1792.722
1794.946
1797.169
1799.393
1801.616
1803.840
1806.063
1808.287
1810.510
1812.734
1814.957
1817.181
1819.404
1821.628
1823.851
1826.075
1828.298
1830.522
1832.745
1834.969
1837.192
1839.416
1841.639
1843.863
1846.086
1848.310
1850.533
1852.757
1854.980
1857.204
1859.427
1861.651
1863.874
1866.098
1868.321
1870.545
1872.768
1874.992
1877.215
1879.439
1881.662
1883.886
1886.109
1888.333
1890.556
1892.780
1895.003
1897.227
1899.450
1901.674
1903.897
1906.121
1908.344
1910.568
1912.791
1915.015
1917.238
1919.462
1921.685
1923.909
1926.132
1928.356
1930.579
1932.803
1935.026
1937.250
1939.473
1941.697
1943.920
1946.144
1948.367
1950.591
1952.814
1955.038
1957.261
1959.485
1961.708
1963.932
1966.155
1968.379
1970.602
1972.826
1975.049
1977.273
1979.496
1981.720
1983.943
1986.167
1988.390
1990.614
1992.837
1995.061
1997.284
1999.508
2001.731
2003.955
2006.178
2008.402
2010.625
2012.849
2015.072
2017.296
2019.519
2021.743
2023.966
2026.190
2028.413
2030.637
2032.860
2035.084
2037.307
2039.531
2041.754
2043.978
2046.201
2048.425
2050.648
2052.872
2055.095
2057.319
2059.542
2061.766
2063.989
2066.213
2068.436
2070.660
2072.883
2075.107
2077.330
2079.554
2081.777
2084.001
2086.224
2088.448
2090.671
2092.895
2095.118
2097.342
2099.565
2101.789
2104.012
2106.236
2108.459
2110.683
2112.906
2115.130
2117.353
2119.577
2121.800
2124.024
2126.247
2128.471
2130.694
2132.918
2135.141
2137.365
2139.588
2141.812
2144.035
2146.259
2148.482
2150.706
2152.929
2155.153
2157.376
2159.600
2161.823
2164.047
2163.265
2162.483
2161.701
2160.919
2160.137
2159.355
2158.573
2157.791
2157.009
2156.227
2155.445
2154.663
2153.881
2153.099
2152.317
2151.535
2150.753
2149.971
2149.189
2148.407
2147.625
2146.843
2146.061
2145.279
2144.497
2143.715
2142.933
2142.151
2141.369
2140.587
2139.805
2139.023
2138.241
2137.459
2136.677
2135.895
2135.113
2134.331
2133.549
2132.767
2131.985
2131.203
2130.421
2129.639
2128.857
2128.075
2127.293
2126.511
2125.729
2124.947
2124.165
2123.383
2122.601
2121.819
2121.037
2120.255
2119.473
2118.691
2117.909
2117.127
2116.345
2115.563
2114.781
2113.999
2113.217
2112.435
2111.653
2110.871
2110.089
2109.307
2108.525
2107.743
2106.961
2106.179
2105.397
2104.615
2103.833
2103.051
2102.269
2101.487
2100.705
2099.923
2099.141
2098.359
2097.577
2096.795
2096.013
2095.231
2094.449
2093.667
2092.885
2092.103
2091.321
2090.539
2089.757
2088.975
2088.193
2087.411
2086.629
2085.847
2085.065
2084.283
2083.501
2082.719
2081.937
2081.155
2080.373
2079.591
2078.809
2078.027
2077.245
2076.463
2075.681
2074.899
2074.117
2073.335
2072.553
2071.771
2070.989
2070.207
2069.425
2068.643
2067.861
2067.079
2066.297
2065.515
2064.733
2063.951
2063.169
2062.387
2061.605
2060.823
2060.041
2059.259
2058.477
2057.695
2056.913
2056.131
2055.349
2054.567
2053.785
2053.003
2052.221
2051.439
2050.657
2049.875
2049.093
2048.311
2047.529
2046.747
2045.965
2045.183
2044.401
2043.619
2042.837
2042.055
2041.273
2040.491
2039.709
2038.927
2038.145
2037.363
2036.581
2035.799
2035.017
2034.235
2033.453
2032.671
2031.889
2031.107
2030.325
2029.543
2028.761
2027.979
2027.197
2026.415
2025.633
2024.851
2024.069
2023.287
2022.505
2021.723
2020.941
2020.159
2019.377
2018.595
2017.813
2017.031
2016.249
2015.467
2014.685
2013.903
2013.121
2012.339
2011.557
2010.775
2009.993
2009.211
2008.429
2007.647
2006.278
2004.910
2003.541
2002.173
2000.804
1999.436
1998.067
1996.699
1995.330
1993.962
1992.593
1991.225
1989.856
1988.488
1987.119
1985.751
1984.382
1983.014
1981.645
1980.277
1978.908
1977.540
1976.171
1974.803
1973.434
1972.066
1970.697
1969.329
1967.960
1966.592
1965.223
1963.855
1962.486
1961.118
1959.749
1958.381
1957.012
1955.644
1954.275
1952.907
1951.538
1950.170
1948.801
1947.433
1946.064
1944.696
1943.327
1941.959
1940.590
1939.222
1937.853
1936.485
1935.116
1933.748
1932.379
1931.011
1929.642
1928.274
1926.905
1925.537
1924.168
1922.800
1921.431
1920.063
1918.694
1917.326
1915.957
1914.589
1913.220
1911.852
1910.483
1909.115
1907.746
1906.378
1905.009
1903.641
1902.272
1900.904
1899.535
1898.167
1896.798
1895.430
1894.061
1892.693
1891.324
1889.956
1888.587
1887.219
1885.850
1884.482
1883.113
1881.745
1880.376
1879.008
1877.639
1876.271
1874.902
1873.534
1872.165
1870.797
1869.428
1868.060
1866.691
1865.323
1863.954
1862.586
1861.217
1859.849
1858.480
1857.112
1855.743
1854.375
1853.006
1851.638
1850.269
1848.901
1847.532
1846.164
1844.795
1843.427
1842.058
1840.690
1839.321
1837.953
1836.584
1835.216
1833.847
1832.479
1831.110
1829.742
1828.373
1827.005
1825.636
1824.268
1822.899
1821.531
1820.162
1818.794
1817.425
1816.057
1814.688
1813.320
1811.951
1810.583
1809.214
1807.846
1806.477
1805.109
1803.740
1802.372
1801.003
1799.635
1798.266
1796.898
1795.529
1794.161
1792.792
1791.424
1790.055
1788.687
1787.318
1785.950
1784.581
1783.213
1781.844
1780.476
1779.107
1777.739
1776.370
1775.002
1773.633
1772.265
1770.896
1769.528
1768.159
1766.791
1765.422
1764.054
1762.685
1761.317
1759.948
1758.580
1757.211
1755.843
1754.474
1753.106
1751.737
1750.369
1749.000
1747.632
1746.263
1744.895
1743.526
1742.158
1740.789
1739.421
1738.052
1736.684
1735.315
1733.947
1736.073
1738.200
1740.326
1742.453
1744.579
1746.706
1748.832
1750.959
1753.085
1755.212
1757.338
1759.465
1761.591
1763.718
1765.844
1767.971
1770.097
1772.224
1774.350
1776.477
1778.603
1780.730
1782.856
1784.983
1787.109
1789.236
1791.362
1793.489
1795.615
1797.742
1799.868
1801.995
1804.121
1806.248
1808.374
1810.501
1812.627
1814.754
1816.880
1819.007
1821.133
1823.260
1825.386
1827.513
1829.639
1831.766
1833.892
1836.019
1838.145
1840.272
1842.398
1844.525
1846.651
1848.778
1850.904
1853.031
1855.157
1857.284
1859.410
1861.537
1863.663
1865.790
1867.916
1870.043
1872.169
1874.296
1876.422
1878.549
1880.675
1882.802
1884.928
1887.055
1889.181
1891.308
1893.434
1895.561
1897.687
1899.814
1901.940
1904.067
1906.193
1908.320
1910.446
1912.573
1914.699
1916.826
1918.952
1921.079
1923.205
1925.332
1927.458
1929.585
1931.711
1933.838
1935.964
1938.091
1940.217
1942.344
1944.470
1946.597
1948.723
1950.850
1952.976
1955.103
1957.229
1959.356
1961.482
1963.609
1965.735
1967.862
1969.988
1972.115
1974.241
1976.368
1978.494
1980.621
1982.747
1984.874
1987.000
1989.127
1991.253
1993.380
1995.506
1997.633
1999.759
2001.886
2004.012
2006.139
2008.265
2010.392
2012.518
2014.645
2016.771
2018.898
2021.024
2023.151
2025.277
2027.404
2029.530
2031.657
2033.783
2035.910
2038.036
2040.163
2042.289
2044.416
2046.542
2048.669
2050.795
2052.922
2055.048
2057.175
2059.301
2061.428
2063.554
2065.681
2067.807
2069.934
2072.060
2074.187
2076.313
2078.440
2080.566
2082.693
2084.819
2086.946
2089.072
2091.199
2093.325
2095.452
2097.578
2099.705
2101.831
2103.958
2106.084
2108.211
2110.337
2112.464
2114.590
2116.717
2118.843
2120.970
2123.096
2125.223
2127.349
2129.476
2131.602
2133.729
2135.855
2137.982
2140.108
2142.235
2144.361
2146.488
2148.614
2150.741
2152.867
2154.994
2157.120
2159.247
2155.654
2152.062
2148.469
2144.877
2141.284
2137.692
2134.099
2130.507
2126.914
2123.322
2119.729
2116.137
2112.544
2108.952
2105.359
2101.767
2098.174
2094.582
2090.989
2087.397
2083.804
2080.212
2076.619
2073.027
2069.434
2065.842
2062.249
2058.657
2055.064
2051.472
2047.879
2044.287
2040.694
2037.102
2033.509
2029.917
2026.324
2022.732
2019.139
2015.547
2011.954
2008.362
2004.769
2001.177
1997.584
1993.992
1990.399
1986.807
1983.214
1979.622
1976.029
1972.437
1968.844
1965.252
1961.659
1958.067
1954.474
1950.882
1947.289
1943.697
1940.104
1936.512
1932.919
1929.327
1925.734
1922.142
1918.549
1914.957
1911.364
1907.772
1904.179
1900.587
1896.994
1893.402
1889.809
1886.217
1882.624
1879.032
1875.439
1871.847
1868.254
1864.662
1861.069
1857.477
1853.884
1850.292
1846.699
1843.107
1839.514
1835.922
1832.329
1828.737
1825.144
1821.552
1817.959
1814.367
1810.774
1807.182
1803.589
1799.997
1796.404
1792.812
1789.219
1785.627
1782.034
1778.442
1774.849
1771.257
1767.664
1764.072
1760.479
1756.887
1753.294
1749.702
1746.109
1742.517
1738.924
1735.332
1731.739
1728.147
1724.554
1720.962
1717.369
1713.777
1710.184
1706.592
1702.999
1699.407
1695.814
1692.222
1688.629
1685.037
1681.444
1677.852
1674.259
1670.667
1667.074
1663.482
1659.889
1656.297
1652.704
1649.112
1645.519
1641.927
1638.334
1634.742
1631.149
1627.557
1623.964
1620.372
1616.779
1613.187
1609.594
1606.002
1602.409
1598.817
1595.224
1591.632
1588.039
1584.447
1580.854
1577.262
1573.669
1570.077
1566.484
1562.892
1559.299
1555.707
1552.114
1548.522
1544.929
1541.337
1537.744
1534.152
1530.559
1526.967
1523.374
1519.782
1516.189
1512.597
1509.004
1505.412
1501.819
1498.227
1494.634
1491.042
1487.449
1483.857
1480.264
1476.672
1473.079
1469.487
1465.894
1462.302
1458.709
1455.117
1451.524
1447.932
1444.339
1440.747
1441.064
1441.382
1441.699
1442.017
1442.334
1442.652
1442.969
1443.287
1443.604
1443.922
1444.239
1444.557
1444.874
1445.192
1445.509
1445.827
1446.144
1446.462
1446.779
1447.097
1447.414
1447.732
1448.049
1448.367
1448.684
1449.002
1449.319
1449.637
1449.954
1450.272
1450.589
1450.907
1451.224
1451.542
1451.859
1452.177
1452.494
1452.812
1453.129
1453.447
1453.764
1454.082
1454.399
1454.717
1455.034
1455.352
1455.669
1455.987
1456.304
1456.622
1456.939
1457.257
1457.574
1457.892
1458.209
1458.527
1458.844
1459.162
1459.479
1459.797
1460.114
1460.432
1460.749
1461.067
1461.384
1461.702
1462.019
1462.337
1462.654
1462.972
1463.289
1463.607
1463.924
1464.242
1464.559
1464.877
1465.194
1465.512
1465.829
1466.147
1466.464
1466.782
1467.099
1467.417
1467.734
1468.052
1468.369
1468.687
1469.004
1469.322
1469.639
1469.957
1470.274
1470.592
1470.909
1471.227
1471.544
1471.862
1472.179
1472.497
1472.814
1473.132
1473.449
1473.767
1474.084
1474.402
1474.719
1475.037
1475.354
1475.672
1475.989
1476.307
1476.624
1476.942
1477.259
1477.577
1477.894
1478.212
1478.529
1478.847
1479.164
1479.482
1479.799
1480.117
1480.434
1480.752
1481.069
1481.387
1481.704
1482.022
1482.339
1482.657
1482.974
1483.292
1483.609
1483.927
1484.244
1484.562
1484.879
1485.197
1485.514
1485.832
1486.149
1486.467
1486.784
1487.102
1487.419
1487.737
1488.054
1488.372
1488.689
1489.007
1489.324
1489.642
1489.959
1490.277
1490.594
1490.912
1491.229
1491.547
1491.864
1492.182
1492.499
1492.817
1493.134
1493.452
1493.769
1494.087
1494.404
1494.722
1495.039
1495.357
1495.674
1495.992
1496.309
1496.627
1496.944
1497.262
1497.579
1497.897
1498.214
1498.532
1498.849
1499.167
1499.484
1499.802
1500.119
1500.437
1500.754
1501.072
1501.389
1501.707
1502.024
1502.342
1502.659
1502.977
1503.294
1503.612
1503.929
1504.247
1498.993
1493.739
1488.485
1483.231
1477.977
1472.723
1467.469
1462.215
1456.961
1451.707
1446.453
1441.199
1435.945
1430.691
1425.437
1420.183
1414.929
1409.675
1404.421
1399.167
1393.913
1388.659
1383.405
1378.151
1372.897
1367.643
1362.389
1357.135
1351.881
1346.627
1341.373
1336.119
1330.865
1325.611
1320.357
1315.103
1309.849
1304.595
1299.341
1294.087
1288.833
1283.579
1278.325
1273.071
1267.817
1262.563
1257.309
1252.055
1246.801
1241.547
1236.293
1231.039
1225.785
1220.531
1215.277
1210.023
1204.769
1199.515
1194.261
1189.007
1183.753
1178.499
1173.245
1167.991
1162.737
1157.483
1152.229
1146.975
1141.721
1136.467
1131.213
1125.959
1120.705
1115.451
1110.197
1104.943
1099.689
1094.435
1089.181
1083.927
1078.673
1073.419
1068.165
1062.911
1057.657
1052.403
1047.149
1041.895
1036.641
1031.387
1026.133
1020.879
1015.625
1010.371
1005.117
999.863
994.609
989.355
984.101
978.847
973.593
968.339
963.085
957.831
952.577
947.323
942.069
936.815
931.561
926.307
921.053
915.799
910.545
905.291
900.037
894.783
889.529
884.275
879.021
873.767
868.513
863.259
858.005
852.751
847.497
842.243
836.989
831.735
826.481
821.227
815.973
810.719
805.465
800.211
794.957
789.703
784.449
779.195
773.941
768.687
763.433
758.179
752.925
747.671
742.417
737.163
731.909
726.655
721.401
716.147
710.893
705.639
700.385
695.131
689.877
684.623
679.369
674.115
668.861
663.607
658.353
653.099
647.845
642.591
637.337
632.083
626.829
621.575
616.321
611.067
605.813
600.559
595.305
590.051
584.797
579.543
574.289
569.035
563.781
558.527
553.273
548.019
542.765
537.511
532.257
527.003
521.749
516.495
511.241
505.987
500.733
495.479
490.225
484.971
479.717
474.463
469.209
463.955
458.701
111.347
111.347
111.347
111.347
111.347
111.347
111.347
111.347
111.347
111.347
111.347
111.347
111.347
111.347
111.347
111.347
111.347
111.347
111.347
111.347
111.347
111.347
111.347
111.347
111.347
111.347
111.347
111.347
111.347
111.347
111.347
111.347
111.347
111.347
111.347
111.347
111.347
111.347
111.347
111.347
111.347
111.347
111.347
111.347
111.347
111.347
111.347
111.347
111.347
111.347
111.347
111.347
111.347
111.347
111.347
111.347
111.347
111.347
111.347
111.347
111.347
111.347
111.347
111.347
111.347
111.347
111.347
111.347
111.347
111.347
111.347
111.347
111.347
111.347
111.347
111.347
111.347
111.347
111.347
111.347
111.347
111.347
111.347
111.347
111.347
111.347
111.347
111.347
111.347
111.347
111.347
111.347
111.347
111.347
111.347
111.347
111.347
111.347
111.347
111.347
111.347
111.347
111.347
111.347
111.347
111.347
111.347
111.347
111.347
111.347
111.347
111.347
111.347
111.347
111.347
111.347
111.347
111.347
111.347
111.347
111.347
111.347
111.347
111.347
111.347
111.347
111.347
111.347
111.347
111.347
111.347
111.347
111.347
111.347
111.347
111.347
111.347
111.347
111.347
111.347
111.347
111.347
111.347
111.347
111.347
111.347
111.347
111.347
111.347
111.347
111.347
111.347
111.347
111.347
111.347
111.347
111.347
111.347
111.347
111.347
111.347
111.347
111.347
111.347
111.347
111.347
111.347
111.347
111.347
111.347
111.347
111.347
111.347
111.347
111.347
111.347
111.347
111.347
111.347
111.347
111.347
111.347
111.347
111.347
111.347
111.347
111.347
111.347
111.347
111.347
111.347
111.347
111.347
111.347
111.347
111.347
111.347
111.347
111.347
111.347
111.347
111.347
111.347
111.347
111.347
111.347
111.347
111.347
111.347
111.347
111.347
111.347
111.347
111.347
111.347
111.347
111.347
111.347
111.347
111.347
111.347
111.347
111.347
111.347
111.347
111.347
111.347
111.347
111.347
111.347
111.347
111.347
111.347
111.347
111.347
111.347
111.347
111.347
111.347
111.347
111.347
111.347
111.347
111.347
111.347
111.347
111.347
111.347
111.347
111.347
111.347
111.347
111.347
111.347
111.347
111.347
111.347
111.347
111.347
111.347
111.347
111.347
111.347
111.347
111.347
111.347
111.347
111.347
111.347
111.347
111.347
111.347
111.347
111.347
111.347
111.347
111.347
111.347
111.347
111.347
111.347
111.347
111.347
111.347
111.347
111.347
111.347
111.347
111.347
111.347
111.347
111.347
111.347
111.347
111.347
111.347
111.347
111.347
111.347
111.347
111.347
111.347
111.347
111.347
111.347
111.347
111.347
111.347
111.347
111.347
111.347
111.347
111.347
111.347
111.347
111.347
111.347
111.347
111.347
111.347
111.347
111.347
111.347
111.347
111.347
111.347
111.347
111.347
111.347
111.347
111.347
111.347
111.347
111.347
111.347
111.347
111.347
111.347
111.347
111.347
111.347
111.347
111.347
111.347
111.347
111.347
111.347
111.347
111.347
111.347
111.347
111.347
111.347
111.347
111.347
111.347
111.347
111.347
111.347
111.347
111.347
111.347
111.347
111.347
111.347
111.347
111.347
111.347
111.347
111.347
111.347
111.347
111.347
111.347
111.347
111.347
111.347
111.347
111.347
111.347
111.347
111.347
111.347
111.347
111.347
111.347
111.347
111.347
111.347
111.347
111.347
111.347
111.347
111.347
111.347
111.347
111.347
111.347
111.347
111.347
111.347
111.347
111.347
111.347
111.347
111.347
111.347
111.347
111.347
111.347
111.347
111.347
111.347
111.347
111.347
111.347
111.347
111.347
111.347
