2260.872
2261.556
2262.240
2262.924
2263.608
2264.292
2264.976
2265.660
2266.344
2267.028
2267.712
2268.396
2269.080
2269.764
2270.448
2271.132
2271.816
2272.500
2273.184
2273.868
2274.552
2275.236
2275.920
2276.604
2277.288
2277.972
2278.656
2279.340
2280.024
2280.708
2281.392
2282.076
2282.760
2283.444
2284.128
2284.812
2285.496
2286.180
2286.864
2287.548
2288.232
2288.916
2289.600
2290.284
2290.968
2291.652
2292.336
2293.020
2293.704
2294.388
2295.072
2295.756
2296.440
2297.124
2297.808
2298.492
2299.176
2299.860
2300.544
2301.228
2301.912
2302.596
2303.280
2303.964
2304.648
2305.332
2306.016
2306.700
2307.384
2308.068
2308.752
2309.436
2310.120
2310.804
2311.488
2312.172
2312.856
2313.540
2314.224
2314.908
2315.592
2316.276
2316.960
2317.644
2318.328
2319.012
2319.696
2320.380
2321.064
2321.748
2322.432
2323.116
2323.800
2324.484
2325.168
2325.852
2326.536
2327.220
2327.904
2328.588
2329.272
2329.956
2330.640
2331.324
2332.008
2332.692
2333.376
2334.060
2334.744
2335.428
2336.112
2336.796
2337.480
2338.164
2338.848
2339.532
2340.216
2340.900
2341.584
2342.268
2342.952
2343.636
2344.320
2345.004
2345.688
2346.372
2347.056
2345.663
2344.270
2342.877
2341.484
2340.091
2338.698
2337.305
2335.912
2334.519
2333.126
2331.733
2330.340
2328.947
2327.554
2326.161
2324.768
2323.375
2321.982
2320.589
2319.196
2317.803
2316.410
2315.017
2313.624
2312.231
2310.838
2309.445
2308.052
2306.659
2305.266
2303.873
2302.480
2301.087
2299.694
2298.301
2296.908
2295.515
2294.122
2292.729
2291.336
2289.943
2288.550
2287.157
2285.764
2284.371
2282.978
2281.585
2280.192
2278.799
2277.406
2276.013
2274.620
2273.227
2271.834
2270.441
2269.048
2267.655
2266.262
2264.869
2263.476
2262.083
2260.690
2259.297
2257.904
2256.511
2255.118
2253.725
2252.332
2250.939
2249.546
2248.153
2246.760
2245.367
2243.974
2242.581
2241.188
2239.795
2238.402
2237.009
2235.616
2234.223
2232.830
2231.437
2230.044
2228.651
2227.258
2225.865
2224.472
2223.079
2221.686
2220.293
2218.900
2217.507
2216.114
2214.721
2213.328
2211.935
2210.542
2209.149
2207.756
2206.363
2204.970
2203.577
2202.184
2200.791
2199.398
2198.005
2196.612
2195.219
2193.826
2192.433
2191.040
2189.647
2188.254
2186.861
2185.468
2184.075
2182.682
2181.289
2179.896
2178.503
2177.110
2175.717
2174.324
2172.931
2171.538
2170.145
2168.752
2167.359
2165.966
2164.573
2163.180
2161.787
2160.394
2159.001
2157.608
2156.215
2154.822
2153.429
2152.036
2150.643
2149.250
2147.857
2146.464
2145.071
2143.678
2142.285
2140.892
2139.499
2138.106
2136.713
2135.320
2133.927
2132.534
2131.141
2129.748
2128.355
2126.962
2125.569
2124.176
2122.783
2121.390
2119.997
2118.604
2117.211
2115.818
2114.425
2113.032
2111.639
2110.246
2108.853
2107.460
2106.067
2104.674
2103.281
2101.888
2100.495
2099.102
2097.709
2096.316
2094.923
2093.530
2092.137
2090.744
2089.351
2087.958
2086.565
2085.172
2083.779
2082.386
2080.993
2079.600
2078.207
2076.814
2075.421
2074.028
2072.635
2071.242
2069.849
2068.456
2068.163
2067.870
2067.577
2067.284
2066.991
2066.698
2066.405
2066.112
2065.819
2065.526
2065.233
2064.940
2064.647
2064.354
2064.061
2063.768
2063.475
2063.182
2062.889
2062.596
2062.303
2062.010
2061.717
2061.424
2061.131
2060.838
2060.545
2060.252
2059.959
2059.666
2059.373
2059.080
2058.787
2058.494
2058.201
2057.908
2057.615
2057.322
2057.029
2056.736
2056.443
2056.150
2055.857
2055.564
2055.271
2054.978
2054.685
2054.392
2054.099
2053.806
2053.513
2053.220
2052.927
2052.634
2052.341
2052.048
2051.755
2051.462
2051.169
2050.876
2050.583
2050.290
2049.997
2049.704
2049.411
2049.118
2048.825
2048.532
2048.239
2047.946
2047.653
2047.360
2047.067
2046.774
2046.481
2046.188
2045.895
2045.602
2045.309
2045.016
2044.723
2044.430
2044.137
2043.844
2043.551
2043.258
2042.965
2042.672
2042.379
2042.086
2041.793
2041.500
2041.207
2040.914
2040.621
2040.328
2040.035
2039.742
2039.449
2039.156
2038.863
2038.570
2038.277
2037.984
2037.691
2037.398
2037.105
2036.812
2036.519
2036.226
2035.933
2035.640
2035.347
2035.054
2034.761
2034.468
2034.175
2033.882
2033.589
2033.296
2033.003
2032.710
2032.417
2032.124
2031.831
2031.538
2031.245
2030.952
2030.659
2030.366
2030.073
2029.780
2029.487
2029.194
2028.901
2028.608
2028.315
2028.022
2027.729
2027.436
2027.143
2026.850
2026.557
2026.264
2025.971
2025.678
2025.385
2025.092
2024.799
2024.506
2024.213
2023.920
2023.627
2023.334
2023.041
2022.748
2022.455
2022.162
2021.869
2021.576
2021.283
2020.990
2020.697
2020.404
2020.111
2019.818
2019.525
2019.232
2018.939
2018.646
2018.353
2018.060
2017.767
2017.474
2017.181
2016.888
2016.595
2016.302
2016.009
2015.716
2015.423
2015.130
2014.837
2014.544
2014.251
2013.958
2013.665
2013.372
2013.079
2012.786
2012.493
2012.200
2011.907
2011.614
2011.321
2011.028
2010.735
2010.442
2010.149
2009.856
2002.182
1994.509
1986.835
1979.162
1971.488
1963.815
1956.141
1948.468
1940.794
1933.121
1925.447
1917.774
1910.100
1902.427
1894.753
1887.080
1879.406
1871.733
1864.059
1856.386
1848.712
1841.039
1833.365
1825.692
1818.018
1810.345
1802.671
1794.998
1787.324
1779.651
1771.977
1764.304
1756.630
1748.957
1741.283
1733.610
1725.936
1718.263
1710.589
1702.916
1695.242
1687.569
1679.895
1672.222
1664.548
1656.875
1649.201
1641.528
1633.854
1626.181
1618.507
1610.834
1603.160
1595.487
1587.813
1580.140
1572.466
1564.793
1557.119
1549.446
1541.772
1534.099
1526.425
1518.752
1511.078
1503.405
1495.731
1488.058
1480.384
1472.711
1465.037
1457.364
1449.690
1442.017
1434.343
1426.670
1418.996
1411.323
1403.649
1395.976
1388.302
1380.629
1372.955
1365.282
1357.608
1349.935
1342.261
1334.588
1326.914
1319.241
1311.567
1303.894
1296.220
1288.547
1280.873
1273.200
1265.526
1257.853
1250.179
1242.506
1234.832
1227.159
1219.485
1211.812
1204.138
1196.465
1188.791
1181.118
1173.444
1165.771
1158.097
1150.424
1142.750
1135.077
1127.403
1119.730
1112.056
1104.383
1096.709
1089.036
1081.362
1073.689
1066.015
1058.342
1050.668
1042.995
1035.321
1027.648
1019.974
1012.301
1004.627
996.954
989.280
981.607
973.933
966.260
958.586
950.913
943.239
935.566
927.892
920.219
912.545
904.872
897.198
889.525
881.851
874.178
866.504
858.831
851.157
843.484
835.810
828.137
820.463
812.790
805.116
797.443
789.769
782.096
774.422
766.749
759.075
751.402
743.728
736.055
728.381
720.708
713.034
705.361
697.687
690.014
682.340
674.667
666.993
659.320
651.646
643.973
636.299
628.626
620.952
613.279
605.605
597.932
590.258
582.585
574.911
567.238
559.564
551.891
544.217
536.544
528.870
521.197
513.523
505.850
498.176
490.503
482.829
79.256
79.256
79.256
79.256
79.256
79.256
79.256
79.256
79.256
79.256
79.256
79.256
79.256
79.256
79.256
79.256
79.256
79.256
79.256
79.256
79.256
79.256
79.256
79.256
79.256
79.256
79.256
79.256
79.256
79.256
79.256
79.256
79.256
79.256
79.256
79.256
79.256
79.256
79.256
79.256
79.256
79.256
79.256
79.256
79.256
79.256
79.256
79.256
79.256
79.256
79.256
79.256
79.256
79.256
79.256
79.256
79.256
79.256
79.256
79.256
79.256
79.256
79.256
79.256
79.256
79.256
79.256
79.256
79.256
79.256
79.256
79.256
79.256
79.256
79.256
79.256
79.256
79.256
79.256
79.256
79.256
79.256
79.256
79.256
79.256
79.256
79.256
79.256
79.256
79.256
79.256
79.256
79.256
79.256
79.256
79.256
79.256
79.256
79.256
79.256
79.256
79.256
79.256
79.256
79.256
79.256
79.256
79.256
79.256
79.256
79.256
79.256
79.256
79.256
79.256
79.256
79.256
79.256
79.256
79.256
79.256
79.256
79.256
79.256
79.256
79.256
79.256
79.256
79.256
79.256
79.256
79.256
79.256
79.256
79.256
79.256
79.256
79.256
79.256
79.256
79.256
79.256
79.256
79.256
79.256
79.256
79.256
79.256
79.256
79.256
79.256
79.256
79.256
79.256
79.256
79.256
79.256
79.256
79.256
79.256
79.256
79.256
79.256
79.256
79.256
79.256
79.256
79.256
79.256
79.256
79.256
79.256
79.256
79.256
79.256
79.256
79.256
79.256
79.256
79.256
79.256
79.256
79.256
79.256
79.256
79.256
79.256
79.256
79.256
79.256
79.256
79.256
79.256
79.256
79.256
79.256
79.256
79.256
79.256
79.256
79.256
79.280
79.305
79.329
79.354
79.378
79.403
79.427
79.452
79.476
79.501
79.525
79.550
79.574
79.599
79.623
79.648
79.672
79.697
79.721
79.746
79.770
79.795
79.819
79.844
79.868
79.893
79.917
79.942
79.966
79.991
80.015
80.040
80.064
80.089
80.113
80.138
80.162
80.187
80.211
80.236
80.260
80.285
80.309
80.334
80.358
80.383
80.407
80.432
80.456
80.481
80.505
80.530
80.554
80.579
80.603
80.628
80.652
80.677
80.701
80.726
80.750
80.775
80.799
80.824
80.848
80.873
80.897
80.922
80.946
80.971
80.995
81.020
81.044
81.069
81.093
81.118
81.142
81.167
81.191
81.216
81.240
81.265
81.289
81.314
81.338
81.363
81.387
81.412
81.436
81.461
81.485
81.510
81.534
81.559
81.583
81.608
81.632
81.657
81.681
81.706
81.730
81.755
81.779
81.804
81.828
81.853
81.877
81.902
81.926
81.951
81.975
82.000
82.024
82.049
82.073
82.098
82.122
82.147
82.171
82.196
82.220
82.245
82.269
82.294
82.318
82.343
82.367
82.392
82.416
82.441
82.465
82.490
82.514
82.539
82.563
82.588
82.612
82.637
82.661
82.686
82.710
82.735
82.759
82.784
82.808
82.833
82.857
82.882
82.906
82.931
82.955
82.980
83.004
83.029
83.053
83.078
83.102
83.127
83.151
83.176
83.200
83.225
83.249
83.274
83.298
83.323
83.347
83.372
83.396
83.421
83.445
83.470
83.494
83.519
83.543
83.568
83.592
83.617
83.641
83.666
83.690
83.715
83.739
83.764
83.788
83.813
83.837
83.862
83.886
83.911
83.935
83.960
83.984
84.009
84.033
84.058
84.082
84.107
84.131
84.156
84.131
84.107
84.082
84.058
84.033
84.009
83.984
83.960
83.935
83.911
83.886
83.862
83.837
83.813
83.788
83.764
83.739
83.715
83.690
83.666
83.641
83.617
83.592
83.568
83.543
83.519
83.494
83.470
83.445
83.421
83.396
83.372
83.347
83.323
83.298
83.274
83.249
83.225
83.200
83.176
83.151
83.127
83.102
83.078
83.053
83.029
83.004
82.980
82.955
82.931
82.906
82.882
82.857
82.833
82.808
82.784
82.759
82.735
82.710
82.686
82.661
82.637
82.612
82.588
82.563
82.539
82.514
82.490
82.465
82.441
82.416
82.392
82.367
82.343
82.318
82.294
82.269
82.245
82.220
82.196
82.171
82.147
82.122
82.098
82.073
82.049
82.024
82.000
81.975
81.951
81.926
81.902
81.877
81.853
81.828
81.804
81.779
81.755
81.730
81.706
81.681
81.657
81.632
81.608
81.583
81.559
81.534
81.510
81.485
81.461
81.436
81.412
81.387
81.363
81.338
81.314
81.289
81.265
81.240
81.216
81.191
81.167
81.142
81.118
81.093
81.069
81.044
81.020
80.995
80.971
80.946
80.922
80.897
80.873
80.848
80.824
80.799
80.775
80.750
80.726
80.701
80.677
80.652
80.628
80.603
80.579
80.554
80.530
80.505
80.481
80.456
80.432
80.407
80.383
80.358
80.334
80.309
80.285
80.260
80.236
80.211
80.187
80.162
80.138
80.113
80.089
80.064
80.040
80.015
79.991
79.966
79.942
79.917
79.893
79.868
79.844
79.819
79.795
79.770
79.746
79.721
79.697
79.672
79.648
79.623
79.599
79.574
79.550
79.525
79.501
79.476
79.452
79.427
79.403
79.378
79.354
79.329
79.305
79.280
79.256
79.256
79.256
79.256
79.256
79.256
79.256
79.256
79.256
79.256
79.256
79.256
79.256
79.256
79.256
79.256
79.256
79.256
79.256
79.256
79.256
79.256
79.256
79.256
79.256
79.256
79.256
79.256
79.256
79.256
79.256
79.256
79.256
79.256
79.256
79.256
79.256
79.256
79.256
79.256
79.256
79.256
79.256
79.256
79.256
79.256
79.256
79.256
79.256
79.256
79.256
79.256
79.256
79.256
79.256
79.256
79.256
79.256
79.256
79.256
79.256
79.256
79.256
79.256
79.256
79.256
79.256
79.256
79.256
79.256
79.256
79.256
79.256
79.256
79.256
79.256
79.256
79.256
79.256
79.256
79.256
79.256
79.256
79.256
79.256
79.256
79.256
79.256
79.256
79.256
79.256
79.256
79.256
79.256
79.256
79.256
79.256
79.256
79.256
79.256
79.256
79.256
79.256
79.256
79.256
79.256
79.256
79.256
79.256
79.256
79.256
79.256
79.256
79.256
79.256
79.256
79.256
79.256
79.256
79.256
79.256
79.256
79.256
79.256
79.256
79.256
79.256
79.256
79.256
79.256
79.256
79.256
79.256
79.256
79.256
79.256
79.256
79.256
79.256
79.256
79.256
79.256
79.256
79.256
79.256
79.256
79.256
79.256
79.256
79.256
79.256
79.256
79.256
79.256
79.256
79.256
79.256
79.256
79.256
79.256
79.256
79.256
79.256
79.256
79.256
79.256
79.256
79.256
79.256
79.256
79.256
79.256
79.256
79.256
79.256
79.256
79.256
79.256
79.256
79.256
79.256
79.256
79.256
79.256
79.256
79.256
79.256
79.256
79.256
79.256
79.256
79.256
79.256
79.256
79.256
79.256
79.256
79.256
79.256
79.256
79.256
79.256
79.256
79.256
79.256
79.256
79.256
79.256
79.256
79.256
79.256
79.256
79.256
79.256
79.256
79.256
79.256
79.256
79.256
79.256
79.256
79.256
79.256
79.256
79.256
79.256
79.256
79.256
79.256
79.256
79.256
79.256
79.256
79.256
79.256
79.256
79.256
79.256
79.256
79.256
79.256
79.256
79.256
79.256
79.256
79.256
79.256
79.256
79.256
79.256
79.256
79.256
79.256
79.256
79.256
79.256
79.256
79.256
79.256
79.256
79.256
79.256
79.256
79.256
79.256
79.256
79.256
79.256
79.256
79.256
79.256
79.256
79.256
79.256
79.256
79.256
79.256
79.256
79.256
79.256
79.256
79.256
79.256
79.256
79.256
79.256
79.256
79.256
79.256
79.256
79.256
79.256
79.256
79.256
79.256
79.256
79.256
79.256
79.256
79.256
79.256
79.256
79.256
79.256
79.256
79.256
79.256
79.256
79.256
79.256
79.256
79.256
79.256
79.256
79.256
79.256
79.256
79.256
79.256
79.256
79.256
79.256
79.256
79.256
79.256
79.256
79.256
79.256
79.256
79.256
79.256
79.256
79.256
79.256
79.256
79.256
79.256
79.256
79.256
79.256
79.256
79.256
79.256
79.256
79.256
79.256
79.256
79.256
79.256
79.256
79.256
79.256
79.256
79.256
79.256
79.256
79.256
79.256
79.256
79.256
79.256
79.256
79.256
79.256
79.256
79.256
79.256
79.256
79.256
79.256
79.256
79.256
79.256
79.256
79.256
79.256
79.256
79.256
79.256
79.256
79.256
79.256
79.256
79.256
79.256
79.256
79.256
79.256
79.256
79.256
79.256
79.256
79.256
79.256
79.256
79.256
79.256
79.256
79.256
79.256
79.256
79.256
79.256
79.256
79.256
79.256
79.256
79.256
79.256
79.256
79.256
79.256
79.256
79.256
79.256
79.256
79.256
79.256
79.256
79.256
79.256
79.256
79.256
79.256
79.256
79.256
79.256
79.256
79.256
79.256
79.256
79.256
79.256
79.256
79.256
79.256
79.256
79.256
79.256
79.256
79.256
79.256
79.256
79.256
79.256
79.256
79.256
79.256
79.256
79.256
79.256
79.256
79.256
79.256
79.256
79.256
79.256
79.256
79.256
79.256
79.256
79.256
79.256
79.256
79.256
79.256
79.256
79.256
79.256
79.256
79.256
79.256
79.256
79.256
79.256
79.256
79.256
79.256
79.256
79.256
79.256
79.256
79.256
79.256
79.256
79.256
79.256
79.256
79.256
79.256
79.256
79.256
79.256
79.256
79.256
79.256
79.256
79.256
79.256
79.256
79.256
79.256
79.256
79.256
79.256
79.256
79.256
79.256
79.256
79.256
79.256
79.256
79.256
79.256
79.256
79.256
79.256
79.256
79.256
79.256
79.256
79.256
79.256
79.256
79.256
79.256
79.256
79.256
79.256
79.256
79.256
79.256
79.256
79.256
79.256
79.256
79.256
79.256
79.256
79.256
79.256
79.256
79.256
79.256
79.256
79.256
79.256
79.256
79.256
79.256
79.256
79.256
79.256
79.256
79.256
79.256
79.256
79.256
79.256
79.256
79.256
79.256
79.256
79.256
79.256
79.256
79.256
79.256
79.256
79.256
79.256
79.256
79.256
79.256
79.256
79.256
79.256
79.256
79.256
79.256
79.256
79.256
79.256
79.256
79.256
79.256
79.256
79.256
79.256
79.256
79.256
79.256
79.256
79.256
79.256
79.256
79.256
79.256
79.256
79.256
79.256
79.256
79.256
79.256
79.256
79.256
79.256
79.256
79.256
79.256
79.256
79.256
79.256
79.256
79.256
79.256
79.256
79.256
79.256
79.256
79.256
79.256
79.256
79.256
79.256
79.256
79.256
79.256
79.256
79.256
79.256
79.256
79.256
79.256
79.256
79.256
79.256
79.256
79.256
79.256
79.256
79.256
79.256
79.256
79.256
79.256
79.256
79.256
79.256
79.256
79.256
79.256
79.256
79.256
79.256
79.256
79.256
79.256
79.256
79.256
79.256
79.256
79.256
79.256
79.256
79.256
79.256
79.256
79.256
79.256
79.256
79.256
79.256
79.256
