2204.935
2204.080
2203.225
2202.370
2201.515
2200.660
2199.805
2198.950
2198.095
2197.240
2196.385
2195.530
2194.675
2193.820
2192.965
2192.110
2191.255
2190.400
2189.545
2188.690
2187.835
2186.980
2186.125
2185.270
2184.415
2183.560
2182.705
2181.850
2180.995
2180.140
2179.285
2178.430
2177.575
2176.720
2175.865
2175.010
2174.155
2173.300
2172.445
2171.590
2170.735
2169.880
2169.025
2168.170
2167.315
2166.460
2165.605
2164.750
2163.895
2163.040
2162.185
2161.330
2160.475
2159.620
2158.765
2156.541
2154.317
2152.093
2149.869
2147.645
2145.421
2143.197
2140.973
2138.749
2136.525
2134.301
2132.077
2129.853
2127.629
2125.405
2123.181
2120.957
2118.733
2116.509
2114.285
2112.061
2109.837
2107.613
2105.389
2103.165
2100.941
2098.717
2096.493
2094.269
2092.045
2089.821
2087.597
2085.373
2083.149
2080.925
2078.701
2076.477
2074.253
2072.029
2069.805
2067.581
2065.357
2063.133
2060.909
2058.685
2056.461
2054.237
2052.013
2049.789
2047.565
2045.341
2043.117
2040.893
2038.669
2036.445
2034.221
2031.997
2029.773
2027.549
2025.325
2023.101
2020.877
2018.653
2016.429
2014.205
2011.981
2009.757
2007.533
2005.309
2003.085
2000.861
1998.637
1996.413
1994.189
1991.965
1989.741
1987.517
1985.293
1983.069
1980.845
1978.621
1976.397
1974.173
1971.949
1969.725
1967.501
1965.277
1963.053
1960.829
1958.605
1956.381
1954.157
1951.933
1949.709
1947.485
1945.261
1943.037
1940.813
1938.589
1936.365
1934.141
1931.917
1929.693
1927.469
1925.245
1923.021
1920.797
1918.573
1916.349
1914.125
1911.901
1909.677
1907.453
1905.229
1903.005
1900.781
1898.557
1896.333
1894.109
1891.885
1889.661
1887.437
1885.213
1882.989
1880.765
1878.541
1876.317
1874.093
1871.869
1869.645
1867.421
1865.197
1862.973
1860.749
1858.525
1856.301
1854.077
1851.853
1849.629
1847.405
1845.181
1842.957
1840.733
1838.509
1836.285
1834.061
1831.837
1829.613
1827.389
1825.165
1822.941
1820.717
1818.493
1816.269
1814.045
1811.821
1809.597
1807.373
1805.149
1802.925
1800.701
1798.477
1796.253
1794.029
1791.805
1789.581
1787.357
1785.133
1782.909
1780.685
1778.461
1776.237
1774.013
1771.789
1769.565
1767.341
1765.117
1762.893
1760.669
1758.445
1756.221
1753.997
1751.773
1749.549
1747.325
1745.101
1742.877
1740.653
1738.429
1736.205
1733.981
1731.757
1729.533
1727.309
1725.085
1722.861
1720.637
1718.413
1716.189
1713.965
1716.286
1718.608
1720.929
1723.251
1725.572
1727.894
1730.215
1732.537
1734.858
1737.180
1739.501
1741.823
1744.144
1746.466
1748.787
1751.109
1753.430
1755.752
1758.073
1760.395
1762.716
1765.038
1767.359
1769.681
1772.002
1774.324
1776.645
1778.967
1781.288
1783.610
1785.931
1788.253
1790.574
1792.896
1795.217
1797.539
1799.860
1802.182
1804.503
1806.825
1809.146
1811.468
1813.789
1816.111
1818.432
1820.754
1823.075
1825.397
1827.718
1830.040
1832.361
1834.683
1837.004
1839.326
1841.647
1843.969
1846.290
1848.612
1850.933
1853.255
1855.576
1857.898
1860.219
1862.541
1864.862
1867.184
1869.505
1871.827
1874.148
1876.470
1878.791
1881.113
1883.434
1885.756
1888.077
1890.399
1892.720
1895.042
1897.363
1899.685
1902.006
1904.328
1906.649
1908.971
1911.292
1913.614
1915.935
1918.257
1920.578
1922.900
1925.221
1927.543
1929.864
1932.186
1934.507
1936.829
1939.150
1941.472
1943.793
1946.115
1948.436
1950.758
1953.079
1955.401
1957.722
1960.044
1962.365
1964.687
1967.008
1969.330
1971.651
1973.973
1976.294
1978.616
1980.937
1983.259
1985.580
1987.902
1990.223
1992.545
1994.866
1997.188
1999.509
2001.831
2004.152
2006.474
2008.795
2011.117
2013.438
2015.760
2018.081
2020.403
2022.724
2025.046
2027.367
2029.689
2032.010
2034.332
2036.653
2038.975
2041.296
2043.618
2045.939
2048.261
2050.582
2052.904
2055.225
2057.547
2059.868
2062.190
2064.511
2066.833
2069.154
2071.476
2073.797
2076.119
2078.440
2080.762
2083.083
2085.405
2087.726
2090.048
2092.369
2094.691
2097.012
2099.334
2101.655
2103.977
2106.298
2108.620
2110.941
2113.263
2115.584
2117.906
2120.227
2122.549
2124.870
2127.192
2129.513
2131.835
2134.156
2136.478
2138.799
2141.121
2143.442
2145.764
2148.085
2150.407
2152.728
2155.050
2157.371
2159.693
2162.014
2164.336
2166.657
2168.979
2171.300
2173.622
2175.943
2178.265
2181.686
2185.108
2188.529
2191.951
2195.372
2198.794
2202.215
2205.637
2209.058
2212.480
2215.901
2219.323
2222.744
2226.166
2229.587
2233.009
2236.430
2239.852
2243.273
2246.695
2250.116
2253.538
2256.959
2260.381
2263.802
2267.224
2270.645
2274.067
2277.488
2280.910
2284.331
2287.753
2291.174
2294.596
2298.017
2301.439
2304.860
2308.282
2311.703
2315.125
2318.546
2321.968
2325.389
2328.811
2332.232
2335.654
2339.075
2342.497
2345.918
2349.340
2352.761
2356.183
2359.604
2363.026
2366.447
2369.869
2373.290
2376.712
2380.133
2383.555
2386.976
2390.398
2393.819
2397.241
2400.662
2404.084
2407.505
2410.927
2414.348
2417.770
2421.191
2424.613
2428.034
2431.456
2434.877
2438.299
2441.720
2445.142
2448.563
2451.985
2455.406
2458.828
2462.249
2465.671
2469.092
2472.514
2475.935
2479.357
2482.778
2486.200
2489.621
2493.043
2496.464
2499.886
2503.307
2506.729
2510.150
2513.572
2516.993
2520.415
2523.836
2527.258
2530.679
2534.101
2537.522
2540.944
2544.365
2547.787
2551.208
2554.630
2558.051
2561.473
2564.894
2568.316
2571.737
2575.159
2578.580
2582.002
2585.423
2588.845
2592.266
2595.688
2599.109
2602.531
2605.952
2609.374
2612.795
2616.217
2619.638
2623.060
2626.481
2629.903
2633.324
2636.746
2640.167
2643.589
2647.010
2650.432
2653.853
2657.275
2660.696
2664.118
2667.539
2670.961
2674.382
2677.804
2681.225
2684.647
2688.068
2691.490
2694.911
2698.333
2701.754
2705.176
2708.597
2712.019
2715.440
2718.862
2722.283
2725.705
2729.126
2732.548
2735.969
2739.391
2742.812
2746.234
2749.655
2753.077
2756.498
2759.920
2763.341
2766.763
2770.184
2773.606
2777.027
2780.449
2783.870
2787.292
2790.713
2794.135
2797.556
2800.978
2804.399
2807.821
2811.242
2814.664
2818.085
2821.507
2824.928
2828.350
2831.771
2835.193
2838.614
2842.036
2845.457
2848.879
2852.300
2855.722
2859.143
2862.565
2859.852
2857.140
2854.427
2851.715
2849.002
2846.290
2843.577
2840.865
2838.152
2835.440
2832.727
2830.015
2827.302
2824.590
2821.877
2819.165
2816.452
2813.740
2811.027
2808.315
2805.602
2802.890
2800.177
2797.465
2794.752
2792.040
2789.327
2786.615
2783.902
2781.190
2778.477
2775.765
2773.052
2770.340
2767.627
2764.915
2762.202
2759.490
2756.777
2754.065
2751.352
2748.640
2745.927
2743.215
2740.502
2737.790
2735.077
2732.365
2729.652
2726.940
2724.227
2721.515
2718.802
2716.090
2713.377
2710.665
2707.952
2705.240
2702.527
2699.815
2697.102
2694.390
2691.677
2688.965
2686.252
2683.540
2680.827
2678.115
2675.402
2672.690
2669.977
2667.265
2664.552
2661.840
2659.127
2656.415
2653.702
2650.990
2648.277
2645.565
2642.852
2640.140
2637.427
2634.715
2632.002
2629.290
2626.577
2623.865
2621.152
2618.440
2615.727
2613.015
2610.302
2607.590
2604.877
2602.165
2599.452
2596.740
2594.027
2591.315
2588.602
2585.890
2583.177
2580.465
2577.752
2575.040
2572.327
2569.615
2566.902
2564.190
2561.477
2558.765
2556.052
2553.340
2550.627
2547.915
2545.202
2542.490
2539.777
2537.065
2534.352
2531.640
2528.927
2526.215
2523.502
2520.790
2518.077
2515.365
2512.652
2509.940
2507.227
2504.515
2501.802
2499.090
2496.377
2493.665
2490.952
2488.240
2485.527
2482.815
2480.102
2477.390
2474.677
2471.965
2469.252
2466.540
2463.827
2461.115
2458.402
2455.690
2452.977
2450.265
2447.552
2444.840
2442.127
2439.415
2436.702
2433.990
2431.277
2428.565
2425.852
2423.140
2420.427
2417.715
2415.002
2412.290
2409.577
2406.865
2404.152
2401.440
2398.727
2396.015
2393.302
2390.590
2387.877
2385.165
2382.452
2379.740
2377.027
2374.315
2371.602
2368.890
2366.177
2363.465
2360.752
2358.040
2355.327
2352.615
2349.902
2347.190
2344.477
2341.765
2339.052
2336.340
2333.627
2330.915
2328.202
2325.490
2322.777
110.865
110.865
110.865
110.865
110.865
110.865
110.865
110.865
110.865
110.865
110.865
110.865
110.865
110.865
110.865
110.865
110.865
110.865
110.865
110.865
110.865
110.865
110.865
110.865
110.865
110.865
110.865
110.865
110.865
110.865
110.865
110.865
110.865
110.865
110.865
110.865
110.865
110.865
110.865
110.865
110.865
110.865
110.865
110.865
110.865
110.865
110.865
110.865
110.865
110.865
110.865
110.865
110.865
110.865
110.865
110.865
110.865
110.865
110.865
110.865
110.865
110.865
110.865
110.865
110.865
110.865
110.865
110.865
110.865
110.865
110.865
110.865
110.865
110.865
110.865
110.865
110.865
110.865
110.865
110.865
110.865
110.865
110.865
110.865
110.865
110.865
110.865
110.865
110.865
110.865
110.865
110.865
110.865
110.865
110.865
110.865
110.865
110.865
110.865
110.865
110.865
110.865
110.865
110.865
110.865
110.865
110.865
110.865
110.865
110.865
110.865
110.865
110.865
110.865
110.865
110.865
110.865
110.865
110.865
110.865
110.865
110.865
110.865
110.865
110.865
110.865
110.865
110.865
110.865
110.865
110.865
110.865
110.865
110.865
110.865
110.865
110.865
110.865
110.865
110.865
110.865
110.865
110.865
110.865
110.865
110.865
110.865
110.865
110.865
110.865
110.865
110.865
110.865
110.865
110.865
110.865
110.865
110.865
110.865
110.865
110.865
110.865
110.865
110.865
110.865
110.865
110.865
110.865
110.865
110.865
110.865
110.865
110.865
110.865
110.865
110.865
110.865
110.865
110.865
110.865
110.865
110.865
110.865
110.865
110.865
110.865
110.865
110.865
110.865
110.865
110.865
110.865
110.865
110.865
110.865
110.865
110.865
110.865
110.865
110.865
110.865
110.865
110.865
110.865
110.865
110.865
110.865
110.865
110.865
110.865
110.865
110.865
110.865
110.865
110.865
110.865
110.865
110.865
110.865
110.865
110.865
110.865
110.865
110.865
110.865
110.865
110.865
110.865
110.865
110.865
110.865
110.865
110.865
110.865
110.865
110.865
110.865
110.865
110.865
110.865
110.865
110.865
110.865
110.865
110.865
110.865
110.865
110.865
110.865
110.865
110.865
110.865
110.865
110.865
110.865
110.865
110.865
110.865
110.865
110.865
110.865
110.865
110.865
110.865
110.865
110.865
110.865
110.865
110.865
110.865
110.865
110.865
110.865
110.865
110.865
110.865
110.865
110.865
110.865
110.865
110.865
110.865
110.865
110.865
110.865
110.865
110.865
110.865
110.865
110.865
110.865
110.865
110.865
110.865
110.865
110.865
110.865
110.865
110.865
110.865
110.865
110.865
110.865
110.865
110.865
110.865
110.865
110.865
110.865
110.865
110.865
110.865
110.865
110.865
110.865
110.865
110.865
110.865
110.865
110.865
110.865
110.865
110.865
110.865
110.865
110.865
110.865
110.865
110.865
110.865
110.865
110.865
110.865
110.865
110.865
110.865
110.865
110.865
110.865
110.865
110.865
110.865
110.865
110.865
110.865
110.865
110.865
110.865
110.865
110.865
110.865
110.865
110.865
110.865
110.865
110.865
110.865
110.865
110.865
110.865
110.865
110.865
110.865
110.865
110.865
110.865
110.865
110.865
110.865
110.865
110.865
110.865
110.865
110.865
110.865
110.865
110.865
110.865
110.865
110.865
110.865
110.865
110.865
110.865
110.865
110.865
110.865
110.865
110.865
110.865
110.865
110.865
110.865
110.865
110.865
110.865
110.865
110.865
110.865
110.865
110.865
110.865
110.865
110.865
110.865
110.865
110.865
110.865
110.865
110.865
110.865
110.865
110.865
110.865
110.865
110.865
110.865
110.865
110.865
110.865
110.865
110.865
110.865
110.865
110.865
110.865
110.865
110.865
110.865
110.865
110.865
110.865
110.865
110.865
110.865
110.865
110.865
110.865
110.865
110.865
110.865
110.865
110.865
110.865
110.865
110.865
110.865
110.865
110.865
110.865
110.865
110.865
110.865
110.865
110.865
110.865
110.865
110.865
110.865
110.865
110.865
110.865
110.865
110.865
110.865
110.865
110.865
110.865
110.865
110.865
110.865
110.865
110.865
110.865
110.865
110.865
110.865
110.865
110.865
110.865
110.865
110.865
110.865
110.865
110.865
110.865
110.865
110.865
110.865
110.865
110.865
110.865
110.865
110.865
110.865
110.865
110.865
110.865
110.865
110.865
110.865
110.865
110.865
110.865
110.865
110.865
110.865
110.865
110.865
110.865
110.865
110.865
110.865
110.865
110.865
110.865
110.865
110.865
110.865
110.865
110.865
110.865
110.865
110.865
110.865
110.865
110.865
110.865
110.865
110.865
110.865
110.865
110.865
110.865
110.865
110.865
110.865
110.865
110.865
110.865
110.865
110.865
110.865
110.865
110.865
110.865
110.865
110.865
110.865
110.865
110.865
110.865
110.865
110.865
110.865
110.865
110.865
110.865
110.865
110.865
110.865
110.865
110.865
110.865
110.865
110.865
110.865
110.865
110.865
110.865
110.865
110.865
110.865
110.865
110.865
110.865
110.865
110.865
110.865
110.865
110.865
110.865
110.865
110.865
110.865
110.865
110.865
110.865
110.865
110.865
110.865
110.865
110.865
110.865
110.865
110.865
110.865
110.865
110.865
110.865
110.865
110.865
110.865
110.865
110.865
110.865
110.865
110.865
110.865
110.865
110.865
110.865
110.865
110.865
110.865
110.865
110.865
110.865
110.865
110.865
110.865
110.865
110.865
110.865
110.865
110.865
110.865
110.865
110.865
110.865
110.865
110.865
110.865
110.865
110.865
110.865
110.865
110.865
110.865
110.865
110.865
110.865
110.865
110.865
110.865
110.865
110.865
110.865
110.865
110.865
110.865
110.865
110.865
110.865
110.865
110.865
110.865
110.865
110.865
110.865
110.865
110.865
110.865
110.865
110.865
110.865
110.865
110.865
110.865
110.865
110.865
110.865
110.865
110.865
110.865
110.865
110.865
110.865
110.865
110.865
110.865
110.865
110.865
110.865
110.865
110.865
110.865
110.865
110.865
110.865
110.865
110.865
110.865
110.865
110.865
110.865
110.865
110.865
110.865
110.865
110.865
110.865
110.865
110.865
110.865
110.865
110.865
110.865
110.865
110.865
110.865
110.865
110.865
110.865
110.865
110.865
110.865
110.865
110.865
110.865
110.865
110.865
110.865
110.865
110.865
110.865
110.865
110.865
110.865
110.865
110.865
110.865
110.865
110.865
110.865
110.865
110.865
110.865
110.865
110.865
110.865
110.865
110.865
110.865
110.865
110.865
110.865
110.865
110.865
110.865
110.865
110.865
110.865
110.865
110.865
110.865
110.865
110.865
110.865
110.865
110.865
110.865
110.865
110.865
110.865
110.865
110.865
110.865
110.865
110.865
110.865
110.865
110.865
110.865
110.865
110.865
110.865
110.865
110.865
110.865
110.865
110.865
110.865
110.865
110.865
110.865
110.865
110.865
110.865
110.865
110.865
110.865
110.865
110.865
110.865
110.865
110.865
110.865
110.865
110.865
110.865
110.865
110.865
110.865
110.865
110.865
110.865
110.865
110.865
110.865
110.865
110.865
110.865
110.865
110.865
110.865
110.865
110.865
110.865
110.865
110.865
110.865
110.865
110.865
110.865
110.865
110.865
110.865
110.865
110.865
110.865
110.865
110.865
110.865
110.865
110.865
110.865
110.865
110.865
110.865
110.865
110.865
110.865
110.865
110.865
110.865
110.865
110.865
110.865
110.865
110.865
110.865
110.865
110.865
110.865
110.865
110.865
110.865
110.865
110.865
110.865
110.865
110.865
110.865
110.865
110.865
110.865
110.865
110.865
110.865
110.865
110.865
110.865
110.865
110.865
110.865
110.865
110.865
110.865
110.865
110.865
110.865
110.865
110.865
110.865
110.865
110.865
110.865
110.865
110.865
110.865
110.865
110.865
110.865
110.865
110.865
110.865
110.865
110.865
110.865
110.865
110.865
110.865
110.865
110.865
110.865
110.865
110.865
110.865
110.865
110.865
110.865
110.865
110.865
110.865
110.865
110.865
110.865
110.865
110.865
110.865
110.865
110.865
110.865
110.865
110.865
110.865
110.865
110.865
110.865
110.865
110.865
110.865
110.865
110.865
110.865
110.865
110.865
110.865
110.865
110.865
110.865
110.865
110.865
110.865
110.865
110.865
110.865
110.865
110.865
110.865
110.865
110.865
110.865
110.865
110.865
110.865
110.865
110.865
110.865
110.865
110.865
110.865
110.865
110.865
110.865
110.865
110.865
110.865
110.865
110.865
110.865
110.865
110.865
110.865
110.865
110.865
110.865
110.865
110.865
110.865
110.865
110.865
110.865
110.865
110.865
110.865
110.865
110.865
110.865
110.865
110.865
110.865
110.865
110.865
110.865
110.865
110.865
110.865
110.865
110.865
110.865
110.865
110.865
110.865
110.865
110.865
110.865
110.865
110.865
110.865
110.865
110.865
110.865
110.865
110.865
110.865
110.865
110.865
110.865
110.865
110.865
110.865
110.865
110.865
110.865
110.865
110.865
110.865
110.865
110.865
110.865
110.865
110.865
110.865
110.865
110.865
110.865
110.865
110.865
110.865
110.865
110.865
110.865
110.865
110.865
110.865
110.865
110.865
110.865
110.865
110.865
110.865
110.865
110.865
110.865
110.865
110.865
110.865
110.865
110.865
110.865
110.865
110.865
110.865
110.865
110.865
110.865
110.865
110.865
110.865
110.865
110.865
110.865
110.865
110.865
110.865
110.865
110.865
110.865
110.865
110.865
110.865
110.865
110.865
110.865
110.865
110.865
110.865
110.865
110.865
110.865
110.865
110.865
110.865
110.865
110.865
110.865
110.865
110.865
110.865
110.865
110.865
110.865
110.865
110.865
110.865
110.865
110.865
110.865
110.865
110.865
110.865
110.865
110.865
110.865
110.865
110.865
110.865
110.865
110.865
110.865
110.865
110.865
110.865
110.865
110.865
110.865
110.865
110.865
110.865
110.865
110.865
110.865
110.865
110.865
110.865
110.865
110.865
110.865
110.865
110.865
110.865
110.865
110.865
110.865
