2053.949
2055.415
2056.882
2058.348
2059.815
2061.281
2062.748
2064.214
2065.681
2067.147
2068.614
2070.080
2071.547
2073.013
2074.480
2075.946
2077.413
2078.879
2080.346
2081.812
2083.279
2084.745
2086.212
2087.678
2089.145
2090.611
2092.078
2093.544
2095.011
2096.477
2097.944
2099.410
2100.877
2102.343
2103.810
2105.276
2106.743
2108.209
2109.676
2111.142
2112.609
2114.075
2115.542
2117.008
2118.475
2119.941
2121.408
2122.874
2124.341
2125.807
2127.274
2128.740
2130.207
2131.673
2133.140
2134.606
2136.073
2137.539
2139.006
2140.472
2141.939
2143.405
2144.872
2146.338
2147.805
2149.271
2150.738
2152.204
2153.671
2155.137
2156.604
2158.070
2159.537
2161.003
2162.470
2163.936
2165.403
2166.869
2168.336
2169.802
2171.269
2172.735
2174.202
2175.668
2177.135
2178.601
2180.068
2181.534
2183.001
2184.467
2185.934
2187.400
2188.867
2190.333
2191.800
2193.266
2194.733
2196.199
2197.666
2199.132
2200.599
2202.065
2203.532
2204.998
2206.465
2207.931
2209.398
2209.446
2209.495
2209.543
2209.592
2209.640
2209.689
2209.737
2209.786
2209.834
2209.883
2209.931
2209.980
2210.028
2210.077
2210.125
2210.174
2210.222
2210.271
2210.319
2210.368
2210.416
2210.465
2210.513
2210.562
2210.610
2210.659
2210.707
2210.756
2210.804
2210.853
2210.901
2210.950
2210.998
2211.047
2211.095
2211.144
2211.192
2211.241
2211.289
2211.338
2211.386
2211.435
2211.483
2211.532
2211.580
2211.629
2211.677
2211.726
2211.774
2211.823
2211.871
2211.920
2211.968
2212.017
2212.065
2212.114
2212.162
2212.211
2212.259
2212.308
2212.356
2212.405
2212.453
2212.502
2212.550
2212.599
2212.647
2212.696
2212.744
2212.793
2212.841
2212.890
2212.938
2212.987
2213.035
2213.084
2213.132
2213.181
2213.229
2213.278
2213.326
2213.375
2213.423
2213.472
2213.520
2213.569
2213.617
2213.666
2213.714
2213.763
2213.811
2213.860
2213.908
2213.957
2214.005
2214.054
2214.102
2214.151
2214.199
2214.248
2214.296
2214.345
2214.393
2214.442
2214.490
2214.539
2214.587
2214.636
2214.684
2214.733
2214.781
2214.830
2214.878
2214.927
2214.975
2215.024
2215.072
2215.121
2215.169
2215.218
2215.266
2215.315
2215.363
2215.412
2215.460
2215.509
2215.557
2215.606
2215.654
2215.703
2215.751
2215.800
2215.848
2215.897
2215.945
2215.994
2216.042
2216.091
2216.139
2216.188
2216.236
2216.285
2216.333
2216.382
2216.430
2216.479
2216.527
2216.576
2216.624
2216.673
2216.721
2216.770
2216.818
2216.867
2216.915
2216.964
2217.012
2217.061
2217.109
2217.158
2217.206
2217.255
2217.303
2217.352
2217.400
2217.449
2217.497
2217.546
2217.594
2217.643
2217.691
2217.740
2217.788
2217.837
2217.885
2217.934
2217.982
2218.031
2218.079
2218.128
2218.176
2218.225
2218.273
2218.322
2218.370
2218.419
2218.467
2218.516
2218.564
2218.613
2218.661
2218.710
2218.758
2218.807
2218.855
2218.904
2218.952
2219.001
2219.049
2219.098
2219.074
2219.050
2219.026
2219.002
2218.978
2218.954
2218.930
2218.906
2218.882
2218.858
2218.834
2218.810
2218.786
2218.762
2218.738
2218.714
2218.690
2218.666
2218.642
2218.618
2218.594
2218.570
2218.546
2218.522
2218.498
2218.474
2218.450
2218.426
2218.402
2218.378
2218.354
2218.330
2218.306
2218.282
2218.258
2218.234
2218.210
2218.186
2218.162
2218.138
2218.114
2218.090
2218.066
2218.042
2218.018
2217.994
2217.970
2217.946
2217.922
2217.898
2217.874
2217.850
2217.826
2217.802
2217.778
2217.754
2217.730
2217.706
2217.682
2217.658
2217.634
2217.610
2217.586
2217.562
2217.538
2217.514
2217.490
2217.466
2217.442
2217.418
2217.394
2217.370
2217.346
2217.322
2217.298
2217.274
2217.250
2217.226
2217.202
2217.178
2217.154
2217.130
2217.106
2217.082
2217.058
2217.034
2217.010
2216.986
2216.962
2216.938
2216.914
2216.890
2216.866
2216.842
2216.818
2216.794
2216.770
2216.746
2216.722
2216.698
2216.674
2216.650
2216.626
2216.602
2216.578
2216.554
2216.530
2216.506
2216.482
2216.458
2216.434
2216.410
2216.386
2216.362
2216.338
2216.314
2216.290
2216.266
2216.242
2216.218
2216.194
2216.170
2216.146
2216.122
2216.098
2216.074
2216.050
2216.026
2216.002
2215.978
2215.954
2215.930
2215.906
2215.882
2215.858
2215.834
2215.810
2215.786
2215.762
2215.738
2215.714
2215.690
2215.666
2215.642
2215.618
2215.594
2215.570
2215.546
2215.522
2215.498
2215.474
2215.450
2215.426
2215.402
2215.378
2215.354
2215.330
2215.306
2215.282
2215.258
2215.234
2215.210
2215.186
2215.162
2215.138
2215.114
2215.090
2215.066
2215.042
2215.018
2214.994
2214.970
2214.946
2214.922
2214.898
2214.874
2214.850
2214.826
2214.802
2214.778
2214.754
2214.730
2214.706
2214.682
2214.658
2214.634
2214.610
2214.586
2214.562
2214.538
2214.514
2214.490
2214.466
2214.442
2214.418
2214.394
2214.370
2214.346
2214.322
2214.298
2214.982
2215.666
2216.350
2217.034
2217.718
2218.402
2219.086
2219.770
2220.454
2221.138
2221.822
2222.506
2223.190
2223.874
2224.558
2225.242
2225.926
2226.610
2227.294
2227.978
2228.662
2229.346
2230.030
2230.714
2231.398
2232.082
2232.766
2233.450
2234.134
2234.818
2235.502
2236.186
2236.870
2237.554
2238.238
2238.922
2239.606
2240.290
2240.974
2241.658
2242.342
2243.026
2243.710
2244.394
2245.078
2245.762
2246.446
2247.130
2247.814
2248.498
2249.182
2249.866
2250.550
2251.234
2251.918
2252.602
2253.286
2253.970
2254.654
2255.338
2256.022
2256.706
2257.390
2258.074
2258.758
2259.442
2260.126
2260.810
2261.494
2262.178
2262.862
2263.546
2264.230
2264.914
2265.598
2266.282
2266.966
2267.650
2268.334
2269.018
2269.702
2270.386
2271.070
2271.754
2272.438
2273.122
2273.806
2274.490
2275.174
2275.858
2276.542
2277.226
2277.910
2278.594
2279.278
2279.962
2280.646
2281.330
2282.014
2282.698
2283.382
2284.066
2284.750
2285.434
2286.118
2286.802
2287.486
2288.170
2288.854
2289.538
2290.222
2290.906
2291.590
2292.274
2292.958
2293.642
2294.326
2295.010
2295.694
2296.378
2297.062
2297.746
2298.430
2299.114
2299.798
2300.482
2301.166
2301.850
2302.534
2303.218
2303.902
2304.586
2305.270
2305.954
2306.638
2307.322
2308.006
2308.690
2309.374
2310.058
2310.742
2311.426
2312.110
2312.794
2313.478
2314.162
2314.846
2315.530
2316.214
2316.898
2317.582
2318.266
2318.950
2319.634
2320.318
2321.002
2321.686
2322.370
2323.054
2323.738
2324.422
2325.106
2325.790
2326.474
2327.158
2327.842
2328.526
2329.210
2329.894
2330.578
2331.262
2331.946
2332.630
2333.314
2333.998
2334.682
2335.366
2336.050
2336.734
2337.418
2338.102
2338.786
2339.470
2340.154
2340.838
2341.522
2342.206
2342.890
2343.574
2344.258
2344.942
2345.626
2346.310
2346.994
2347.678
2348.362
2349.046
2349.730
2350.414
2351.098
2349.705
2348.312
2346.919
2345.526
2344.133
2342.740
2341.347
2339.954
2338.561
2337.168
2335.775
2334.382
2332.989
2331.596
2330.203
2328.810
2327.417
2326.024
2324.631
2323.238
2321.845
2320.452
2319.059
2317.666
2316.273
2314.880
2313.487
2312.094
2310.701
2309.308
2307.915
2306.522
2305.129
2303.736
2302.343
2300.950
2299.557
2298.164
2296.771
2295.378
2293.985
2292.592
2291.199
2289.806
2288.413
2287.020
2285.627
2284.234
2282.841
2281.448
2280.055
2278.662
2277.269
2275.876
2274.483
2273.090
2271.697
2270.304
2268.911
2267.518
2266.125
2264.732
2263.339
2261.946
2260.553
2259.160
2257.767
2256.374
2254.981
2253.588
2252.195
2250.802
2249.409
2248.016
2246.623
2245.230
2243.837
2242.444
2241.051
2239.658
2238.265
2236.872
2235.479
2234.086
2232.693
2231.300
2229.907
2228.514
2227.121
2225.728
2224.335
2222.942
2221.549
2220.156
2218.763
2217.370
2215.977
2214.584
2213.191
2211.798
2210.405
2209.012
2207.619
2206.226
2204.833
2203.440
2202.047
2200.654
2199.261
2197.868
2196.475
2195.082
2193.689
2192.296
2190.903
2189.510
2188.117
2186.724
2185.331
2183.938
2182.545
2181.152
2179.759
2178.366
2176.973
2175.580
2174.187
2172.794
2171.401
2170.008
2168.615
2167.222
2165.829
2164.436
2163.043
2161.650
2160.257
2158.864
2157.471
2156.078
2154.685
2153.292
2151.899
2150.506
2149.113
2147.720
2146.327
2144.934
2143.541
2142.148
2140.755
2139.362
2137.969
2136.576
2135.183
2133.790
2132.397
2131.004
2129.611
2128.218
2126.825
2125.432
2124.039
2122.646
2121.253
2119.860
2118.467
2117.074
2115.681
2114.288
2112.895
2111.502
2110.109
2108.716
2107.323
2105.930
2104.537
2103.144
2101.751
2100.358
2098.965
2097.572
2096.179
2094.786
2093.393
2092.000
2090.607
2089.214
2087.821
2086.428
2085.035
2083.642
2082.249
2080.856
2079.463
2078.070
2076.677
2075.284
2073.891
2072.498
2072.205
2071.912
2071.619
2071.326
2071.033
2070.740
2070.447
2070.154
2069.861
2069.568
2069.275
2068.982
2068.689
2068.396
2068.103
2067.810
2067.517
2067.224
2066.931
2066.638
2066.345
2066.052
2065.759
2065.466
2065.173
2064.880
2064.587
2064.294
2064.001
2063.708
2063.415
2063.122
2062.829
2062.536
2062.243
2061.950
2061.657
2061.364
2061.071
2060.778
2060.485
2060.192
2059.899
2059.606
2059.313
2059.020
2058.727
2058.434
2058.141
2057.848
2057.555
2057.262
2056.969
2056.676
2056.383
2056.090
2055.797
2055.504
2055.211
2054.918
2054.625
2054.332
2054.039
2053.746
2053.453
2053.160
2052.867
2052.574
2052.281
2051.988
2051.695
2051.402
2051.109
2050.816
2050.523
2050.230
2049.937
2049.644
2049.351
2049.058
2048.765
2048.472
2048.179
2047.886
2047.593
2047.300
2047.007
2046.714
2046.421
2046.128
2045.835
2045.542
2045.249
2044.956
2044.663
2044.370
2044.077
2043.784
2043.491
2043.198
2042.905
2042.612
2042.319
2042.026
2041.733
2041.440
2041.147
2040.854
2040.561
2040.268
2039.975
2039.682
2039.389
2039.096
2038.803
2038.510
2038.217
2037.924
2037.631
2037.338
2037.045
2036.752
2036.459
2036.166
2035.873
2035.580
2035.287
2034.994
2034.701
2034.408
2034.115
2033.822
2033.529
2033.236
2032.943
2032.650
2032.357
2032.064
2031.771
2031.478
2031.185
2030.892
2030.599
2030.306
2030.013
2029.720
2029.427
2029.134
2028.841
2028.548
2028.255
2027.962
2027.669
2027.376
2027.083
2026.790
2026.497
2026.204
2025.911
2025.618
2025.325
2025.032
2024.739
2024.446
2024.153
2023.860
2023.567
2023.274
2022.981
2022.688
2022.395
2022.102
2021.809
2021.516
2021.223
2020.930
2020.637
2020.344
2020.051
2019.758
2019.465
2019.172
2018.879
2018.586
2018.293
2018.000
2017.707
2017.414
2017.121
2016.828
2016.535
2016.242
2015.949
2015.656
2015.363
2015.070
2014.777
2014.484
2014.191
2013.898
2006.224
1998.551
1990.877
1983.204
1975.530
1967.857
1960.183
1952.510
1944.836
1937.163
1929.489
1921.816
1914.142
1906.469
1898.795
1891.122
1883.448
1875.775
1868.101
1860.428
1852.754
1845.081
1837.407
1829.734
1822.060
1814.387
1806.713
1799.040
1791.366
1783.693
1776.019
1768.346
1760.672
1752.999
1745.325
1737.652
1729.978
1722.305
1714.631
1706.958
1699.284
1691.611
1683.937
1676.264
1668.590
1660.917
1653.243
1645.570
1637.896
1630.223
1622.549
1614.876
1607.202
1599.529
1591.855
1584.182
1576.508
1568.835
1561.161
1553.488
1545.814
1538.141
1530.467
1522.794
1515.120
1507.447
1499.773
1492.100
1484.426
1476.753
1469.079
1461.406
1453.732
1446.059
1438.385
1430.712
1423.038
1415.365
1407.691
1400.018
1392.344
1384.671
1376.997
1369.324
1361.650
1353.977
1346.303
1338.630
1330.956
1323.283
1315.609
1307.936
1300.262
1292.589
1284.915
1277.242
1269.568
1261.895
1254.221
1246.548
1238.874
1231.201
1223.527
1215.854
1208.180
1200.507
1192.833
1185.160
1177.486
1169.813
1162.139
1154.466
1146.792
1139.119
1131.445
1123.772
1116.098
1108.425
1100.751
1093.078
1085.404
1077.731
1070.057
1062.384
1054.710
1047.037
1039.363
1031.690
1024.016
1016.343
1008.669
1000.996
993.322
985.649
977.975
970.302
962.628
954.955
947.281
939.608
931.934
924.261
916.587
908.914
901.240
893.567
885.893
878.220
870.546
862.873
855.199
847.526
839.852
832.179
824.505
816.832
809.158
801.485
793.811
786.138
778.464
770.791
763.117
755.444
747.770
740.097
732.423
724.750
717.076
709.403
701.729
694.056
686.382
678.709
671.035
663.362
655.688
648.015
640.341
632.668
624.994
617.321
609.647
601.974
594.300
586.627
578.953
571.280
563.606
555.933
548.259
540.586
532.912
525.239
517.565
509.892
502.218
494.545
486.871
479.198
478.049
476.900
475.751
474.602
473.453
472.304
471.155
470.006
468.857
467.708
466.559
465.410
464.261
463.112
461.963
460.814
459.665
458.516
457.367
456.218
455.069
453.920
452.771
451.622
450.473
449.324
448.175
447.026
445.877
444.728
443.579
442.430
441.281
440.132
438.983
437.834
436.685
435.536
434.387
433.238
432.089
430.940
429.791
428.642
427.493
426.344
425.195
424.046
422.897
421.748
420.599
419.450
418.301
417.152
416.003
414.854
413.705
412.556
411.407
410.258
409.109
407.960
406.811
405.662
404.513
403.364
402.215
401.066
399.917
398.768
397.619
396.470
395.321
394.172
393.023
391.874
390.725
389.576
388.427
387.278
386.129
384.980
383.831
382.682
381.533
380.384
379.235
378.086
376.937
375.788
374.639
373.490
372.341
371.192
370.043
368.894
367.745
366.596
365.447
364.298
363.149
362.000
360.851
359.702
358.553
357.404
356.255
355.106
353.957
352.808
351.659
350.510
349.361
348.212
347.063
345.914
344.765
343.616
342.467
341.318
340.169
339.020
337.871
336.722
335.573
334.424
333.275
332.126
330.977
329.828
328.679
327.530
326.381
325.232
324.083
322.934
321.785
320.636
319.487
318.338
317.189
316.040
314.891
313.742
312.593
311.444
310.295
309.146
307.997
306.848
305.699
304.550
303.401
302.252
301.103
299.954
298.805
297.656
296.507
295.358
294.209
293.060
291.911
290.762
289.613
288.464
287.315
286.166
285.017
283.868
282.719
281.570
280.421
279.272
278.123
276.974
275.825
274.676
273.527
272.378
271.229
270.080
268.931
267.782
266.633
265.484
264.335
263.186
262.037
260.888
259.739
258.590
257.441
256.292
255.143
253.994
252.845
251.696
250.547
88.198
88.173
88.149
88.124
88.100
88.075
88.051
88.026
88.002
87.977
87.953
87.928
87.904
87.879
87.855
87.830
87.806
87.781
87.757
87.732
87.708
87.683
87.659
87.634
87.610
87.585
87.561
87.536
87.512
87.487
87.463
87.438
87.414
87.389
87.365
87.340
87.316
87.291
87.267
87.242
87.218
87.193
87.169
87.144
87.120
87.095
87.071
87.046
87.022
86.997
86.973
86.948
86.924
86.899
86.875
86.850
86.826
86.801
86.777
86.752
86.728
86.703
86.679
86.654
86.630
86.605
86.581
86.556
86.532
86.507
86.483
86.458
86.434
86.409
86.385
86.360
86.336
86.311
86.287
86.262
86.238
86.213
86.189
86.164
86.140
86.115
86.091
86.066
86.042
86.017
85.993
85.968
85.944
85.919
85.895
85.870
85.846
85.821
85.797
85.772
85.748
85.723
85.699
85.674
85.650
85.625
85.601
85.576
85.552
85.527
85.503
85.478
85.454
85.429
85.405
85.380
85.356
85.331
85.307
85.282
85.258
85.233
85.209
85.184
85.160
85.135
85.111
85.086
85.062
85.037
85.013
84.988
84.964
84.939
84.915
84.890
84.866
84.841
84.817
84.792
84.768
84.743
84.719
84.694
84.670
84.645
84.621
84.596
84.572
84.547
84.523
84.498
84.474
84.449
84.425
84.400
84.376
84.351
84.327
84.302
84.278
84.253
84.229
84.204
84.180
84.155
84.131
84.106
84.082
84.057
84.033
84.008
83.984
83.959
83.935
83.910
83.886
83.861
83.837
83.812
83.788
83.763
83.739
83.714
83.690
83.665
83.641
83.616
83.592
83.567
83.543
83.518
83.494
83.469
83.445
83.420
83.396
83.371
83.347
83.322
83.298
83.298
83.298
83.298
83.298
83.298
83.298
83.298
83.298
83.298
83.298
83.298
83.298
83.298
83.298
83.298
83.298
83.298
83.298
83.298
83.298
83.298
83.298
83.298
83.298
83.298
83.298
83.298
83.298
83.298
83.298
83.298
83.298
83.298
83.298
83.298
83.298
83.298
83.298
83.298
83.298
83.298
83.298
83.298
83.298
83.298
83.298
83.298
83.298
83.298
83.298
83.298
83.298
83.298
83.298
83.298
83.298
83.298
83.298
83.298
83.298
83.298
83.298
83.298
83.298
83.298
83.298
83.298
83.298
83.298
83.298
83.298
83.298
83.298
83.298
83.298
83.298
83.298
83.298
83.298
83.298
83.298
83.298
83.298
83.298
83.298
83.298
83.298
83.298
83.298
83.298
83.298
83.298
83.298
83.298
83.298
83.298
83.298
83.298
83.298
83.298
83.298
83.298
83.298
83.298
83.298
83.298
83.298
83.298
83.298
83.298
83.298
83.298
83.298
83.298
83.298
83.298
83.298
83.298
83.298
83.298
83.298
83.298
83.298
83.298
83.298
83.298
83.298
83.298
83.298
83.298
83.298
83.298
83.298
83.298
83.298
83.298
83.298
83.298
83.298
83.298
83.298
83.298
83.298
83.298
83.298
83.298
83.298
83.298
83.298
83.298
83.298
83.298
83.298
83.298
83.298
83.298
83.298
83.298
83.298
83.298
83.298
83.298
83.298
83.298
83.298
83.298
83.298
83.298
83.298
83.298
83.298
83.298
83.298
83.298
83.298
83.298
83.298
83.298
83.298
83.298
83.298
83.298
83.298
83.298
83.298
83.298
83.298
83.298
83.298
83.298
83.298
83.298
83.298
83.298
83.298
83.298
83.298
83.298
83.298
83.298
83.298
83.298
83.298
83.298
83.298
83.298
83.298
83.298
83.298
83.298
83.298
83.298
83.298
83.298
83.298
83.298
83.298
83.298
83.298
83.298
83.298
83.298
83.298
83.298
83.298
83.298
83.298
83.298
83.298
83.298
83.298
83.298
83.298
83.298
83.298
83.298
83.298
83.298
83.298
83.298
83.298
83.298
83.298
83.298
83.298
83.298
83.298
83.298
83.298
83.298
83.298
83.298
83.298
83.298
83.298
83.298
83.298
83.298
83.298
83.298
83.298
83.298
83.298
83.298
83.298
83.298
83.298
83.298
83.298
83.298
83.298
83.298
83.298
83.298
83.298
83.298
83.298
83.298
83.298
83.298
83.298
83.298
83.298
83.298
83.298
83.298
83.298
83.298
83.298
83.298
83.298
83.298
83.298
