1813.480
1810.352
1807.224
1804.096
1800.968
1797.840
1794.712
1791.584
1788.456
1785.328
1782.200
1779.072
1775.944
1772.816
1769.688
1766.560
1763.432
1760.304
1757.176
1754.048
1750.920
1747.792
1744.664
1741.536
1738.408
1735.280
1732.152
1729.024
1725.896
1722.768
1719.640
1716.512
1713.384
1710.256
1707.128
1704.000
1700.872
1697.744
1694.616
1691.488
1688.360
1685.232
1682.104
1678.976
1675.848
1672.720
1669.592
1666.464
1663.336
1660.208
1657.080
1653.952
1650.824
1647.696
1644.568
1641.440
1638.312
1635.184
1632.056
1628.928
1625.800
1622.672
1619.544
1616.416
1613.288
1617.296
1621.304
1625.312
1629.320
1633.328
1637.336
1641.344
1645.352
1649.360
1653.368
1657.376
1661.384
1665.392
1669.400
1673.408
1677.416
1681.424
1685.432
1689.440
1693.448
1697.456
1701.464
1705.472
1709.480
1713.488
1717.496
1721.504
1725.512
1729.520
1733.528
1737.536
1741.544
1745.552
1749.560
1753.568
1757.576
1761.584
1765.592
1769.600
1773.608
1777.616
1781.624
1785.632
1789.640
1793.648
1797.656
1801.664
1805.672
1809.680
1813.688
1817.696
1821.704
1825.712
1829.720
1833.728
1837.736
1841.744
1845.752
1849.760
1853.768
1857.776
1861.784
1865.792
1869.800
1873.808
1877.816
1881.824
1885.832
1889.840
1893.848
1897.856
1901.864
1905.872
1909.880
1913.888
1917.896
1921.904
1925.912
1929.920
1933.928
1937.936
1941.944
1945.952
1949.960
1953.968
1957.976
1961.984
1965.992
1970.000
1974.008
1978.016
1982.024
1986.032
1990.040
1994.048
1998.056
2002.064
2006.072
2010.080
2014.088
2018.096
2022.104
2026.112
2030.120
2034.128
2038.136
2042.144
2046.152
2050.160
2054.168
2058.176
2062.184
2066.192
2070.200
2074.208
2078.216
2082.224
2086.232
2090.240
2094.248
2098.256
2102.264
2106.272
2110.280
2114.288
2118.296
2122.304
2126.312
2130.320
2134.328
2138.336
2142.344
2146.352
2150.360
2154.368
2158.376
2162.384
2166.392
2170.400
2174.408
2178.416
2182.424
2186.432
2190.440
2194.448
2198.456
2202.464
2206.472
2210.480
2214.488
2218.496
2222.504
2226.512
2230.520
2234.528
2238.536
2242.544
2246.552
2250.560
2254.568
2258.576
2262.584
2266.592
2270.600
2274.608
2278.616
2282.624
2286.632
2290.640
2294.648
2298.656
2302.664
2306.672
2310.680
2314.688
2318.696
2322.704
2326.712
2330.720
2334.728
2338.736
2342.744
2346.752
2350.760
2354.768
2358.776
2362.784
2366.792
2370.800
2374.808
2378.816
2382.824
2386.832
2390.840
2394.848
2398.856
2402.864
2406.872
2410.880
2414.888
2412.419
2409.951
2407.482
2405.014
2402.545
2400.077
2397.608
2395.140
2392.671
2390.203
2387.734
2385.266
2382.797
2380.329
2377.860
2375.392
2372.923
2370.455
2367.986
2365.518
2363.049
2360.581
2358.112
2355.644
2353.175
2350.707
2348.238
2345.770
2343.301
2340.833
2338.364
2335.896
2333.427
2330.959
2328.490
2326.022
2323.553
2321.085
2318.616
2316.148
2313.679
2311.211
2308.742
2306.274
2303.805
2301.337
2298.868
2296.400
2293.931
2291.463
2288.994
2286.526
2284.057
2281.589
2279.120
2276.652
2274.183
2271.715
2269.246
2266.778
2264.309
2261.841
2259.372
2256.904
2254.435
2251.967
2249.498
2247.030
2244.561
2242.093
2239.624
2237.156
2234.687
2232.219
2229.750
2227.282
2224.813
2222.345
2219.876
2217.408
2214.939
2212.471
2210.002
2207.534
2205.065
2202.597
2200.128
2197.660
2195.191
2192.723
2190.254
2187.786
2185.317
2182.849
2180.380
2177.912
2175.443
2172.975
2170.506
2168.038
2165.569
2163.101
2160.632
2158.164
2155.695
2153.227
2150.758
2148.290
2145.821
2143.353
2140.884
2138.416
2135.947
2133.479
2131.010
2128.542
2126.073
2123.605
2121.136
2118.668
2116.199
2113.731
2111.262
2108.794
2106.325
2103.857
2101.388
2098.920
2096.451
2093.983
2091.514
2089.046
2086.577
2084.109
2081.640
2079.172
2076.703
2074.235
2071.766
2069.298
2066.829
2064.361
2061.892
2059.424
2056.955
2054.487
2052.018
2049.550
2047.081
2044.613
2042.144
2039.676
2037.207
2034.739
2032.270
2029.802
2027.333
2024.865
2022.396
2019.928
2017.459
2014.991
2012.522
2010.054
2007.585
2005.117
2002.648
2000.180
1997.711
1995.243
1992.774
1990.306
1987.837
1985.369
1982.900
1980.432
1977.963
1975.495
1973.026
1970.558
1968.089
1965.621
1963.152
1960.684
1958.215
1955.747
1953.278
1950.810
1948.341
1945.873
1943.404
1940.936
1938.467
1935.999
1933.530
1931.062
1928.593
1926.125
1923.656
1921.188
1920.015
1918.842
1917.669
1916.496
1915.323
1914.150
1912.977
1911.804
1910.631
1909.458
1908.285
1907.112
1905.939
1904.766
1903.593
1902.420
1901.247
1900.074
1898.901
1897.728
1896.555
1895.382
1894.209
1893.036
1891.863
1890.690
1889.517
1888.344
1887.171
1885.998
1884.825
1883.652
1882.479
1881.306
1880.133
1878.960
1877.787
1876.614
1875.441
1874.268
1873.095
1871.922
1870.749
1869.576
1868.403
1867.230
1866.057
1864.884
1863.711
1862.538
1861.365
1860.192
1859.019
1857.846
1856.673
1855.500
1854.327
1853.154
1851.981
1850.808
1849.635
1848.462
1847.289
1846.116
1844.943
1843.770
1842.597
1841.424
1840.251
1839.078
1837.905
1836.732
1835.559
1834.386
1833.213
1832.040
1830.867
1829.694
1828.521
1827.348
1826.175
1825.002
1823.829
1822.656
1821.483
1820.310
1819.137
1817.964
1816.791
1815.618
1814.445
1813.272
1812.099
1810.926
1809.753
1808.580
1807.407
1806.234
1805.061
1803.888
1802.715
1801.542
1800.369
1799.196
1798.023
1796.850
1795.677
1794.504
1793.331
1792.158
1790.985
1789.812
1788.639
1787.466
1786.293
1785.120
1783.947
1782.774
1781.601
1780.428
1779.255
1778.082
1776.909
1775.736
1774.563
1773.390
1772.217
1771.044
1769.871
1768.698
1767.525
1766.352
1765.179
1764.006
1762.833
1761.660
1760.487
1759.314
1758.141
1756.968
1755.795
1754.622
1753.449
1752.276
1751.103
1749.930
1748.757
1747.584
1746.411
1745.238
1744.065
1742.892
1741.719
1740.546
1739.373
1738.200
1737.027
1735.854
1734.681
1733.508
1732.335
1731.162
1729.989
1728.816
1727.643
1726.470
1725.297
1724.124
1722.951
1721.778
1720.605
1719.432
1718.259
1717.086
1715.913
1714.740
1713.567
1712.394
1711.221
1710.048
1708.875
1707.702
1706.529
1705.356
1704.183
1703.010
1701.837
1700.664
1699.491
1698.318
1697.145
1695.972
1694.799
1693.626
1692.453
1691.280
1690.107
1688.934
1687.761
1686.588
1683.533
1680.479
1677.424
1674.370
1671.315
1668.261
1665.206
1662.152
1659.097
1656.043
1652.988
1649.934
1646.879
1643.825
1640.770
1637.716
1634.661
1631.607
1628.552
1625.498
1622.443
1619.389
1616.334
1613.280
1610.225
1607.171
1604.116
1601.062
1598.007
1594.953
1591.898
1588.844
1585.789
1582.735
1579.680
1576.626
1573.571
1570.517
1567.462
1564.408
1561.353
1558.299
1555.244
1552.190
1549.135
1546.081
1543.026
1539.972
1536.917
1533.863
1530.808
1527.754
1524.699
1521.645
1518.590
1515.536
1512.481
1509.427
1506.372
1503.318
1500.263
1497.209
1494.154
1491.100
1488.045
1484.991
1481.936
1478.882
1475.827
1472.773
1469.718
1466.664
1463.609
1460.555
1457.500
1454.446
1451.391
1448.337
1445.282
1442.228
1439.173
1436.119
1433.064
1430.010
1426.955
1423.901
1420.846
1417.792
1414.737
1411.683
1408.628
1405.574
1402.519
1399.465
1396.410
1393.356
1390.301
1387.247
1384.192
1381.138
1378.083
1375.029
1371.974
1368.920
1365.865
1362.811
1359.756
1356.702
1353.647
1350.593
1347.538
1344.484
1341.429
1338.375
1335.320
1332.266
1329.211
1326.157
1323.102
1320.048
1316.993
1313.939
1310.884
1307.830
1304.775
1301.721
1298.666
1295.612
1292.557
1289.503
1286.448
1283.394
1280.339
1277.285
1274.230
1271.176
1268.121
1265.067
1262.012
1258.958
1255.903
1252.849
1249.794
1246.740
1243.685
1240.631
1237.576
1234.522
1231.467
1228.413
1225.358
1222.304
1219.249
1216.195
1213.140
1210.086
1207.031
1203.977
1200.922
1197.868
1194.813
1191.759
1188.704
1185.650
1182.595
1179.541
1176.486
1173.432
1170.377
1167.323
1164.268
1161.214
1158.159
1155.105
1152.050
1148.996
1145.941
1142.887
1139.832
1136.778
1133.723
1130.669
1127.614
1124.560
1121.505
1118.451
1115.396
1112.342
1109.287
1106.233
1103.178
1100.124
1097.069
1094.015
1090.960
1087.906
1084.851
1081.797
1078.742
1075.688
1079.158
1082.628
1086.098
1089.568
1093.038
1096.508
1099.978
1103.448
1106.918
1110.388
1113.858
1117.328
1120.798
1124.268
1127.738
1131.208
1134.678
1138.148
1141.618
1145.088
1148.558
1152.028
1155.498
1158.968
1162.438
1165.908
1169.378
1172.848
1176.318
1179.788
1183.258
1186.728
1190.198
1193.668
1197.138
1200.608
1204.078
1207.548
1211.018
1214.488
1217.958
1221.428
1224.898
1228.368
1231.838
1235.308
1238.778
1242.248
1245.718
1249.188
1252.658
1256.128
1259.598
1263.068
1266.538
1270.008
1273.478
1276.948
1280.418
1283.888
1287.358
1290.828
1294.298
1297.768
1301.238
1304.708
1308.178
1311.648
1315.118
1318.588
1322.058
1325.528
1328.998
1332.468
1335.938
1339.408
1342.878
1346.348
1349.818
1353.288
1356.758
1360.228
1363.698
1367.168
1370.638
1374.108
1377.578
1381.048
1384.518
1387.988
1391.458
1394.928
1398.398
1401.868
1405.338
1408.808
1412.278
1415.748
1419.218
1422.688
1426.158
1429.628
1433.098
1436.568
1440.038
1443.508
1446.978
1450.448
1453.918
1457.388
1460.858
1464.328
1467.798
1471.268
1474.738
1478.208
1481.678
1485.148
1488.618
1492.088
1495.558
1499.028
1502.498
1505.968
1509.438
1512.908
1516.378
1519.848
1523.318
1526.788
1530.258
1533.728
1537.198
1540.668
1544.138
1547.608
1551.078
1554.548
1558.018
1561.488
1564.958
1568.428
1571.898
1575.368
1578.838
1582.308
1585.778
1589.248
1592.718
1596.188
1599.658
1603.128
1606.598
1610.068
1613.538
1617.008
1620.478
1623.948
1627.418
1630.888
1634.358
1637.828
1641.298
1644.768
1648.238
1651.708
1655.178
1658.648
1662.118
1665.588
1669.058
1672.528
1675.998
1679.468
1682.938
1686.408
1689.878
1693.348
1696.818
1700.288
1703.758
1707.228
1710.698
1714.168
1717.638
1721.108
1724.578
1728.048
1731.518
1734.988
1738.458
1741.928
1745.398
1748.868
1752.338
1755.808
1759.278
1762.748
1766.218
1769.688
1762.796
1755.905
1749.013
1742.122
1735.230
1728.339
1721.447
1714.556
1707.664
1700.773
1693.881
1686.990
1680.098
1673.207
1666.315
1659.424
1652.532
1645.641
1638.749
1631.858
1624.966
1618.075
1611.183
1604.292
1597.400
1590.509
1583.617
1576.726
1569.834
1562.943
1556.051
1549.160
1542.268
1535.377
1528.485
1521.594
1514.702
1507.811
1500.919
1494.028
1487.136
1480.245
1473.353
1466.462
1459.570
1452.679
1445.787
1438.896
1432.004
1425.113
1418.221
1411.330
1404.438
1397.547
1390.655
1383.764
1376.872
1369.981
1363.089
1356.198
1349.306
1342.415
1335.523
1328.632
1321.740
1314.849
1307.957
1301.066
1294.174
1287.283
1280.391
1273.500
1266.608
1259.717
1252.825
1245.934
1239.042
1232.151
1225.259
1218.368
1211.476
1204.585
1197.693
1190.802
1183.910
1177.019
1170.127
1163.236
1156.344
1149.453
1142.561
1135.670
1128.778
1121.887
1114.995
1108.104
1101.212
1094.321
1087.429
1080.538
1073.646
1066.755
1059.863
1052.972
1046.080
1039.189
1032.297
1025.406
1018.514
1011.623
1004.731
997.840
990.948
984.057
977.165
970.274
963.382
956.491
949.599
942.708
935.816
928.925
922.033
915.142
908.250
901.359
894.467
887.576
880.684
873.793
866.901
860.010
853.118
846.227
839.335
832.444
825.552
818.661
811.769
804.878
797.986
791.095
784.203
777.312
770.420
763.529
756.637
749.746
742.854
735.963
729.071
722.180
715.288
708.397
701.505
694.614
687.722
680.831
673.939
667.048
660.156
653.265
646.373
639.482
632.590
625.699
618.807
611.916
605.024
598.133
591.241
584.350
577.458
570.567
563.675
556.784
549.892
543.001
536.109
529.218
522.326
515.435
508.543
501.652
494.760
487.869
480.977
474.086
467.194
460.303
453.411
446.520
439.628
432.737
425.845
418.954
412.062
405.171
398.279
391.388
390.239
389.091
387.942
386.794
385.645
384.497
383.348
382.200
381.051
379.903
378.754
377.606
376.457
375.309
374.160
373.012
371.863
370.715
369.566
368.418
367.269
366.121
364.972
363.824
362.675
361.527
360.378
359.230
358.081
356.933
355.784
354.636
353.487
352.339
351.190
350.042
348.893
347.745
346.596
345.448
344.299
343.151
342.002
340.854
339.705
338.557
337.408
336.260
335.111
333.963
332.814
331.666
330.517
329.369
328.220
327.072
325.923
324.775
323.626
322.478
321.329
320.181
319.032
317.884
316.735
315.587
314.438
313.290
312.141
310.993
309.844
308.696
307.547
306.399
305.250
304.102
302.953
301.805
300.656
299.508
298.359
297.211
296.062
294.914
293.765
292.617
291.468
290.320
289.171
288.023
286.874
285.726
284.577
283.429
282.280
281.132
279.983
278.835
277.686
276.538
275.389
274.241
273.092
271.944
270.795
269.647
268.498
267.350
266.201
265.053
263.904
262.756
261.607
260.459
259.310
258.162
257.013
255.865
254.716
253.568
252.419
251.271
250.122
248.974
247.825
246.677
245.528
244.380
243.231
242.083
240.934
239.786
238.637
237.489
236.340
235.192
234.043
232.895
231.746
230.598
229.449
228.301
227.152
226.004
224.855
223.707
222.558
221.410
220.261
219.113
217.964
216.816
215.667
214.519
213.370
212.222
211.073
209.925
208.776
207.628
206.479
205.331
204.182
203.034
201.885
200.737
199.588
198.440
197.291
196.143
194.994
193.846
192.697
191.549
190.400
189.252
188.103
186.955
185.806
184.658
183.509
182.361
181.212
180.064
178.915
177.767
176.618
175.470
174.321
173.173
172.024
170.876
169.727
168.579
167.430
166.282
165.133
163.985
162.836
88.388
88.388
88.388
88.388
88.388
88.388
88.388
88.388
88.388
88.388
88.388
88.388
88.388
88.388
88.388
88.388
88.388
88.388
88.388
88.388
88.388
88.388
88.388
88.388
88.388
88.388
88.388
88.388
88.388
88.388
88.388
88.388
88.388
88.388
88.388
88.388
88.388
88.388
88.388
88.388
88.388
88.388
88.388
88.388
88.388
88.388
88.388
88.388
88.388
88.388
88.388
88.388
88.388
88.388
88.388
88.388
88.388
88.388
88.388
88.388
88.388
88.388
88.388
88.388
88.388
88.388
88.388
88.388
88.388
88.388
88.388
88.388
88.388
88.388
88.388
88.388
88.388
88.388
88.388
88.388
88.388
88.388
88.388
88.388
88.388
88.388
88.388
88.388
88.388
88.388
88.388
88.388
88.388
88.388
88.388
88.388
88.388
88.388
88.388
88.388
88.388
88.388
88.388
88.388
88.388
88.388
88.388
88.388
88.388
88.388
88.388
88.388
88.388
88.388
88.388
88.388
88.388
88.388
88.388
88.388
88.388
88.388
88.388
88.388
88.388
88.388
88.388
88.388
88.388
88.388
88.388
88.388
88.388
88.388
88.388
88.388
88.388
88.388
88.388
88.388
88.388
88.388
88.388
88.388
88.388
88.388
88.388
88.388
88.388
88.388
88.388
88.388
88.388
88.388
88.388
88.388
88.388
88.388
88.388
88.388
88.388
88.388
88.388
88.388
88.388
88.388
88.388
88.388
88.388
88.388
88.388
88.388
88.388
88.388
88.388
88.388
88.388
88.388
88.388
88.388
88.388
88.388
88.388
88.388
88.388
88.388
88.388
88.388
88.388
88.388
88.388
88.388
88.388
88.388
88.388
88.388
88.388
88.388
88.388
88.388
88.388
88.363
88.339
88.314
88.290
88.265
88.241
88.216
88.192
88.167
88.143
88.118
88.094
88.069
88.045
88.020
87.996
87.971
87.947
87.922
87.898
87.873
87.849
87.824
87.800
87.775
87.751
87.726
87.702
87.677
87.653
87.628
87.604
87.579
87.555
87.530
87.506
87.481
87.457
87.432
87.408
87.383
87.359
87.334
87.310
87.285
87.261
87.236
87.212
87.187
87.163
87.138
87.114
87.089
87.065
87.040
87.016
86.991
86.967
86.942
86.918
86.893
86.869
86.844
86.820
86.795
86.771
86.746
86.722
86.697
86.673
86.648
86.624
86.599
86.575
86.550
86.526
86.501
86.477
86.452
86.428
86.403
86.379
86.354
86.330
86.305
86.281
86.256
86.232
86.207
86.183
86.158
86.134
86.109
86.085
86.060
86.036
86.011
85.987
85.962
85.938
85.913
85.889
85.864
85.840
85.815
85.791
85.766
85.742
85.717
85.693
85.668
85.644
85.619
85.595
85.570
85.546
85.521
85.497
85.472
85.448
85.423
85.399
85.374
85.350
85.325
85.301
85.276
85.252
85.227
85.203
85.178
85.154
85.129
85.105
85.080
85.056
85.031
85.007
84.982
84.958
84.933
84.909
84.884
84.860
84.835
84.811
84.786
84.762
84.737
84.713
84.688
84.664
84.639
84.615
84.590
84.566
84.541
84.517
84.492
84.468
84.443
84.419
84.394
84.370
84.345
84.321
84.296
84.272
84.247
84.223
84.198
84.174
84.149
84.125
84.100
84.076
84.051
84.027
84.002
83.978
83.953
83.929
83.904
83.880
83.855
83.831
83.806
83.782
83.757
83.733
83.708
83.684
83.659
83.635
83.610
83.586
83.561
83.537
83.512
83.488
83.488
83.488
83.488
83.488
83.488
83.488
83.488
83.488
83.488
83.488
83.488
83.488
83.488
83.488
83.488
83.488
83.488
83.488
83.488
83.488
83.488
83.488
83.488
83.488
83.488
83.488
83.488
83.488
83.488
83.488
83.488
83.488
83.488
83.488
83.488
83.488
83.488
83.488
83.488
83.488
83.488
83.488
83.488
83.488
83.488
83.488
83.488
83.488
83.488
83.488
83.488
83.488
83.488
83.488
83.488
83.488
83.488
83.488
83.488
83.488
83.488
83.488
83.488
83.488
83.488
83.488
83.488
83.488
83.488
83.488
83.488
83.488
83.488
83.488
83.488
83.488
83.488
83.488
83.488
83.488
83.488
83.488
83.488
83.488
83.488
83.488
83.488
83.488
83.488
83.488
83.488
83.488
83.488
83.488
83.488
83.488
83.488
83.488
83.488
83.488
83.488
83.488
83.488
83.488
83.488
83.488
83.488
83.488
83.488
83.488
83.488
83.488
83.488
83.488
83.488
83.488
83.488
83.488
83.488
83.488
83.488
83.488
83.488
83.488
83.488
83.488
83.488
83.488
83.488
83.488
83.488
83.488
83.488
83.488
83.488
