2284.297
2283.442
2282.587
2281.732
2280.877
2280.022
2279.167
2278.312
2277.457
2276.602
2275.747
2274.892
2274.037
2273.182
2272.327
2271.472
2270.617
2269.762
2268.907
2268.052
2267.197
2266.342
2265.487
2264.632
2263.777
2262.922
2262.067
2261.212
2260.357
2259.502
2258.647
2257.792
2256.937
2256.082
2255.227
2254.372
2253.517
2252.662
2251.807
2250.952
2250.097
2249.242
2248.387
2247.532
2246.677
2245.822
2244.967
2244.112
2243.257
2242.402
2241.547
2240.692
2239.837
2238.982
2238.127
2237.272
2236.417
2235.562
2234.707
2233.852
2232.997
2232.142
2231.287
2230.432
2229.577
2228.722
2227.867
2227.012
2226.157
2225.302
2224.447
2223.592
2222.737
2221.882
2221.027
2220.172
2219.317
2218.462
2217.607
2216.752
2215.897
2215.042
2214.187
2213.332
2212.477
2211.622
2210.767
2209.912
2209.057
2208.202
2207.347
2206.492
2205.637
2204.782
2203.927
2203.072
2202.217
2201.362
2200.507
2199.652
2198.797
2197.942
2197.087
2196.232
2195.377
2194.522
2193.667
2192.812
2191.957
2191.102
2190.247
2189.392
2188.537
2187.682
2186.827
2185.972
2185.117
2184.262
2183.407
2182.552
2181.697
2180.842
2179.987
2179.132
2178.277
2177.422
2176.567
2175.712
2174.857
2174.002
2173.147
2172.292
2171.437
2170.582
2169.727
2168.872
2168.017
2167.162
2166.307
2165.452
2164.597
2163.742
2162.887
2162.032
2161.177
2160.322
2159.467
2158.612
2157.757
2156.902
2156.047
2155.192
2154.337
2153.482
2152.627
2151.772
2150.917
2150.062
2149.207
2148.352
2147.497
2146.642
2145.787
2144.932
2144.077
2143.222
2142.367
2140.143
2137.919
2135.695
2133.471
2131.247
2129.023
2126.799
2124.575
2122.351
2120.127
2117.903
2115.679
2113.455
2111.231
2109.007
2106.783
2104.559
2102.335
2100.111
2097.887
2095.663
2093.439
2091.215
2088.991
2086.767
2084.543
2082.319
2080.095
2077.871
2075.647
2073.423
2071.199
2068.975
2066.751
2064.527
2062.303
2060.079
2057.855
2055.631
2053.407
2051.183
2048.959
2046.735
2044.511
2042.287
2040.063
2037.839
2035.615
2033.391
2031.167
2028.943
2026.719
2024.495
2022.271
2020.047
2017.823
2015.599
2013.375
2011.151
2008.927
2006.703
2004.479
2002.255
2000.031
1997.807
1995.583
1993.359
1991.135
1988.911
1986.687
1984.463
1982.239
1980.015
1977.791
1975.567
1973.343
1971.119
1968.895
1966.671
1964.447
1962.223
1959.999
1957.775
1955.551
1953.327
1951.103
1948.879
1946.655
1944.431
1942.207
1939.983
1937.759
1935.535
1933.311
1931.087
1928.863
1926.639
1924.415
1922.191
1919.967
1917.743
1915.519
1913.295
1911.071
1908.847
1906.623
1904.399
1902.175
1899.951
1897.727
1895.503
1893.279
1891.055
1888.831
1886.607
1884.383
1882.159
1879.935
1877.711
1875.487
1873.263
1871.039
1868.815
1866.591
1864.367
1862.143
1859.919
1857.695
1855.471
1853.247
1851.023
1848.799
1846.575
1844.351
1842.127
1839.903
1837.679
1835.455
1833.231
1831.007
1828.783
1826.559
1824.335
1822.111
1819.887
1817.663
1815.439
1813.215
1810.991
1808.767
1806.543
1804.319
1802.095
1799.871
1797.647
1795.423
1793.199
1790.975
1788.751
1786.527
1784.303
1782.079
1779.855
1777.631
1775.407
1773.183
1770.959
1768.735
1766.511
1764.287
1762.063
1759.839
1757.615
1755.391
1753.167
1750.943
1748.719
1746.495
1744.271
1742.047
1739.823
1737.599
1735.375
1733.151
1730.927
1728.703
1726.479
1724.255
1722.031
1719.807
1717.583
1715.359
1713.135
1710.911
1708.687
1706.463
1704.239
1702.015
1699.791
1697.567
1699.888
1702.210
1704.531
1706.853
1709.174
1711.496
1713.817
1716.139
1718.460
1720.782
1723.103
1725.425
1727.746
1730.068
1732.389
1734.711
1737.032
1739.354
1741.675
1743.997
1746.318
1748.640
1750.961
1753.283
1755.604
1757.926
1760.247
1762.569
1764.890
1767.212
1769.533
1771.855
1774.176
1776.498
1778.819
1781.141
1783.462
1785.784
1788.105
1790.427
1792.748
1795.070
1797.391
1799.713
1802.034
1804.356
1806.677
1808.999
1811.320
1813.642
1815.963
1818.285
1820.606
1822.928
1825.249
1827.571
1829.892
1832.214
1834.535
1836.857
1839.178
1841.500
1843.821
1846.143
1848.464
1850.786
1853.107
1855.429
1857.750
1860.072
1862.393
1864.715
1867.036
1869.358
1871.679
1874.001
1876.322
1878.644
1880.965
1883.287
1885.608
1887.930
1890.251
1892.573
1894.894
1897.216
1899.537
1901.859
1904.180
1906.502
1908.823
1911.145
1913.466
1915.788
1918.109
1920.431
1922.752
1925.074
1927.395
1929.717
1932.038
1934.360
1936.681
1939.003
1941.324
1943.646
1945.967
1948.289
1950.610
1952.932
1955.253
1957.575
1959.896
1962.218
1964.539
1966.861
1969.182
1971.504
1973.825
1976.147
1978.468
1980.790
1983.111
1985.433
1987.754
1990.076
1992.397
1994.719
1997.040
1999.362
2001.683
2004.005
2006.326
2008.648
2010.969
2013.291
2015.612
2017.934
2020.255
2022.577
2024.898
2027.220
2029.541
2031.863
2034.184
2036.506
2038.827
2041.149
2043.470
2045.792
2048.113
2050.435
2052.756
2055.078
2057.399
2059.721
2062.042
2064.364
2066.685
2069.007
2071.328
2073.650
2075.971
2078.293
2080.614
2082.936
2085.257
2087.579
2089.900
2092.222
2094.543
2096.865
2099.186
2101.508
2103.829
2106.151
2108.472
2110.794
2113.115
2115.437
2117.758
2120.080
2122.401
2124.723
2127.044
2129.366
2131.687
2134.009
2136.330
2138.652
2140.973
2143.295
2145.616
2147.938
2150.259
2152.581
2154.902
2157.224
2159.545
2161.867
2165.288
2168.710
2172.131
2175.553
2178.974
2182.396
2185.817
2189.239
2192.660
2196.082
2199.503
2202.925
2206.346
2209.768
2213.189
2216.611
2220.032
2223.454
2226.875
2230.297
2233.718
2237.140
2240.561
2243.983
2247.404
2250.826
2254.247
2257.669
2261.090
2264.512
2267.933
2271.355
2274.776
2278.198
2281.619
2285.041
2288.462
2291.884
2295.305
2298.727
2302.148
2305.570
2308.991
2312.413
2315.834
2319.256
2322.677
2326.099
2329.520
2332.942
2336.363
2339.785
2343.206
2346.628
2350.049
2353.471
2356.892
2360.314
2363.735
2367.157
2370.578
2374.000
2377.421
2380.843
2384.264
2387.686
2391.107
2394.529
2397.950
2401.372
2404.793
2408.215
2411.636
2415.058
2418.479
2421.901
2425.322
2428.744
2432.165
2435.587
2439.008
2442.430
2445.851
2449.273
2452.694
2456.116
2459.537
2462.959
2466.380
2469.802
2473.223
2476.645
2480.066
2483.488
2486.909
2490.331
2493.752
2497.174
2500.595
2504.017
2507.438
2510.860
2514.281
2517.703
2521.124
2524.546
2527.967
2531.389
2534.810
2538.232
2541.653
2545.075
2548.496
2551.918
2555.339
2558.761
2562.182
2565.604
2569.025
2572.447
2575.868
2579.290
2582.711
2586.133
2589.554
2592.976
2596.397
2599.819
2603.240
2606.662
2610.083
2613.505
2616.926
2620.348
2623.769
2627.191
2630.612
2634.034
2637.455
2640.877
2644.298
2647.720
2651.141
2654.563
2657.984
2661.406
2664.827
2668.249
2671.670
2675.092
2678.513
2681.935
2685.356
2688.778
2692.199
2695.621
2699.042
2702.464
2705.885
2709.307
2712.728
2716.150
2719.571
2722.993
2726.414
2729.836
2733.257
2736.679
2740.100
2743.522
2746.943
2750.365
2753.786
2757.208
2760.629
2764.051
2767.472
2770.894
2774.315
2777.737
2781.158
2784.580
2788.001
2791.423
2794.844
2798.266
2801.687
2805.109
2808.530
2811.952
2815.373
2818.795
2822.216
2825.638
2829.059
2832.481
2835.902
2839.324
2842.745
2846.167
2843.454
2840.742
2838.029
2835.317
2832.604
2829.892
2827.179
2824.467
2821.754
2819.042
2816.329
2813.617
2810.904
2808.192
2805.479
2802.767
2800.054
2797.342
2794.629
2791.917
2789.204
2786.492
2783.779
2781.067
2778.354
2775.642
2772.929
2770.217
2767.504
2764.792
2762.079
2759.367
2756.654
2753.942
2751.229
2748.517
2745.804
2743.092
2740.379
2737.667
2734.954
2732.242
2729.529
2726.817
2724.104
2721.392
2718.679
2715.967
2713.254
2710.542
2707.829
2705.117
2702.404
2699.692
2696.979
2694.267
2691.554
2688.842
2686.129
2683.417
2680.704
2677.992
2675.279
2672.567
2669.854
2667.142
2664.429
2661.717
2659.004
2656.292
2653.579
2650.867
2648.154
2645.442
2642.729
2640.017
2637.304
2634.592
2631.879
2629.167
2626.454
2623.742
2621.029
2618.317
2615.604
2612.892
2610.179
2607.467
2604.754
2602.042
2599.329
2596.617
2593.904
2591.192
2588.479
2585.767
2583.054
2580.342
2577.629
2574.917
2572.204
2569.492
2566.779
2564.067
2561.354
2558.642
2555.929
2553.217
2550.504
2547.792
2545.079
2542.367
2539.654
2536.942
2534.229
2531.517
2528.804
2526.092
2523.379
2520.667
2517.954
2515.242
2512.529
2509.817
2507.104
2504.392
2501.679
2498.967
2496.254
2493.542
2490.829
2488.117
2485.404
2482.692
2479.979
2477.267
2474.554
2471.842
2469.129
2466.417
2463.704
2460.992
2458.279
2455.567
2452.854
2450.142
2447.429
2444.717
2442.004
2439.292
2436.579
2433.867
2431.154
2428.442
2425.729
2423.017
2420.304
2417.592
2414.879
2412.167
2409.454
2406.742
2404.029
2401.317
2398.604
2395.892
2393.179
2390.467
2387.754
2385.042
2382.329
2379.617
2376.904
2374.192
2371.479
2368.767
2366.054
2363.342
2360.629
2357.917
2355.204
2352.492
2349.779
2347.067
2344.354
2341.642
2338.929
2336.217
2333.504
2330.792
2328.079
2325.367
2322.654
2319.942
2317.229
2314.517
2311.804
2309.092
2306.379
2303.667
2295.871
2288.075
2280.279
2272.483
2264.687
2256.891
2249.095
2241.299
2233.503
2225.707
2217.911
2210.115
2202.319
2194.523
2186.727
2178.931
2171.135
2163.339
2155.543
2147.747
2139.951
2132.155
2124.359
2116.563
2108.767
2100.971
2093.175
2085.379
2077.583
2069.787
2061.991
2054.195
2046.399
2038.603
2030.807
2023.011
2015.215
2007.419
1999.623
1991.827
1984.031
1976.235
1968.439
1960.643
1952.847
1945.051
1937.255
1929.459
1921.663
1913.867
1906.071
1898.275
1890.479
1882.683
1874.887
1867.091
1859.295
1851.499
1843.703
1835.907
1828.111
1820.315
1812.519
1804.723
1796.927
1789.131
1781.335
1773.539
1765.743
1757.947
1750.151
1742.355
1734.559
1726.763
1718.967
1711.171
1703.375
1695.579
1687.783
1679.987
1672.191
1664.395
1656.599
1648.803
1641.007
1633.211
1625.415
1617.619
1609.823
1602.027
1594.231
1586.435
1578.639
1570.843
1563.047
1555.251
1547.455
1539.659
1531.863
1524.067
1516.271
1508.475
1500.679
1492.883
1485.087
1477.291
1469.495
1461.699
1453.903
1446.107
1438.311
1430.515
1422.719
1414.923
1407.127
1399.331
1391.535
1383.739
1375.943
1368.147
1360.351
1352.555
1344.759
1336.963
1329.167
1321.371
1313.575
1305.779
1297.983
1290.187
1282.391
1274.595
1266.799
1259.003
1251.207
1243.411
1235.615
1227.819
1220.023
1212.227
1204.431
1196.635
1188.839
1181.043
1173.247
1165.451
1157.655
1149.859
1142.063
1134.267
1126.471
1118.675
1110.879
1103.083
1095.287
1087.491
1079.695
1071.899
1064.103
1056.307
1048.511
1040.715
1032.919
1025.123
1017.327
1009.531
1001.735
993.939
986.143
978.347
970.551
962.755
954.959
947.163
939.367
931.571
923.775
915.979
908.183
900.387
892.591
884.795
876.999
869.203
861.407
853.611
845.815
838.019
830.223
822.427
814.631
806.835
799.039
791.243
783.447
775.651
767.855
760.059
752.263
94.467
94.467
94.467
94.467
94.467
94.467
94.467
94.467
94.467
94.467
94.467
94.467
94.467
94.467
94.467
94.467
94.467
94.467
94.467
94.467
94.467
94.467
94.467
94.467
94.467
94.467
94.467
94.467
94.467
94.467
94.467
94.467
94.467
94.467
94.467
94.467
94.467
94.467
94.467
94.467
94.467
94.467
94.467
94.467
94.467
94.467
94.467
94.467
94.467
94.467
94.467
94.467
94.467
94.467
94.467
94.467
94.467
94.467
94.467
94.467
94.467
94.467
94.467
94.467
94.467
94.467
94.467
94.467
94.467
94.467
94.467
94.467
94.467
94.467
94.467
94.467
94.467
94.467
94.467
94.467
94.467
94.467
94.467
94.467
94.467
94.467
94.467
94.467
94.467
94.467
94.467
94.467
94.467
94.467
94.467
94.467
94.467
94.467
94.467
94.467
94.467
94.467
94.467
94.467
94.467
94.467
94.467
94.467
94.467
94.467
94.467
94.467
94.467
94.467
94.467
94.467
94.467
94.467
94.467
94.467
94.467
94.467
94.467
94.467
94.467
94.467
94.467
94.467
94.467
94.467
94.467
94.467
94.467
94.467
94.467
94.467
94.467
94.467
94.467
94.467
94.467
94.467
94.467
94.467
94.467
94.467
94.467
94.467
94.467
94.467
94.467
94.467
94.467
94.467
94.467
94.467
94.467
94.467
94.467
94.467
94.467
94.467
94.467
94.467
94.467
94.467
94.467
94.467
94.467
94.467
94.467
94.467
94.467
94.467
94.467
94.467
94.467
94.467
94.467
94.467
94.467
94.467
94.467
94.467
94.467
94.467
94.467
94.467
94.467
94.467
94.467
94.467
94.467
94.467
94.467
94.467
94.467
94.467
94.467
94.467
94.467
94.467
94.467
94.467
94.467
94.467
94.467
94.467
94.467
94.467
94.467
94.467
94.467
94.467
94.467
94.467
94.467
94.467
94.467
94.467
94.467
94.467
94.467
94.467
94.467
94.467
94.467
94.467
94.467
94.467
94.467
94.467
94.467
94.467
94.467
94.467
94.467
94.467
94.467
94.467
94.467
94.467
94.467
94.467
94.467
94.467
94.467
94.467
94.467
94.467
94.467
94.467
94.467
94.467
94.467
94.467
94.467
94.467
94.467
94.467
94.467
94.467
94.467
94.467
94.467
94.467
94.467
94.467
94.467
94.467
94.467
94.467
94.467
94.467
94.467
94.467
94.467
94.467
94.467
94.467
94.467
94.467
94.467
94.467
94.467
94.467
94.467
94.467
94.467
94.467
94.467
94.467
94.467
94.467
94.467
94.467
94.467
94.467
94.467
94.467
94.467
94.467
94.467
94.467
94.467
94.467
94.467
94.467
94.467
94.467
94.467
94.467
94.467
94.467
94.467
94.467
94.467
94.467
94.467
94.467
94.467
94.467
94.467
94.467
94.467
94.467
94.467
94.467
94.467
94.467
94.467
94.467
94.467
94.467
94.467
94.467
94.467
94.467
94.467
94.467
94.467
94.467
94.467
94.467
94.467
94.467
94.467
94.467
94.467
94.467
94.467
94.467
94.467
94.467
94.467
94.467
94.467
94.467
94.467
94.467
94.467
94.467
94.467
94.467
94.467
94.467
94.467
94.467
94.467
94.467
94.467
94.467
94.467
94.467
94.467
94.467
94.467
94.467
94.467
94.467
94.467
94.467
94.467
94.467
94.467
94.467
94.467
94.467
94.467
94.467
94.467
94.467
94.467
94.467
94.467
94.467
94.467
94.467
94.467
94.467
94.467
94.467
94.467
94.467
94.467
94.467
94.467
94.467
94.467
94.467
94.467
94.467
94.467
94.467
94.467
94.467
94.467
94.467
94.467
94.467
94.467
94.467
94.467
94.467
94.467
94.467
94.467
94.467
94.467
94.467
94.467
94.467
94.467
94.467
94.467
94.467
94.467
94.467
94.467
94.467
94.467
94.467
94.467
94.467
94.467
94.467
94.467
94.467
94.467
94.467
94.467
94.467
94.467
94.467
94.467
94.467
94.467
94.467
94.467
94.467
94.467
94.467
94.467
94.467
94.467
94.467
94.467
94.467
94.467
94.467
94.467
94.467
94.467
94.467
94.467
94.467
94.467
94.467
94.467
94.467
94.467
94.467
94.467
94.467
94.467
94.467
94.467
94.467
94.467
94.467
94.467
94.467
94.467
94.467
94.467
94.467
94.467
94.467
94.467
94.467
94.467
94.467
94.467
94.467
94.467
94.467
94.467
94.467
94.467
94.467
94.467
94.467
94.467
94.467
94.467
94.467
94.467
94.467
94.467
94.467
94.467
94.467
94.467
94.467
94.467
94.467
94.467
94.467
94.467
94.467
94.467
94.467
94.467
94.467
94.467
94.467
94.467
94.467
94.467
94.467
94.467
94.467
94.467
94.467
94.467
94.467
94.467
94.467
94.467
94.467
94.467
94.467
94.467
94.467
94.467
94.467
94.467
94.467
94.467
94.467
94.467
94.467
94.467
94.467
94.467
94.467
94.467
94.467
94.467
94.467
94.467
94.467
94.467
94.467
94.467
94.467
94.467
94.467
94.467
94.467
94.467
94.467
94.467
94.467
94.467
94.467
94.467
94.467
94.467
94.467
94.467
94.467
94.467
94.467
94.467
94.467
94.467
94.467
94.467
94.467
94.467
94.467
94.467
94.467
94.467
94.467
94.467
94.467
94.467
94.467
94.467
94.467
94.467
94.467
94.467
94.467
94.467
94.467
94.467
94.467
94.467
94.467
94.467
94.467
94.467
94.467
94.467
94.467
94.467
94.467
94.467
94.467
94.467
94.467
94.467
94.467
94.467
94.467
94.467
94.467
94.467
94.467
94.467
94.467
94.467
94.467
94.467
94.467
94.467
94.467
94.467
94.467
94.467
94.467
94.467
94.467
94.467
94.467
94.467
94.467
94.467
94.467
94.467
94.467
94.467
94.467
94.467
94.467
94.467
94.467
94.467
94.467
94.467
94.467
94.467
94.467
94.467
94.467
94.467
94.467
94.467
94.467
94.467
94.467
94.467
94.467
94.467
94.467
94.467
94.467
94.467
94.467
94.467
94.467
94.467
94.467
94.467
94.467
94.467
94.467
94.467
94.467
94.467
94.467
94.467
94.467
94.467
94.467
94.467
94.467
94.467
94.467
94.467
94.467
94.467
94.467
94.467
94.467
94.467
94.467
94.467
94.467
94.467
94.467
94.467
94.467
94.467
94.467
94.467
94.467
94.467
94.467
94.467
94.467
94.467
94.467
94.467
94.467
94.467
94.467
94.467
94.467
94.467
94.467
94.467
94.467
94.467
94.467
94.467
94.467
94.467
94.467
94.467
94.467
94.467
94.467
94.467
94.467
94.467
94.467
94.467
94.467
94.467
94.467
94.467
94.467
94.467
94.467
94.467
94.467
94.467
94.467
94.467
94.467
94.467
94.467
94.467
94.467
94.467
94.467
94.467
94.467
94.467
94.467
94.467
94.467
94.467
94.467
94.467
94.467
94.467
94.467
94.467
94.467
94.467
94.467
94.467
94.467
94.467
94.467
94.467
94.442
94.418
94.393
94.369
94.344
94.320
94.295
94.271
94.246
94.222
94.197
94.173
94.148
94.124
94.099
94.075
94.050
94.026
94.001
93.977
93.952
93.928
93.903
93.879
93.854
93.830
93.805
93.781
93.756
93.732
93.707
93.683
93.658
