1993.262
1990.452
1987.642
1984.832
1982.022
1979.212
1976.402
1973.592
1970.782
1967.972
1965.162
1962.352
1959.542
1956.732
1953.922
1951.112
1945.613
1940.115
1934.616
1929.118
1923.619
1918.121
1912.622
1907.124
1901.625
1896.127
1890.628
1885.130
1879.631
1874.133
1868.634
1863.136
1857.637
1852.139
1846.640
1841.142
1835.643
1830.145
1824.646
1819.148
1813.649
1808.151
1802.652
1797.154
1791.655
1786.157
1780.658
1775.160
1769.661
1764.163
1758.664
1753.166
1747.667
1742.169
1736.670
1731.172
1725.673
1720.175
1714.676
1709.178
1703.679
1698.181
1692.682
1687.184
1681.685
1676.187
1670.688
1665.190
1659.691
1654.193
1648.694
1643.196
1637.697
1632.199
1626.700
1621.202
1615.703
1610.205
1604.706
1599.208
1593.709
1588.211
1582.712
1577.214
1571.715
1566.217
1560.718
1555.220
1549.721
1544.223
1538.724
1533.226
1527.727
1522.229
1516.730
1511.232
1505.733
1500.235
1494.736
1489.238
1483.739
1478.241
1472.742
1467.244
1461.745
1456.247
1450.748
1445.250
1439.751
1434.253
1428.754
1423.256
1417.757
1412.259
1406.760
1401.262
1395.763
1390.265
1384.766
1379.268
1373.769
1368.271
1362.772
1357.274
1351.775
1346.277
1340.778
1335.280
1329.781
1324.283
1318.784
1313.286
1307.787
1302.289
1296.790
1291.292
1285.793
1280.295
1274.796
1269.298
1263.799
1258.301
1252.802
1247.304
1241.805
1236.307
1230.808
1225.310
1219.811
1214.313
1208.814
1203.316
1197.817
1192.319
1186.820
1181.322
1175.823
1170.325
1164.826
1159.328
1153.829
1148.331
1142.832
1137.334
1131.835
1126.337
1120.838
1115.340
1109.841
1104.343
1098.844
1093.346
1087.847
1082.349
1076.850
1071.352
1065.853
1060.355
1054.856
1049.358
1043.859
1038.361
1032.862
1027.364
1021.865
1016.367
1010.868
1005.370
999.871
994.373
988.874
983.376
977.877
972.379
966.880
961.382
955.883
950.385
944.886
939.388
933.889
928.391
922.892
917.394
911.895
906.397
900.898
895.400
889.901
884.403
878.904
873.406
867.907
862.409
856.910
851.412
848.112
844.813
841.513
838.214
834.914
831.615
828.315
825.016
821.716
818.417
815.117
811.818
808.518
805.219
801.919
798.620
795.320
792.021
788.721
785.422
782.122
778.823
775.523
772.224
768.924
765.625
762.325
759.026
755.726
752.427
749.127
745.828
742.528
739.229
735.929
732.630
729.330
726.031
722.731
719.432
716.132
712.833
709.533
706.234
702.934
699.635
696.335
693.036
689.736
686.437
683.137
679.838
676.538
673.239
669.939
666.640
663.340
660.041
656.741
653.442
650.142
646.843
643.543
640.244
636.944
633.645
630.345
627.046
623.746
620.447
617.147
613.848
610.548
607.249
603.949
600.650
597.350
594.051
590.751
587.452
584.152
580.853
577.553
574.254
570.954
567.655
564.355
561.056
557.756
554.457
551.157
547.858
544.558
541.259
537.959
534.660
531.360
528.061
524.761
521.462
518.162
514.863
511.563
508.264
504.964
501.665
498.365
495.066
491.766
488.467
485.167
481.868
478.568
475.269
471.969
468.670
465.370
462.071
458.771
455.472
452.172
448.873
445.573
442.274
438.974
435.675
432.375
429.076
425.776
422.477
419.177
415.878
412.578
409.279
405.979
402.680
399.380
396.081
392.781
389.482
386.182
382.883
379.583
376.284
372.984
369.685
366.385
363.086
359.786
356.487
353.187
349.888
346.588
343.289
339.989
336.690
333.390
330.091
326.791
323.492
320.192
316.893
313.593
310.294
306.994
303.695
300.395
297.096
293.796
290.497
287.197
283.898
280.598
277.299
273.999
270.700
267.400
264.101
260.801
257.502
254.202
250.903
247.603
244.304
241.004
237.705
234.405
231.106
227.806
224.507
221.207
217.908
214.608
211.309
208.009
204.710
201.410
198.111
194.811
98.712
98.712
98.712
98.712
98.712
98.712
98.712
98.712
98.712
98.712
98.712
98.712
98.712
98.712
98.712
98.712
98.712
98.712
98.712
98.712
98.712
98.712
98.712
98.712
98.712
98.712
98.712
98.712
98.712
98.712
98.712
98.712
98.712
98.712
98.712
98.712
98.712
98.712
98.712
98.712
98.712
98.712
98.712
98.712
98.712
98.712
98.712
98.712
98.712
98.712
98.712
98.712
98.712
98.712
98.712
98.712
98.712
98.712
98.712
98.712
98.712
98.712
98.712
98.712
98.712
98.712
98.712
98.712
98.712
98.712
98.712
98.712
98.712
98.712
98.712
98.712
98.712
98.712
98.712
98.712
98.712
98.712
98.712
98.712
98.712
98.712
98.712
98.712
98.712
98.712
98.712
98.712
98.712
98.712
98.712
98.712
98.712
98.712
98.712
98.712
98.712
98.712
98.712
98.712
98.712
98.712
98.712
98.712
98.712
98.712
98.712
98.712
98.712
98.712
98.712
98.712
98.712
98.712
98.712
98.712
98.712
98.712
98.712
98.712
98.712
98.712
98.712
98.712
98.712
98.712
98.712
98.712
98.712
98.712
98.712
98.712
98.712
98.712
98.712
98.712
98.712
98.712
98.712
98.712
98.712
98.712
98.712
98.712
98.712
98.712
98.712
98.712
98.712
98.712
98.712
98.712
98.712
98.712
98.712
98.712
98.712
98.712
98.712
98.712
98.712
98.712
98.712
98.712
98.712
98.712
98.712
98.712
98.712
98.712
98.712
98.712
98.712
98.712
98.712
98.712
98.712
98.712
98.712
98.712
98.712
98.712
98.712
98.712
98.712
98.712
98.712
98.712
98.712
98.712
98.712
98.712
98.712
98.712
98.712
98.712
98.712
98.687
98.663
98.638
98.614
98.589
98.565
98.540
98.516
98.491
98.467
98.442
98.418
98.393
98.369
98.344
98.320
98.295
98.271
98.246
98.222
98.197
98.173
98.148
98.124
98.099
98.075
98.050
98.026
98.001
97.977
97.952
97.928
97.903
97.879
97.854
97.830
97.805
97.781
97.756
97.732
97.707
97.683
97.658
97.634
97.609
97.585
97.560
97.536
97.511
97.487
97.462
97.438
97.413
97.389
97.364
97.340
97.315
97.291
97.266
97.242
97.217
97.193
97.168
97.144
97.119
97.095
97.070
97.046
97.021
96.997
96.972
96.948
96.923
96.899
96.874
96.850
96.825
96.801
96.776
96.752
96.727
96.703
96.678
96.654
96.629
96.605
96.580
96.556
96.531
96.507
96.482
96.458
96.433
96.409
96.384
96.360
96.335
96.311
96.286
96.262
96.237
96.213
96.188
96.164
96.139
96.115
96.090
96.066
96.041
96.017
95.992
95.968
95.943
95.919
95.894
95.870
95.845
95.821
95.796
95.772
95.747
95.723
95.698
95.674
95.649
95.625
95.600
95.576
95.551
95.527
95.502
95.478
95.453
95.429
95.404
95.380
95.355
95.331
95.306
95.282
95.257
95.233
95.208
95.184
95.159
95.135
95.110
95.086
95.061
95.037
95.012
94.988
94.963
94.939
94.914
94.890
94.865
94.841
94.816
94.792
94.767
94.743
94.718
94.694
94.669
94.645
94.620
94.596
94.571
94.547
94.522
94.498
94.473
94.449
94.424
94.400
94.375
94.351
94.326
94.302
94.277
94.253
94.228
94.204
94.179
94.155
94.130
94.106
94.081
94.057
94.032
94.008
93.983
93.959
93.934
93.910
93.885
93.861
93.836
93.812
93.812
93.812
93.812
93.812
93.812
93.812
93.812
93.812
93.812
93.812
93.812
93.812
93.812
93.812
93.812
93.812
93.812
93.812
93.812
93.812
93.812
93.812
93.812
93.812
93.812
93.812
93.812
93.812
93.812
93.812
93.812
93.812
93.812
93.812
93.812
93.812
93.812
93.812
93.812
93.812
93.812
93.812
93.812
93.812
93.812
93.812
93.812
93.812
93.812
93.812
93.812
93.812
93.812
93.812
93.812
93.812
93.812
93.812
93.812
93.812
93.812
93.812
93.812
93.812
93.812
93.812
93.812
93.812
93.812
93.812
93.812
93.812
93.812
93.812
93.812
93.812
93.812
93.812
93.812
93.812
93.812
93.812
93.812
93.812
93.812
93.812
93.812
93.812
93.812
93.812
93.812
93.812
93.812
93.812
93.812
93.812
93.812
93.812
93.812
93.812
93.812
93.812
93.812
93.812
93.812
93.812
93.812
93.812
93.812
93.812
93.812
93.812
93.812
93.812
93.812
93.812
93.812
93.812
93.812
93.812
93.812
93.812
93.812
93.812
93.812
93.812
93.812
93.812
93.812
93.812
93.812
93.812
93.812
93.812
93.812
93.812
93.812
93.812
93.812
93.812
93.812
93.812
93.812
93.812
93.812
93.812
93.812
93.812
93.812
93.812
93.812
93.812
93.812
93.812
93.812
93.812
93.812
93.812
93.812
93.812
93.812
93.812
93.812
93.812
93.812
93.812
93.812
93.812
93.812
93.812
93.812
93.812
93.812
93.812
93.812
93.812
93.812
93.812
93.812
93.812
93.812
93.812
93.812
93.812
93.812
93.812
93.812
93.812
93.812
93.812
93.812
93.812
93.812
93.812
93.812
93.812
93.812
93.812
93.812
93.812
93.836
93.861
93.885
93.910
93.934
93.959
93.983
94.008
94.032
94.057
94.081
94.106
94.130
94.155
94.179
94.204
94.228
94.253
94.277
94.302
94.326
94.351
94.375
94.400
94.424
94.449
94.473
94.498
94.522
94.547
94.571
94.596
94.620
94.645
94.669
94.694
94.718
94.743
94.767
94.792
94.816
94.841
94.865
94.890
94.914
94.939
94.963
94.988
95.012
95.037
95.061
95.086
95.110
95.135
95.159
95.184
95.208
95.233
95.257
95.282
95.306
95.331
95.355
95.380
95.404
95.429
95.453
95.478
95.502
95.527
95.551
95.576
95.600
95.625
95.649
95.674
95.698
95.723
95.747
95.772
95.796
95.821
95.845
95.870
95.894
95.919
95.943
95.968
95.992
96.017
96.041
96.066
96.090
96.115
96.139
96.164
96.188
96.213
96.237
96.262
96.286
96.311
96.335
96.360
96.384
96.409
96.433
96.458
96.482
96.507
96.531
96.556
96.580
96.605
96.629
96.654
96.678
96.703
96.727
96.752
96.776
96.801
96.825
96.850
96.874
96.899
96.923
96.948
96.972
96.997
97.021
97.046
97.070
97.095
97.119
97.144
97.168
97.193
97.217
97.242
97.266
97.291
97.315
97.340
97.364
97.389
97.413
97.438
97.462
97.487
97.511
97.536
97.560
97.585
97.609
97.634
97.658
97.683
97.707
97.732
97.756
97.781
97.805
97.830
97.854
97.879
97.903
97.928
97.952
97.977
98.001
98.026
98.050
98.075
98.099
98.124
98.148
98.173
98.197
98.222
98.246
98.271
98.295
98.320
98.344
98.369
98.393
98.418
98.442
98.467
98.491
98.516
98.540
98.565
98.589
98.614
98.638
98.663
98.687
98.712
98.687
98.663
98.638
98.614
98.589
98.565
98.540
98.516
98.491
98.467
98.442
98.418
98.393
98.369
98.344
98.320
98.295
98.271
98.246
98.222
98.197
98.173
98.148
98.124
98.099
98.075
98.050
98.026
98.001
97.977
97.952
97.928
97.903
97.879
97.854
97.830
97.805
97.781
97.756
97.732
97.707
97.683
97.658
97.634
97.609
97.585
97.560
97.536
97.511
97.487
97.462
97.438
97.413
97.389
97.364
97.340
97.315
97.291
97.266
97.242
97.217
97.193
97.168
97.144
97.119
97.095
97.070
97.046
97.021
96.997
96.972
96.948
96.923
96.899
96.874
96.850
96.825
96.801
96.776
96.752
96.727
96.703
96.678
96.654
96.629
96.605
96.580
96.556
96.531
96.507
96.482
96.458
96.433
96.409
96.384
96.360
96.335
96.311
96.286
96.262
96.237
96.213
96.188
96.164
96.139
96.115
96.090
96.066
96.041
96.017
95.992
95.968
95.943
95.919
95.894
95.870
95.845
95.821
95.796
95.772
95.747
95.723
95.698
95.674
95.649
95.625
95.600
95.576
95.551
95.527
95.502
95.478
95.453
95.429
95.404
95.380
95.355
95.331
95.306
95.282
95.257
95.233
95.208
95.184
95.159
95.135
95.110
95.086
95.061
95.037
95.012
94.988
94.963
94.939
94.914
94.890
94.865
94.841
94.816
94.792
94.767
94.743
94.718
94.694
94.669
94.645
94.620
94.596
94.571
94.547
94.522
94.498
94.473
94.449
94.424
94.400
94.375
94.351
94.326
94.302
94.277
94.253
94.228
94.204
94.179
94.155
94.130
94.106
94.081
94.057
94.032
94.008
93.983
93.959
93.934
93.910
93.885
93.861
93.836
93.812
93.836
93.861
93.885
93.910
93.934
93.959
93.983
94.008
94.032
94.057
94.081
94.106
94.130
94.155
94.179
94.204
94.228
94.253
94.277
94.302
94.326
94.351
94.375
94.400
94.424
94.449
94.473
94.498
94.522
94.547
94.571
94.596
94.620
94.645
94.669
94.694
94.718
94.743
94.767
94.792
94.816
94.841
94.865
94.890
94.914
94.939
94.963
94.988
95.012
95.037
95.061
95.086
95.110
95.135
95.159
95.184
95.208
95.233
95.257
95.282
95.306
95.331
95.355
95.380
95.404
95.429
95.453
95.478
95.502
95.527
95.551
95.576
95.600
95.625
95.649
95.674
95.698
95.723
95.747
95.772
95.796
95.821
95.845
95.870
95.894
95.919
95.943
95.968
95.992
96.017
96.041
96.066
96.090
96.115
96.139
96.164
96.188
96.213
96.237
96.262
96.286
96.311
96.335
96.360
96.384
96.409
96.433
96.458
96.482
96.507
96.531
96.556
96.580
96.605
96.629
96.654
96.678
96.703
96.727
96.752
96.776
96.801
96.825
96.850
96.874
96.899
96.923
96.948
96.972
96.997
97.021
97.046
97.070
97.095
97.119
97.144
97.168
97.193
97.217
97.242
97.266
97.291
97.315
97.340
97.364
97.389
97.413
97.438
97.462
97.487
97.511
97.536
97.560
97.585
97.609
97.634
97.658
97.683
97.707
97.732
97.756
97.781
97.805
97.830
97.854
97.879
97.903
97.928
97.952
97.977
98.001
98.026
98.050
98.075
98.099
98.124
98.148
98.173
98.197
98.222
98.246
98.271
98.295
98.320
98.344
98.369
98.393
98.418
98.442
98.467
98.491
98.516
98.540
98.565
98.589
98.614
98.638
98.663
98.687
98.712
98.712
98.712
98.712
98.712
98.712
98.712
98.712
98.712
98.712
98.712
98.712
98.712
98.712
98.712
98.712
98.712
98.712
98.712
98.712
98.712
98.712
98.712
98.712
98.712
98.712
98.712
98.712
98.712
98.712
98.712
98.712
98.712
98.712
98.712
98.712
98.712
98.712
98.712
98.712
98.712
98.712
98.712
98.712
98.712
98.712
98.712
98.712
98.712
98.712
98.712
98.712
98.712
98.712
98.712
98.712
98.712
98.712
98.712
98.712
98.712
98.712
98.712
98.712
98.712
98.712
98.712
98.712
98.712
98.712
98.712
98.712
98.712
98.712
98.712
98.712
98.712
98.712
98.712
98.712
98.712
98.712
98.712
98.712
98.712
98.712
98.712
98.712
98.712
98.712
98.712
98.712
98.712
98.712
98.712
98.712
98.712
98.712
98.712
98.712
98.712
98.712
98.712
98.712
98.712
98.712
98.712
98.712
98.712
98.712
98.712
98.712
98.712
98.712
98.712
98.712
98.712
98.712
98.712
98.712
98.712
98.712
98.712
98.712
98.712
98.712
98.712
98.712
98.712
98.712
98.712
98.712
98.712
98.712
98.712
98.712
98.712
98.712
98.712
98.712
98.712
98.712
98.712
98.712
98.712
98.712
98.712
98.712
98.712
98.712
98.712
98.712
98.712
98.712
98.712
98.712
98.712
98.712
98.712
98.712
98.712
98.712
98.712
98.712
98.712
98.712
98.712
98.712
98.712
98.712
98.712
98.712
98.712
98.712
98.712
98.712
98.712
98.712
98.712
98.712
98.712
98.712
98.712
98.712
98.712
98.712
98.712
98.712
98.712
98.712
98.712
98.712
98.712
98.712
98.712
98.712
98.712
98.712
98.712
98.712
98.712
98.687
98.663
98.638
98.614
98.589
98.565
98.540
98.516
98.491
98.467
98.442
98.418
98.393
98.369
98.344
98.320
98.295
98.271
98.246
98.222
98.197
98.173
98.148
98.124
98.099
98.075
98.050
98.026
98.001
97.977
97.952
97.928
97.903
97.879
97.854
97.830
97.805
97.781
97.756
97.732
97.707
97.683
97.658
97.634
97.609
97.585
97.560
97.536
97.511
97.487
97.462
97.438
97.413
97.389
97.364
97.340
97.315
97.291
97.266
97.242
97.217
97.193
97.168
97.144
97.119
97.095
97.070
97.046
97.021
96.997
96.972
96.948
96.923
96.899
96.874
96.850
96.825
96.801
96.776
96.752
96.727
96.703
96.678
96.654
96.629
96.605
96.580
96.556
96.531
96.507
96.482
96.458
96.433
96.409
96.384
96.360
96.335
96.311
96.286
96.262
96.237
96.213
96.188
96.164
96.139
96.115
96.090
96.066
96.041
96.017
95.992
95.968
95.943
95.919
95.894
95.870
95.845
95.821
95.796
95.772
95.747
95.723
95.698
95.674
95.649
95.625
95.600
95.576
95.551
95.527
95.502
95.478
95.453
95.429
95.404
95.380
95.355
95.331
95.306
95.282
95.257
95.233
95.208
95.184
95.159
95.135
95.110
95.086
95.061
95.037
95.012
94.988
94.963
94.939
94.914
94.890
94.865
94.841
94.816
94.792
94.767
94.743
94.718
94.694
94.669
94.645
94.620
94.596
94.571
94.547
94.522
94.498
94.473
94.449
94.424
94.400
94.375
94.351
94.326
94.302
94.277
94.253
94.228
94.204
