2121.209
2117.617
2114.024
2110.432
2106.839
2103.247
2099.654
2096.062
2092.469
2088.877
2085.284
2081.692
2078.099
2074.507
2070.914
2067.322
2063.729
2060.137
2056.544
2052.952
2049.359
2045.767
2042.174
2038.582
2034.989
2031.397
2027.804
2024.212
2020.619
2017.027
2013.434
2009.842
2006.249
2002.657
1999.064
1995.472
1991.879
1988.287
1984.694
1981.102
1977.509
1973.917
1970.324
1966.732
1963.139
1959.547
1955.954
1952.362
1948.769
1945.177
1941.584
1937.992
1934.399
1930.807
1927.214
1923.622
1920.029
1916.437
1912.844
1909.252
1905.659
1902.067
1898.474
1894.882
1891.289
1887.697
1884.104
1880.512
1876.919
1873.327
1869.734
1866.142
1862.549
1858.957
1855.364
1851.772
1848.179
1844.587
1840.994
1837.402
1833.809
1830.217
1826.624
1823.032
1819.439
1815.847
1812.254
1808.662
1805.069
1801.477
1797.884
1794.292
1790.699
1787.107
1783.514
1779.922
1776.329
1772.737
1769.144
1765.552
1761.959
1758.367
1754.774
1751.182
1747.589
1743.997
1740.404
1736.812
1733.219
1729.627
1726.034
1722.442
1718.849
1715.257
1711.664
1708.072
1704.479
1700.887
1697.294
1693.702
1690.109
1686.517
1682.924
1679.332
1675.739
1672.147
1668.554
1664.962
1661.369
1657.777
1654.184
1650.592
1646.999
1643.407
1639.814
1636.222
1632.629
1629.037
1625.444
1621.852
1618.259
1614.667
1611.074
1607.482
1603.889
1600.297
1596.704
1593.112
1589.519
1585.927
1582.334
1578.742
1575.149
1571.557
1573.316
1575.076
1576.835
1578.595
1580.354
1582.114
1583.873
1585.633
1587.392
1589.152
1590.911
1592.671
1594.430
1596.190
1597.949
1599.709
1601.468
1603.228
1604.987
1606.747
1608.506
1610.266
1612.025
1613.785
1615.544
1617.304
1619.063
1620.823
1622.582
1624.342
1626.101
1627.861
1629.620
1631.380
1633.139
1634.899
1636.658
1638.418
1640.177
1641.937
1643.696
1645.456
1647.215
1648.975
1650.734
1652.494
1654.253
1656.013
1657.772
1659.532
1661.291
1663.051
1664.810
1666.570
1668.329
1670.089
1671.848
1673.608
1675.367
1677.127
1678.886
1680.646
1682.405
1684.165
1685.924
1687.684
1689.443
1691.203
1692.962
1694.722
1696.481
1698.241
1700.000
1701.760
1703.519
1705.279
1707.038
1708.798
1710.557
1712.317
1714.076
1715.836
1717.595
1719.355
1721.114
1722.874
1724.633
1726.393
1728.152
1729.912
1731.671
1733.431
1735.190
1736.950
1738.709
1740.469
1742.228
1743.988
1745.747
1747.507
1749.266
1751.026
1752.785
1754.545
1756.304
1758.064
1759.823
1761.583
1763.342
1765.102
1766.861
1768.621
1770.380
1772.140
1773.899
1775.659
1777.418
1779.178
1780.937
1782.697
1784.456
1786.216
1787.975
1789.735
1791.494
1793.254
1795.013
1796.773
1798.532
1800.292
1802.051
1803.811
1805.570
1807.330
1809.089
1810.849
1812.608
1814.368
1816.127
1817.887
1819.646
1821.406
1823.165
1824.925
1826.684
1828.444
1830.203
1831.963
1833.722
1835.482
1837.241
1839.001
1840.760
1842.520
1844.279
1846.039
1847.798
1849.558
1851.317
1853.077
1854.836
1856.596
1858.355
1860.115
1861.874
1863.634
1865.393
1867.153
1868.912
1870.672
1872.431
1874.191
1875.950
1877.710
1879.469
1881.229
1882.988
1884.748
1886.507
1888.267
1890.026
1891.786
1893.545
1895.305
1897.064
1898.824
1900.583
1902.343
1904.102
1905.862
1907.621
1909.381
1911.140
1912.900
1914.659
1916.419
1918.178
1919.938
1921.697
1923.457
1919.938
1916.419
1912.900
1909.381
1905.862
1902.343
1898.824
1895.305
1891.786
1888.267
1884.748
1881.229
1877.710
1874.191
1870.672
1867.153
1863.634
1860.115
1856.596
1853.077
1849.558
1846.039
1842.520
1839.001
1835.482
1831.963
1828.444
1824.925
1821.406
1817.887
1814.368
1810.849
1807.330
1803.811
1800.292
1796.773
1793.254
1789.735
1786.216
1782.697
1779.178
1775.659
1772.140
1768.621
1765.102
1761.583
1758.064
1754.545
1751.026
1747.507
1743.988
1740.469
1736.950
1733.431
1729.912
1726.393
1722.874
1719.355
1715.836
1712.317
1708.798
1705.279
1701.760
1698.241
1694.722
1691.203
1687.684
1684.165
1680.646
1677.127
1673.608
1670.089
1666.570
1663.051
1659.532
1656.013
1652.494
1648.975
1645.456
1641.937
1638.418
1634.899
1631.380
1627.861
1624.342
1620.823
1617.304
1613.785
1610.266
1606.747
1603.228
1599.709
1596.190
1592.671
1589.152
1585.633
1582.114
1578.595
1575.076
1571.557
1568.038
1564.519
1561.000
1557.481
1553.962
1550.443
1546.924
1543.405
1539.886
1536.367
1532.848
1529.329
1525.810
1522.291
1518.772
1515.253
1511.734
1508.215
1504.696
1501.177
1497.658
1494.139
1490.620
1487.101
1483.582
1480.063
1476.544
1473.025
1469.506
1465.987
1462.468
1458.949
1455.430
1451.911
1448.392
1444.873
1441.354
1437.835
1434.316
1430.797
1427.278
1423.759
1420.240
1416.721
1413.202
1409.683
1406.164
1402.645
1399.126
1395.607
1392.088
1388.569
1385.050
1381.531
1378.012
1374.493
1370.974
1367.455
1363.936
1360.417
1356.898
1353.379
1349.860
1346.341
1342.822
1339.303
1335.784
1332.265
1328.746
1325.227
1321.708
1318.189
1314.670
1311.151
1307.632
1304.113
1300.594
1297.075
1293.556
1290.037
1286.518
1282.999
1279.480
1275.961
1272.442
1268.923
1265.404
1261.885
1258.366
1254.847
1251.328
1247.809
1244.290
1240.771
1237.252
1233.733
1230.214
1226.695
1223.176
1219.657
1214.818
1209.979
1205.140
1200.301
1195.462
1190.623
1185.784
1180.945
1176.106
1171.267
1166.428
1161.589
1156.750
1151.911
1147.072
1142.233
1137.394
1132.555
1127.716
1122.877
1118.038
1113.199
1108.360
1103.521
1098.682
1093.843
1089.004
1084.165
1079.326
1074.487
1069.648
1064.809
1059.970
1055.131
1050.292
1045.453
1040.614
1035.775
1030.936
1026.097
1021.258
1016.419
1011.580
1006.741
1001.902
997.063
992.224
987.385
982.546
977.707
972.868
968.029
963.190
958.351
953.512
948.673
943.834
938.995
934.156
929.317
924.478
919.639
914.800
909.961
905.122
900.283
895.444
890.605
885.766
880.927
876.088
871.249
866.410
861.571
856.732
851.893
847.054
842.215
837.376
832.537
827.698
822.859
818.020
813.181
808.342
803.503
798.664
793.825
788.986
784.147
779.308
774.469
769.630
764.791
759.952
755.113
750.274
745.435
740.596
735.757
730.918
726.079
721.240
716.401
711.562
706.723
701.884
697.045
692.206
687.367
682.528
677.689
672.850
668.011
663.172
658.333
653.494
648.655
643.816
638.977
634.138
629.299
624.460
619.621
614.782
609.943
605.104
600.265
595.426
590.587
585.748
580.909
576.070
571.231
566.392
561.553
556.714
551.875
547.036
542.197
537.358
532.519
527.680
522.841
518.002
513.163
508.324
503.485
498.646
493.807
488.968
484.129
479.290
474.451
469.612
464.773
459.934
455.095
450.256
445.417
440.578
435.739
430.900
426.061
421.222
416.383
411.544
406.705
401.866
397.027
392.188
387.349
382.510
377.671
372.832
367.993
363.154
358.315
353.476
348.637
343.798
338.959
334.120
329.281
324.442
319.603
314.764
309.925
305.086
300.247
295.408
290.569
285.730
280.891
276.052
271.213
266.374
261.535
256.696
251.857
251.490
251.124
250.757
250.391
250.024
249.658
249.291
248.925
248.558
248.192
247.825
247.459
247.092
246.726
246.359
245.993
245.626
245.260
244.893
244.527
244.160
243.794
243.427
243.061
242.694
242.328
241.961
241.595
241.228
240.862
240.495
240.129
239.762
239.396
239.029
238.663
238.296
237.930
237.563
237.197
236.830
236.464
236.097
235.731
235.364
234.998
234.631
234.265
233.898
233.532
233.165
232.799
232.432
232.066
231.699
231.333
230.966
230.600
230.233
229.867
229.500
229.134
228.767
228.401
228.034
227.668
227.301
226.935
226.568
226.202
225.835
225.469
225.102
224.736
224.369
224.003
223.636
223.270
222.903
222.537
222.170
221.804
221.437
221.071
220.704
220.338
219.971
219.605
219.238
218.872
218.505
218.139
217.772
217.406
217.039
216.673
216.306
215.940
215.573
215.207
214.840
214.474
214.107
213.741
213.374
213.008
212.641
212.275
211.908
211.542
211.175
210.809
210.442
210.076
209.709
209.343
208.976
208.610
208.243
207.877
207.510
207.144
206.777
206.411
206.044
205.678
205.311
204.945
204.578
204.212
203.845
203.479
203.112
202.746
202.379
202.013
201.646
201.280
200.913
200.547
200.180
199.814
199.447
199.081
198.714
198.348
197.981
197.615
197.248
196.882
196.515
196.149
195.782
195.416
195.049
194.683
194.316
193.950
193.583
193.217
192.850
192.484
192.117
191.751
191.384
191.018
190.651
190.285
189.918
189.552
189.185
188.819
188.452
188.086
187.719
187.353
186.986
186.620
186.253
185.887
185.520
185.154
184.787
184.421
184.054
183.688
183.321
182.955
182.588
182.222
181.855
181.489
181.122
180.756
180.389
180.023
179.656
179.290
178.923
90.657
90.632
90.608
90.583
90.559
90.534
90.510
90.485
90.461
90.436
90.412
90.387
90.363
90.338
90.314
90.289
90.265
90.240
90.216
90.191
90.167
90.142
90.118
90.093
90.069
90.044
90.020
89.995
89.971
89.946
89.922
89.897
89.873
89.848
89.824
89.799
89.775
89.750
89.726
89.701
89.677
89.652
89.628
89.603
89.579
89.554
89.530
89.505
89.481
89.456
89.432
89.407
89.383
89.358
89.334
89.309
89.285
89.260
89.236
89.211
89.187
89.162
89.138
89.113
89.089
89.064
89.040
89.015
88.991
88.966
88.942
88.917
88.893
88.868
88.844
88.819
88.795
88.770
88.746
88.721
88.697
88.672
88.648
88.623
88.599
88.574
88.550
88.525
88.501
88.476
88.452
88.427
88.403
88.378
88.354
88.329
88.305
88.280
88.256
88.231
88.207
88.182
88.158
88.133
88.109
88.084
88.060
88.035
88.011
87.986
87.962
87.937
87.913
87.888
87.864
87.839
87.815
87.790
87.766
87.741
87.717
87.692
87.668
87.643
87.619
87.594
87.570
87.545
87.521
87.496
87.472
87.447
87.423
87.398
87.374
87.349
87.325
87.300
87.276
87.251
87.227
87.202
87.178
87.153
87.129
87.104
87.080
87.055
87.031
87.006
86.982
86.957
86.933
86.908
86.884
86.859
86.835
86.810
86.786
86.761
86.737
86.712
86.688
86.663
86.639
86.614
86.590
86.565
86.541
86.516
86.492
86.467
86.443
86.418
86.394
86.369
86.345
86.320
86.296
86.271
86.247
86.222
86.198
86.173
86.149
86.124
86.100
86.075
86.051
86.026
86.002
85.977
85.953
85.928
85.904
85.879
85.855
85.830
85.806
85.781
85.757
85.757
85.757
85.757
85.757
85.757
85.757
85.757
85.757
85.757
85.757
85.757
85.757
85.757
85.757
85.757
85.757
85.757
85.757
85.757
85.757
85.757
85.757
85.757
85.757
85.757
85.757
85.757
85.757
85.757
85.757
85.757
85.757
85.757
85.757
85.757
85.757
85.757
85.757
85.757
85.757
85.757
85.757
85.757
85.757
85.757
85.757
85.757
85.757
85.757
85.757
85.757
85.757
85.757
85.757
85.757
85.757
85.757
85.757
85.757
85.757
85.757
85.757
85.757
85.757
85.757
85.757
85.757
85.757
85.757
85.757
85.757
85.757
85.757
85.757
85.757
85.757
85.757
85.757
85.757
85.757
85.757
85.757
85.757
85.757
85.757
85.757
85.757
85.757
85.757
85.757
85.757
85.757
85.757
85.757
85.757
85.757
85.757
85.757
85.757
85.757
85.757
85.757
85.757
85.757
85.757
85.757
85.757
85.757
85.757
85.757
85.757
85.757
85.757
85.757
85.757
85.757
85.757
85.757
85.757
85.757
85.757
85.757
85.757
85.757
85.757
85.757
85.757
85.757
85.757
85.757
85.757
85.757
85.757
85.757
85.757
85.757
85.757
85.757
85.757
85.757
85.757
85.757
85.757
85.757
85.757
85.757
85.757
85.757
85.757
85.757
85.757
85.757
85.757
85.757
85.757
85.757
85.757
85.757
85.757
85.757
85.757
85.757
85.757
85.757
85.757
85.757
85.757
85.757
85.757
85.757
85.757
85.757
85.757
85.757
85.757
85.757
85.757
85.757
85.757
85.757
85.757
85.757
85.757
85.757
85.757
85.757
85.757
85.757
85.757
85.757
85.757
85.757
85.757
85.757
85.757
85.757
85.757
85.757
85.757
85.757
85.757
85.757
85.757
85.757
85.757
85.757
85.757
85.757
85.757
85.757
85.757
85.757
85.757
85.757
85.757
85.757
85.757
85.757
85.757
85.757
85.757
85.757
85.757
85.757
85.757
85.757
85.757
85.757
85.757
85.757
85.757
85.757
85.757
85.757
85.757
85.757
85.757
85.757
85.757
85.757
85.757
85.757
85.757
85.757
85.757
85.757
85.757
85.757
85.757
85.757
85.757
85.757
85.757
85.757
85.757
85.757
85.757
85.757
85.757
85.757
85.757
85.757
85.757
85.757
85.757
85.757
85.757
85.757
85.757
85.757
85.757
85.757
85.757
85.757
85.757
85.757
85.757
85.757
85.757
85.757
85.757
85.757
85.757
85.757
85.757
85.757
85.757
85.757
85.757
85.757
85.757
85.757
85.757
85.757
85.757
85.757
85.757
85.757
85.757
85.757
85.757
85.757
85.757
85.757
85.757
85.757
85.757
85.757
85.757
85.757
85.757
85.757
85.757
85.757
85.757
85.757
85.757
85.757
85.757
85.757
85.757
85.757
85.757
85.757
85.757
85.757
85.757
85.757
85.757
85.757
85.757
85.757
85.757
85.757
85.757
85.757
85.757
85.757
85.757
85.757
85.757
85.757
85.757
85.757
85.757
85.757
85.757
85.757
85.757
85.757
85.757
85.757
85.757
85.757
85.757
85.757
85.757
85.757
85.757
85.757
85.757
85.757
85.757
85.757
85.757
85.757
85.757
85.757
85.757
85.757
85.757
85.757
85.757
85.757
85.757
85.757
85.757
85.757
85.757
85.757
85.757
85.757
85.757
85.757
85.757
85.757
85.757
85.757
85.757
85.757
85.757
85.757
85.757
85.757
85.757
85.757
85.757
85.757
85.757
85.757
85.781
85.806
85.830
85.855
85.879
85.904
85.928
85.953
85.977
86.002
86.026
86.051
86.075
86.100
86.124
86.149
86.173
86.198
86.222
86.247
86.271
86.296
86.320
86.345
86.369
86.394
86.418
86.443
86.467
86.492
86.516
86.541
86.565
86.590
86.614
86.639
86.663
86.688
86.712
86.737
86.761
86.786
86.810
86.835
86.859
86.884
86.908
86.933
86.957
86.982
87.006
87.031
87.055
87.080
87.104
87.129
87.153
87.178
87.202
87.227
87.251
87.276
87.300
87.325
87.349
87.374
87.398
87.423
87.447
87.472
87.496
87.521
87.545
87.570
87.594
87.619
87.643
87.668
87.692
87.717
87.741
87.766
87.790
87.815
87.839
87.864
87.888
87.913
87.937
87.962
87.986
88.011
88.035
88.060
88.084
88.109
88.133
88.158
88.182
88.207
88.231
88.256
88.280
88.305
88.329
88.354
88.378
88.403
88.427
88.452
88.476
88.501
88.525
88.550
88.574
88.599
88.623
88.648
88.672
88.697
88.721
88.746
88.770
88.795
88.819
88.844
88.868
88.893
88.917
88.942
88.966
88.991
89.015
89.040
89.064
89.089
89.113
89.138
89.162
89.187
89.211
89.236
89.260
89.285
89.309
89.334
89.358
89.383
89.407
89.432
89.456
89.481
89.505
89.530
89.554
89.579
89.603
89.628
89.652
89.677
89.701
89.726
89.750
89.775
89.799
89.824
89.848
89.873
89.897
89.922
89.946
89.971
89.995
90.020
90.044
90.069
90.093
90.118
90.142
90.167
90.191
90.216
90.240
90.265
90.289
90.314
90.338
90.363
90.387
90.412
90.436
90.461
90.485
90.510
90.534
90.559
90.583
90.608
90.632
90.657
90.632
90.608
90.583
90.559
90.534
90.510
90.485
90.461
90.436
90.412
90.387
90.363
90.338
90.314
90.289
90.265
90.240
90.216
90.191
90.167
90.142
90.118
90.093
90.069
90.044
90.020
89.995
89.971
89.946
89.922
89.897
89.873
89.848
89.824
89.799
89.775
89.750
89.726
89.701
89.677
89.652
89.628
89.603
89.579
89.554
89.530
89.505
89.481
89.456
89.432
89.407
89.383
89.358
89.334
89.309
89.285
89.260
89.236
89.211
89.187
89.162
89.138
89.113
89.089
89.064
89.040
89.015
88.991
88.966
88.942
88.917
88.893
88.868
88.844
88.819
88.795
88.770
88.746
88.721
88.697
88.672
88.648
88.623
88.599
88.574
88.550
88.525
88.501
88.476
88.452
88.427
88.403
88.378
88.354
88.329
88.305
88.280
88.256
88.231
88.207
88.182
88.158
88.133
88.109
88.084
88.060
88.035
88.011
87.986
87.962
87.937
87.913
87.888
87.864
87.839
87.815
87.790
87.766
87.741
87.717
87.692
87.668
87.643
87.619
87.594
87.570
87.545
87.521
87.496
87.472
87.447
87.423
87.398
87.374
87.349
87.325
87.300
87.276
87.251
87.227
87.202
87.178
87.153
87.129
87.104
87.080
87.055
87.031
87.006
86.982
86.957
86.933
86.908
86.884
86.859
86.835
86.810
86.786
86.761
86.737
86.712
86.688
86.663
86.639
86.614
86.590
86.565
86.541
86.516
86.492
86.467
86.443
86.418
86.394
86.369
86.345
86.320
86.296
86.271
86.247
86.222
86.198
86.173
86.149
86.124
86.100
86.075
86.051
86.026
86.002
85.977
85.953
85.928
85.904
85.879
85.855
85.830
85.806
85.781
85.757
85.757
85.757
85.757
85.757
85.757
85.757
85.757
85.757
85.757
85.757
85.757
85.757
85.757
85.757
85.757
85.757
85.757
85.757
85.757
85.757
85.757
85.757
85.757
85.757
85.757
85.757
85.757
85.757
85.757
85.757
85.757
85.757
85.757
85.757
85.757
85.757
85.757
85.757
85.757
85.757
85.757
85.757
85.757
85.757
85.757
85.757
