97.919
105.699
114.043
111.838
111.421
113.845
119.422
127.068
120.000
129.654
127.123
139.646
143.250
147.007
150.737
147.624
145.701
147.756
152.049
157.628
160.801
163.002
165.680
164.431
169.635
171.152
184.725
175.002
178.741
182.706
196.829
183.832
196.429
191.202
206.295
205.858
211.819
216.333
217.384
207.582
211.989
224.820
218.956
228.749
232.347
235.255
239.837
230.674
237.709
241.755
250.247
246.656
256.255
246.925
253.602
257.999
264.004
272.697
270.830
275.540
267.781
269.817
280.184
284.544
290.440
285.735
294.115
286.682
301.862
297.215
307.465
307.722
302.255
303.350
315.304
310.428
318.968
320.529
325.250
332.231
334.676
337.430
335.009
337.156
344.781
350.387
345.616
352.735
359.033
355.238
357.952
366.617
371.273
367.874
367.880
375.992
374.936
377.590
388.547
386.057
394.444
396.750
397.848
400.841
398.197
405.323
397.478
410.878
409.755
420.899
415.599
421.323
424.675
422.083
432.110
428.800
440.092
436.187
434.469
446.158
452.195
449.581
448.833
449.720
455.318
462.197
467.367
471.731
468.943
466.731
477.732
482.600
481.186
481.013
488.592
494.600
485.627
498.079
500.088
495.355
496.608
511.634
510.140
512.653
506.567
511.992
512.476
527.649
529.389
519.693
530.037
526.707
540.302
537.120
544.663
542.365
539.795
548.794
549.540
557.867
556.730
564.154
567.717
567.831
568.904
580.507
583.090
573.126
584.701
577.848
586.848
593.860
598.169
602.707
606.052
597.742
603.220
604.907
604.636
617.526
609.157
611.659
619.375
618.395
632.098
636.295
634.815
631.008
643.892
633.831
637.830
645.219
647.111
655.954
655.460
661.466
654.744
663.472
664.854
675.088
665.244
667.901
684.667
676.419
677.831
691.759
687.452
694.177
693.260
695.196
695.413
698.383
694.829
707.876
704.562
709.026
705.719
719.178
716.459
711.536
713.772
725.850
724.194
726.177
734.246
731.626
736.225
738.696
739.094
735.368
738.768
748.728
739.298
744.696
755.829
757.432
752.615
756.222
763.599
761.406
773.342
760.486
775.661
773.876
769.419
776.365
778.338
785.184
777.027
786.626
791.744
784.953
787.583
802.543
799.688
803.445
809.692
797.789
810.597
813.336
808.809
807.069
823.534
826.169
815.318
831.515
824.031
831.451
824.026
840.525
842.988
830.948
845.804
845.952
842.726
846.408
855.757
856.198
853.048
858.060
856.239
863.190
868.218
873.934
875.281
864.853
868.786
880.407
879.952
886.272
888.146
890.660
883.570
887.253
897.415
898.767
901.695
906.179
896.204
905.393
900.761
902.390
912.765
915.929
919.656
924.194
927.081
920.043
928.468
921.145
925.415
937.957
937.358
933.391
942.096
937.746
949.624
943.158
953.332
956.589
955.493
954.621
961.882
951.957
954.633
964.345
964.836
962.951
978.458
973.541
968.927
984.112
974.664
977.003
979.143
984.848
993.361
991.545
1001.334
992.474
995.615
1001.937
1002.081
1006.332
1010.805
1004.008
1012.517
1009.720
1013.392
1022.752
1016.632
1020.715
1033.616
1028.974
1039.102
1034.907
1031.448
1041.384
1044.129
1038.936
1053.792
1054.623
1048.850
1051.898
1063.086
1050.532
1054.227
1062.881
1064.921
1070.292
1073.026
1064.055
1076.176
1083.145
1079.011
1082.589
1085.802
1092.734
1090.909
1093.632
1091.456
1091.774
1093.598
1099.681
1105.984
1101.204
1111.402
1105.752
1111.066
1112.501
1123.636
1122.601
1129.000
1121.851
1124.792
1135.771
1129.736
1135.489
1127.967
1134.911
1134.476
1133.664
1136.032
1145.963
1131.690
1141.947
1133.581
1133.828
1143.173
1140.611
1135.213
1132.362
1133.836
1143.406
1138.470
1140.954
1126.898
1127.275
1129.732
1128.219
1125.898
1140.147
1127.493
1127.774
1128.629
1134.672
1125.245
1128.173
1127.226
1123.439
1130.143
1127.004
1136.322
1121.569
1127.829
1134.086
1129.591
1123.807
1126.049
1123.050
1131.007
1123.367
1120.989
1120.077
1131.172
1131.877
1131.712
1130.685
1124.547
1124.342
1127.075
1116.613
1118.922
1118.458
1121.911
1118.727
1128.543
1121.602
1112.910
1113.890
1119.271
1117.156
1115.291
1119.169
1121.502
1112.834
1112.820
1117.013
1116.976
1110.776
1124.278
1119.491
1110.830
1122.885
1122.451
1122.812
1112.293
1118.410
1107.443
1110.986
1108.942
1112.500
1116.518
1112.888
1115.950
1110.835
1113.926
1106.557
1113.546
1106.672
1112.638
1116.690
1103.454
1106.855
1113.817
1111.446
1114.636
1101.232
1113.314
1110.770
1110.088
1108.447
1100.165
1109.704
1097.822
1106.235
1109.177
1106.434
1111.440
1099.718
1101.046
1110.196
1100.228
1097.515
1100.822
1107.921
1099.515
1102.064
1102.505
1105.027
1106.749
1104.676
1106.041
1099.069
1100.706
1103.199
1099.794
1099.771
1098.048
1091.452
1099.995
1102.808
1101.345
1093.194
1094.064
1093.660
1102.571
1090.124
1098.711
1086.318
1094.494
1095.289
1098.086
1094.618
1088.852
1089.777
1095.916
1093.744
1094.541
1096.665
1085.452
1084.664
1096.754
1084.464
1085.152
1091.740
1090.049
1086.404
1090.031
1079.952
1093.211
1090.615
1092.672
1083.853
1085.646
1082.217
1087.304
1083.686
1083.489
1085.854
1082.877
1076.540
1080.482
1085.325
1080.111
1084.600
1089.064
1083.130
1084.580
1074.325
1084.741
1081.670
1075.046
1075.819
1076.405
1078.098
1085.080
1074.955
1079.119
1073.190
1072.837
1080.588
1078.683
1071.533
1070.902
1079.627
1079.022
1066.878
1073.306
1071.564
1077.873
1078.828
1073.378
1071.035
1066.475
1061.128
1052.126
1065.168
1053.730
1047.811
1045.688
1040.681
1052.806
1042.487
1044.573
1031.036
1040.490
1036.560
1039.632
1026.158
1029.305
1029.654
1027.816
1020.015
1022.068
1016.695
1014.857
1011.767
1003.430
1002.886
1005.668
1003.383
995.179
1004.584
990.941
1000.478
994.576
984.846
979.781
985.983
987.515
981.205
974.146
969.605
975.381
963.286
974.509
963.530
956.099
959.325
953.823
951.190
955.534
947.058
941.955
948.452
946.397
934.508
944.704
931.858
933.864
930.906
927.487
927.543
929.716
916.109
927.873
911.410
918.577
919.112
908.466
903.068
905.664
899.329
901.785
897.276
897.934
890.966
892.358
884.069
889.745
894.662
888.841
890.186
873.246
885.063
878.353
867.148
873.614
873.407
865.743
870.853
868.976
867.427
861.216
847.198
855.295
846.711
843.616
846.433
843.460
844.506
845.121
830.887
837.302
838.071
822.503
830.093
827.498
828.232
817.290
821.614
820.317
810.137
813.785
801.455
809.401
804.421
808.696
794.030
797.588
794.264
797.039
794.082
791.368
786.027
782.695
774.712
782.315
774.403
781.398
766.178
777.827
772.794
767.300
764.331
767.869
764.233
748.996
759.650
755.117
743.769
748.646
740.539
748.685
734.624
737.348
730.984
738.677
727.304
726.963
727.879
723.103
728.337
726.716
723.470
706.977
710.784
716.413
701.571
712.483
697.482
694.982
699.568
703.051
692.620
690.056
684.662
693.649
690.920
689.427
680.204
679.151
677.051
679.740
678.175
663.511
659.692
659.867
656.774
659.064
662.105
651.978
646.972
644.440
647.054
651.990
644.957
648.121
641.102
634.977
627.608
637.513
625.039
622.823
626.645
616.892
613.029
620.823
611.484
610.330
608.489
620.140
610.467
619.302
627.076
622.995
624.406
620.952
620.853
624.968
627.502
621.874
625.440
631.771
621.758
631.753
634.872
629.192
639.001
638.894
633.616
638.397
641.831
634.591
645.961
640.547
637.579
650.002
638.723
642.435
651.526
643.578
649.774
657.292
643.528
649.998
646.591
646.123
647.677
654.436
658.802
664.407
651.795
661.653
654.125
657.961
669.038
664.209
666.461
670.289
661.163
663.162
663.951
678.155
675.856
665.764
667.878
680.648
682.716
668.760
673.507
685.765
682.573
673.480
676.958
684.805
688.448
691.995
678.160
694.703
683.826
686.876
691.845
689.933
700.065
698.482
698.007
694.544
689.100
699.611
692.789
692.554
708.087
706.151
699.424
705.485
708.449
709.556
712.886
709.017
715.985
712.844
711.526
711.283
709.694
716.637
712.625
717.053
720.682
718.026
717.377
718.078
726.206
716.105
716.907
724.314
722.455
732.030
731.790
728.729
735.563
730.731
732.508
727.677
734.649
740.390
735.835
734.685
746.336
741.829
747.499
742.044
748.951
747.774
746.694
753.009
750.214
754.987
746.498
749.464
758.391
756.233
749.018
759.622
755.128
757.016
754.894
762.551
752.997
766.815
769.052
758.140
764.607
757.589
761.502
761.464
765.239
769.077
762.275
765.345
771.346
769.865
766.719
777.519
783.918
780.295
770.140
781.125
787.257
785.938
789.739
776.710
781.316
778.913
793.166
795.393
795.157
782.890
785.731
788.850
793.620
791.957
801.853
794.983
790.069
801.752
806.389
803.830
794.462
808.450
796.027
805.361
812.464
813.847
807.685
802.047
807.026
804.904
812.733
820.581
815.016
813.316
819.045
809.677
824.574
822.206
819.026
827.212
823.267
819.410
823.037
828.188
828.338
830.056
820.940
832.039
832.417
826.615
834.880
821.789
830.775
834.245
823.705
827.658
830.724
838.408
826.260
835.243
837.317
829.665
838.961
839.533
829.956
840.180
838.880
839.112
846.167
844.462
841.999
841.980
842.598
844.102
838.711
846.039
838.168
843.900
841.710
848.940
846.785
850.420
841.549
851.266
844.326
856.475
849.423
850.413
848.030
861.260
861.706
853.805
849.102
853.825
856.747
858.253
857.494
865.608
854.985
864.254
856.484
854.943
866.731
860.265
864.045
870.283
864.448
866.651
865.796
873.672
863.469
869.885
866.097
874.724
872.326
866.848
867.727
869.845
877.075
864.675
875.478
879.514
869.813
875.132
880.389
873.192
872.564
878.222
883.878
877.781
872.475
880.742
886.725
886.435
885.625
879.944
879.593
890.371
889.933
882.357
893.348
883.748
893.859
893.357
885.189
892.123
888.522
890.082
897.199
892.267
896.041
892.699
901.059
887.919
891.630
900.253
889.397
891.196
891.238
892.748
893.657
895.843
907.888
902.874
901.030
904.498
908.899
906.071
911.036
897.724
912.022
903.494
908.085
906.764
906.418
909.699
912.204
916.819
915.341
903.307
912.503
916.658
913.348
919.639
915.416
919.723
912.610
915.753
912.318
911.431
925.170
920.478
926.844
926.940
923.100
927.044
925.887
921.152
919.112
930.745
922.595
925.207
919.756
926.341
934.531
934.583
927.770
933.257
929.523
930.980
924.293
924.990
931.481
925.018
927.791
937.405
934.960
929.061
935.072
933.368
930.667
943.750
935.844
945.840
946.159
937.234
939.563
949.102
940.443
942.456
946.156
951.772
936.458
937.288
945.571
950.045
944.645
946.476
955.109
954.928
949.638
948.094
953.142
951.915
952.521
941.225
951.530
941.307
943.900
946.111
951.223
940.297
940.198
948.954
946.129
944.778
944.476
941.549
937.748
935.399
941.964
940.524
932.410
930.328
941.116
926.272
938.865
930.970
926.775
938.412
932.473
933.123
935.821
931.842
921.660
930.249
927.287
932.415
929.623
929.856
919.174
923.148
914.671
915.533
925.211
918.176
917.297
922.476
909.841
917.494
914.663
921.756
906.841
908.033
915.513
910.701
917.205
917.617
903.904
902.677
905.935
913.963
915.703
908.375
907.188
908.153
899.125
911.130
909.461
895.845
897.025
895.037
904.038
894.961
899.142
893.076
904.360
891.336
898.304
899.153
902.828
891.421
892.147
899.945
888.096
887.615
884.648
892.540
884.201
891.597
893.753
890.862
886.595
882.626
879.071
887.568
884.200
883.964
889.972
875.666
885.884
875.691
874.624
874.416
882.513
871.742
872.454
874.578
878.658
877.880
879.174
876.124
873.051
873.060
876.634
872.126
870.685
865.925
862.415
867.342
860.039
859.088
867.715
859.427
861.729
857.497
861.973
868.740
861.662
860.793
854.422
863.403
866.387
854.407
863.421
859.312
854.822
860.310
861.901
851.909
857.212
848.913
858.900
851.856
852.742
853.413
847.596
852.414
843.339
852.607
854.242
840.281
838.209
850.390
843.804
846.915
839.861
848.164
838.052
834.134
841.243
843.561
833.869
832.227
842.257
840.379
837.763
827.156
838.437
829.068
835.426
824.329
834.338
833.051
831.177
832.944
835.322
821.582
832.551
822.460
831.340
826.707
829.498
818.788
819.158
819.290
827.518
817.746
827.223
821.740
825.256
812.751
809.658
819.337
820.727
809.951
822.201
814.886
806.033
812.841
815.724
809.524
805.074
810.305
812.665
820.352
826.876
819.234
816.600
818.861
828.502
826.922
823.615
823.468
838.449
832.676
841.044
830.606
835.348
838.211
842.796
844.217
849.530
843.836
840.773
855.655
855.863
844.046
847.347
861.176
862.913
858.281
864.623
854.359
856.072
867.062
865.490
865.339
869.981
865.086
876.276
869.826
867.782
877.062
885.406
885.334
888.756
880.720
884.824
880.179
894.829
896.844
888.588
890.184
896.046
897.784
893.045
892.102
898.811
897.286
909.059
898.964
901.138
905.188
905.761
905.217
904.653
911.579
915.490
919.610
926.293
919.889
929.633
925.670
917.069
922.786
928.039
930.869
931.681
939.252
929.113
937.907
933.291
941.707
933.009
941.485
938.456
944.944
952.169
955.616
942.886
950.537
949.117
947.923
958.758
958.218
961.883
964.881
967.471
957.342
957.250
961.649
960.836
962.202
967.539
980.191
966.895
968.624
979.954
981.481
981.159
982.427
976.715
992.484
992.568
991.176
991.212
997.433
996.079
1000.464
1000.524
1003.904
996.940
993.835
1000.556
1011.413
1000.746
1011.210
1004.475
1007.920
1019.189
1012.443
1017.158
1014.535
1013.162
1027.323
1020.559
1027.462
1024.471
1033.391
1023.442
1027.657
1032.005
1032.028
1033.075
1029.005
1042.043
1037.570
1037.150
1039.039
1037.148
1048.336
1049.978
1046.603
1050.397
1056.501
1048.174
1053.308
1055.057
1054.553
1061.264
1057.460
1058.619
1065.697
1066.265
1062.273
1065.165
1061.880
1073.406
1073.575
1074.847
1069.708
1079.859
1085.039
1084.059
1083.729
1078.592
1080.536
1086.381
1092.599
1087.442
1094.757
1093.335
1098.194
1091.460
1103.670
1097.661
1093.090
1100.186
1095.705
1104.380
1114.237
1106.644
1101.939
1106.125
1113.012
1114.820
1110.350
1123.957
1114.588
1119.046
1128.934
1120.649
1118.605
1113.427
1114.440
1123.862
1122.961
1123.814
1117.073
1123.963
1123.282
1122.444
1116.998
1108.106
1107.230
1115.886
1113.663
1110.596
1108.157
1112.265
1110.232
1112.898
1107.869
1107.667
1110.047
1105.470
1099.531
1100.777
1104.831
1109.982
1103.680
1097.152
1102.446
1101.043
1098.723
1099.414
1105.410
1107.925
1105.987
1102.161
1101.068
1098.011
1104.456
1098.379
1092.713
1101.814
1097.614
1094.744
1098.768
1085.078
1095.461
1093.588
1090.870
1094.016
1095.390
1085.426
1092.919
1082.331
1087.707
1089.606
1086.525
1084.386
1086.380
1085.975
1085.355
1089.619
1088.403
1081.052
1074.859
1079.512
1072.828
1073.889
1086.187
1075.650
1076.124
1080.882
1079.883
1080.789
1069.235
1072.906
1070.803
1081.714
1076.392
1079.591
1072.897
1077.136
1071.856
1075.868
1063.372
1064.937
1074.458
1063.310
1070.938
1063.651
1073.951
1069.541
1065.222
1057.564
1065.453
1056.081
1060.839
1062.555
1055.272
1067.512
1066.784
1063.869
1056.441
1062.032
1062.399
1055.736
1063.191
1059.527
1053.116
1052.592
1048.855
1057.003
1050.425
1046.981
1054.504
1044.795
1043.038
1054.583
1051.883
1042.794
1051.264
1049.047
1051.047
1050.075
1044.882
1053.262
1036.958
1042.982
1048.731
1049.199
1049.949
1042.739
1048.691
1047.075
1040.306
1035.833
1039.405
1046.064
1037.703
1036.002
1037.640
1042.877
1041.413
1033.006
1039.041
1029.391
1031.993
1031.705
1030.134
1026.564
1027.220
1030.175
1032.328
1031.435
1034.760
1031.588
1026.582
1022.327
1024.987
1024.273
1017.581
1030.014
1025.322
1029.167
1028.280
1017.845
1028.220
1013.159
1023.979
1021.979
1012.828
1011.460
1018.258
1022.813
1009.563
1009.635
1011.853
1012.508
1020.854
1006.541
1008.869
1013.890
1015.448
1003.529
1005.898
1017.255
1001.919
1015.201
1011.788
1011.023
999.393
1002.111
1005.064
999.660
1007.406
1005.920
998.698
1004.639
1000.949
997.132
1000.018
998.772
989.848
994.062
996.587
995.153
985.998
991.770
991.953
986.901
994.244
984.956
977.147
980.327
987.108
980.920
983.662
985.908
980.837
983.232
975.769
980.892
973.072
975.659
969.426
969.574
963.990
969.154
964.911
958.260
959.105
960.569
961.664
962.829
968.145
961.912
951.189
955.122
961.941
961.046
946.562
946.431
955.824
944.141
949.556
953.734
949.305
946.850
948.225
949.860
938.240
937.026
934.911
931.071
942.825
944.498
935.831
935.727
938.769
927.263
938.161
928.073
931.469
930.114
933.881
921.898
925.616
930.731
914.545
917.682
912.096
913.908
913.642
923.643
914.392
908.801
920.118
910.935
902.967
903.143
908.270
907.109
911.258
898.074
900.235
907.393
895.062
892.765
896.254
901.062
897.513
889.689
895.854
890.053
887.236
897.344
897.940
888.108
891.229
894.107
886.148
879.455
878.517
884.457
883.986
886.369
881.131
876.443
872.812
873.018
878.309
874.988
870.392
874.139
873.198
871.668
863.098
859.027
858.494
861.995
863.286
856.179
863.494
858.468
852.497
857.732
859.204
857.118
853.935
854.507
856.364
858.735
842.795
848.166
850.208
850.103
842.972
845.322
844.568
842.433
846.803
833.076
846.757
842.313
828.806
834.113
833.268
836.753
835.059
823.600
831.918
827.442
821.666
829.636
819.189
818.218
821.410
814.273
816.681
825.352
818.401
821.263
821.980
816.647
818.432
816.743
811.817
811.931
806.191
802.043
808.846
805.830
797.826
807.645
803.641
801.954
805.762
801.202
793.875
792.039
803.875
789.269
788.661
789.120
798.193
787.952
783.215
784.266
787.549
786.825
780.438
791.160
788.563
779.048
780.763
778.425
