639.895
644.632
650.257
640.012
638.598
645.980
647.940
651.801
642.005
655.888
653.276
648.451
655.304
644.376
650.958
651.906
650.354
657.248
653.332
653.546
661.141
655.458
662.360
652.825
664.652
661.826
670.924
665.973
666.246
670.396
662.880
673.190
661.510
674.531
666.470
664.190
679.491
674.993
673.193
677.100
676.217
673.016
677.010
683.581
677.350
673.907
677.905
684.805
682.093
686.075
680.764
678.434
692.824
688.060
692.606
693.324
682.443
685.258
694.616
689.953
686.877
689.547
694.182
696.447
693.431
700.869
690.731
690.273
701.345
701.624
698.029
693.141
694.423
700.458
701.575
709.277
703.174
707.077
704.453
704.371
712.890
704.325
704.008
704.997
712.981
720.659
713.458
707.089
717.905
720.012
714.363
717.292
713.360
725.990
721.687
726.375
719.670
717.966
716.796
727.825
720.070
722.948
721.329
731.551
723.609
729.877
733.822
724.876
730.935
739.104
730.532
738.892
736.901
729.349
735.927
732.774
738.600
731.641
733.793
741.269
746.603
738.620
747.897
744.941
752.607
750.560
747.155
747.487
753.883
755.887
756.251
759.079
750.954
757.211
757.549
747.553
750.033
755.509
750.409
752.124
762.974
759.371
761.044
767.306
757.468
767.348
759.058
761.456
771.494
773.136
774.596
762.406
768.170
773.041
765.109
775.485
769.574
780.375
769.065
768.633
768.943
774.154
770.648
781.254
780.102
776.417
788.446
785.835
782.601
790.058
787.823
791.477
788.579
794.189
788.384
786.706
782.382
786.138
785.588
788.660
785.034
796.111
792.095
787.646
796.599
795.689
799.437
793.520
805.997
799.190
804.808
798.986
802.337
796.749
796.997
801.465
805.165
804.412
808.733
806.424
813.703
817.291
809.201
809.264
817.570
807.869
810.715
803.107
818.965
818.995
816.345
817.290
811.422
806.431
805.992
811.856
807.817
818.344
819.102
814.841
813.999
814.383
819.798
811.936
817.095
808.502
807.009
818.586
809.438
811.624
817.484
812.833
812.851
818.214
821.304
815.551
820.850
810.362
809.301
811.451
809.963
822.010
810.502
823.191
821.764
822.781
812.167
814.520
818.491
820.009
816.879
821.750
816.383
812.293
817.955
816.850
814.325
820.233
828.561
816.302
817.923
818.436
828.603
818.554
825.282
824.340
826.107
824.983
824.054
829.312
816.621
818.382
823.066
829.479
818.982
820.876
822.997
823.449
831.509
819.716
820.926
819.042
820.741
825.624
827.925
833.640
829.349
828.964
827.513
820.793
830.470
823.402
834.352
826.717
826.965
831.925
833.235
824.542
824.862
834.605
834.739
834.253
824.361
823.683
825.273
823.394
834.863
835.325
832.996
832.661
838.968
828.651
835.968
838.783
826.859
829.333
838.412
836.486
827.902
826.535
827.967
837.617
827.247
841.575
839.081
840.029
829.966
841.605
842.865
839.555
832.346
841.623
839.876
838.688
831.256
838.266
842.238
836.335
830.358
834.869
833.200
843.785
838.409
841.171
843.847
832.288
842.788
844.868
838.416
840.013
832.272
834.454
842.561
839.526
834.457
839.073
836.390
836.004
847.387
845.361
837.689
850.406
846.822
835.751
844.628
842.603
839.729
842.865
838.226
839.577
843.045
852.292
837.940
843.354
838.957
852.532
838.175
848.208
845.844
842.516
838.814
839.583
849.070
854.910
845.398
841.353
847.939
846.302
855.152
854.277
846.187
852.137
849.709
856.814
854.780
842.696
857.516
849.762
854.826
847.693
844.518
855.191
841.485
852.407
841.319
848.604
848.165
849.602
838.723
851.367
839.919
836.131
849.013
835.068
837.268
837.927
848.572
844.905
839.003
841.623
836.285
841.050
837.881
831.281
837.362
830.901
833.229
827.262
836.901
829.762
826.196
836.251
832.521
824.941
826.879
825.934
833.663
834.307
831.166
829.330
822.020
830.096
832.900
827.538
823.879
824.073
826.064
826.987
824.362
823.360
826.318
822.618
826.551
818.130
816.236
823.718
817.897
822.574
823.370
808.723
808.308
808.723
807.664
809.676
812.075
819.602
809.039
813.678
818.611
811.125
808.294
810.991
815.469
810.663
805.584
807.024
799.541
800.781
805.638
811.327
811.404
800.845
804.770
809.385
807.479
804.596
802.774
795.645
804.027
793.491
795.443
792.849
804.630
791.898
793.630
788.763
792.295
793.847
792.916
796.806
799.603
799.505
796.179
796.796
786.487
783.842
792.792
792.909
780.302
783.732
791.753
784.729
783.997
781.905
787.406
785.036
782.047
775.317
789.323
779.838
780.899
772.959
775.488
782.262
776.303
776.363
778.711
784.071
776.369
771.010
778.742
769.513
778.372
768.524
778.059
774.967
767.291
768.644
769.319
762.282
766.257
764.903
766.570
774.641
771.375
772.034
763.826
771.928
767.930
762.981
765.596
758.519
765.293
764.444
769.507
756.636
754.516
765.741
751.891
765.163
752.204
765.276
757.488
763.542
761.444
757.221
760.077
757.437
747.528
760.525
751.948
748.005
749.396
752.164
746.175
750.145
751.431
755.297
743.809
754.573
743.589
743.016
746.135
745.132
740.806
747.388
741.357
739.863
743.859
734.856
744.278
737.999
747.585
737.451
739.773
733.861
731.313
731.390
737.270
742.479
732.045
734.976
741.908
740.900
743.218
745.108
734.417
741.689
737.809
742.173
739.433
740.290
744.578
743.702
751.692
744.978
756.620
751.630
746.144
756.621
760.252
751.647
752.048
762.169
759.195
753.406
760.210
764.157
760.287
769.202
767.539
760.712
760.204
762.468
761.740
773.509
775.001
770.781
772.599
771.393
773.883
769.357
771.248
778.993
783.831
777.921
776.723
776.598
785.656
778.118
776.771
780.932
789.234
778.293
781.468
779.919
794.781
788.319
792.501
786.776
789.574
789.848
794.191
789.538
799.735
795.480
790.610
796.820
805.805
798.666
800.036
797.693
804.384
799.156
799.727
812.035
802.982
808.248
803.344
803.471
806.431
807.842
811.789
812.448
810.500
817.000
811.124
819.770
824.849
812.432
816.607
817.035
814.342
827.497
825.051
823.263
830.564
824.482
835.961
835.132
836.333
832.888
833.924
836.020
830.484
830.153
838.237
830.580
843.387
840.104
833.431
845.677
833.278
841.128
835.731
844.822
846.516
847.716
854.034
853.180
843.990
855.853
847.480
854.026
856.724
856.178
852.692
861.017
863.812
864.911
860.051
853.233
862.301
864.046
867.047
870.363
868.927
863.065
863.482
866.129
861.392
864.340
867.732
865.835
872.365
875.155
881.464
875.087
876.290
876.152
877.082
870.997
880.065
887.584
878.267
880.148
887.272
886.072
883.150
882.119
884.020
881.773
891.076
892.839
888.665
891.887
895.695
893.213
901.100
891.850
900.641
895.597
899.537
902.321
895.224
900.129
906.381
898.576
897.005
907.700
912.954
910.396
909.740
911.690
915.188
914.865
905.153
919.852
912.111
920.356
907.623
922.879
917.601
913.656
914.285
918.095
927.544
922.273
927.489
917.278
926.945
916.520
925.467
916.796
917.985
917.198
915.380
919.934
922.486
924.118
916.590
914.297
927.644
914.418
918.292
915.785
920.705
911.144
914.299
913.555
914.687
911.816
922.659
922.736
923.937
918.974
914.755
919.938
921.392
914.773
907.463
907.334
905.903
920.789
906.552
915.036
909.309
916.813
908.572
915.917
912.869
913.420
906.172
914.478
912.018
917.208
914.695
914.967
908.634
910.517
900.827
905.639
904.419
913.330
909.193
902.757
901.839
912.379
905.266
904.971
901.072
898.579
904.359
910.070
898.335
898.787
899.691
909.125
903.429
898.519
897.905
907.769
901.410
906.604
891.437
905.674
894.289
892.111
901.707
893.693
891.375
890.246
896.440
897.291
896.030
894.599
901.224
897.853
887.442
887.832
890.367
890.861
890.210
888.875
895.625
898.695
893.953
899.386
897.779
889.124
897.551
886.269
890.601
885.979
894.767
884.913
881.744
887.150
894.777
879.546
880.749
892.352
889.320
888.776
890.066
892.407
883.732
878.466
890.984
887.970
888.186
886.252
876.411
890.308
885.319
886.660
884.612
874.865
882.244
882.007
875.313
879.394
879.822
883.254
871.382
879.078
883.481
872.829
873.500
870.049
882.288
875.960
880.184
875.525
872.592
870.043
878.456
879.622
879.121
873.115
881.378
869.997
880.546
874.408
867.214
864.989
869.953
876.993
872.917
866.395
875.422
870.031
872.466
874.841
863.118
873.729
867.147
861.886
867.898
867.795
863.364
866.303
859.466
862.508
871.273
866.330
865.480
868.252
870.844
869.385
862.743
867.056
854.890
864.543
859.885
862.202
853.501
862.546
861.058
855.708
865.323
859.499
851.582
856.364
853.412
865.277
862.382
851.803
852.031
854.634
863.524
861.802
848.402
853.131
858.978
848.255
858.568
857.520
853.347
852.039
853.137
851.238
841.499
846.180
843.298
844.811
849.257
842.103
839.898
834.624
831.829
843.351
842.500
830.202
834.429
835.670
834.636
839.107
837.020
834.532
830.653
821.347
821.572
833.294
823.286
827.596
817.355
820.999
817.436
823.871
825.252
817.305
815.216
818.326
823.370
814.158
809.952
812.750
812.669
809.501
814.131
812.986
816.699
813.964
809.691
815.174
809.858
813.075
799.571
806.011
809.483
806.733
796.396
798.409
802.370
793.316
805.117
798.455
801.380
787.466
789.227
791.726
784.432
799.067
798.424
781.692
789.254
787.630
784.568
784.758
785.069
781.903
787.048
780.288
777.337
778.369
771.940
777.999
777.055
770.217
771.541
773.719
776.845
781.328
764.922
772.080
774.210
775.020
765.898
761.329
770.586
772.948
770.762
772.562
760.331
764.541
757.512
768.226
764.476
754.604
756.200
759.357
763.416
749.470
747.036
760.078
760.213
747.366
755.773
752.961
756.586
748.371
750.116
753.154
749.887
740.293
751.137
741.313
737.654
735.085
742.041
747.764
745.694
736.891
739.022
733.717
736.128
734.784
727.871
725.271
724.832
737.957
736.113
731.401
722.326
720.921
722.688
718.018
723.921
724.114
729.444
718.225
726.508
717.823
720.991
711.582
722.267
717.784
720.006
707.384
719.356
705.849
713.207
715.098
705.669
715.390
705.350
714.949
700.324
701.108
703.009
709.516
707.818
697.461
693.573
707.003
695.705
693.783
696.872
695.438
689.572
689.835
697.633
700.384
692.580
697.010
692.759
684.347
688.238
682.050
686.436
693.303
677.579
679.672
675.791
682.006
675.056
677.488
679.952
683.636
674.100
674.676
673.406
680.353
677.334
675.790
691.850
685.198
689.070
683.206
692.689
691.816
688.758
690.347
694.002
693.036
689.086
687.097
687.644
693.648
690.945
690.812
697.578
705.016
701.539
701.583
702.935
706.253
707.346
712.531
699.373
708.585
709.535
703.842
711.395
714.358
704.175
714.663
714.705
713.379
715.091
710.133
715.650
723.929
714.124
716.550
728.029
720.193
728.156
730.714
726.278
721.396
721.613
728.856
722.019
723.909
728.977
724.714
727.192
728.876
740.226
738.027
732.974
730.646
739.107
742.740
733.015
737.164
749.218
736.233
743.742
750.773
747.097
739.287
742.644
755.027
746.790
749.413
746.940
757.204
758.921
752.841
751.799
755.115
752.331
759.885
758.364
757.034
759.349
766.386
762.449
766.340
758.954
760.345
766.191
774.184
765.346
760.571
774.981
764.330
765.073
776.508
775.629
776.349
778.325
780.917
779.365
774.674
775.831
780.404
783.091
775.509
775.840
780.001
786.868
782.822
793.703
792.911
791.418
784.557
782.038
791.399
797.281
800.596
794.606
796.239
795.642
792.555
797.254
792.723
807.030
794.780
794.407
795.629
800.941
796.080
807.086
799.836
798.803
811.465
809.242
814.771
817.241
814.131
813.101
808.466
813.488
820.770
822.514
820.802
817.628
825.194
812.856
813.078
823.871
827.485
820.429
823.403
823.105
826.561
819.720
826.619
833.639
825.248
828.773
828.307
830.406
831.775
838.692
830.277
836.715
834.197
831.105
836.698
845.204
842.065
840.343
846.661
840.102
843.400
848.522
843.261
846.829
841.080
849.602
844.563
850.634
846.103
851.889
848.995
853.615
862.415
853.172
856.041
862.186
852.744
863.217
853.844
858.422
868.694
864.166
865.760
872.707
871.731
877.561
878.341
873.922
872.249
872.853
877.404
871.655
873.434
883.687
889.249
877.029
890.345
892.460
895.079
892.365
895.533
884.669
887.778
890.205
898.593
896.881
893.392
905.224
901.932
896.647
896.975
907.648
913.985
905.550
909.252
912.371
919.010
909.984
915.362
910.893
912.076
924.563
918.356
915.695
919.717
930.673
924.028
929.338
923.917
926.826
927.060
936.546
932.202
932.293
930.199
934.906
946.115
942.290
947.687
936.085
939.524
951.240
947.510
941.415
946.530
955.578
950.086
949.171
951.987
949.388
951.725
961.179
962.289
965.520
957.176
962.857
964.259
975.028
962.144
968.566
970.321
977.069
971.984
972.576
978.253
974.455
984.816
976.924
983.234
983.399
993.124
983.246
992.852
996.142
995.174
997.261
992.182
1001.122
1001.306
991.449
1005.904
1007.120
995.771
1011.549
998.515
1012.221
1007.316
1007.391
1005.491
1013.769
1019.363
1010.337
1009.877
1018.670
1010.852
1023.303
1014.293
1025.029
1021.040
1029.997
1033.087
1029.002
1022.663
1029.547
1031.276
1037.674
1029.156
1039.676
1033.180
1042.323
1046.760
1038.622
1041.510
1049.054
1047.532
1045.317
1053.666
1047.480
1047.411
1050.484
1057.742
1061.513
1055.339
1051.361
1051.840
1068.499
1065.012
1058.569
1059.412
1071.326
1069.545
1069.837
1068.695
1075.532
1081.209
1069.083
1071.611
1077.644
1075.667
1082.401
1088.641
1087.499
1079.801
1087.932
1084.559
1091.085
1092.535
1093.074
1099.105
1100.526
1088.334
1091.424
1091.712
1100.408
1099.285
1099.144
1106.738
1098.581
1099.992
1102.976
1106.225
1107.788
1112.672
1113.371
1109.142
1112.273
1110.848
1119.515
1122.969
1122.395
1116.761
1125.239
1125.974
1122.258
1133.420
1128.778
1130.709
1136.903
1134.459
1128.209
1137.532
1141.435
1133.081
1142.649
1130.830
1137.702
1140.377
1135.374
1127.555
1124.339
1124.358
1127.123
1120.390
1128.128
1121.360
1121.406
1115.615
1123.721
1114.494
1116.720
1124.134
1111.172
1112.357
1109.656
1106.471
1115.293
1109.865
1102.385
1102.936
1113.361
1102.105
1102.657
1103.550
1107.274
1107.403
1106.811
1101.203
1092.001
1103.425
1090.706
1097.068
1096.654
1097.386
1085.816
1092.198
1086.280
1089.199
1087.130
1079.398
1082.804
1081.666
1082.175
1074.958
1081.444
1084.368
1082.190
1075.556
1080.374
1079.713
1079.305
1066.309
1068.465
1075.508
1062.958
1072.042
1061.420
1061.184
1067.810
1066.366
1063.301
1059.164
1069.239
1058.679
1067.576
1054.353
1061.855
1063.213
1059.455
1060.650
1051.647
1059.864
1052.295
1042.628
1043.486
1040.235
1047.569
1046.891
1052.498
1047.036
1034.411
1042.573
1042.372
1032.447
1033.470
1033.514
1036.495
1037.264
1031.328
1029.251
1024.096
1029.350
1033.217
1022.642
1023.977
1033.459
1026.301
1028.540
1020.216
1020.039
1022.569
1017.884
1020.219
1021.835
1010.543
1018.910
1010.433
1014.684
1009.668
1007.792
1016.799
1004.135
1007.663
1006.139
1012.860
999.603
1005.329
998.302
1006.116
993.961
1003.016
1003.622
999.530
991.573
997.294
1000.242
993.783
998.217
995.649
991.965
994.939
985.896
980.088
984.039
980.580
988.128
981.873
980.123
973.567
974.155
981.012
982.758
975.899
978.991
980.865
977.522
974.993
962.900
971.799
971.281
958.964
962.520
966.481
959.064
955.280
958.264
960.612
962.950
962.790
952.148
948.243
960.118
952.076
949.247
947.134
947.992
942.951
940.420
941.788
948.382
940.641
949.131
943.247
940.384
938.171
932.849
940.234
930.272
931.979
941.475
927.694
930.310
925.722
935.446
925.065
923.344
929.457
923.111
924.428
930.288
916.475
914.157
916.296
911.866
908.953
911.314
914.132
906.614
908.457
895.170
900.493
897.110
881.717
882.693
887.362
879.037
878.417
870.872
867.673
869.872
858.907
858.226
852.616
856.595
844.987
853.791
849.820
837.585
837.021
832.050
835.378
831.091
828.390
818.212
826.967
814.433
821.477
817.452
807.763
799.637
805.205
799.952
789.836
791.283
797.749
784.610
778.602
778.131
779.760
772.805
767.006
771.055
764.226
756.213
753.435
752.748
753.620
751.001
744.733
747.330
747.576
738.892
726.703
735.733
729.574
721.017
729.248
722.336
720.109
708.854
704.835
713.291
707.951
700.607
702.661
698.352
687.751
680.934
679.808
673.660
683.647
673.458
669.927
668.006
662.774
663.924
659.451
648.753
652.184
644.311
639.594
648.519
641.171
633.480
631.384
626.008
626.747
619.951
619.270
620.174
615.257
610.544
612.429
611.488
598.747
594.347
601.814
592.423
591.957
592.920
591.446
580.179
571.234
569.220
565.547
569.704
567.906
562.020
552.269
562.248
549.871
546.706
548.683
541.647
533.869
542.701
530.899
523.146
527.402
528.009
522.724
525.189
511.342
517.374
512.871
506.620
497.635
492.505
489.335
497.012
483.372
491.176
492.079
484.906
476.123
476.482
467.166
470.437
470.890
469.731
454.702
455.534
446.714
445.638
448.074
436.017
444.353
439.003
440.794
434.011
434.823
430.013
418.156
415.498
410.422
412.404
406.605
411.975
410.902
398.184
394.730
390.867
383.697
380.406
387.136
376.356
378.386
371.818
375.268
375.526
360.060
367.504
353.596
349.369
348.829
351.772
340.497
336.102
347.242
331.132
336.984
334.820
324.792
324.465
322.401
312.136
320.426
313.072
309.581
298.745
308.858
300.934
