671.273
670.376
671.174
677.789
680.095
686.717
683.052
696.837
699.032
698.815
688.237
700.815
707.116
708.947
701.019
706.951
711.429
716.513
716.105
713.870
718.704
721.626
717.156
725.615
724.293
730.390
734.906
732.682
737.194
746.764
735.980
745.765
754.225
745.355
750.442
761.533
762.497
759.299
769.252
762.309
767.281
761.749
773.647
771.044
769.857
770.287
773.273
774.689
779.129
784.571
795.677
795.245
789.806
794.245
799.198
796.544
803.452
808.313
814.777
806.315
816.056
816.105
822.941
819.640
828.755
821.458
819.512
828.907
826.160
837.930
829.577
833.191
835.911
841.847
852.022
843.191
849.276
860.103
848.646
858.198
856.541
862.853
861.323
860.199
868.917
867.158
867.931
880.933
884.883
887.014
882.587
888.886
887.720
889.074
900.035
892.168
895.033
898.185
896.457
898.395
901.559
910.212
914.963
912.306
917.654
924.680
919.472
925.947
923.794
931.362
930.285
931.573
941.748
942.635
932.322
944.885
940.870
951.613
946.342
946.218
957.981
949.559
952.681
960.496
957.463
962.581
966.459
968.581
965.394
968.715
975.289
972.209
982.437
981.958
989.517
987.528
991.571
985.719
990.628
1005.105
1004.064
998.951
1009.816
1013.679
1009.627
1013.083
1019.135
1023.440
1016.486
1019.108
1029.946
1020.564
1032.130
1030.153
1037.275
1028.883
1044.974
1037.149
1043.028
1051.225
1052.075
1053.957
1056.690
1060.561
1059.923
1062.051
1058.885
1061.322
1069.209
1062.223
1072.718
1066.157
1081.905
1084.489
1078.512
1076.260
1089.345
1086.333
1091.095
1097.431
1100.331
1089.042
1095.832
1095.648
1104.189
1099.236
1101.612
1102.297
1112.060
1116.449
1120.783
1120.479
1122.035
1120.780
1125.921
1123.190
1123.973
1138.828
1133.293
1142.291
1136.441
1142.464
1131.210
1133.619
1146.242
1143.743
1135.665
1132.757
1143.462
1130.026
1131.275
1134.942
1138.325
1136.426
1136.675
1130.900
1135.706
1128.265
1130.309
1136.634
1129.404
1124.899
1139.454
1126.344
1126.205
1137.402
1134.258
1132.353
1131.722
1135.366
1136.291
1133.424
1131.920
1122.141
1122.171
1129.647
1121.857
1129.527
1125.761
1126.000
1119.428
1118.305
1126.037
1124.454
1125.359
1124.509
1125.160
1117.067
1127.977
1121.528
1129.594
1118.808
1117.253
1115.422
1117.021
1125.980
1123.117
1127.690
1122.443
1127.678
1122.903
1114.566
1117.716
1116.803
1117.076
1117.556
1118.960
1120.607
1124.010
1112.586
1117.996
1109.002
1119.179
1114.435
1113.404
1121.391
1119.307
1120.830
1113.473
1107.292
1114.248
1112.636
1107.705
1118.492
1111.621
1106.584
1103.369
1112.404
1104.210
1103.843
1114.667
1109.338
1106.387
1112.633
1115.120
1105.043
1114.746
1114.772
1110.163
1111.589
1103.029
1113.109
1100.396
1106.190
1101.873
1098.842
1099.269
1096.822
1110.765
1104.728
1101.710
1102.384
1106.509
1099.385
1108.684
1093.780
1101.550
1097.756
1092.948
1101.451
1098.027
1095.522
1104.869
1103.836
1101.725
1106.247
1101.794
1098.979
1103.063
1100.495
1088.965
1099.357
1096.183
1087.822
1095.365
1102.815
1093.001
1089.194
1094.428
1089.779
1094.447
1090.581
1096.139
1087.807
1095.940
1086.022
1096.678
1096.829
1094.875
1094.575
1090.814
1093.604
1082.436
1086.505
1095.548
1085.541
1091.959
1086.340
1090.586
1088.175
1084.405
1081.620
1081.619
1092.008
1089.557
1082.375
1092.020
1077.128
1091.713
1081.032
1077.434
1084.298
1083.503
1082.724
1079.821
1089.492
1080.636
1076.963
1074.345
1076.606
1085.493
1084.163
1081.226
1071.094
1084.812
1074.137
1082.936
1070.529
1077.755
1075.256
1070.219
1074.354
1072.961
1080.314
1070.138
1069.664
1071.887
1072.842
1066.702
1070.074
1079.765
1072.148
1071.293
1071.205
1056.743
1058.340
1051.568
1050.930
1061.049
1049.200
1051.376
1048.601
1050.750
1037.097
1037.584
1033.683
1032.719
1027.529
1027.463
1034.794
1021.713
1026.166
1029.839
1013.129
1025.802
1020.685
1018.516
1008.226
1005.974
1001.118
1001.076
1007.956
1005.439
995.653
989.062
986.042
991.506
993.908
983.009
984.950
984.724
984.596
981.633
977.413
978.719
973.053
962.771
966.303
962.433
955.950
955.985
960.400
958.891
954.147
952.433
942.332
947.926
945.249
945.074
931.638
941.983
933.402
930.001
934.123
919.796
919.661
920.978
914.409
911.689
920.017
904.948
907.957
907.874
906.662
909.505
893.952
898.865
901.243
896.382
889.503
895.273
886.622
880.895
876.628
881.890
885.931
879.538
880.585
868.074
865.761
866.611
863.371
855.880
865.386
859.900
856.181
855.212
855.200
855.670
842.728
846.198
841.707
846.130
841.097
834.462
826.576
823.086
831.923
822.773
819.983
824.566
823.405
819.201
819.970
816.856
811.650
809.532
801.786
809.512
802.795
792.324
791.946
790.664
784.844
782.283
785.915
787.421
779.156
784.274
780.446
775.292
773.621
776.467
760.487
764.150
768.193
767.681
762.475
751.287
754.832
757.343
756.193
750.619
738.118
743.460
738.490
731.707
740.814
729.429
724.207
725.898
729.087
729.316
721.753
724.904
713.705
711.413
707.093
704.612
715.535
712.108
702.738
696.774
694.372
696.647
696.162
692.095
685.220
691.709
692.050
689.573
677.668
684.045
668.655
675.607
678.089
669.942
659.317
667.804
662.585
667.766
661.170
652.263
658.040
644.619
654.529
652.201
636.328
643.229
633.621
632.062
636.365
633.938
629.361
631.594
618.016
618.675
622.633
616.716
616.103
610.650
618.535
620.633
614.947
618.716
620.760
617.161
624.363
614.647
626.849
621.167
626.903
626.536
630.142
628.117
630.418
625.917
633.952
639.760
636.213
637.210
631.002
631.755
635.728
644.097
647.714
635.620
638.213
650.812
643.566
651.813
646.953
645.534
655.985
642.042
645.324
650.649
659.548
645.842
648.958
658.290
649.962
661.303
660.940
664.883
656.075
669.477
662.087
658.903
667.970
665.378
665.280
665.483
669.107
668.981
663.681
679.959
680.639
672.014
675.869
668.782
672.102
679.006
681.625
682.044
678.842
684.976
682.848
685.652
688.548
689.872
687.808
685.504
684.956
692.253
684.367
693.633
691.339
688.189
693.396
693.495
699.006
704.352
696.562
702.675
701.459
707.685
700.799
707.745
714.432
700.262
716.551
711.569
706.569
707.832
713.658
720.653
721.645
721.687
725.281
726.353
717.530
728.011
724.913
729.393
726.142
725.124
727.033
719.008
734.309
727.043
730.379
726.195
726.017
731.787
731.804
728.624
736.809
744.746
740.042
732.799
747.122
737.637
741.982
749.254
749.546
742.181
754.402
741.281
753.255
754.011
756.961
753.514
754.210
756.901
760.404
758.082
759.468
757.070
754.558
759.505
759.288
754.694
756.174
767.490
762.890
761.849
766.023
765.304
771.878
771.384
769.199
773.077
775.359
770.008
780.740
780.657
771.964
777.968
775.393
788.702
782.729
781.450
780.589
781.742
783.637
785.106
792.504
793.307
797.043
783.705
795.776
794.750
789.551
794.736
799.323
797.288
802.328
802.248
799.468
795.428
806.417
806.132
803.519
801.725
803.770
809.576
816.062
804.066
807.759
811.782
817.553
819.758
821.218
818.300
812.983
817.163
818.549
817.813
814.355
829.305
818.082
829.746
821.179
828.099
833.041
823.872
828.512
824.099
836.186
828.258
837.967
829.504
825.957
838.678
839.440
827.739
834.286
841.371
828.244
843.136
833.512
831.764
832.095
834.960
845.484
844.231
842.334
848.581
839.883
846.980
836.347
850.914
844.168
850.849
837.893
848.455
848.128
842.869
841.842
844.377
847.163
848.276
849.808
853.374
858.492
852.307
847.331
847.811
851.520
850.971
861.754
857.371
864.632
858.423
864.029
857.608
853.906
857.555
866.026
855.865
861.778
865.212
862.262
856.816
870.911
860.645
865.284
871.967
870.752
864.903
874.748
864.876
863.392
869.477
865.027
873.883
875.920
864.657
873.179
880.418
868.408
868.729
874.628
869.326
874.543
879.497
873.851
871.109
880.159
881.573
876.986
876.756
883.698
876.581
891.224
885.605
880.262
889.776
884.762
893.232
884.770
888.878
886.017
891.601
896.772
885.152
894.773
898.856
885.932
886.053
888.181
896.015
898.558
902.680
893.758
903.503
892.875
895.112
902.278
904.579
897.533
907.369
894.656
896.749
899.707
907.466
903.648
906.091
901.558
909.184
907.848
906.284
914.673
900.609
906.021
909.810
916.960
914.397
913.602
904.535
909.018
906.789
908.275
911.106
918.133
921.259
910.024
909.770
917.661
914.385
925.835
924.176
918.355
914.326
926.306
926.933
926.888
929.567
928.520
924.676
918.144
919.432
933.149
934.454
927.999
924.664
932.710
928.930
934.840
925.544
925.747
928.789
930.738
930.000
941.046
936.673
940.224
930.088
940.447
936.668
934.487
933.265
939.091
933.906
947.561
936.103
934.443
936.187
940.668
950.757
950.708
947.164
941.481
942.357
943.913
954.613
955.045
952.809
944.497
947.254
953.573
951.061
949.568
953.224
948.539
943.639
952.306
938.091
949.669
943.501
940.020
949.736
941.926
946.242
937.486
942.000
940.744
941.003
929.412
935.182
933.677
929.728
935.229
940.066
937.782
924.788
938.378
935.204
927.431
930.884
925.076
932.265
929.106
933.432
932.239
918.612
920.391
922.277
921.899
929.395
915.246
915.079
925.827
926.940
925.376
917.097
910.287
922.176
923.756
911.648
908.079
909.982
917.929
918.055
918.112
905.510
917.225
908.511
911.458
903.868
903.073
905.484
907.522
903.731
904.401
911.819
909.717
896.825
896.592
897.133
901.886
893.629
892.854
895.116
904.595
897.206
904.549
893.780
891.968
887.672
890.994
889.827
885.765
885.448
895.306
892.211
890.730
890.447
885.520
888.270
889.453
880.515
887.614
882.857
879.082
879.409
882.040
883.316
887.664
875.543
882.791
886.155
870.910
882.284
871.172
873.344
872.189
876.189
875.455
873.115
867.449
872.369
871.228
867.024
869.164
868.855
861.927
869.801
874.855
864.254
869.113
859.209
867.615
871.924
861.172
867.016
864.449
863.164
868.330
864.431
851.520
857.445
862.595
850.230
851.724
848.863
853.850
852.905
847.727
845.478
858.472
848.691
852.531
852.600
851.940
850.330
843.939
843.902
840.076
841.334
851.339
837.911
838.643
847.670
850.016
849.103
845.312
843.232
839.170
845.354
843.911
832.924
841.791
833.097
834.157
842.700
832.469
837.239
838.097
832.409
838.104
829.475
823.840
835.032
824.768
830.260
831.419
827.253
825.874
831.515
820.340
822.266
828.890
820.526
819.638
814.384
816.506
813.815
812.357
815.947
820.454
821.174
815.211
816.803
812.358
810.016
819.434
806.488
818.027
805.965
809.408
815.430
818.413
824.832
819.497
818.347
827.960
831.610
828.033
824.824
827.340
835.372
826.630
840.535
827.846
843.877
831.309
835.094
835.799
838.208
844.605
840.400
844.359
851.824
853.620
853.336
857.983
861.895
855.319
864.717
859.450
859.852
866.199
868.711
857.864
867.564
869.779
872.905
868.920
881.088
873.143
883.207
884.467
874.444
878.802
878.559
880.385
885.856
885.204
881.833
885.587
885.480
890.673
894.755
904.497
896.302
904.246
900.899
897.787
909.096
902.933
911.190
913.443
913.787
915.182
916.727
916.481
919.830
911.479
920.064
915.461
920.383
926.028
921.285
931.531
925.776
924.084
934.210
940.179
942.676
943.623
938.708
937.962
935.236
936.073
938.704
941.127
955.251
942.575
944.494
958.378
947.560
949.086
962.118
958.703
960.776
963.208
964.985
967.244
969.818
965.247
963.985
976.420
965.740
979.110
971.510
970.111
987.055
977.918
977.942
978.995
991.129
994.091
980.709
989.791
985.391
985.722
995.823
1000.470
1004.657
996.219
1007.756
1000.796
1001.256
1012.918
1005.724
1005.164
1004.882
1016.422
1014.700
1020.973
1013.555
1021.577
1024.769
1028.506
1015.835
1020.113
1030.182
1020.161
1021.832
1035.956
1029.268
1028.617
1041.978
1044.670
1042.743
1039.490
1049.183
1045.146
1042.139
1042.394
1054.988
1045.385
1045.944
1045.216
1046.551
1058.147
1057.616
1065.759
1057.939
1057.792
1067.721
1070.790
1063.594
1060.780
1070.228
1078.073
1075.164
1079.218
1082.410
1077.030
1084.453
1081.922
1084.106
1082.838
1080.211
1086.827
1081.995
1092.497
1092.722
1084.837
1089.183
1095.483
1095.402
1092.871
1105.811
1106.110
1108.732
1110.436
1099.220
1114.631
1101.916
1112.522
1105.748
1114.179
1119.793
1121.346
1116.631
1128.522
1122.821
1120.299
1118.560
1113.611
1116.345
1115.762
1118.586
1113.624
1123.894
1112.631
1115.426
1118.918
1112.564
1121.127
1112.647
1119.008
1112.932
1105.903
1103.661
1112.906
1108.104
1109.969
1111.693
1106.095
1105.795
1109.977
1110.523
1108.304
1099.428
1107.030
1107.965
1104.568
1099.114
1099.953
1107.630
1101.625
1097.443
1097.900
1095.840
1091.887
1091.007
1094.704
1098.258
1090.848
1102.873
1090.958
1090.892
1095.790
1095.171
1088.476
1085.019
1099.030
1087.704
1085.090
1091.851
1096.425
1086.466
1085.935
1085.405
1087.084
1084.242
1081.551
1079.439
1086.329
1087.911
1085.647
1089.507
1083.143
1074.896
1085.318
1084.244
1080.736
1074.216
1082.089
1073.188
1083.812
1079.321
1084.122
1072.003
1080.038
1067.625
1066.690
1065.319
1071.210
1072.936
1077.823
1078.676
1074.966
1071.151
1069.193
1066.875
1060.508
1063.648
1073.113
1065.162
1072.006
1064.066
1071.251
1069.017
1071.007
1055.791
1056.984
1057.259
1057.601
1054.327
1054.688
1058.700
1051.292
1050.803
1058.540
1053.148
1058.583
1060.230
1050.801
1053.989
1046.736
1046.945
1058.787
1056.118
1045.859
1045.587
1050.770
1049.235
1043.833
1045.149
1047.092
1047.986
1041.372
1038.443
1045.034
1047.233
1049.658
1044.252
1040.000
1046.662
1040.005
1039.207
1039.316
1044.475
1038.586
1033.701
1044.783
1038.658
1031.558
1039.696
1033.343
1031.862
1037.202
1039.006
1025.876
1033.122
1035.428
1024.861
1025.953
1030.829
1034.706
1026.079
1026.996
1023.462
1031.481
1027.108
1029.513
1028.959
1031.171
1022.424
1022.660
1028.091
1020.364
1026.381
1023.820
1018.762
1025.941
1023.630
1013.076
1025.268
1014.159
1012.615
1020.452
1023.359
1009.176
1021.781
1020.216
1018.562
1011.762
1010.550
1015.253
1004.218
1009.684
1002.260
1009.611
1006.993
1005.708
1015.488
1012.151
1009.105
1007.496
1003.161
1002.806
1009.130
1002.322
1002.975
1003.661
1003.266
991.872
1005.306
1003.912
997.894
999.290
994.465
991.876
984.752
986.280
996.106
987.522
989.629
981.147
981.592
979.642
990.456
980.046
974.313
978.982
981.297
978.188
972.204
970.350
977.148
980.446
976.019
966.016
964.227
969.523
965.628
961.777
964.625
958.052
958.191
958.862
952.292
964.505
960.714
955.493
948.869
948.733
946.223
956.200
946.210
954.784
944.069
949.544
947.964
949.276
945.497
942.798
939.361
934.132
942.253
935.787
933.181
937.219
931.422
942.342
931.032
939.629
935.511
927.468
921.079
920.520
930.802
924.877
924.456
920.767
921.462
927.947
926.362
922.553
923.534
917.555
914.107
921.881
914.376
910.288
906.173
906.239
905.159
906.014
898.461
906.543
897.831
900.462
894.765
904.276
906.375
904.085
896.249
893.067
902.883
899.722
900.629
891.526
891.591
892.016
895.746
888.795
892.785
880.796
880.150
887.573
882.837
887.919
872.342
874.477
870.658
882.156
872.892
868.155
870.271
871.896
862.565
875.494
873.258
864.807
862.366
861.986
856.293
855.951
867.570
861.382
863.209
854.157
863.675
857.208
862.190
851.026
848.107
850.432
850.626
840.950
854.227
852.940
844.643
837.712
836.383
844.086
834.183
835.343
834.282
839.464
828.991
832.734
837.047
829.588
833.284
832.621
824.945
834.814
835.450
830.810
825.783
825.012
818.142
829.859
814.495
813.108
825.650
819.318
822.733
819.610
815.543
809.431
812.156
812.944
812.558
810.176
800.180
807.291
811.061
807.359
796.841
800.096
801.790
807.349
805.518
801.983
795.463
792.864
797.633
787.853
792.686
793.479
788.667
785.374
793.519
784.763
783.173
781.735
778.585
775.419
786.775
783.726
772.518
781.258
771.302
775.805
773.283
765.281
760.244
764.463
763.609
757.329
763.379
746.631
744.266
755.940
744.515
742.148
744.284
732.938
742.754
736.400
740.766
729.781
730.441
732.710
720.849
726.340
713.374
721.382
721.907
709.295
707.097
713.133
706.904
711.979
710.804
707.362
692.842
689.315
695.560
699.178
692.730
695.551
687.111
677.982
688.642
673.840
678.771
673.076
674.414
672.346
665.937
663.726
664.254
666.363
658.957
654.745
647.053
649.673
643.003
648.207
648.143
644.778
649.269
637.446
631.389
638.070
637.621
633.100
621.590
632.152
622.192
621.293
625.717
615.045
613.450
612.180
616.948
608.645
612.810
597.487
599.415
598.820
600.731
591.002
588.085
583.686
594.317
580.735
588.691
582.772
575.465
581.768
574.074
565.782
570.174
572.446
559.347
569.759
567.590
567.632
561.117
562.330
553.244
555.519
545.375
544.330
549.718
542.291
539.437
545.051
537.462
530.256
531.933
527.321
523.604
521.767
521.816
515.675
519.699
517.726
512.107
514.115
511.717
502.599
502.973
509.691
507.278
493.739
500.797
488.768
488.143
490.242
485.531
485.978
477.516
478.150
484.415
476.376
480.888
470.045
467.297
467.174
466.899
465.282
459.096
451.865
449.288
449.645
452.050
457.741
453.222
450.577
438.282
442.260
433.917
429.940
435.258
425.022
433.246
426.880
426.792
417.479
423.715
427.573
419.370
422.166
419.745
404.987
413.147
407.808
411.949
400.029
394.681
404.494
394.700
389.401
384.695
388.275
390.801
386.452
376.983
376.377
373.267
367.850
371.569
377.816
364.222
363.356
371.830
360.385
366.304
358.591
360.273
349.243
352.633
347.506
343.782
342.756
340.026
342.034
