438.032
440.468
444.939
448.382
442.051
455.967
451.400
457.898
456.426
447.772
457.849
463.295
457.122
458.177
452.860
453.379
454.503
454.492
455.951
471.749
461.112
461.765
469.462
460.982
464.188
469.118
477.934
479.171
473.461
474.516
472.144
480.480
473.248
474.375
475.864
483.739
480.873
481.184
484.025
485.170
492.519
486.373
482.231
491.479
482.564
491.130
484.170
487.338
486.744
490.765
499.617
498.671
488.786
504.925
506.173
495.560
493.107
506.545
498.059
500.194
501.835
505.916
501.090
513.373
506.899
508.645
504.773
509.637
513.968
518.513
518.956
508.938
517.473
511.858
514.257
526.707
526.904
514.675
524.684
524.510
527.786
518.055
527.705
531.781
533.502
527.805
536.341
534.118
534.573
528.427
532.295
542.246
534.859
529.514
534.584
546.309
544.317
538.721
540.182
538.605
548.532
550.176
545.120
548.546
548.341
542.153
541.720
556.478
552.163
548.342
549.397
549.843
563.177
550.930
549.861
565.231
564.594
563.819
562.003
565.426
562.558
564.778
568.040
569.169
574.376
567.176
567.240
577.084
568.933
576.543
567.192
579.035
574.208
580.731
574.585
581.740
574.987
577.528
586.213
582.019
586.160
582.830
584.084
586.829
588.548
582.394
595.096
592.122
582.438
592.883
594.841
593.639
587.654
587.616
589.113
601.793
596.435
603.671
606.390
607.480
597.662
598.655
611.500
600.902
607.367
606.376
601.458
611.073
617.892
617.177
614.766
620.459
620.624
613.459
617.723
611.448
612.790
614.274
624.467
625.454
629.515
622.542
619.663
626.941
619.794
631.608
635.369
621.914
637.309
632.314
631.196
629.154
638.627
638.265
629.698
639.401
640.341
634.065
644.483
646.591
647.676
645.964
637.063
642.894
637.494
651.345
650.361
643.530
642.094
650.320
647.700
652.571
656.020
654.307
653.121
646.852
653.149
655.445
662.398
656.837
663.365
666.403
661.115
660.168
666.725
666.461
663.969
665.856
665.195
672.264
659.769
660.551
673.421
665.533
661.914
671.388
674.886
674.835
676.645
673.634
677.281
675.677
678.272
682.881
672.489
678.492
675.196
677.535
674.902
690.111
688.304
685.966
690.591
687.461
686.248
685.818
684.994
685.364
688.315
688.107
692.360
693.230
701.145
698.240
692.669
688.921
697.417
692.024
704.060
704.899
706.885
705.691
698.725
707.133
697.870
699.827
699.520
703.685
706.887
705.133
707.057
712.636
709.949
704.093
715.216
705.731
707.639
711.364
713.914
721.974
721.960
715.509
714.508
718.446
715.011
722.478
716.652
726.635
728.148
729.805
725.148
732.097
719.748
726.300
730.183
726.727
737.686
736.091
729.995
740.510
730.216
738.780
741.610
737.679
734.628
734.299
738.984
732.277
747.222
748.257
740.563
743.209
751.041
739.779
739.322
754.003
739.795
742.549
753.635
744.321
756.846
750.567
747.897
757.190
751.101
750.174
759.364
749.365
749.667
755.827
753.413
756.037
767.170
765.263
754.984
769.279
759.171
767.819
772.183
773.117
762.480
768.548
768.686
762.410
769.349
767.013
773.156
771.378
778.037
772.750
773.517
782.972
773.520
772.374
780.034
780.163
773.081
774.391
780.169
790.709
789.775
779.705
790.378
789.638
785.199
789.342
793.510
789.476
788.214
790.851
789.219
788.579
795.646
787.730
795.972
796.119
793.190
790.971
795.183
806.909
802.948
798.387
797.239
799.498
797.496
813.046
801.880
813.058
802.621
816.092
804.628
815.171
815.841
813.140
813.250
810.979
817.086
813.758
805.384
810.545
811.033
818.131
806.550
805.370
815.394
818.415
805.449
813.116
816.910
810.224
808.171
814.751
807.223
818.720
817.253
811.565
809.527
812.514
817.378
817.501
818.021
812.386
820.061
816.861
818.898
823.947
820.666
816.138
815.550
819.275
814.089
822.482
816.083
810.638
810.551
815.336
813.070
825.961
816.235
815.011
820.874
814.798
816.792
819.611
823.798
819.122
817.753
822.948
822.256
826.977
820.419
816.525
821.163
828.598
828.804
817.311
829.474
818.929
827.694
825.384
821.360
822.718
817.537
817.255
824.450
818.698
827.014
819.710
831.160
823.466
832.837
821.277
828.815
820.204
820.905
825.861
826.977
834.556
828.650
829.838
830.281
830.425
832.812
835.086
831.395
827.076
834.520
834.970
824.030
827.163
825.206
835.349
825.963
830.843
831.100
823.476
834.398
823.773
831.580
835.084
835.119
825.057
825.060
835.699
838.262
830.718
840.405
825.799
830.879
840.646
835.502
830.284
828.612
837.569
839.442
835.182
827.378
830.252
838.927
835.564
840.495
840.948
841.821
843.719
829.555
840.127
834.884
830.714
831.072
845.754
833.714
837.669
844.420
839.844
839.702
833.065
836.723
832.536
833.519
834.762
839.515
839.954
846.085
834.105
845.151
840.946
847.378
839.112
848.472
849.319
850.055
839.223
838.000
846.449
843.910
849.171
844.113
850.363
846.058
838.475
846.220
837.437
847.434
852.830
848.380
838.765
842.020
846.895
851.409
848.350
840.442
852.866
851.948
846.809
840.525
854.149
841.893
843.806
842.872
846.561
853.306
841.326
848.882
843.854
842.368
849.527
847.156
842.933
857.265
856.294
852.001
852.487
849.930
841.276
854.695
848.442
851.983
846.900
843.290
852.669
843.082
847.600
843.409
845.124
850.351
838.199
835.861
844.613
838.848
846.317
845.715
835.056
841.913
837.471
834.967
833.878
831.936
830.017
826.741
839.184
831.639
838.803
832.816
838.377
833.021
824.869
830.034
830.447
828.516
821.774
823.405
818.919
819.617
823.462
820.121
824.858
830.830
825.112
818.027
826.102
824.669
826.159
813.806
821.808
820.092
819.964
813.732
813.198
810.777
816.957
822.883
808.855
813.052
814.392
816.866
807.031
804.722
811.475
812.964
803.288
817.414
815.629
807.425
805.257
806.645
808.840
812.391
805.693
797.892
801.160
800.283
798.397
809.779
797.948
799.064
795.506
808.766
794.512
805.513
794.974
801.103
791.658
801.353
795.586
802.846
800.893
797.347
794.942
800.037
796.350
789.325
785.021
785.350
787.697
793.229
784.330
794.376
786.016
780.274
789.411
793.000
793.208
789.577
785.277
779.434
777.440
783.534
778.294
778.676
777.962
783.421
786.435
783.532
774.268
777.615
775.271
777.167
772.663
772.176
772.975
774.876
769.466
768.578
776.695
767.963
780.245
778.570
777.318
768.728
776.651
767.236
771.897
765.780
767.924
769.722
770.627
766.304
767.837
757.912
758.687
769.509
756.171
765.055
758.380
764.821
762.112
764.129
760.751
767.018
750.929
764.275
757.823
762.840
764.238
752.780
749.801
760.264
756.733
758.929
745.412
755.258
755.976
744.769
754.486
749.976
748.302
748.161
754.214
743.682
745.774
754.069
744.248
752.789
748.589
737.346
736.341
742.039
744.556
734.621
748.431
744.288
748.154
733.213
732.695
731.223
740.632
743.781
734.435
733.897
741.604
731.308
736.256
744.591
742.994
742.397
741.526
736.901
737.773
749.156
749.488
739.302
744.838
752.005
754.431
747.859
755.929
758.190
743.614
759.373
758.782
750.542
753.002
762.378
762.593
752.633
762.924
765.796
759.266
757.883
755.701
761.819
771.686
773.221
761.798
760.912
773.928
769.019
762.201
774.183
765.667
773.436
780.581
779.660
776.542
782.409
771.019
782.415
772.426
781.526
786.851
789.205
790.271
782.365
783.759
787.094
779.919
792.943
786.701
788.234
797.232
793.114
794.745
786.448
796.101
792.187
796.750
799.353
794.185
795.381
805.610
801.572
808.643
805.515
803.802
804.035
810.553
808.951
803.027
801.195
809.674
806.246
804.719
811.349
808.600
822.147
817.710
818.672
822.120
819.702
824.687
814.922
821.909
815.128
830.017
828.708
821.977
824.602
820.967
832.026
831.514
837.194
832.250
834.321
834.157
840.591
834.475
841.815
842.837
842.429
843.948
843.188
835.565
843.074
840.435
841.954
850.514
848.360
853.166
840.549
854.089
841.498
847.453
857.715
844.959
850.543
851.844
849.106
852.096
857.862
854.617
863.561
855.944
859.429
855.579
868.372
859.186
859.955
859.209
870.825
870.175
865.109
867.521
868.949
873.966
865.203
878.438
870.824
868.700
879.033
873.166
881.153
873.749
881.287
879.274
873.486
889.466
890.331
877.863
887.240
893.571
889.581
893.144
884.362
883.977
890.623
886.493
893.980
900.383
894.397
897.380
896.791
892.551
900.439
906.813
899.569
900.898
894.303
904.032
898.911
909.491
913.119
914.641
908.752
910.519
903.990
903.589
911.588
905.162
912.622
920.666
913.601
908.429
916.488
919.573
921.525
914.921
925.132
917.049
921.141
929.612
932.093
930.928
931.967
924.301
922.559
918.562
923.211
926.386
919.447
914.530
922.314
927.247
916.076
916.136
920.229
918.926
917.382
911.175
913.147
915.119
915.875
917.287
914.963
910.039
918.827
921.977
912.065
920.292
915.389
909.517
912.486
910.686
910.871
920.647
912.201
912.064
906.256
913.567
912.143
918.822
903.525
918.008
914.462
907.416
902.467
909.435
912.609
912.595
902.302
912.745
909.350
900.565
903.970
899.324
911.270
901.147
910.306
906.003
898.289
904.118
897.350
896.390
907.712
900.217
908.102
897.313
903.007
905.691
908.559
896.905
893.426
905.279
906.790
903.762
898.999
902.776
904.990
902.519
904.919
898.066
905.202
892.744
903.048
902.210
896.994
897.686
892.165
889.860
902.075
890.203
887.322
897.851
890.518
896.508
885.679
895.842
899.240
883.912
887.872
883.132
886.464
882.523
890.195
891.849
884.307
888.729
884.651
888.734
889.670
894.963
880.978
887.013
888.972
890.287
885.376
879.349
878.617
889.778
886.554
883.279
882.166
885.403
877.302
885.631
874.597
884.491
885.953
882.372
872.962
879.231
881.065
883.754
876.514
883.169
872.610
881.606
879.298
877.484
879.723
870.942
877.725
874.951
881.026
882.080
876.908
881.697
879.887
874.181
866.503
874.065
869.661
873.058
877.263
865.250
864.850
872.997
869.491
868.677
875.687
875.761
871.085
870.029
870.285
861.277
875.931
863.788
872.040
871.697
875.056
869.961
869.843
872.085
861.604
861.637
861.657
866.709
871.873
869.754
864.809
871.079
859.271
863.392
860.096
858.564
866.702
855.700
855.878
856.012
863.198
856.355
858.922
860.270
859.619
859.636
859.251
860.430
853.295
858.126
851.993
857.537
859.814
848.026
850.579
859.279
851.252
845.672
848.753
853.985
848.435
851.786
845.369
841.722
852.348
848.857
849.572
845.852
845.970
834.272
844.740
839.747
843.916
830.822
841.440
841.047
833.909
840.250
833.519
827.350
830.684
837.864
822.551
826.767
833.832
819.051
823.831
823.960
819.698
825.697
827.225
816.286
814.523
821.230
812.460
817.771
817.787
816.328
814.478
819.209
812.096
805.189
817.289
808.496
816.017
817.024
814.439
812.449
804.964
812.543
808.979
804.039
796.675
807.629
796.372
793.876
797.889
804.381
793.946
789.397
792.391
790.940
796.797
789.135
791.204
794.965
791.002
786.859
788.019
782.535
784.257
786.182
781.404
784.618
784.121
778.089
776.000
775.972
774.208
784.434
773.861
773.505
772.829
780.449
770.165
779.114
772.099
776.645
773.182
777.152
768.725
770.431
761.971
772.262
760.247
758.894
764.048
768.947
766.928
759.237
765.088
753.916
755.467
764.276
763.725
751.564
748.116
756.898
746.461
751.354
754.638
749.529
748.731
741.590
751.365
740.538
750.107
739.603
746.386
737.251
747.731
741.636
733.584
741.811
734.183
741.778
737.314
734.924
739.461
736.147
725.851
728.419
727.300
736.914
723.518
735.161
726.130
726.802
723.595
722.519
717.013
718.791
728.071
722.775
717.824
715.758
726.481
720.673
720.504
709.118
719.516
722.552
706.143
706.098
717.792
715.153
702.482
702.439
707.645
713.914
712.304
706.970
705.584
701.430
697.068
700.312
709.018
695.394
697.247
696.027
690.797
697.623
701.396
692.276
699.282
694.987
695.566
698.532
686.494
688.276
689.700
689.170
689.257
683.480
683.577
679.187
686.158
676.190
689.134
675.172
672.314
678.414
675.553
685.054
685.027
689.150
679.045
675.738
679.033
678.034
687.439
689.655
683.027
689.383
684.471
694.487
688.124
694.278
692.428
693.235
702.851
698.421
697.407
699.290
699.618
697.757
694.922
698.691
710.082
706.340
701.477
703.804
711.972
705.455
701.063
704.867
709.044
711.847
711.085
716.511
711.616
712.005
717.183
724.415
714.046
712.405
715.874
712.208
720.392
715.501
717.531
726.413
721.729
732.086
719.547
728.739
726.149
729.523
737.426
731.558
730.684
728.547
736.120
740.631
739.789
742.165
737.793
740.067
743.301
748.223
748.433
738.562
737.350
742.307
740.014
741.697
746.372
746.958
753.715
757.256
751.344
748.739
750.331
746.043
747.607
759.143
760.487
753.980
751.510
759.858
752.316
768.568
764.798
756.790
768.544
761.941
766.947
762.744
767.574
773.454
764.069
771.031
775.889
778.230
776.737
772.234
772.931
771.282
783.926
776.685
774.200
773.181
779.032
787.048
786.346
782.697
777.084
779.693
781.148
791.170
783.339
783.473
784.954
791.641
785.893
796.783
798.352
790.359
802.371
796.436
796.679
795.882
800.085
800.717
805.977
806.354
805.315
802.149
797.433
810.758
811.811
814.513
815.609
813.495
810.154
817.737
806.588
805.613
806.489
817.206
822.813
820.333
825.573
820.277
819.074
823.984
820.872
817.144
815.733
829.019
820.057
825.334
833.386
825.981
834.344
833.666
822.914
837.073
831.263
833.976
833.709
833.414
829.978
844.137
844.313
833.352
834.544
832.980
849.768
838.666
844.132
839.309
848.344
840.583
853.053
852.910
844.782
842.326
851.706
845.495
850.932
849.129
860.425
862.998
853.180
850.905
855.553
860.148
853.920
856.873
870.064
857.927
871.570
857.569
870.026
867.941
872.488
871.247
873.043
871.878
877.336
883.700
873.817
873.915
888.348
874.223
886.442
890.694
881.325
880.501
885.050
885.159
889.370
889.681
891.974
894.515
894.214
892.529
897.603
905.592
904.672
909.457
906.262
907.935
909.767
907.648
915.103
906.900
916.127
907.867
912.040
911.573
919.654
924.659
928.850
921.030
916.870
928.876
928.305
935.389
931.216
926.590
924.691
934.884
941.476
937.685
931.653
947.088
941.352
948.303
939.377
946.913
951.304
949.793
941.540
942.567
956.750
952.277
952.907
948.967
952.381
963.947
964.040
955.637
956.396
966.304
970.206
960.463
963.898
965.789
970.706
971.635
969.091
974.932
978.941
977.927
971.864
975.796
985.491
983.660
990.738
992.291
991.429
984.325
986.814
992.156
994.632
997.274
990.159
992.235
991.004
998.038
1006.002
1006.044
997.875
1000.767
1002.432
1001.156
1007.836
1013.973
1017.384
1016.097
1017.474
1016.387
1010.386
1011.581
1022.166
1022.399
1016.906
1026.736
1031.178
1025.305
1020.571
1033.569
1029.170
1036.081
1037.963
1036.821
1036.134
1032.305
1034.801
1038.219
1036.927
1044.896
1049.796
1043.363
1051.916
1049.863
1057.559
1049.486
1059.280
1052.460
1058.294
1053.599
1055.190
1057.310
1062.279
1065.937
1066.774
1070.149
1070.548
1066.528
1065.812
1075.662
1077.479
1070.356
1081.622
1078.288
1075.380
1083.823
1074.857
1081.428
1076.591
1086.506
1091.735
1080.944
1081.395
1094.879
1085.653
1098.628
1101.155
1096.164
1090.004
1098.521
1103.527
1105.233
1101.377
1101.062
1098.736
1098.497
1112.481
1112.021
1110.455
1108.067
1119.324
1106.575
1110.931
1117.480
1115.644
1119.257
1126.520
1118.450
1122.389
1126.264
1134.219
1127.455
1129.371
1137.786
1135.217
1134.537
1133.350
1144.462
1138.343
1134.999
1141.292
1128.183
1138.194
1127.071
1126.592
1125.767
1121.484
1127.071
1121.159
1127.447
1125.670
1125.088
1130.454
1117.603
1113.129
1113.810
1115.211
1115.468
1121.046
1122.593
1110.491
1106.328
1115.391
1107.471
1105.011
1101.348
1100.617
1113.266
1100.168
1110.047
1110.452
1103.732
1107.234
1103.191
1093.282
1100.720
1093.998
1091.264
1096.890
1094.830
1086.116
1087.089
1090.487
1087.751
1085.975
1080.091
1084.061
1087.511
1086.549
1084.245
1080.301
1088.010
1077.972
1077.800
1077.393
1078.777
1076.106
1073.882
1067.471
1067.484
1063.700
1074.608
1066.874
1069.064
1071.753
1065.967
1059.463
1056.055
1068.393
1054.451
1063.338
1062.460
1057.461
1057.963
1051.015
1058.377
1052.580
1053.738
1059.007
1056.273
1047.613
1050.672
1049.620
1040.821
1046.833
1045.549
1049.163
1040.180
1043.138
1039.774
1033.094
1032.721
1030.381
1036.407
1025.849
1029.018
1024.519
1032.804
1031.448
1032.798
1028.939
1034.051
1018.481
1017.594
1018.439
1021.438
1027.007
1024.811
1013.027
1009.794
1019.727
1010.235
1006.604
1008.124
1016.236
1016.491
1011.305
1005.332
1006.692
998.944
1005.265
1010.712
1008.893
997.702
1003.057
992.819
997.546
993.709
993.427
990.725
989.629
995.325
986.415
992.001
992.787
986.426
994.406
988.083
992.125
991.771
989.389
985.132
975.629
975.558
975.950
970.660
982.500
981.046
977.026
973.223
976.097
978.183
964.451
967.443
960.864
969.982
961.851
967.392
970.231
957.729
958.032
967.020
966.333
966.118
957.799
955.232
958.885
948.071
960.760
959.887
946.776
951.546
954.925
955.370
952.569
938.089
939.743
950.338
939.965
938.622
940.318
947.265
941.157
933.632
930.427
928.629
930.012
938.313
933.839
938.292
927.506
920.882
926.341
920.266
923.744
926.807
926.981
922.002
