529.794
535.495
521.580
528.408
531.517
526.961
532.189
530.366
534.127
525.798
539.289
528.648
530.342
532.442
527.435
534.648
538.033
531.414
542.200
534.622
532.182
541.294
530.973
530.933
532.134
536.551
544.863
543.850
536.030
541.890
543.942
533.323
539.923
540.710
540.784
536.854
546.507
545.819
546.234
545.113
543.076
551.620
546.877
551.846
546.330
538.592
540.835
546.204
540.904
552.946
547.730
541.164
547.224
555.066
542.195
550.486
545.229
550.929
544.743
544.063
547.801
556.541
551.853
557.825
560.091
548.404
547.889
555.621
557.055
560.433
549.265
555.700
556.781
555.038
553.768
561.273
558.152
565.372
561.165
556.204
551.479
559.015
556.145
558.817
553.845
558.797
567.387
555.435
568.143
567.354
568.034
561.636
556.074
557.655
564.560
567.675
565.690
570.578
572.912
559.608
562.949
572.904
574.443
576.035
569.088
566.137
572.691
568.044
575.314
569.888
565.907
576.961
567.621
568.815
570.614
579.550
567.336
579.095
579.392
566.822
568.513
567.832
568.558
570.122
581.622
576.378
575.648
584.404
579.041
577.267
582.068
576.712
585.559
578.419
584.910
575.019
577.767
575.658
586.650
582.858
580.489
589.578
587.255
580.359
591.111
586.791
589.834
581.161
584.017
589.117
587.360
589.695
594.748
590.972
585.757
586.475
592.584
595.105
582.502
593.575
585.518
592.782
596.226
599.063
585.437
592.277
590.610
601.016
590.700
600.827
598.807
600.635
587.665
589.560
598.011
599.143
591.570
599.278
595.951
592.047
599.486
596.858
605.081
599.251
593.085
593.102
595.542
594.559
605.659
596.752
603.134
606.550
598.056
601.573
598.855
598.501
606.965
600.371
608.827
600.518
600.682
613.047
610.704
609.974
602.096
608.250
604.752
607.924
605.897
614.048
607.099
613.833
622.558
614.684
622.650
622.216
612.561
616.619
622.219
615.227
628.385
615.136
627.230
630.292
621.354
627.055
621.436
635.264
630.059
635.102
625.157
638.381
629.874
630.273
635.587
634.317
639.586
634.844
633.181
632.811
638.972
646.169
635.457
642.166
641.235
644.190
647.417
647.428
650.974
642.487
644.762
654.638
643.223
642.807
649.024
653.819
645.718
650.214
652.253
652.262
655.841
659.528
660.461
652.663
655.706
652.441
667.322
657.403
655.018
664.762
663.899
658.762
662.859
659.113
663.328
671.567
670.077
672.630
676.928
670.342
670.361
676.953
678.869
672.637
672.177
675.854
677.094
680.591
683.277
675.885
674.532
681.805
678.902
680.779
683.323
689.288
679.178
678.799
680.566
686.332
692.728
684.452
684.574
696.686
682.708
689.059
686.207
684.933
697.203
688.487
694.224
693.092
695.581
698.003
693.867
704.186
700.995
700.921
698.240
705.535
698.429
701.177
712.784
713.162
714.065
714.392
702.695
704.143
708.098
708.073
705.486
712.767
718.085
718.555
712.509
716.703
716.447
714.634
717.878
713.597
722.878
717.377
723.530
720.342
715.696
730.146
716.769
728.080
722.991
732.795
725.303
736.130
729.890
735.672
733.841
735.292
727.668
731.210
726.327
738.353
742.717
740.141
744.339
743.980
746.652
736.640
736.098
734.555
747.920
740.926
737.240
746.220
743.542
740.903
745.128
752.381
741.909
756.994
754.681
747.094
749.004
757.200
760.330
755.819
759.277
759.466
754.025
763.531
754.137
766.107
766.534
754.203
762.001
760.570
755.845
758.407
766.122
758.046
772.203
764.571
769.463
772.028
761.235
768.020
775.836
775.115
766.452
775.852
775.071
765.698
764.719
771.209
769.790
760.611
760.978
761.064
763.315
776.281
770.968
771.161
762.092
776.387
775.028
771.055
773.470
775.934
769.609
764.802
768.974
762.042
770.648
770.633
774.545
765.030
770.333
765.433
776.522
761.603
765.680
762.995
769.570
776.420
770.095
770.065
761.224
771.483
767.182
761.208
772.621
775.570
772.490
764.824
769.744
768.017
766.889
769.888
773.474
770.534
763.309
768.028
765.136
766.775
770.912
770.121
766.013
775.241
766.522
765.178
776.637
765.427
762.838
772.612
770.707
766.736
776.562
765.171
771.245
770.423
774.189
761.712
764.844
774.450
771.428
775.982
763.487
774.048
765.844
771.773
761.963
763.170
773.195
774.423
773.491
762.847
776.307
768.282
763.704
774.142
765.971
761.869
770.694
769.875
764.505
772.587
766.274
771.945
774.322
761.414
776.066
773.890
776.715
768.545
770.594
768.032
765.244
777.324
776.413
775.081
765.438
770.314
764.163
764.129
766.244
768.896
763.545
775.905
774.288
770.228
774.146
769.660
770.532
762.215
770.498
762.560
768.655
770.019
764.916
764.879
766.003
769.396
774.974
776.739
772.515
766.946
771.566
774.458
770.642
771.791
766.267
776.615
775.838
776.253
774.178
771.308
773.613
767.095
777.736
771.421
767.690
775.751
765.670
765.923
769.748
764.461
767.634
764.166
775.409
776.244
763.295
762.782
767.499
771.474
773.203
766.822
775.900
762.457
777.299
763.756
764.145
764.243
775.236
769.919
774.261
764.287
771.378
769.585
763.744
765.500
772.369
775.621
766.017
763.016
777.203
765.529
765.632
763.397
769.328
773.719
771.259
765.485
765.769
769.419
767.004
767.066
778.689
772.476
773.674
770.774
782.045
770.632
781.761
778.805
771.174
776.349
782.335
775.036
785.176
774.732
775.532
773.594
782.284
778.770
784.795
789.856
781.436
787.848
780.263
785.124
786.853
784.664
781.065
790.959
794.008
796.522
792.988
796.987
799.063
792.700
794.203
786.399
792.134
793.043
790.387
803.396
788.437
794.273
800.186
805.782
792.184
801.947
803.376
802.493
807.108
806.322
796.560
801.913
799.548
809.334
808.513
811.070
801.341
804.481
807.146
802.916
814.746
801.220
802.487
812.608
813.536
805.588
810.713
817.274
816.920
818.941
817.480
810.620
815.204
820.019
817.616
813.937
820.115
824.713
825.970
819.183
811.775
817.700
828.551
823.073
827.791
829.219
821.159
827.430
830.151
822.528
820.182
829.397
821.424
830.118
834.565
822.981
828.623
822.882
824.533
823.269
825.963
833.729
828.191
839.590
834.218
832.770
827.610
831.075
842.782
837.272
835.269
838.512
833.858
844.888
837.431
833.631
844.202
842.067
839.686
840.084
844.462
841.637
845.847
845.778
837.574
839.063
843.893
847.677
839.816
842.299
841.520
846.403
848.313
848.802
847.097
859.527
855.056
858.466
849.252
846.529
850.165
861.254
850.328
864.042
861.368
851.282
855.131
855.952
862.776
858.442
863.665
861.879
859.799
860.895
860.301
861.544
869.588
867.103
865.567
864.293
862.058
864.893
866.106
872.799
864.114
862.806
872.268
873.528
863.959
870.289
875.909
865.328
869.637
870.588
876.370
868.413
877.992
874.923
874.285
874.118
882.994
874.310
873.824
875.020
884.281
880.374
887.418
887.692
882.139
891.305
876.468
883.077
877.403
882.025
889.462
892.718
883.529
890.809
892.100
895.558
886.514
884.575
891.239
894.152
891.099
890.619
889.628
887.731
885.007
884.171
891.607
893.487
881.879
894.093
885.360
893.805
895.316
892.151
887.770
895.480
895.257
894.078
888.517
883.396
894.863
883.740
886.450
880.598
883.995
892.143
889.822
887.892
884.840
882.703
893.091
896.015
886.018
896.003
888.509
883.941
886.388
887.216
883.480
885.895
883.695
882.335
892.993
894.808
885.248
880.804
884.727
881.397
893.738
892.279
889.431
888.080
892.096
893.073
891.923
890.017
896.726
893.883
887.300
892.759
881.080
891.143
885.917
885.348
883.228
891.283
881.185
893.328
892.541
895.803
893.600
884.131
882.690
896.839
895.625
896.365
890.350
895.519
882.369
889.444
891.097
884.508
890.089
892.017
896.065
893.832
885.475
886.997
889.510
883.675
893.512
882.709
882.465
883.330
886.321
883.709
889.501
895.811
892.077
889.335
895.268
891.206
882.853
889.857
889.127
883.888
882.833
884.106
891.734
896.746
893.834
895.290
886.651
884.674
882.119
897.628
894.789
896.008
882.621
895.825
893.321
894.401
887.561
883.970
889.368
893.591
893.988
893.962
898.061
883.066
885.449
896.038
889.764
887.363
897.666
888.199
885.403
882.494
889.230
897.536
883.608
884.102
889.052
891.858
896.748
897.135
893.310
883.256
894.028
887.361
883.304
887.496
893.649
894.882
887.263
895.834
883.846
898.334
885.039
885.779
891.346
898.468
894.095
883.238
892.411
896.467
888.546
885.904
887.670
893.908
885.806
896.567
896.560
885.504
885.502
884.287
888.091
888.770
898.717
884.315
884.867
895.302
892.423
887.378
884.086
890.206
884.377
894.416
888.356
891.758
896.036
890.252
889.732
891.676
898.175
899.389
892.468
894.629
893.098
889.453
895.268
896.166
883.476
889.505
884.724
897.825
898.857
897.938
888.710
896.131
896.599
895.074
892.840
888.913
885.261
894.542
894.022
896.101
890.560
898.405
889.648
894.652
896.149
898.977
891.793
892.430
889.757
895.614
887.675
894.749
883.474
893.477
897.016
887.789
885.272
896.707
885.586
883.897
890.847
895.613
896.329
898.476
886.628
897.179
888.081
893.284
883.048
898.249
896.723
887.061
890.977
892.368
886.449
893.976
885.555
896.590
886.703
890.412
883.938
897.281
883.757
897.143
890.751
888.497
893.898
896.921
885.085
883.580
892.180
896.129
891.467
890.472
897.448
891.186
891.512
895.609
897.086
882.765
892.801
892.377
889.057
882.688
896.709
897.347
891.081
887.625
891.764
884.927
896.518
885.065
890.985
891.060
889.763
898.289
896.952
891.765
898.197
897.067
890.150
893.488
893.216
892.485
883.490
886.658
889.800
890.051
892.165
888.716
892.750
891.695
883.779
893.379
890.691
887.111
885.979
893.868
897.001
885.799
882.859
892.456
882.965
896.477
892.802
892.901
893.048
897.541
892.193
886.038
890.697
886.475
887.239
885.126
888.536
894.464
894.533
885.037
882.320
890.535
897.173
887.173
883.670
882.821
882.264
888.342
888.319
888.688
882.336
887.063
890.124
884.001
886.320
897.232
888.667
893.579
883.403
886.783
895.810
883.560
897.139
894.672
885.400
895.115
892.724
897.533
895.164
883.189
884.905
897.680
883.349
882.591
892.080
886.537
893.237
892.266
886.919
895.546
884.337
893.448
891.910
886.952
895.435
891.413
884.205
882.892
885.008
890.811
896.052
896.621
893.775
890.887
896.460
888.207
884.141
884.626
892.083
895.867
891.346
883.649
897.270
898.243
887.407
889.633
897.783
887.102
890.711
892.654
897.641
895.390
901.149
886.392
893.170
900.136
902.527
891.954
901.488
899.500
891.563
902.800
893.924
889.606
891.594
896.260
892.861
894.062
895.432
905.277
897.652
895.512
894.097
897.462
893.450
892.624
895.185
904.075
902.244
906.583
906.627
909.473
907.755
904.127
903.141
900.011
903.286
898.920
897.184
900.802
907.918
909.730
904.481
903.930
901.739
908.464
911.629
901.319
902.884
912.096
906.682
910.015
911.123
901.397
906.069
910.718
916.314
913.364
914.680
902.904
913.629
906.208
904.624
918.163
916.675
909.594
910.431
916.811
908.861
908.557
909.163
912.141
914.006
905.649
921.091
908.793
917.845
917.817
909.085
918.279
907.761
908.786
920.206
918.740
915.418
922.543
918.393
911.123
921.994
923.014
913.462
914.680
923.674
916.750
926.838
917.723
912.833
920.965
918.447
918.949
915.772
923.279
917.791
914.907
917.248
918.842
917.009
924.203
928.385
920.877
930.836
927.994
921.577
931.987
928.094
917.385
925.291
922.707
917.778
930.172
933.624
930.907
931.923
922.485
923.189
922.000
934.873
920.792
931.566
931.454
925.209
923.688
926.175
936.298
930.172
937.325
932.673
927.445
936.342
927.329
926.586
937.751
930.019
931.162
930.089
932.784
938.529
929.639
925.910
939.521
935.965
934.459
935.381
932.750
932.676
939.266
931.958
931.014
931.036
931.120
931.355
941.171
931.819
938.886
930.415
946.317
931.731
933.336
946.506
941.243
933.326
932.244
945.339
944.813
944.542
942.193
944.070
949.749
938.297
945.690
948.129
946.814
946.998
942.177
940.519
943.546
938.841
940.644
942.123
944.155
938.463
939.493
942.420
938.043
936.172
947.195
931.937
943.548
939.348
945.007
930.553
929.371
936.969
936.906
930.808
937.903
939.236
936.784
932.595
933.506
935.928
922.912
936.143
929.731
929.702
921.757
932.528
934.447
934.229
923.846
923.533
930.002
922.795
928.873
920.102
927.991
924.744
922.947
928.860
922.910
914.905
922.927
923.634
911.928
920.334
914.965
909.922
918.781
914.521
919.841
908.448
909.282
918.254
910.156
913.844
914.118
904.830
912.854
917.674
901.788
901.549
908.227
902.605
900.319
913.410
904.212
908.211
910.482
902.655
905.507
902.499
904.111
908.708
896.876
900.006
896.241
892.587
903.625
891.414
891.542
896.755
900.691
891.682
903.186
895.550
894.162
891.743
890.171
897.461
891.357
892.416
883.369
896.886
890.749
882.305
884.149
890.191
880.857
895.223
886.702
885.703
891.638
886.383
885.417
877.621
887.096
877.056
889.269
876.213
886.849
885.198
884.907
873.627
882.618
876.224
885.636
874.710
875.703
883.692
881.999
878.736
876.608
866.351
874.655
865.323
874.266
870.491
874.330
878.050
875.384
863.265
866.121
861.328
873.452
870.378
866.940
861.866
871.754
868.846
861.759
865.128
870.492
855.316
854.437
855.703
863.005
854.153
861.604
864.516
860.815
859.822
851.070
852.768
861.934
856.808
859.491
856.221
850.488
851.325
847.491
851.162
859.923
850.556
845.390
852.875
851.009
855.925
852.746
853.008
847.572
845.513
849.050
850.275
847.959
841.880
840.126
849.382
844.754
849.630
847.076
841.037
837.773
847.173
843.512
843.730
832.486
834.933
834.985
841.411
840.752
843.879
833.010
838.333
833.484
834.940
831.301
832.315
826.293
827.401
839.147
828.605
837.012
830.344
833.316
831.964
833.282
827.206
828.973
837.715
833.554
824.472
825.553
835.161
833.980
832.533
822.818
823.117
830.454
822.694
833.662
826.194
827.599
829.044
830.044
833.082
831.544
832.308
830.206
822.429
836.289
834.121
824.567
831.427
833.611
836.242
820.434
822.250
834.390
831.401
822.324
833.011
821.208
829.994
830.609
825.894
830.169
825.974
824.068
834.033
826.386
822.364
831.510
827.470
825.758
829.123
826.069
819.824
818.890
827.094
825.494
827.029
831.397
817.297
827.373
817.115
821.717
821.310
829.173
831.550
831.252
830.065
824.375
826.471
827.686
822.870
815.955
823.643
816.020
830.172
827.577
817.862
823.771
816.244
824.535
817.429
816.484
821.930
815.377
818.692
818.493
825.772
816.083
814.284
816.974
822.922
821.002
818.844
820.823
819.243
821.635
815.939
819.408
825.987
826.739
816.483
825.383
823.542
826.107
826.648
821.480
816.795
825.926
816.658
824.213
822.970
811.046
813.411
818.228
824.827
819.410
820.417
815.934
819.742
815.266
821.353
819.432
819.140
812.304
815.650
809.582
813.167
823.689
815.015
822.820
818.748
824.076
819.545
814.931
817.488
815.309
815.348
822.116
820.970
820.026
810.772
820.391
809.875
812.943
814.362
822.135
814.392
808.083
808.526
816.761
814.595
807.221
808.689
815.447
810.840
808.408
815.056
814.187
816.431
809.475
810.936
819.602
819.035
810.700
816.645
820.009
816.003
807.174
810.241
819.233
807.814
819.275
810.341
813.663
809.880
819.116
804.996
813.510
809.627
807.249
811.149
809.648
813.863
816.007
805.910
811.500
812.549
812.307
812.240
802.627
804.357
804.359
813.044
810.976
806.780
803.633
789.601
797.735
785.095
789.560
780.044
784.105
772.192
781.290
767.223
762.174
770.407
770.551
764.285
750.679
760.807
747.591
748.350
737.193
744.508
746.436
732.246
733.774
727.613
724.930
723.651
713.775
714.343
718.130
708.416
714.620
711.443
706.244
694.395
699.737
698.037
695.638
686.543
681.649
683.264
677.230
671.533
664.694
661.734
671.615
658.274
653.283
650.691
648.319
651.561
653.844
640.571
634.579
632.014
639.820
625.285
628.059
617.632
621.100
611.835
619.421
608.099
611.793
610.260
605.252
598.270
605.185
591.467
585.534
590.983
583.995
579.675
576.903
570.984
571.121
562.193
569.657
562.193
557.869
550.699
560.308
557.207
550.272
539.350
545.230
536.881
542.431
529.718
530.025
528.121
523.043
518.568
512.657
511.112
513.345
508.625
503.629
504.826
506.897
493.976
491.995
482.925
487.211
478.454
482.158
470.591
473.419
464.498
461.717
466.661
458.338
453.315
451.039
453.284
457.263
440.016
440.643
435.220
437.006
429.510
426.835
435.734
424.245
425.057
421.363
410.679
406.642
414.495
414.174
397.455
396.659
390.143
401.549
390.827
388.323
389.969
383.313
384.600
372.643
370.810
371.539
370.880
356.349
356.641
353.379
358.847
356.020
352.987
347.774
340.093
340.924
336.923
331.596
329.716
323.766
319.680
314.931
310.317
322.026
313.003
305.300
313.477
307.701
306.054
297.972
300.501
294.812
295.008
292.054
279.581
270.534
282.283
271.165
267.690
270.357
267.844
256.011
263.287
254.625
243.964
241.964
240.519
244.140
245.812
229.020
230.873
224.486
230.617
229.028
218.734
213.760
218.343
216.384
205.912
204.372
201.556
201.156
