639.337
649.692
650.513
645.962
648.215
643.385
647.998
653.120
640.794
654.920
645.264
652.228
647.952
647.549
650.339
661.521
655.590
651.769
654.840
662.158
655.350
652.478
662.732
654.524
657.946
669.086
667.339
668.420
665.099
657.867
672.917
674.416
675.054
673.187
670.243
664.797
670.744
677.231
668.390
667.005
671.068
674.403
677.715
683.027
686.225
677.393
672.508
682.269
675.251
689.345
688.235
676.406
679.624
682.319
691.343
692.245
684.279
695.247
693.750
685.426
696.314
691.631
697.930
686.939
701.468
697.237
692.190
703.104
694.079
698.128
695.225
705.928
707.829
700.282
698.630
698.268
699.269
698.957
709.145
714.602
712.094
707.578
704.913
715.990
710.954
713.959
720.150
706.817
721.592
716.379
719.081
719.024
714.444
716.909
716.214
724.536
714.174
728.243
721.083
720.125
732.926
732.392
725.289
728.867
727.808
736.376
726.307
735.046
739.346
728.075
741.529
734.905
739.257
738.073
735.147
732.500
746.109
732.660
747.095
745.154
748.667
741.374
745.336
746.434
741.611
744.676
747.010
755.885
752.266
755.673
749.451
746.595
759.269
756.808
756.042
759.903
751.692
751.587
762.217
753.428
758.614
753.054
758.937
765.731
757.891
757.493
762.717
763.657
758.742
770.158
764.053
768.878
776.509
775.234
772.085
765.819
775.305
770.940
774.159
776.146
780.317
770.525
784.373
771.430
775.070
772.923
780.052
781.852
788.746
783.518
789.444
779.478
793.381
787.885
781.656
781.782
781.316
787.519
787.730
794.697
799.701
795.091
787.838
798.402
796.096
793.758
798.409
791.136
793.698
793.691
801.780
796.156
804.695
810.248
805.228
808.643
804.507
800.854
809.408
810.252
810.540
806.253
816.277
817.542
813.400
802.536
808.344
813.961
811.842
816.915
804.483
815.614
813.349
806.421
807.221
814.999
819.915
816.201
808.108
807.493
815.444
809.521
815.358
817.665
812.087
806.861
812.180
820.358
821.941
817.821
813.972
812.858
816.517
818.026
821.947
811.165
820.247
815.798
812.695
818.495
813.805
820.521
820.888
825.683
814.556
818.502
815.890
822.933
817.861
815.272
816.376
819.076
814.801
822.026
815.363
826.226
814.877
825.058
825.232
815.033
818.914
815.960
818.091
820.170
822.270
822.722
821.825
815.920
825.495
827.814
824.030
824.179
826.155
823.352
819.834
822.946
831.876
822.614
826.173
826.509
824.803
820.202
820.553
833.625
834.009
832.886
834.836
830.332
827.046
823.871
833.773
822.474
828.713
826.501
822.581
835.244
826.916
834.173
824.108
827.622
824.807
838.053
826.881
828.417
836.221
825.858
833.966
835.333
839.210
829.523
835.352
833.962
829.679
830.759
837.895
839.394
830.325
825.739
832.979
826.272
827.503
832.502
838.708
831.129
832.486
830.892
837.865
835.653
830.157
842.261
841.201
840.856
831.829
832.599
829.533
835.374
837.855
833.068
838.291
842.292
845.468
845.204
842.702
831.280
840.010
839.883
834.188
832.050
832.551
840.862
846.463
844.447
837.403
847.543
844.168
838.152
844.091
837.825
849.526
835.114
844.732
835.633
847.500
850.136
836.017
839.092
843.048
838.243
839.578
851.582
840.369
849.648
842.375
838.032
846.070
842.840
845.884
845.058
840.008
852.745
846.456
838.961
844.762
849.063
844.956
854.519
848.147
849.681
849.489
844.639
844.381
856.459
845.570
849.604
856.881
847.819
848.958
850.487
852.390
849.017
842.931
842.680
845.673
855.903
855.719
852.431
849.371
849.035
842.743
838.564
842.494
848.750
841.489
849.723
837.787
839.250
843.989
837.381
841.069
832.418
832.053
833.802
835.488
834.777
835.941
842.930
827.551
838.145
839.987
833.042
831.417
839.182
833.331
824.101
836.526
823.981
834.295
825.407
822.621
822.263
828.121
826.600
828.571
833.197
825.731
821.205
816.631
819.234
820.416
827.754
828.195
816.455
814.651
814.814
812.900
812.011
816.330
814.364
817.873
822.085
814.778
816.126
811.674
821.136
818.551
806.731
812.218
808.898
809.545
810.188
807.087
812.610
812.078
815.909
810.738
805.226
810.061
801.405
808.093
797.618
799.408
796.596
801.478
809.066
805.821
807.377
805.148
796.438
795.354
792.506
795.511
792.481
803.629
796.419
792.204
795.773
794.429
797.796
794.112
786.403
795.218
794.361
789.820
796.297
793.378
791.124
785.103
787.501
788.108
783.712
792.643
793.554
787.024
782.846
782.259
785.362
787.171
787.289
779.712
784.074
784.501
777.586
775.901
774.706
784.194
786.118
783.338
773.137
770.119
770.082
772.005
782.652
781.113
774.646
774.463
765.276
767.057
765.558
768.475
765.576
766.183
765.914
772.511
766.848
774.600
767.297
773.782
768.906
761.099
771.030
763.490
770.000
768.613
765.294
761.709
755.312
757.355
754.205
757.597
757.671
757.712
763.703
764.120
751.873
752.031
748.702
748.146
747.650
759.816
756.593
758.176
752.435
752.348
756.819
750.797
752.029
746.675
740.710
752.595
755.040
750.586
749.997
741.897
743.731
740.897
737.855
737.094
735.647
748.175
735.217
733.131
740.156
732.979
745.154
731.244
742.530
734.808
740.420
740.215
734.935
729.189
738.716
734.842
745.616
744.480
741.031
736.125
747.731
743.063
737.735
746.044
742.176
744.783
744.650
746.811
750.296
757.715
753.865
757.485
753.777
752.236
747.239
756.872
748.974
756.102
752.972
767.240
759.112
766.756
756.733
761.767
770.310
758.702
766.390
762.354
770.254
769.983
774.363
768.809
776.029
775.517
777.916
780.125
780.695
771.315
776.586
783.634
773.230
779.891
787.993
775.359
776.934
782.790
780.237
779.565
780.453
788.425
794.424
792.091
783.562
785.298
799.327
790.992
788.350
788.956
803.505
798.142
793.954
793.851
793.862
800.311
794.475
811.028
807.858
806.119
804.832
808.177
815.513
809.000
811.104
816.909
810.322
807.195
812.846
810.310
810.652
811.623
815.486
814.645
813.320
823.259
823.962
828.699
819.903
831.603
831.727
829.147
833.183
833.017
821.005
833.021
828.529
838.707
836.131
840.523
827.631
838.915
838.228
834.332
843.408
834.124
835.819
839.374
836.631
835.392
839.459
850.006
846.543
845.471
849.405
848.433
850.902
843.458
845.275
857.402
859.536
846.917
860.900
850.026
858.908
855.423
863.743
858.360
869.152
857.924
870.866
856.907
865.943
866.943
872.799
873.804
873.216
867.716
872.575
874.464
876.026
878.270
875.316
870.200
882.677
874.549
878.975
872.080
873.177
881.033
878.201
888.271
878.021
889.044
881.111
884.063
889.205
882.130
896.196
889.197
894.816
885.208
901.174
894.643
888.624
899.719
903.482
905.232
906.301
906.772
906.861
908.808
907.219
909.057
907.375
907.746
901.770
908.749
906.634
915.793
910.747
910.933
918.114
919.231
909.652
913.550
924.136
920.129
918.759
916.573
926.711
916.406
923.066
920.753
931.668
930.358
924.776
919.091
921.079
926.175
917.694
925.612
916.225
921.707
913.991
925.061
925.007
916.637
912.570
926.695
912.435
917.957
920.834
925.485
921.468
920.649
911.972
913.412
923.816
908.862
909.487
921.584
911.079
912.906
922.317
922.319
909.115
906.592
917.115
905.220
912.029
919.807
914.884
909.069
904.603
906.886
903.016
903.687
903.551
917.087
914.426
903.076
906.517
905.917
908.495
905.293
914.268
905.457
910.881
906.651
898.984
908.369
908.931
898.145
905.182
896.216
897.657
902.617
902.438
905.302
908.169
895.796
906.700
893.964
893.602
895.338
898.182
906.079
901.284
902.256
902.792
900.032
893.458
900.736
896.304
897.028
901.295
892.633
888.336
892.677
887.833
900.512
892.638
889.990
886.535
900.888
885.793
885.496
889.263
892.172
894.929
898.441
896.446
883.703
898.646
888.881
894.927
883.824
896.215
896.774
889.390
890.452
882.588
884.476
894.357
880.783
893.271
881.693
883.100
885.256
879.977
885.634
890.688
876.508
884.070
890.150
880.104
878.375
878.677
882.860
883.248
875.010
882.239
885.953
877.678
882.549
886.524
882.718
882.177
880.880
886.417
871.574
874.295
875.311
875.866
884.064
873.214
870.960
883.689
880.282
873.663
882.484
873.000
878.327
875.825
869.007
870.989
877.469
869.015
876.429
864.935
876.478
863.515
869.421
867.036
863.214
866.171
876.421
875.961
872.855
867.706
867.570
870.077
860.336
860.657
864.749
873.049
863.191
866.301
867.486
864.791
868.368
871.650
861.938
869.473
863.573
868.472
862.851
865.078
863.484
857.175
865.725
864.705
864.584
852.581
853.146
865.469
866.713
853.709
853.761
851.564
851.728
852.975
861.161
857.429
853.489
859.548
858.848
854.658
860.305
847.947
845.223
855.444
842.413
853.612
854.776
839.126
852.073
846.042
843.984
838.936
835.441
847.590
838.941
846.621
844.794
838.338
835.369
842.894
835.012
829.785
834.330
825.439
825.580
827.191
822.952
827.493
820.963
834.426
820.369
818.033
817.955
827.043
830.223
816.112
827.171
815.105
818.196
817.728
824.628
810.744
812.970
819.527
811.714
811.240
814.164
807.834
808.768
810.102
801.971
806.789
802.957
808.353
810.063
809.955
804.874
794.977
804.465
802.211
799.468
804.320
801.282
799.514
788.377
791.820
794.087
789.268
795.946
793.432
786.385
787.366
782.729
784.589
787.881
787.352
780.461
780.685
785.562
784.843
777.376
778.791
778.708
786.138
773.546
769.413
781.899
768.747
780.375
767.973
765.771
778.262
777.575
763.437
776.878
767.031
764.214
764.894
769.680
766.937
760.077
757.012
769.510
760.549
767.552
766.986
762.874
750.918
757.683
755.103
750.371
755.555
749.114
759.449
758.021
751.301
755.402
744.465
751.416
748.069
739.482
741.280
744.114
736.808
742.354
747.594
733.712
745.442
731.440
731.335
733.936
743.214
733.770
726.934
731.019
735.749
739.045
733.345
731.918
733.003
730.673
729.011
734.246
719.880
732.203
725.973
727.417
722.595
726.803
719.074
715.578
721.908
722.586
718.312
711.565
720.983
715.342
720.490
707.434
707.445
704.926
709.729
715.058
706.355
702.388
703.998
701.499
705.381
697.157
701.395
702.381
704.910
705.109
696.666
692.343
698.232
699.266
697.931
689.759
688.538
694.577
690.249
697.907
694.955
683.450
683.399
695.274
688.943
685.192
678.068
691.314
684.069
688.770
674.900
677.520
672.528
671.550
685.999
684.002
683.052
689.182
684.862
683.500
689.450
681.707
690.118
683.728
683.635
694.338
686.101
697.291
693.002
688.843
699.293
689.470
697.418
695.279
692.159
693.389
703.137
698.111
695.424
704.797
701.028
711.093
711.316
709.007
707.188
707.132
716.235
703.609
718.098
707.828
710.268
710.606
710.830
722.608
722.267
715.384
717.862
723.489
727.797
714.369
726.740
715.120
716.893
732.046
726.273
719.034
727.144
720.800
728.194
724.979
725.101
730.624
725.237
737.125
728.725
736.308
744.504
737.777
732.182
745.584
739.444
743.087
739.342
739.802
745.204
743.679
738.816
742.517
747.402
746.250
751.775
745.330
752.304
755.378
757.909
759.203
754.599
763.715
755.559
760.192
751.247
767.313
768.446
764.876
759.556
757.398
768.895
770.773
769.987
762.165
760.660
768.304
778.001
768.944
775.004
769.809
781.694
769.241
783.617
770.424
777.834
782.757
782.719
779.497
780.599
777.370
784.340
789.136
781.340
793.559
782.927
785.204
781.799
792.957
794.337
792.879
800.414
791.185
801.305
801.874
802.374
801.566
804.780
791.732
792.049
802.814
809.002
803.049
799.460
803.929
813.389
806.484
804.177
816.021
811.082
811.243
804.371
808.589
820.032
815.678
821.064
813.392
811.110
823.104
811.576
816.545
822.896
825.156
818.209
818.688
828.139
819.624
830.957
826.708
828.837
823.889
827.616
831.079
831.475
827.856
830.016
831.061
827.515
839.980
844.957
831.269
838.437
841.338
839.551
848.874
837.426
844.512
849.752
847.635
852.470
842.648
856.171
848.873
849.216
847.875
856.510
855.773
849.810
849.170
860.280
858.404
863.196
855.386
865.942
867.326
866.439
862.428
862.873
861.162
859.673
870.830
870.040
872.027
867.265
870.325
874.821
877.994
873.520
873.316
879.775
883.033
876.760
882.089
891.557
889.705
888.697
884.703
896.478
899.168
894.021
892.808
900.991
893.252
896.960
893.508
902.706
902.845
896.792
909.610
911.507
915.151
901.509
910.624
904.696
917.957
908.619
913.164
916.043
920.073
925.844
920.750
925.399
922.702
929.269
922.554
936.061
924.770
936.440
937.613
929.092
936.915
934.850
938.479
944.392
942.006
949.150
943.400
948.511
943.797
940.453
944.691
958.124
945.322
960.787
947.273
957.133
956.714
964.525
964.508
960.890
957.930
965.287
963.398
963.591
974.756
970.796
976.069
975.614
971.996
982.294
979.152
980.383
982.846
986.995
977.554
980.778
979.287
987.198
991.913
988.585
991.545
987.546
988.456
993.518
999.510
989.472
993.529
995.048
997.427
1003.912
1010.936
1001.239
1005.596
1015.192
1015.461
1010.901
1015.802
1013.118
1014.532
1011.854
1011.277
1017.550
1026.318
1023.247
1023.468
1024.374
1024.935
1030.882
1024.038
1024.388
1035.889
1027.987
1032.285
1030.135
1042.252
1034.513
1031.541
1048.568
1046.939
1036.586
1036.815
1049.335
1053.030
1040.922
1052.325
1043.805
1045.326
1050.876
1060.907
1054.026
1055.667
1061.792
1058.195
1059.801
1060.094
1064.660
1059.074
1069.138
1071.772
1075.494
1069.805
1078.803
1072.984
1069.925
1079.010
1085.644
1078.157
1077.039
1085.444
1078.929
1089.925
1083.918
1084.419
1089.512
1086.409
1092.023
1099.230
1093.613
1101.650
1094.889
1106.078
1107.446
1103.143
1105.218
1098.950
1108.918
1104.322
1113.089
1118.141
1110.630
1121.010
1114.596
1110.680
1110.860
1117.078
1118.075
1127.416
1118.372
1121.862
1121.493
1128.601
1125.637
1137.149
1126.117
1124.742
1125.757
1140.166
1131.427
1132.905
1133.808
1131.490
1130.319
1128.141
1124.811
1126.058
1126.157
1135.891
1124.745
1129.948
1122.866
1130.829
1130.776
1115.100
1116.098
1118.207
1122.665
1124.912
1120.267
1121.666
1111.853
1114.186
1108.279
1118.679
1103.399
1102.759
1103.124
1113.993
1107.671
1098.420
1111.404
1102.611
1096.449
1093.938
1105.614
1094.384
1096.494
1103.950
1099.175
1087.381
1100.338
1085.072
1085.564
1094.223
1083.454
1082.217
1079.530
1078.218
1086.374
1086.953
1082.522
1085.127
1075.515
1086.556
1076.539
1079.147
1082.117
1069.007
1071.102
1065.179
1068.553
1071.665
1062.111
1072.447
1060.741
1066.371
1072.358
1068.514
1066.218
1069.233
1061.059
1057.558
1055.922
1057.975
1058.485
1056.317
1057.951
1059.355
1059.398
1047.959
1051.913
1041.534
1042.856
1046.618
1049.671
1052.204
1038.603
1043.384
1045.199
1038.636
1036.809
1035.398
1034.038
1034.532
1030.706
1039.735
1030.862
1027.063
1035.538
1033.167
1034.112
1023.632
1019.122
1022.020
1022.848
1029.207
1021.384
1020.022
1023.889
1019.669
1018.188
1017.122
1019.297
1017.243
1021.052
1004.326
1005.849
1015.661
1001.383
1013.044
1003.058
1003.008
1002.887
997.451
1000.222
1003.786
1000.291
1005.213
1000.124
993.327
995.836
999.169
990.676
992.525
998.845
992.339
992.609
993.223
985.909
983.763
992.596
977.627
983.102
985.083
980.333
978.216
974.643
970.704
981.278
972.578
979.365
965.764
977.820
967.092
963.198
961.957
962.752
967.641
971.434
962.506
958.135
959.350
956.669
955.522
951.958
965.295
955.154
948.553
958.846
956.910
958.710
946.101
947.168
946.702
954.846
940.353
941.605
949.124
940.392
939.561
947.489
933.809
943.484
942.780
940.683
930.168
934.003
926.361
926.862
924.401
928.280
927.082
935.398
922.229
919.694
923.457
928.499
915.036
923.734
927.812
924.914
911.188
913.413
902.300
906.307
896.123
891.501
899.189
892.719
894.809
882.698
876.688
884.737
883.640
868.644
866.823
870.177
861.538
869.188
857.142
849.529
851.674
851.236
853.233
845.398
835.782
844.245
826.519
826.941
827.092
822.611
816.776
818.692
812.273
819.114
806.511
809.028
801.712
798.116
790.070
797.122
792.713
793.552
776.670
778.371
778.093
771.369
777.522
765.919
767.535
759.082
751.913
760.311
753.315
745.777
747.244
750.836
741.049
741.476
740.176
727.227
723.098
725.004
726.201
713.715
714.255
715.391
709.067
701.039
698.438
699.844
700.576
692.009
687.409
689.089
682.481
687.516
677.105
675.154
665.331
675.134
660.821
665.130
654.702
653.680
654.557
642.897
652.036
640.893
636.593
634.427
630.697
635.583
626.096
620.935
627.500
615.354
610.188
615.871
603.078
604.430
609.687
603.892
592.989
592.091
597.309
588.922
585.115
585.461
582.209
567.426
571.246
569.992
563.857
564.105
552.565
548.899
546.439
548.355
552.696
548.514
547.427
538.678
530.944
537.029
528.381
517.760
529.623
521.291
512.004
517.349
504.275
504.765
502.302
494.885
503.698
490.696
493.438
492.411
477.817
476.439
479.113
481.841
466.941
463.225
463.728
456.683
459.546
459.091
445.505
447.733
442.283
443.883
442.975
436.164
427.179
438.333
431.596
425.346
420.397
422.070
418.746
408.008
409.298
404.495
397.939
397.663
402.250
388.029
396.054
392.918
386.181
388.127
370.395
369.259
369.204
364.289
373.107
356.675
356.973
355.905
346.248
350.438
339.202
351.879
348.727
331.061
336.155
330.420
329.137
319.942
326.754
317.241
314.558
307.628
305.791
305.564
298.783
303.834
