390.434
409.781
390.666
394.449
427.940
446.152
406.425
428.581
427.435
449.283
442.474
459.599
436.617
442.898
474.158
468.546
479.748
446.840
495.530
499.715
464.322
465.857
489.035
497.280
510.707
487.006
527.264
492.203
495.853
499.365
166.102
168.282
162.654
159.153
165.958
159.235
173.504
164.052
169.062
164.254
178.824
173.337
179.333
173.930
178.518
184.851
176.024
185.156
187.215
188.318
182.854
188.586
186.422
192.368
196.542
188.110
195.020
191.591
194.321
192.530
203.936
198.419
196.536
192.803
202.150
209.965
211.811
207.827
211.288
209.211
201.787
215.452
214.105
212.359
205.441
219.633
212.693
223.885
221.766
223.054
220.090
228.031
217.907
223.285
224.328
231.993
223.810
223.645
236.227
228.615
225.359
239.418
228.713
238.629
244.611
240.569
233.258
236.011
244.727
242.484
252.016
237.729
248.840
251.815
244.264
248.522
248.232
250.216
248.258
252.610
261.547
251.057
253.436
260.593
264.249
268.431
267.132
271.576
266.510
262.983
270.722
277.319
273.784
279.754
271.669
274.049
273.870
278.417
279.255
283.647
276.809
276.601
278.880
285.991
276.981
293.595
289.206
292.219
283.392
290.728
287.109
300.095
294.761
288.441
304.700
291.847
299.109
303.419
296.735
296.164
310.546
306.474
300.080
301.725
312.022
309.728
313.886
308.300
311.603
313.019
323.493
311.823
319.103
321.914
326.886
325.252
317.397
322.999
326.585
325.581
331.993
336.476
326.155
333.788
335.485
333.233
334.839
340.961
330.110
342.788
335.486
344.717
345.815
336.105
351.565
346.969
352.913
344.336
350.977
351.551
359.316
354.339
357.702
358.824
362.561
355.010
356.652
360.213
365.681
358.082
356.926
360.095
372.904
360.789
366.918
361.833
374.875
374.132
370.406
371.137
376.990
368.338
368.339
366.177
372.770
372.785
378.472
378.408
374.658
384.771
383.256
384.596
374.708
381.770
388.367
381.811
385.638
379.445
383.720
385.163
389.387
393.012
394.481
389.951
396.058
395.964
388.891
387.313
387.777
398.741
398.853
399.808
396.616
388.326
390.774
396.206
398.793
396.901
402.709
404.303
406.012
403.874
407.303
409.914
401.198
406.151
397.497
405.920
411.659
399.695
407.142
401.210
412.277
417.449
416.746
406.428
411.571
417.386
414.826
417.369
407.160
408.024
421.519
409.425
424.160
418.461
411.447
418.344
424.585
414.540
420.190
415.727
421.660
418.809
431.591
423.757
423.505
431.630
424.111
430.184
430.321
436.563
429.465
433.976
431.935
432.895
426.421
428.455
431.355
435.229
435.558
444.781
432.977
435.594
445.127
435.110
438.769
438.433
448.696
451.086
447.586
440.375
448.155
450.615
452.288
442.467
454.828
455.956
456.843
451.634
450.067
449.738
445.458
449.011
453.323
460.048
456.055
459.819
458.210
451.254
465.130
457.061
467.413
456.863
454.844
458.167
465.828
456.851
458.238
472.331
472.007
468.359
464.359
462.608
463.544
476.898
475.114
470.121
464.320
474.515
477.885
476.236
479.917
480.235
477.675
471.455
476.652
480.818
473.725
486.035
484.202
479.364
475.465
488.666
486.531
490.693
487.007
493.266
479.539
489.080
483.879
490.583
483.037
492.866
489.419
485.685
485.106
500.712
489.253
490.603
497.522
502.312
499.577
501.882
491.226
498.833
499.245
497.034
507.243
497.108
510.459
500.074
496.682
511.752
512.164
505.155
513.363
514.532
507.842
502.651
513.217
509.716
511.727
524.750
526.700
515.450
516.081
520.260
521.662
528.766
537.714
528.750
537.857
537.530
549.950
550.911
539.886
541.464
549.214
552.184
554.664
560.018
556.826
562.587
569.079
571.753
575.474
567.388
576.009
572.469
581.571
585.529
581.962
590.646
592.015
595.167
587.322
594.620
590.807
598.109
602.422
598.329
607.346
616.316
603.336
609.759
621.402
611.667
619.992
627.879
623.347
619.709
624.866
639.009
640.141
629.601
646.159
646.282
642.457
643.432
655.299
648.875
647.396
655.449
664.518
652.481
659.600
669.054
668.246
673.096
674.106
672.183
681.524
678.254
671.569
682.269
685.700
688.732
690.886
695.786
685.786
697.676
694.105
703.017
695.142
712.069
702.942
713.998
705.219
706.915
723.362
714.225
726.028
724.356
724.535
720.712
737.838
724.758
726.756
741.779
737.937
741.772
748.003
751.885
750.112
745.201
749.138
757.683
757.972
761.161
763.521
771.056
766.515
770.699
770.619
779.523
770.413
773.810
786.927
781.010
783.537
786.470
791.473
792.867
799.584
789.046
800.381
800.131
803.274
805.013
810.387
810.290
807.016
816.065
822.132
822.112
817.114
817.288
824.755
827.478
838.327
837.907
841.837
839.245
833.444
837.917
843.343
840.672
849.458
847.083
861.105
863.639
853.691
864.994
860.293
871.046
865.528
866.621
874.514
871.946
876.643
878.661
883.770
884.737
890.244
880.168
883.968
884.927
893.062
903.836
900.750
897.599
899.000
906.489
900.587
904.873
915.232
922.673
911.068
916.111
922.411
925.708
922.132
932.052
928.772
940.109
928.142
931.548
932.842
949.064
950.544
946.786
941.907
950.087
947.973
960.852
964.392
964.761
956.848
965.855
964.520
966.925
965.494
957.492
957.301
967.965
966.449
955.720
957.855
952.564
952.651
956.781
943.017
949.558
953.592
943.514
945.270
938.804
943.329
932.255
942.185
943.624
937.421
940.984
932.851
926.018
932.824
928.953
933.730
929.076
930.513
916.618
919.541
927.023
911.857
919.861
914.834
921.070
909.675
907.607
903.697
908.868
910.269
900.810
898.725
906.156
903.421
900.012
899.259
897.017
898.866
899.357
896.417
888.730
896.129
884.644
883.638
886.506
875.132
882.786
886.418
872.283
883.364
872.550
866.140
866.155
867.762
862.461
861.894
866.502
865.431
858.644
861.763
862.752
858.574
861.488
859.175
857.401
850.438
856.379
847.620
856.239
855.318
839.686
841.130
836.548
836.838
844.408
843.153
837.318
828.574
838.533
835.562
824.788
831.332
834.307
824.357
822.944
830.119
828.868
814.348
822.643
815.074
812.133
819.275
818.580
810.554
803.531
805.504
812.292
811.157
807.467
799.917
804.871
806.089
805.360
794.836
799.150
800.195
786.779
788.916
790.216
789.732
780.533
793.879
790.844
779.212
776.432
779.357
777.790
775.191
775.384
778.599
771.641
778.458
769.285
773.629
760.425
763.425
759.492
757.155
758.759
767.208
756.462
763.351
750.567
749.868
746.209
754.288
744.676
739.936
751.158
744.812
739.002
746.660
743.639
733.495
732.053
731.146
733.796
730.548
731.818
728.932
721.147
734.159
729.539
730.949
716.646
716.042
724.677
714.324
717.704
711.560
717.314
710.039
716.442
702.930
700.616
708.851
705.585
696.740
698.712
708.341
697.740
702.337
694.171
687.473
690.987
688.877
683.538
695.821
692.010
691.976
678.483
676.088
687.071
679.212
673.054
683.620
679.938
679.403
678.519
671.395
681.335
671.322
674.469
675.458
687.108
680.325
675.081
687.625
684.779
687.905
691.290
691.474
679.119
692.212
683.331
683.665
685.543
695.055
689.768
689.106
693.485
693.086
695.022
687.939
702.753
692.718
694.845
695.188
694.939
697.657
702.389
706.192
703.166
703.237
709.499
705.237
705.820
712.220
702.276
705.602
710.128
707.922
705.403
704.059
718.475
714.719
708.534
716.969
718.450
723.766
719.110
713.417
717.869
718.555
725.276
721.289
725.604
720.942
721.514
732.631
723.860
721.463
727.745
727.149
725.256
725.902
727.015
731.840
731.548
730.004
737.866
735.401
730.253
735.662
736.280
735.797
733.081
746.782
742.220
746.684
741.679
739.960
748.115
739.369
752.455
743.462
747.557
748.410
743.845
744.793
748.338
743.987
754.024
748.890
748.136
753.842
758.711
754.440
758.094
751.580
750.954
753.882
764.200
758.990
754.666
767.942
770.346
757.862
765.053
769.587
761.568
760.348
765.278
766.578
765.967
762.832
764.391
770.275
767.649
772.127
767.573
769.979
772.433
782.552
779.461
774.145
780.209
775.412
774.966
788.444
781.477
783.815
777.436
790.213
782.524
780.079
784.101
793.398
794.139
794.307
795.094
789.496
788.935
791.443
786.056
790.968
801.235
794.971
798.688
791.411
792.359
793.797
799.161
797.700
805.733
799.232
801.132
797.983
807.874
805.439
804.211
806.260
807.672
801.923
804.717
804.271
804.092
817.851
807.244
812.809
814.473
820.985
812.149
824.415
818.025
817.098
814.867
818.478
825.081
826.861
818.323
816.286
825.680
824.453
830.449
832.740
820.827
826.511
828.430
827.361
823.550
836.418
827.208
832.158
831.712
828.235
834.546
841.352
833.108
844.429
830.928
843.842
844.474
835.294
843.947
837.859
848.315
838.467
840.439
848.853
838.443
845.346
845.678
848.645
850.123
850.429
842.188
852.504
845.598
838.364
847.213
846.166
850.861
840.738
846.738
848.398
853.536
847.806
857.942
845.830
844.055
850.590
857.811
857.514
852.041
846.446
846.592
850.919
852.678
857.390
850.962
853.832
855.485
857.215
860.728
863.136
865.333
852.441
860.041
854.064
867.199
867.567
854.835
859.232
855.701
867.185
857.725
861.876
862.019
862.757
863.219
870.265
864.534
859.450
871.845
858.645
869.146
867.418
861.704
863.359
870.268
869.154
873.746
877.010
871.529
873.116
876.392
870.640
871.376
874.914
866.423
873.477
877.802
875.146
872.711
879.291
881.965
874.309
881.622
880.325
880.567
881.833
883.901
875.383
872.775
886.037
877.126
873.281
888.026
873.065
875.532
888.972
887.583
887.522
888.546
886.333
876.624
890.603
886.386
881.278
888.835
878.721
883.685
878.700
890.688
886.933
888.374
885.081
891.200
893.985
890.792
886.511
895.617
893.684
885.940
899.148
895.063
886.000
898.659
890.724
898.097
890.490
900.096
890.290
888.422
897.924
902.258
891.271
895.375
896.832
891.885
901.991
894.430
894.926
893.030
896.832
895.294
895.246
899.909
909.150
910.488
899.410
896.881
902.593
906.574
896.882
901.527
902.114
907.796
903.069
902.904
900.936
908.823
913.279
909.357
907.473
914.437
908.689
914.889
917.881
913.268
905.681
906.322
916.165
920.517
912.383
916.631
910.236
909.087
909.388
911.101
912.457
913.921
915.252
911.577
913.653
917.730
916.563
917.876
918.409
927.415
927.967
926.241
917.073
920.985
919.372
920.969
930.596
929.211
925.763
917.447
928.578
929.078
922.194
934.006
923.357
929.528
924.274
931.348
932.326
933.409
926.041
927.011
941.840
942.084
938.371
934.512
931.121
937.891
931.278
943.732
937.670
942.660
943.040
949.602
941.972
944.999
944.419
947.289
945.247
939.386
940.842
945.081
942.656
946.893
952.107
957.164
948.281
943.982
946.205
948.081
945.985
958.219
962.040
954.579
949.761
956.062
965.734
951.436
951.641
952.479
964.185
963.127
958.662
962.581
967.810
959.732
963.535
972.422
959.261
968.890
969.380
974.347
968.451
973.156
976.921
967.011
965.948
977.176
973.558
968.153
976.777
981.047
976.710
973.519
973.911
975.170
976.198
976.819
979.880
981.205
974.737
980.305
979.038
985.676
986.145
989.869
987.345
983.745
980.575
991.019
991.143
993.040
996.330
986.295
989.402
990.194
987.327
988.941
996.168
997.968
992.478
992.610
992.590
1005.360
999.029
997.245
1000.554
1000.382
1003.407
999.712
1003.527
1010.026
999.203
999.722
1007.808
1009.001
1012.654
1014.532
1002.987
1002.506
1003.782
1006.742
1016.990
1016.544
1008.231
1019.056
1006.353
1014.818
1009.414
1022.618
1015.280
1016.895
1012.909
1011.404
1022.409
1021.380
1024.620
1021.431
1029.530
1024.179
1019.638
1027.242
1028.087
1026.764
1025.729
1028.010
1024.655
1036.055
1029.952
1023.866
1033.257
1037.263
1039.660
1026.637
1037.519
1027.405
1035.017
1041.264
1037.742
1044.947
1043.796
1034.604
1047.548
1032.825
1035.940
1034.351
1037.387
1049.447
1046.118
1047.770
1053.051
1039.025
1043.293
1046.441
1050.932
1047.233
1046.476
1053.017
1048.967
1057.898
1053.775
1046.358
1049.869
1058.300
1047.457
1052.705
1058.887
1061.653
1058.435
1065.860
1053.826
1053.138
1062.389
1061.239
1055.916
1066.426
1069.143
1058.599
1053.379
1052.549
1059.790
1052.757
1047.788
1049.114
1053.455
1052.328
1043.538
1039.114
1051.164
1038.736
1045.824
1035.742
1046.225
1042.107
1044.256
1031.501
1031.495
1034.499
1030.832
1025.971
1024.000
1018.408
1025.543
1024.375
1028.164
1018.327
1019.257
1017.928
1021.995
1016.297
1004.601
1004.768
1008.544
1013.784
1011.097
1000.354
999.611
1000.183
998.898
994.830
996.183
993.339
997.319
992.642
995.889
997.062
985.566
982.467
993.179
984.462
980.103
978.198
974.786
979.772
983.511
969.643
969.233
971.546
966.734
962.704
972.067
959.002
964.788
962.165
954.519
960.234
962.300
961.792
957.078
959.027
952.120
945.148
945.784
952.328
950.249
943.301
950.608
943.007
937.029
940.955
933.254
932.952
928.430
930.710
933.459
932.444
928.818
923.002
919.861
916.296
920.111
923.122
915.346
915.662
921.478
915.473
914.134
909.075
911.900
914.499
913.563
898.256
907.411
901.716
893.662
905.345
898.456
904.338
891.790
889.076
889.586
884.967
896.359
887.795
885.576
880.639
890.409
884.272
880.753
883.111
875.661
881.311
876.664
875.310
863.012
870.664
873.446
858.373
860.065
864.166
857.110
865.646
862.750
853.874
848.602
862.097
847.926
856.900
848.383
856.202
853.138
842.112
843.227
844.683
835.154
835.565
834.144
842.818
832.908
837.182
838.148
828.609
828.114
826.979
829.536
823.472
824.900
814.031
819.594
824.286
822.372
813.828
813.524
807.103
815.467
816.741
802.641
807.801
798.902
800.714
802.146
806.666
804.128
792.351
788.403
790.908
793.538
787.385
783.522
783.137
780.731
787.435
788.253
779.771
777.898
780.430
777.281
777.315
768.549
766.969
771.155
772.666
772.411
760.140
768.070
762.925
760.774
762.301
766.919
752.858
752.430
762.820
763.783
754.723
756.208
752.373
758.644
758.231
761.296
755.199
755.398
759.482
756.688
754.603
753.764
756.631
741.233
744.526
750.956
750.017
747.822
744.065
745.748
748.494
746.201
745.096
738.400
747.072
734.350
740.902
733.828
737.373
743.049
741.308
739.781
736.625
727.420
736.364
733.827
738.140
735.324
729.428
729.825
730.248
721.489
721.695
727.893
728.303
729.276
727.418
731.900
728.844
728.576
727.446
730.098
714.988
726.797
727.989
717.819
720.532
719.751
724.836
708.678
711.020
714.414
720.393
715.763
708.788
707.305
710.900
704.989
716.380
709.318
716.415
712.490
704.818
713.781
704.582
711.016
699.408
707.431
709.406
706.402
705.073
705.441
694.597
706.723
703.212
698.718
700.578
701.340
702.338
699.805
688.859
699.629
698.911
691.524
695.942
698.213
690.578
691.004
681.823
691.544
683.305
684.781
691.236
689.431
690.749
684.825
689.395
686.900
689.343
687.345
683.443
677.797
679.896
681.886
683.015
685.343
674.793
671.084
676.040
668.965
671.075
675.225
676.740
671.311
666.300
670.568
671.436
664.384
675.686
665.920
668.013
662.028
673.399
659.591
662.166
658.604
670.669
664.685
667.419
664.269
660.111
663.943
654.740
653.747
653.221
651.796
655.831
650.936
656.728
653.167
648.686
648.709
645.833
645.655
645.294
646.052
649.490
647.487
654.339
641.158
639.031
646.122
646.206
637.328
649.112
644.590
637.103
648.137
641.658
642.469
643.273
646.426
640.643
638.570
640.543
641.523
641.839
642.058
631.261
629.754
631.600
632.930
632.170
638.205
632.132
628.307
634.860
620.507
625.767
623.035
623.306
628.057
621.659
624.354
630.251
624.727
619.619
631.652
636.527
624.494
627.332
629.904
626.021
632.877
639.855
644.481
644.633
632.419
644.689
637.869
638.493
640.664
650.237
642.435
642.368
640.087
651.347
642.647
653.526
656.409
645.537
649.746
660.435
661.239
659.895
655.716
656.170
655.532
668.803
662.823
668.112
658.845
670.021
666.274
675.635
674.104
663.687
671.734
679.656
675.978
673.035
680.989
673.388
684.878
683.951
680.071
675.044
682.076
682.464
689.239
692.501
689.980
695.738
695.869
689.987
695.983
692.226
686.195
691.740
690.801
693.128
702.575
697.409
698.211
699.332
695.409
695.858
710.903
702.963
701.211
704.317
715.490
711.952
711.326
720.244
712.009
720.769
717.756
716.328
716.707
720.181
725.184
721.086
723.883
727.748
722.862
731.146
734.035
729.700
723.978
730.099
725.155
733.706
729.131
726.387
727.374
737.714
736.973
741.457
733.326
733.204
740.091
749.754
747.044
749.938
747.222
751.785
750.273
752.530
750.843
744.300
747.439
758.083
749.899
757.966
755.128
750.804
756.288
767.806
757.314
765.128
759.898
769.640
763.661
774.300
767.339
772.196
776.613
778.682
778.240
779.517
777.998
768.522
770.300
775.136
779.352
779.347
773.613
786.336
776.498
780.944
779.060
786.751
780.440
789.778
788.769
791.188
795.221
785.771
794.947
790.226
790.281
792.416
805.226
798.345
796.447
800.850
801.364
801.739
813.044
799.532
803.040
815.165
803.794
814.047
819.716
807.097
814.205
809.655
821.914
812.539
811.528
813.764
817.292
827.544
817.541
819.345
830.978
827.461
834.838
830.843
828.313
833.656
825.456
833.204
840.337
827.927
842.758
836.133
839.623
841.010
844.815
840.767
