1139.134
1147.011
1141.531
1140.738
1132.958
1138.989
1137.355
1129.895
1137.186
1132.692
1139.829
1136.691
1139.785
1139.103
1133.066
1128.807
1130.096
1137.317
1126.941
1131.624
1131.272
1139.719
1129.560
1133.401
1125.773
1131.519
1139.034
1134.457
1127.038
1134.130
1136.315
1121.637
1134.075
1128.679
1133.334
1125.982
1129.832
1121.322
1129.621
1131.848
1124.355
1123.333
1123.338
1122.378
1130.657
1121.742
1123.401
1130.298
1117.568
1122.846
1130.708
1129.032
1116.103
1128.256
1119.853
1115.406
1124.176
1113.804
1124.868
1118.559
1114.912
1115.937
1120.282
1116.301
1125.369
1114.853
1119.183
1115.909
1118.541
1109.319
1122.221
1119.494
1118.130
1110.094
1107.409
1108.361
1120.024
1114.003
1120.151
1111.431
1117.522
1107.313
1112.620
1119.072
1110.585
1115.387
1106.911
1116.097
1107.216
1104.787
1113.457
1111.754
1108.836
1109.670
1113.853
1105.243
1111.761
1112.367
1114.733
1113.733
1113.092
1098.328
1108.884
1104.619
1112.193
1102.838
1108.195
1111.490
1095.978
1110.674
1106.817
1099.252
1103.935
1098.003
1095.708
1098.907
1108.625
1103.107
1102.271
1103.224
1105.574
1104.368
1103.864
1103.764
1096.899
1105.211
1098.317
1096.342
1094.920
1092.445
1097.710
1092.385
1089.725
1096.394
1099.637
1096.110
1088.500
1096.504
1090.093
1087.493
1095.274
1089.014
1093.824
1091.785
1097.926
1090.188
1086.918
1083.705
1095.769
1098.129
1094.121
1086.146
1089.007
1095.309
1083.450
1094.665
1088.497
1094.090
1083.903
1083.096
1085.211
1079.150
1086.536
1082.935
1089.095
1088.239
1084.667
1078.847
1086.327
1085.859
1086.343
1086.748
1089.989
1087.750
1076.265
1081.898
1080.615
1083.164
1084.187
1080.577
1085.943
1081.366
1083.845
1075.580
1084.283
1084.527
1082.537
1076.388
1079.469
1075.094
1082.644
1076.535
1079.948
1081.886
1076.818
1072.875
1074.029
1074.065
1077.400
1073.919
1079.560
1072.534
1068.487
1065.425
1056.834
1069.267
1066.754
1056.641
1061.058
1050.719
1047.200
1046.862
1045.774
1045.134
1041.829
1038.534
1042.283
1040.960
1026.729
1027.960
1027.127
1020.563
1023.631
1014.910
1017.698
1022.417
1012.739
1013.590
1003.614
1008.826
1010.289
1002.309
1007.768
996.360
992.067
996.453
996.134
991.069
991.409
985.615
979.540
979.993
983.324
976.293
977.188
965.724
967.900
971.371
955.351
962.369
951.469
952.332
961.666
950.178
955.082
946.064
943.593
942.049
942.863
939.170
941.832
929.448
933.089
928.918
931.779
929.237
924.667
921.528
913.185
906.828
904.764
902.437
903.031
906.264
899.129
907.204
901.035
898.320
893.900
890.370
896.473
879.601
881.541
877.166
872.702
880.441
875.092
871.577
868.258
873.801
874.461
856.635
863.860
859.569
861.587
850.733
858.445
849.594
848.340
851.124
851.550
833.306
832.361
828.755
838.968
836.901
837.522
834.168
827.066
817.540
819.147
819.821
820.452
813.229
806.446
814.727
809.742
812.411
799.678
803.340
790.370
794.524
798.108
782.947
786.153
779.755
778.493
777.923
772.904
783.467
771.961
778.529
762.276
774.382
760.784
759.906
753.126
757.123
757.804
757.988
754.539
749.782
754.127
752.807
740.348
740.603
736.697
741.850
731.218
735.627
724.650
729.733
726.484
729.287
723.480
722.443
717.697
713.692
713.794
700.799
704.316
702.437
694.604
698.040
695.148
693.172
699.706
688.613
691.778
686.341
676.301
683.274
686.118
676.066
675.686
663.396
673.503
660.661
663.101
659.467
654.379
662.524
660.640
648.675
657.966
653.182
650.859
640.249
645.200
638.797
637.544
633.536
626.874
637.046
625.495
622.978
619.884
628.697
618.154
617.902
610.510
611.969
612.140
618.622
613.844
624.310
617.299
628.328
619.971
615.401
629.060
623.473
628.743
621.344
634.362
625.633
634.675
630.720
630.533
628.161
634.055
635.113
641.292
634.015
633.406
644.223
634.524
638.685
641.356
651.921
652.627
653.782
639.968
644.975
647.780
647.929
657.292
655.241
647.484
656.155
658.049
656.823
649.834
663.704
657.812
664.267
659.329
657.775
660.493
659.644
664.169
660.107
672.207
674.036
676.299
674.465
677.364
678.167
666.568
677.693
671.407
670.468
682.083
676.075
684.030
678.497
686.815
678.213
683.993
687.633
685.811
683.264
693.014
684.550
692.083
697.053
698.261
701.489
698.723
702.543
699.512
703.912
695.549
697.618
707.616
698.530
710.539
711.209
705.184
704.635
703.894
707.603
709.842
718.691
708.208
717.112
715.121
721.334
714.458
718.175
721.110
724.554
719.724
720.680
715.825
727.730
719.715
728.042
726.726
731.672
732.254
727.832
732.521
729.983
736.073
731.526
737.952
728.885
731.992
731.058
735.765
735.547
744.410
742.483
737.887
744.231
739.399
745.339
741.976
750.602
746.660
753.430
753.119
748.549
746.612
762.556
762.551
764.450
758.031
766.152
763.103
765.200
770.300
758.088
757.740
759.885
773.505
768.562
760.729
767.364
763.788
773.289
772.749
766.788
780.616
769.093
770.590
785.964
783.607
779.362
776.314
785.482
781.625
788.307
782.839
792.532
780.481
790.002
796.079
791.386
793.724
793.139
800.577
796.185
797.505
793.509
798.976
793.489
800.539
797.285
805.915
802.193
802.718
801.061
801.507
813.415
809.035
813.080
810.131
814.784
813.485
814.053
813.454
820.714
815.349
821.831
818.238
814.996
820.872
823.600
816.076
831.046
823.754
824.793
821.953
820.734
820.574
825.907
823.634
824.293
835.654
824.498
835.050
832.085
835.851
836.119
825.445
839.723
837.000
838.293
832.615
828.807
836.093
834.070
838.604
835.277
842.409
838.368
836.309
846.907
839.127
837.384
835.554
849.149
837.178
847.691
852.432
842.536
839.580
854.997
849.356
854.622
851.494
855.235
857.105
856.871
850.055
854.852
849.807
859.179
859.156
848.163
859.805
860.889
863.857
860.722
858.601
855.330
855.298
861.819
855.804
859.582
858.311
860.015
863.467
862.382
859.376
869.610
864.642
861.410
870.707
864.238
873.042
869.268
868.002
867.990
874.031
875.105
867.964
880.802
870.094
878.822
877.975
870.427
883.408
875.992
871.507
882.092
884.949
876.321
878.750
874.603
884.762
888.334
875.537
883.386
881.858
892.253
892.082
888.382
886.515
892.832
895.874
890.883
892.610
896.433
892.503
885.639
897.540
894.611
900.381
885.769
894.099
899.795
888.240
895.041
901.449
903.877
891.033
906.629
901.372
905.278
895.868
898.853
909.182
895.592
903.273
909.528
898.786
909.690
902.809
903.224
899.148
908.292
907.022
905.113
908.962
903.233
911.124
909.243
917.293
918.556
921.063
918.778
921.131
919.743
915.461
920.387
924.953
917.695
918.932
916.383
914.430
917.817
918.581
919.365
930.098
924.526
924.015
919.533
919.389
923.199
924.924
920.141
928.632
930.550
925.714
934.991
923.066
936.127
930.605
930.023
930.783
938.292
933.697
931.948
930.994
942.653
934.824
941.931
933.758
943.612
939.304
932.705
934.188
945.609
943.767
945.478
947.009
940.839
947.371
950.860
938.226
950.749
948.217
947.473
951.691
941.843
945.879
951.666
954.563
942.423
941.067
954.391
946.339
947.376
946.519
943.103
945.166
940.058
949.157
940.618
935.753
938.078
936.006
933.355
936.698
935.665
936.983
939.563
937.921
931.366
928.194
941.375
936.048
929.546
932.488
924.048
929.334
923.513
928.650
931.227
930.775
919.484
930.333
918.657
925.830
921.923
917.715
916.965
918.147
917.927
925.729
918.363
922.667
924.736
920.263
924.810
920.141
911.355
921.242
914.579
912.406
915.666
913.813
910.102
905.478
911.645
904.779
908.345
916.364
906.831
901.281
911.665
903.933
898.953
904.941
899.834
904.067
904.162
894.963
898.460
897.926
902.332
901.880
895.570
890.148
894.447
893.850
893.567
897.155
892.679
899.900
897.982
891.456
885.822
889.998
896.946
883.233
881.459
882.140
879.818
891.277
878.020
885.855
878.785
888.477
883.481
886.822
882.933
885.332
883.414
879.263
885.215
875.956
882.326
876.345
871.519
881.788
866.855
866.308
873.982
867.986
865.330
873.124
863.546
870.162
873.156
861.539
865.218
870.138
862.206
860.155
863.579
865.309
857.699
860.924
867.240
868.592
863.132
854.112
851.388
852.654
860.011
861.852
850.165
848.830
855.901
846.403
861.074
848.572
850.246
852.083
858.686
857.358
843.179
843.571
848.562
852.128
849.083
844.498
849.786
839.419
837.116
838.624
847.026
849.567
847.309
838.859
841.364
837.183
835.116
833.543
833.399
839.847
839.614
837.650
840.802
827.867
828.717
826.438
828.650
832.876
824.013
822.348
835.600
829.288
832.599
832.509
821.949
825.517
824.070
830.621
818.354
827.594
829.249
825.358
813.383
821.992
816.869
813.381
817.525
819.252
816.180
809.911
811.838
813.408
816.870
806.787
805.698
817.071
818.680
817.369
819.187
812.552
812.650
827.889
816.284
815.785
826.186
827.233
832.640
828.784
837.555
838.554
829.236
833.359
832.708
840.120
845.492
848.495
849.750
839.472
849.519
850.646
842.485
853.382
855.651
854.801
860.032
859.908
857.376
859.416
866.453
857.912
865.295
865.961
866.725
878.355
864.872
867.020
882.773
878.319
875.053
885.613
883.965
882.263
883.672
891.178
893.683
889.378
885.814
886.746
892.178
890.364
891.386
897.664
898.641
899.535
899.341
898.153
910.736
905.681
910.551
906.736
915.852
911.302
908.024
912.383
915.392
916.945
922.647
923.117
918.584
930.146
925.052
928.547
935.816
925.171
940.197
939.807
944.335
943.236
933.336
945.454
944.517
947.096
949.322
953.879
944.591
951.584
949.294
948.456
962.344
951.001
965.538
959.863
958.143
961.844
970.978
962.991
975.752
968.145
966.202
976.758
968.606
969.164
977.722
971.504
975.059
984.730
982.043
978.942
982.960
986.847
982.368
983.929
988.757
987.852
999.823
999.254
998.861
1007.500
1002.937
1002.012
1003.984
1002.940
1005.633
1004.055
1005.371
1005.490
1021.275
1017.726
1015.153
1025.140
1013.343
1026.648
1031.602
1027.270
1021.929
1026.856
1036.453
1032.182
1026.937
1042.483
1041.922
1038.351
1043.319
1047.858
1049.766
1047.058
1053.537
1041.987
1043.533
1058.186
1054.064
1048.901
1063.179
1057.327
1057.456
1065.968
1067.613
1062.191
1060.330
1062.329
1075.784
1072.915
1066.558
1068.351
1080.801
1071.014
1077.457
1083.171
1079.678
1080.694
1085.807
1082.755
1078.735
1090.228
1090.302
1093.883
1099.130
1097.110
1092.118
1097.799
1104.994
1095.973
1101.291
1099.411
1105.741
1110.143
1107.962
1103.815
1110.966
1119.829
1107.759
1116.479
1122.528
1115.350
1124.314
1125.749
1119.183
1121.342
1121.046
1116.684
1118.746
1119.073
1124.729
1114.746
1117.197
1123.620
1113.058
1116.619
1113.378
1111.712
1105.457
1108.517
1113.295
1112.000
1113.896
1104.286
1108.599
1106.317
1101.551
1106.020
1104.647
1108.059
1113.639
1112.848
1108.475
1102.422
1097.633
1105.092
1109.506
1109.258
1097.355
1103.646
1103.155
1099.646
1101.562
1093.016
1100.525
1102.894
1092.223
1102.584
1094.291
1087.767
1100.374
1088.462
1097.345
1091.505
1093.376
1089.115
1088.859
1092.935
1085.596
1083.624
1095.122
1094.713
1092.199
1093.714
1078.053
1083.032
1090.781
1090.257
1085.095
1081.707
1090.208
1087.452
1082.069
1078.629
1072.969
1083.438
1085.728
1083.276
1070.123
1083.724
1074.666
1075.742
1077.381
1068.371
1074.315
1078.402
1067.117
1078.800
1064.663
1075.497
1068.934
1063.165
1066.754
1062.720
1066.260
1073.696
1065.890
1067.896
1059.146
1064.044
1070.508
1058.968
1063.467
1063.392
1058.524
1063.865
1059.717
1061.006
1062.746
1066.587
1062.438
1061.191
1060.349
1062.813
1059.988
1063.098
1062.417
1058.660
1059.809
1053.150
1049.720
1050.298
1059.160
1044.529
1051.104
1041.801
1050.254
1048.817
1046.947
1046.869
1049.340
1043.008
1048.118
1041.931
1046.758
1043.359
1041.831
1045.095
1048.308
1036.478
1041.904
1034.542
1033.189
1040.167
1044.472
1036.891
1038.920
1043.251
1041.497
1036.749
1027.441
1034.608
1039.855
1037.121
1029.560
1027.937
1033.133
1023.861
1030.452
1034.970
1030.961
1029.725
1028.880
1021.560
1029.029
1030.845
1021.084
1031.774
1025.659
1028.701
1029.023
1024.677
1027.405
1014.378
1022.486
1023.324
1026.079
1013.829
1012.272
1014.390
1023.254
1008.755
1019.536
1011.755
1020.956
1014.941
1013.046
1005.855
1008.000
1012.125
1003.895
1005.782
1006.640
1006.013
1013.484
1009.759
1003.182
1003.521
1004.705
1004.155
1008.293
1009.198
1009.099
1009.702
1003.282
993.277
1007.057
1006.325
991.343
997.283
998.047
994.092
991.758
987.544
984.076
991.111
992.530
981.997
979.491
979.489
984.410
974.796
981.808
982.291
973.368
976.106
984.478
980.903
969.410
971.703
969.180
967.477
964.609
968.540
971.323
965.537
971.155
968.956
964.270
956.028
959.887
955.709
958.109
955.789
949.229
956.583
957.288
950.754
945.829
951.074
942.926
951.940
948.134
941.194
948.146
939.924
943.812
937.302
941.193
947.719
934.835
932.242
941.375
937.956
931.696
931.317
932.211
926.021
930.759
924.307
931.621
929.327
930.592
928.777
927.494
914.555
928.405
912.766
915.650
914.792
919.100
918.014
913.138
907.904
917.114
903.195
913.105
901.723
903.466
901.690
909.078
901.971
898.159
905.812
905.885
892.872
902.287
894.059
892.008
897.097
886.881
899.536
894.870
893.567
894.862
883.851
887.327
878.426
890.284
889.424
875.700
888.226
880.640
874.580
881.076
873.953
874.950
875.984
868.313
874.034
865.183
863.198
864.569
869.195
866.423
873.165
858.179
866.767
859.834
855.501
855.098
855.190
851.043
848.873
858.246
856.606
853.362
847.638
851.200
850.632
854.987
851.836
850.872
839.358
843.574
848.839
838.340
836.888
833.541
834.163
838.275
830.168
835.362
836.862
831.534
831.658
836.915
829.378
828.187
829.920
818.737
827.950
822.145
817.749
823.783
821.435
812.779
823.699
820.019
823.220
808.506
817.132
809.680
807.979
805.190
808.325
812.811
803.006
810.638
810.606
809.108
799.386
801.340
805.182
803.645
802.280
797.651
792.577
790.212
789.997
799.218
794.652
787.617
782.810
790.584
786.182
778.852
790.741
791.731
775.225
778.027
773.604
784.408
774.932
779.869
770.007
776.137
768.865
767.360
757.720
757.862
764.861
752.769
757.821
747.105
745.799
745.415
742.637
750.574
737.386
736.652
743.327
728.644
727.504
730.619
727.605
725.700
717.484
731.039
718.822
715.769
721.540
718.280
710.033
703.901
705.837
702.631
707.746
699.682
695.193
700.554
690.536
690.918
697.810
689.325
689.407
688.972
687.065
681.001
679.383
668.942
670.695
676.628
665.262
669.709
664.369
653.799
652.431
664.179
651.962
653.340
644.871
644.342
649.690
637.787
641.721
634.900
644.468
631.888
627.104
628.228
632.272
627.818
625.009
624.671
612.071
609.980
608.629
613.868
612.142
610.785
600.540
600.311
604.778
593.736
599.660
596.583
591.158
594.524
590.610
581.915
576.945
580.976
576.148
578.778
580.100
578.950
564.526
562.399
570.449
560.924
554.668
567.356
559.244
549.959
560.686
555.814
551.550
543.022
547.783
547.104
543.505
545.397
538.440
536.820
534.202
530.727
521.589
521.439
519.874
516.196
522.340
522.314
515.510
507.146
504.630
513.515
504.203
503.841
497.340
504.201
494.770
498.889
491.808
487.521
487.347
483.949
484.641
482.287
485.304
470.703
466.657
476.888
462.569
465.669
468.834
466.341
467.118
464.820
449.851
462.645
455.794
449.266
455.397
453.096
437.504
443.058
433.427
437.357
433.964
431.774
438.078
422.196
430.075
430.878
416.621
414.396
421.640
421.824
412.336
407.585
415.304
399.025
405.855
398.224
399.288
391.824
391.681
393.323
396.820
384.583
380.430
377.531
385.492
375.863
371.153
373.912
380.715
370.237
362.984
372.337
370.253
370.283
352.789
353.634
353.192
358.617
350.465
353.006
350.487
343.407
342.262
342.189
334.721
339.478
328.466
339.625
324.975
335.206
323.667
334.722
327.428
324.734
330.284
330.558
321.906
319.966
324.096
313.452
309.128
321.316
312.105
305.638
311.956
307.844
311.342
310.839
303.610
305.661
304.157
304.339
298.466
296.230
300.617
304.473
292.542
300.266
300.925
284.639
283.551
288.670
282.477
294.266
285.139
289.469
277.182
279.108
281.501
281.487
276.718
281.320
273.419
268.791
272.695
277.216
271.449
266.125
259.433
266.045
269.807
261.842
268.768
253.071
263.406
260.981
263.460
247.233
247.563
256.739
257.264
244.817
250.391
250.260
243.656
247.521
249.723
237.854
242.460
243.961
240.644
233.105
239.984
234.755
239.202
236.900
235.317
232.829
233.942
225.099
224.354
223.253
219.275
215.115
213.043
225.010
209.052
221.589
211.489
210.863
208.999
205.837
210.192
214.510
200.346
201.165
201.898
210.256
203.792
201.556
192.118
204.651
199.586
199.771
196.237
199.693
192.983
195.074
194.236
182.297
190.767
176.090
188.553
177.689
175.232
179.209
177.351
181.747
177.903
178.677
176.255
171.837
171.394
161.326
170.326
170.351
171.564
157.146
168.292
154.113
166.119
160.863
162.510
157.960
160.361
152.093
155.814
143.891
142.731
143.619
148.198
150.841
149.020
135.764
142.817
140.267
130.392
141.214
138.025
132.739
131.807
126.929
130.763
133.837
131.779
127.230
117.533
130.919
126.495
115.391
122.478
113.962
118.707
110.118
110.478
106.143
118.550
117.169
116.403
113.492
104.839
107.922
109.437
104.442
100.793
102.824
103.327
100.523
103.235
86.563
100.473
88.003
93.903
86.569
80.283
84.950
88.947
80.707
81.178
78.597
81.727
82.948
70.652
83.485
