189.691
201.744
202.383
204.055
208.040
201.347
205.937
208.354
215.742
206.185
207.955
217.048
218.543
216.306
225.186
222.857
227.462
222.944
229.205
234.606
228.929
239.682
239.419
248.218
247.996
250.623
253.978
256.075
254.441
248.229
258.226
250.053
260.296
263.521
266.192
264.201
273.738
262.546
275.242
267.508
278.910
271.261
273.474
285.432
283.129
280.374
278.760
280.336
284.122
298.289
289.822
299.351
298.219
294.005
302.174
297.143
302.755
311.760
311.606
304.484
306.428
308.922
312.972
320.563
313.607
316.471
321.431
326.460
323.901
338.519
337.848
332.292
336.730
333.763
346.746
346.347
351.837
354.417
355.874
347.257
345.046
348.442
348.868
354.582
366.674
361.856
366.735
371.772
370.312
377.641
378.198
372.213
376.294
381.466
374.651
383.341
382.409
379.202
387.719
392.242
388.573
386.202
398.890
403.486
403.130
408.649
396.414
398.754
415.254
404.872
405.637
416.437
408.208
411.316
415.526
414.255
415.856
426.858
434.292
426.195
434.051
438.030
435.146
440.291
441.920
435.460
436.474
448.807
454.776
452.312
450.781
456.566
460.422
457.468
464.302
455.365
460.218
461.442
465.094
463.331
467.432
474.851
477.939
475.037
480.929
479.154
486.229
477.914
479.588
486.635
487.621
498.077
498.744
503.351
504.728
498.399
503.571
503.028
499.478
500.492
510.883
504.859
520.217
512.189
510.771
524.260
518.355
524.634
526.221
535.313
521.980
524.171
538.650
535.918
536.651
545.273
546.181
540.989
539.985
541.083
543.609
553.292
554.987
550.576
552.519
554.307
561.149
564.448
568.393
564.207
561.501
573.395
579.557
572.472
582.241
583.576
585.235
575.299
590.721
584.349
583.487
585.154
589.438
599.373
596.039
587.472
593.742
603.070
602.533
597.631
606.057
601.185
606.080
607.998
602.526
609.369
602.000
600.628
598.973
607.340
613.167
616.698
605.684
610.086
616.638
607.139
616.458
612.802
613.196
609.118
625.887
623.938
624.006
625.852
625.984
619.728
621.769
625.326
626.950
619.318
622.741
630.049
627.879
630.670
635.940
639.651
632.593
637.565
635.210
643.868
633.676
635.837
636.887
633.084
640.075
647.915
651.287
636.948
639.248
649.692
644.848
653.363
644.208
654.160
655.299
649.405
646.480
658.502
660.488
657.496
662.748
651.456
664.187
656.050
662.909
656.637
656.549
660.146
670.255
665.666
674.892
670.637
670.836
671.827
675.165
672.067
672.611
667.825
671.199
672.266
670.129
679.875
673.219
685.419
681.772
679.587
688.214
681.336
692.097
689.303
683.462
694.954
683.667
691.933
686.568
694.917
699.158
688.008
688.956
701.951
702.136
697.194
696.988
706.068
697.836
699.650
703.027
711.032
698.307
699.681
703.393
700.088
712.544
708.481
712.743
708.661
712.819
720.561
717.113
723.082
718.034
719.342
722.440
716.028
714.220
719.268
719.451
718.668
727.177
723.806
728.786
727.924
721.004
735.415
737.041
723.914
726.561
736.426
730.710
738.059
729.482
740.526
737.639
745.747
740.983
749.272
740.213
747.886
743.595
745.244
744.201
750.691
746.565
743.211
755.393
755.665
752.507
750.592
759.672
751.833
751.313
755.967
755.984
766.901
768.080
765.403
759.171
758.158
760.859
760.520
773.945
773.394
774.386
776.187
775.567
777.268
765.519
775.805
778.587
767.311
778.157
771.210
778.813
786.250
775.029
775.285
783.002
778.260
779.823
778.374
788.648
780.837
791.416
786.542
781.841
777.155
781.886
782.029
786.860
777.335
780.627
786.183
786.890
781.961
786.932
781.949
778.969
781.095
775.796
779.603
790.579
783.482
787.944
782.748
777.799
781.236
783.939
788.931
773.703
775.997
784.966
779.585
774.326
785.846
782.574
785.664
785.501
783.456
777.787
786.079
784.225
772.658
772.116
772.361
782.754
782.494
784.551
774.169
774.927
775.086
770.666
777.206
784.529
775.309
782.109
777.964
778.804
773.980
769.007
777.627
779.237
777.105
782.961
767.828
780.751
779.283
768.430
771.514
767.300
768.116
774.848
780.573
770.771
773.316
769.303
776.675
770.579
769.258
780.456
768.777
778.936
767.711
767.229
776.151
770.700
765.784
774.137
769.574
769.641
769.984
773.582
763.783
768.990
762.623
770.317
776.591
767.643
772.408
767.517
770.035
774.412
766.059
771.512
772.683
769.807
774.676
772.026
764.063
775.018
771.306
774.921
764.567
764.201
772.536
767.215
772.772
764.971
770.208
770.015
767.143
771.116
770.944
773.421
762.538
772.999
770.082
766.079
766.817
771.155
756.806
770.261
769.507
763.633
770.351
770.401
766.369
765.367
761.346
757.074
770.058
764.732
761.832
759.080
768.354
757.633
766.380
758.720
763.865
768.343
753.892
764.400
761.196
757.081
764.678
755.627
762.939
758.306
765.961
766.979
766.713
759.758
761.012
761.129
759.480
751.531
753.871
757.025
755.357
760.483
765.435
750.266
752.425
764.708
760.554
763.358
756.412
760.459
749.249
752.661
761.626
755.415
759.821
753.928
755.556
755.464
752.447
755.046
750.284
747.877
747.321
758.906
759.255
760.511
750.405
757.552
754.811
759.711
750.902
749.170
752.447
759.154
757.035
763.428
761.532
754.115
764.500
756.390
763.813
765.488
775.558
768.326
779.021
780.464
768.392
777.647
778.564
779.420
775.958
780.333
793.191
784.172
789.815
787.549
801.212
792.899
794.330
803.620
796.734
803.864
806.707
803.744
809.847
806.409
817.189
805.958
816.605
823.887
817.112
822.918
817.649
830.119
820.127
828.590
828.331
829.461
835.136
838.332
831.143
839.346
842.756
842.689
840.456
849.313
847.512
856.652
853.121
846.973
852.804
852.876
852.346
856.362
864.368
863.736
868.807
873.418
865.419
875.477
869.880
874.360
873.962
870.626
875.633
875.684
878.523
888.965
888.211
884.858
883.246
888.348
890.990
900.976
893.957
901.615
894.160
907.669
902.298
908.231
906.682
914.223
916.309
919.624
911.133
923.322
917.837
918.878
930.807
929.465
932.876
923.927
925.997
940.082
938.339
928.459
936.241
945.608
945.325
942.135
945.988
947.091
949.055
948.491
959.215
948.671
959.782
950.027
959.134
955.289
967.407
958.714
965.188
965.998
977.369
971.238
972.531
977.750
969.880
981.759
984.722
987.666
981.432
989.060
989.695
986.335
990.099
990.861
989.295
993.317
992.820
997.720
1007.767
1009.414
1008.219
1012.781
1002.553
1006.435
1012.805
1023.029
1010.138
1021.533
1026.713
1017.216
1022.285
1025.197
1025.203
1024.497
1034.246
1030.037
1037.380
1042.857
1039.015
1041.873
1040.343
1037.471
1048.645
1041.624
1056.441
1047.586
1055.522
1047.504
1056.284
1052.208
1060.336
1066.299
1058.122
1067.174
1069.978
1073.619
1072.236
1070.336
1071.992
1076.813
1074.112
1078.285
1086.879
1085.419
1093.348
1079.466
1096.963
1094.992
1086.308
1101.879
1092.233
1103.460
1104.976
1099.074
1098.297
1108.076
1110.150
1111.972
1106.773
1104.696
1110.446
1109.513
1104.716
1102.910
1107.266
1098.829
1104.951
1096.177
1098.841
1097.371
1087.873
1087.335
1082.199
1083.271
1081.469
1075.477
1085.704
1079.307
1069.266
1083.167
1068.632
1071.668
1068.199
1069.215
1067.123
1057.267
1056.642
1064.075
1066.308
1048.994
1056.874
1059.640
1044.182
1046.306
1053.347
1041.443
1050.769
1042.674
1037.031
1046.011
1032.159
1027.846
1032.065
1036.737
1035.071
1023.029
1022.263
1021.897
1025.442
1026.855
1016.736
1022.644
1018.740
1012.257
1012.784
1013.897
1000.010
1000.076
999.288
1007.760
997.558
993.870
999.139
998.826
986.420
990.604
985.244
983.975
976.998
987.592
974.106
980.809
970.020
975.862
975.706
967.608
963.603
961.609
960.958
967.438
960.861
967.438
962.239
957.590
955.939
952.775
950.568
949.444
940.690
938.276
944.822
947.307
935.358
936.233
938.885
936.494
937.390
930.799
932.819
927.749
918.438
922.845
920.688
925.436
913.923
917.472
918.043
909.088
909.366
915.562
899.083
904.466
907.022
896.483
901.005
890.512
891.759
896.811
893.982
883.678
892.135
878.936
886.917
887.432
877.144
885.860
879.347
873.871
878.371
878.089
866.667
869.142
861.338
860.033
854.633
855.390
863.845
855.721
858.065
847.659
854.616
849.292
840.092
852.084
835.570
846.886
835.526
844.156
838.126
837.170
830.556
834.564
826.005
832.074
826.232
824.471
828.452
813.591
815.857
818.814
819.333
806.506
804.315
807.568
804.361
802.551
794.373
803.044
790.622
791.611
800.817
794.595
785.074
786.906
795.140
789.193
791.313
789.797
772.744
774.798
774.481
776.130
771.231
765.958
775.986
767.712
762.014
756.248
767.641
764.326
763.375
750.154
749.510
750.387
743.895
753.196
743.099
745.784
746.690
739.836
745.088
738.944
748.158
746.055
750.077
748.950
751.829
753.585
745.198
756.879
751.908
753.307
749.857
755.697
751.550
762.508
756.902
760.219
762.539
751.585
753.892
765.485
757.318
767.724
766.081
768.515
766.613
774.105
771.320
770.116
767.059
770.474
768.743
765.496
778.036
768.812
774.861
781.726
781.626
783.605
784.677
787.098
781.267
774.247
779.253
779.669
784.869
784.628
784.368
790.274
792.513
781.964
788.078
786.118
790.617
790.458
798.796
799.861
797.898
797.198
800.374
802.429
802.015
805.794
804.789
800.330
804.977
809.649
808.606
801.328
810.319
800.837
806.872
817.097
812.463
818.275
812.613
813.578
820.132
818.059
808.564
823.057
817.215
818.735
822.744
817.491
822.248
824.526
829.251
832.485
821.277
829.468
829.890
834.835
833.656
829.161
829.551
827.986
827.430
834.923
838.414
834.726
831.642
836.749
835.325
842.141
832.810
834.905
840.976
845.887
850.681
851.306
848.675
850.015
852.223
846.438
842.572
842.794
848.603
847.397
857.462
851.778
854.549
854.497
854.985
864.585
860.234
860.653
860.770
853.704
870.347
861.061
856.798
863.263
872.372
868.596
868.026
877.090
866.741
872.344
879.048
867.237
878.853
873.383
880.485
874.053
873.246
883.590
879.328
885.294
888.571
879.560
879.188
877.051
889.502
884.779
883.659
890.275
884.371
886.916
882.631
892.538
897.501
887.553
891.780
891.927
899.441
895.200
890.065
898.819
901.673
893.822
901.768
897.553
910.103
905.862
907.354
913.639
913.178
910.945
910.336
915.815
907.869
915.144
910.007
920.526
911.119
914.880
916.641
915.684
924.640
918.933
917.300
916.585
923.160
921.623
923.880
926.348
930.672
921.007
931.525
931.001
929.506
921.600
920.611
927.562
921.902
924.306
924.517
934.193
925.849
931.081
921.497
922.339
929.785
926.874
932.715
921.395
922.879
924.225
918.783
922.942
925.980
923.818
931.852
930.559
932.289
917.734
929.063
930.462
929.901
920.567
924.413
921.059
920.445
920.566
919.009
931.534
922.427
924.682
918.010
920.746
920.230
923.777
931.112
918.230
919.276
919.346
924.857
932.311
919.570
922.286
924.979
918.114
928.559
916.944
920.820
926.204
917.726
917.540
930.423
920.735
925.264
916.489
929.949
916.636
919.826
929.759
918.340
919.326
920.725
921.186
916.245
920.270
918.477
928.954
931.086
926.974
928.104
919.461
928.291
918.409
919.004
923.049
929.070
917.149
915.909
916.864
922.335
922.227
926.019
926.501
915.075
930.049
927.977
917.323
920.809
917.407
930.587
918.424
924.409
919.890
916.529
921.237
929.119
924.647
920.166
920.290
919.022
929.943
922.429
918.155
928.744
926.368
918.292
926.322
928.361
914.563
917.427
919.677
915.515
922.349
926.729
923.625
928.937
919.928
918.056
915.082
928.558
920.377
925.879
914.153
929.126
921.848
915.550
928.595
925.681
915.848
929.207
916.759
918.453
914.726
917.660
919.196
925.422
926.970
919.121
927.238
919.658
928.473
918.000
918.483
921.320
919.520
916.238
914.013
914.554
924.942
926.160
913.502
912.726
916.579
924.853
913.670
927.365
922.423
914.726
928.024
914.235
915.776
924.357
919.774
914.277
922.526
924.064
912.351
922.936
913.031
915.032
916.618
924.724
915.781
918.748
924.733
920.641
911.627
916.454
922.504
926.183
916.637
919.811
922.125
915.759
912.849
913.808
919.152
918.682
913.604
914.589
911.065
914.462
908.934
915.282
914.721
915.365
906.178
906.053
912.058
908.491
898.577
897.566
898.379
907.081
900.623
898.556
900.690
891.363
898.203
888.962
895.110
896.118
891.150
886.519
877.055
885.846
888.078
882.267
884.442
871.226
880.060
877.176
865.420
866.631
876.664
861.312
864.106
866.777
860.533
867.242
862.044
862.208
856.626
861.926
854.493
857.879
845.613
851.921
845.990
841.720
842.733
842.105
840.028
839.148
845.413
835.493
835.817
832.178
841.495
831.172
835.423
829.457
832.073
827.273
832.308
831.039
827.262
829.889
816.689
816.283
821.707
820.578
820.859
816.555
817.019
818.020
806.237
813.291
808.454
804.502
799.767
799.997
801.526
800.281
794.791
798.531
801.293
796.959
790.770
788.322
796.235
780.445
779.131
777.578
783.893
779.770
776.861
778.413
770.582
776.681
777.903
773.632
780.218
773.410
761.907
774.448
760.776
771.762
764.338
761.973
753.901
761.973
751.402
763.722
759.749
759.706
754.404
757.999
753.422
751.359
748.757
752.767
739.425
740.356
732.804
739.973
734.281
744.084
735.928
734.823
739.818
731.770
732.774
733.824
728.184
722.984
721.117
718.849
724.999
725.523
714.205
713.338
709.452
706.583
716.955
707.458
714.037
702.305
700.805
704.771
704.355
704.155
692.822
703.195
694.645
698.234
694.758
699.843
684.031
689.920
684.057
689.708
678.090
678.834
679.821
686.526
673.846
683.011
682.775
682.449
671.388
678.097
665.689
671.285
665.711
674.821
673.930
661.004
657.868
658.646
657.145
652.114
660.412
661.991
656.897
654.112
650.175
651.430
642.294
641.917
638.860
648.809
635.261
637.082
639.473
643.697
643.646
630.285
630.163
633.863
635.349
640.176
629.592
635.666
636.410
637.632
633.685
638.600
636.611
631.485
639.330
632.031
634.799
637.900
642.959
636.877
643.549
643.890
649.839
643.533
642.326
653.663
648.038
643.416
648.281
651.554
657.652
650.436
652.523
652.587
647.299
652.846
648.140
649.155
659.272
656.454
659.720
650.544
659.207
655.249
653.460
665.100
666.890
663.949
664.598
656.970
670.181
658.619
659.701
672.816
666.815
667.229
665.127
665.669
662.285
678.141
677.634
668.620
678.071
679.453
680.413
677.336
673.868
672.488
674.721
684.255
679.885
675.190
676.092
673.611
674.264
677.503
688.545
687.013
677.856
678.353
682.530
692.027
681.694
683.978
681.480
683.674
684.732
691.526
695.035
694.156
686.181
693.255
695.753
699.604
688.583
698.285
689.592
693.036
691.101
699.125
694.628
700.601
704.757
695.935
698.049
697.666
709.901
698.513
704.125
706.455
704.942
712.241
701.295
704.617
710.359
709.571
710.316
717.448
711.011
715.021
719.089
717.018
709.849
708.675
708.278
710.982
714.273
721.563
711.999
727.377
727.172
721.305
717.398
714.928
730.068
718.957
716.394
732.786
731.576
719.733
726.072
722.632
733.453
735.023
730.368
728.582
737.522
735.115
739.328
732.261
737.928
737.686
732.475
735.206
735.121
743.463
736.491
743.791
737.252
736.586
738.384
743.275
741.579
749.722
748.093
740.531
742.548
751.227
747.928
744.932
749.717
747.295
751.154
750.649
747.639
745.538
749.810
748.149
759.219
748.897
762.346
759.148
756.360
753.396
761.100
750.951
754.813
754.126
755.849
768.942
758.812
759.387
768.625
760.591
759.266
765.501
764.895
760.762
771.569
766.142
775.779
769.096
775.135
774.331
767.532
764.486
763.723
763.571
759.159
757.347
771.332
757.019
766.121
760.176
756.980
751.436
755.053
749.314
748.315
756.018
754.653
749.299
741.485
751.875
746.228
747.058
746.759
741.763
736.648
730.470
728.173
735.275
740.008
723.722
725.184
728.056
724.371
725.737
716.612
720.702
717.482
715.736
726.341
723.797
712.039
710.755
711.110
715.523
707.197
706.797
709.732
711.425
704.943
698.206
704.880
697.824
697.016
701.084
699.209
701.441
688.341
690.514
697.670
696.103
679.843
691.449
682.961
679.842
677.693
673.814
681.439
677.287
675.935
668.839
681.351
664.532
671.215
672.705
669.871
674.255
664.800
671.064
666.362
660.338
661.607
662.186
656.122
652.529
658.511
654.399
654.012
652.438
642.680
640.682
651.066
648.935
648.788
639.057
632.321
640.502
629.269
638.394
635.307
625.117
633.903
635.665
626.217
634.325
623.645
621.843
622.120
615.492
621.599
616.207
621.766
615.314
609.012
617.663
614.674
610.071
608.761
612.244
600.715
610.990
610.895
606.936
604.818
592.400
593.048
591.338
598.969
593.453
597.046
597.905
584.809
580.155
587.956
584.725
575.890
582.901
583.960
585.307
578.007
583.758
574.494
574.455
567.289
577.410
567.988
573.841
571.412
560.596
566.765
570.393
566.947
551.942
551.726
554.232
557.238
549.126
556.118
555.260
546.486
542.971
546.410
538.748
538.778
539.698
534.288
535.900
545.165
543.700
543.596
533.173
533.802
530.870
535.152
521.129
531.978
520.942
532.449
530.895
517.051
520.053
513.114
522.674
521.827
520.777
514.409
519.473
516.378
513.479
515.017
500.100
504.801
503.684
497.689
503.513
501.531
498.685
497.279
497.392
493.400
492.641
