382.089
425.018
425.598
410.732
427.242
430.774
416.265
427.564
412.043
433.665
448.033
427.751
430.189
464.486
451.798
464.269
472.322
451.104
492.714
469.566
465.778
497.664
486.131
470.090
486.428
520.417
489.191
503.952
528.456
499.725
522.879
156.428
169.534
160.636
165.258
165.491
163.110
166.964
170.429
174.978
174.022
169.604
180.476
178.811
183.860
175.350
172.908
177.176
179.665
177.811
188.950
187.199
186.798
194.394
195.424
185.879
194.522
192.180
193.475
193.884
199.452
192.145
206.729
202.917
203.493
200.478
201.627
207.537
201.906
213.779
205.067
210.889
209.982
205.635
221.237
220.968
213.800
210.054
215.766
218.550
219.750
217.766
224.417
222.871
230.699
226.472
224.391
225.995
226.127
227.754
227.209
240.230
239.430
241.855
241.838
231.794
235.482
238.793
239.565
239.986
246.970
237.939
240.426
252.139
252.891
247.945
253.616
250.590
259.207
261.509
252.205
258.123
259.293
261.855
253.473
254.460
271.148
263.563
269.105
272.989
271.076
263.267
278.282
264.692
270.398
269.976
276.749
283.902
273.333
278.709
274.240
282.816
275.763
276.819
288.447
289.496
289.678
289.517
296.302
286.293
296.942
296.224
290.988
297.079
289.180
298.781
294.666
299.130
301.872
302.171
308.372
305.442
301.319
310.854
303.087
310.264
309.066
315.810
316.929
318.935
315.309
314.711
311.062
312.610
316.933
325.146
324.710
331.988
326.494
333.505
325.767
330.830
328.515
335.540
327.255
339.409
340.433
339.692
334.454
334.975
340.059
336.927
334.666
338.838
349.818
339.127
353.636
354.250
348.044
349.350
349.400
356.890
361.572
362.056
353.552
364.887
365.086
354.343
369.109
367.660
358.180
357.633
369.289
367.016
365.557
372.617
375.792
362.991
362.573
378.116
364.919
374.505
365.806
365.211
371.732
377.096
371.422
381.965
372.073
377.885
385.344
379.334
384.860
381.782
375.568
388.066
385.177
385.794
387.933
389.686
386.899
389.738
384.788
389.686
384.665
383.125
387.288
390.067
390.513
394.894
396.271
389.817
402.278
392.030
401.871
400.903
397.411
395.147
399.795
399.193
405.144
407.122
408.390
399.096
408.040
402.478
397.140
401.201
412.003
413.480
408.135
411.046
407.351
403.961
417.342
414.570
413.671
415.189
416.416
414.163
413.795
409.452
412.171
415.751
410.445
425.579
422.082
420.016
425.027
422.678
426.943
420.607
426.382
421.153
424.909
432.177
424.352
433.443
425.036
425.037
425.936
426.824
425.432
425.373
432.592
428.991
435.709
428.794
430.097
430.032
443.331
441.672
441.416
433.725
434.363
445.215
444.714
446.191
442.351
440.501
441.743
443.959
447.195
445.986
448.625
440.454
454.024
453.722
454.764
455.236
448.301
456.066
455.645
460.347
454.343
454.777
452.453
460.923
450.444
460.622
450.965
458.032
452.747
467.378
463.226
456.374
469.590
468.560
471.235
467.191
468.684
466.387
471.156
467.806
469.911
470.455
466.823
476.592
478.438
471.037
473.678
480.900
472.016
469.499
469.087
472.960
471.275
476.975
477.457
473.078
473.092
481.514
484.010
487.250
490.887
478.995
484.572
480.642
484.919
481.579
492.275
493.351
486.206
485.975
491.095
486.603
497.082
492.993
491.375
495.714
490.592
503.708
490.512
491.903
491.464
505.486
498.731
495.817
503.026
497.329
510.895
496.178
509.567
502.559
512.665
500.093
501.054
507.409
500.939
515.847
514.287
516.913
515.587
518.049
512.852
518.197
523.521
524.195
526.842
531.293
537.508
541.090
544.564
547.531
546.155
546.604
548.383
545.243
556.391
554.245
561.796
552.299
561.167
558.586
565.718
559.556
562.146
568.079
571.619
581.224
586.797
576.052
582.458
588.336
595.961
586.525
594.917
591.859
593.381
606.680
602.105
610.499
609.860
602.095
613.319
611.745
612.414
615.249
612.500
616.280
621.880
627.334
631.118
630.800
633.948
628.318
636.269
645.040
636.074
652.034
643.453
652.353
645.888
647.185
663.947
662.396
658.691
663.830
664.565
676.096
675.227
669.769
677.679
680.559
676.607
676.522
684.874
693.590
684.107
693.149
695.490
690.356
690.223
703.390
702.009
708.356
701.268
702.062
719.087
715.213
718.309
722.672
713.506
723.269
723.610
720.333
736.557
731.523
741.495
741.614
735.347
744.110
747.687
740.017
755.202
748.135
746.852
761.316
750.894
767.446
761.033
761.743
760.133
761.233
770.992
775.713
774.684
776.320
775.417
789.117
791.313
781.751
785.523
792.701
793.877
793.433
798.689
807.249
796.632
802.897
811.043
815.075
809.028
820.595
815.643
823.156
816.471
821.137
831.498
823.353
836.555
834.880
831.220
840.812
834.253
834.795
844.423
849.137
843.431
848.953
855.221
858.622
853.991
856.822
856.520
859.076
873.222
868.164
878.291
881.939
871.708
871.959
872.915
880.303
884.243
881.150
890.408
892.571
901.666
891.098
895.444
904.317
897.459
900.556
906.311
902.823
910.230
917.586
914.999
919.719
927.385
931.024
932.467
926.019
925.867
934.451
927.952
945.440
945.318
946.722
942.771
950.208
942.537
957.269
951.890
956.638
959.064
964.024
956.628
971.743
971.147
960.854
961.406
971.328
955.319
966.596
952.118
959.815
963.512
959.037
954.047
945.352
944.228
954.796
951.318
949.171
948.012
946.168
941.579
946.645
943.582
944.418
941.825
936.667
925.313
929.835
936.652
922.554
930.692
933.159
921.610
917.071
925.289
920.206
920.067
920.377
915.595
906.110
906.703
902.876
907.741
903.032
906.585
902.978
904.777
904.010
892.559
900.751
890.940
893.723
896.532
895.291
894.821
891.729
884.837
890.666
881.663
876.571
890.077
874.257
882.333
881.720
868.961
873.443
881.520
869.929
870.453
868.311
865.083
872.493
862.602
861.967
865.019
866.422
855.631
865.570
850.714
853.114
848.886
853.726
851.842
847.906
846.941
844.093
844.625
836.578
837.020
832.643
844.724
839.397
836.611
832.904
828.717
833.200
834.500
832.905
824.949
823.323
824.791
826.264
817.805
813.217
822.151
817.249
807.964
815.807
816.631
813.251
816.951
806.409
803.043
803.694
798.549
803.342
805.900
794.868
797.631
791.816
801.208
799.042
794.666
789.942
793.610
794.955
789.694
776.674
778.617
782.207
773.763
784.782
779.598
773.734
767.568
774.912
765.522
768.798
774.743
765.608
773.011
762.136
761.601
763.029
763.687
751.391
751.053
749.951
751.055
750.737
750.016
750.276
753.694
740.693
752.689
736.756
735.100
739.678
732.344
729.948
744.003
726.685
731.375
736.580
733.205
729.415
732.854
724.773
723.987
721.670
722.482
722.687
723.320
717.208
722.434
707.201
713.795
712.390
712.890
701.016
701.820
709.797
710.253
697.469
693.335
697.994
699.359
690.920
702.615
692.231
686.504
685.710
696.924
694.282
682.342
682.853
685.210
678.753
678.564
671.850
678.831
673.611
675.370
683.158
678.075
669.896
673.370
673.975
674.813
681.470
681.253
684.898
688.354
691.285
688.317
678.974
690.482
683.369
680.885
684.741
689.106
693.391
696.181
692.835
686.999
687.949
689.135
692.115
696.436
692.177
692.859
703.784
701.432
699.342
701.393
693.779
702.753
702.757
711.000
707.124
702.165
708.369
709.941
712.150
705.369
706.233
715.459
703.425
707.546
709.660
707.207
714.491
709.854
710.377
713.787
718.972
720.428
719.350
719.841
727.793
726.896
717.912
719.732
725.129
723.149
733.476
720.134
731.963
724.827
735.211
729.908
732.661
727.564
739.247
731.132
728.680
739.471
739.473
738.043
740.552
736.898
743.740
731.730
736.728
742.486
740.688
735.596
736.358
745.341
745.912
746.566
739.892
749.024
747.300
744.890
747.161
744.409
758.227
749.880
752.751
760.959
760.962
750.177
755.203
757.121
754.981
765.103
752.545
763.748
764.800
756.673
758.980
765.553
758.709
762.509
772.327
760.676
763.546
770.701
776.031
765.689
766.109
765.194
766.398
768.664
779.454
782.854
776.278
771.099
778.652
770.641
774.742
773.322
781.856
779.796
789.289
784.745
783.947
781.347
779.751
785.238
792.628
788.800
792.546
794.016
790.901
796.118
789.888
796.584
793.910
790.375
788.518
800.455
801.146
800.958
805.924
807.022
792.404
803.997
808.113
809.051
807.548
801.409
808.565
806.079
810.586
807.101
809.088
812.863
815.023
804.141
811.872
814.168
820.258
821.769
812.960
819.028
821.284
816.693
821.945
821.626
813.898
819.235
817.535
828.387
821.013
826.699
826.638
822.476
832.006
820.941
832.468
831.845
830.941
826.317
831.315
831.139
835.517
829.391
828.722
831.923
833.962
837.954
831.992
838.768
832.519
840.651
841.255
844.154
839.693
838.425
833.858
834.552
840.332
844.202
842.175
840.792
848.116
840.171
839.233
836.920
846.999
841.052
843.549
843.301
842.821
841.628
841.338
843.132
852.443
846.254
855.715
841.864
855.958
848.238
851.861
853.029
857.568
847.625
853.736
852.064
857.997
849.100
857.770
858.867
849.918
862.990
849.753
854.478
855.768
862.518
850.136
862.586
860.776
855.771
857.678
865.539
855.480
855.819
855.215
859.131
864.326
855.309
855.437
861.704
866.743
866.784
868.901
868.164
862.098
860.928
867.961
869.968
869.920
863.477
863.255
866.062
873.899
862.003
869.663
869.347
874.715
878.623
866.463
878.369
872.817
868.885
875.988
878.891
881.789
867.112
877.407
882.935
883.571
880.854
882.141
884.051
883.204
881.615
876.270
873.870
881.878
876.667
879.425
876.919
887.524
879.424
881.422
879.674
886.733
880.547
881.328
881.594
887.374
887.105
877.779
884.662
883.278
884.256
888.496
887.962
892.276
890.797
881.647
883.201
883.862
894.984
887.370
887.201
891.645
897.626
899.707
891.908
888.925
889.663
897.322
896.675
901.810
892.948
892.615
900.081
897.104
890.175
904.903
896.091
904.353
901.339
903.426
896.445
901.841
895.212
903.236
895.214
903.217
899.354
904.218
899.952
911.406
909.127
904.704
909.389
911.906
907.545
901.055
903.256
913.435
904.282
912.794
900.589
906.112
906.139
905.424
916.943
915.774
907.986
914.725
910.034
913.329
909.425
916.166
909.465
911.130
914.367
912.794
910.227
911.104
922.279
910.741
919.960
922.479
924.717
923.623
917.270
919.503
920.131
913.305
921.229
922.255
920.030
919.533
915.069
915.260
916.686
920.688
930.322
917.582
931.053
928.289
932.370
934.376
924.761
933.202
928.593
932.856
938.002
938.214
940.606
930.392
935.842
940.298
927.932
932.827
929.745
933.742
937.565
941.956
944.432
945.717
945.001
947.003
946.511
942.124
939.372
939.179
942.776
951.964
948.279
953.227
952.685
948.143
949.037
957.204
955.561
945.731
945.517
949.720
953.538
950.612
948.605
948.486
948.609
961.258
959.941
958.022
964.554
967.092
953.132
965.594
968.873
962.084
959.342
960.551
965.085
968.228
969.304
974.876
962.587
964.679
971.625
971.999
975.052
967.427
979.658
974.364
965.565
978.522
967.054
976.904
982.306
979.263
978.770
978.159
983.615
985.394
982.155
980.167
984.049
975.888
986.008
990.721
977.607
986.110
993.596
993.621
992.965
986.744
995.715
994.278
997.575
998.497
984.174
994.638
987.527
991.444
1000.845
993.615
1002.779
1003.896
1002.538
996.822
998.226
995.795
999.785
993.931
993.734
1007.728
996.418
1002.071
1011.670
1005.966
998.298
999.467
1011.104
1013.209
1015.642
1010.161
1015.217
1005.126
1015.129
1016.545
1012.948
1017.448
1014.724
1008.032
1022.136
1021.628
1009.493
1024.736
1010.950
1015.683
1019.585
1021.358
1014.521
1028.842
1024.341
1025.581
1022.008
1021.637
1033.062
1024.464
1020.160
1034.975
1024.838
1032.450
1028.077
1027.938
1032.395
1025.274
1031.462
1030.143
1034.046
1040.866
1032.762
1028.377
1038.212
1033.969
1030.373
1037.862
1040.341
1045.571
1047.489
1039.113
1034.972
1040.842
1050.253
1045.628
1044.452
1049.882
1038.831
1048.480
1040.100
1042.013
1053.882
1049.541
1045.950
1048.800
1052.384
1049.705
1054.687
1050.791
1058.739
1048.786
1060.497
1049.478
1058.151
1059.693
1059.276
1067.998
1061.232
1054.908
1069.668
1059.915
1066.740
1065.804
1065.748
1053.823
1049.875
1053.936
1055.550
1060.101
1055.861
1052.341
1041.072
1051.124
1041.279
1039.460
1041.361
1043.514
1044.055
1041.411
1037.463
1032.046
1033.145
1037.909
1035.680
1022.958
1026.582
1028.463
1028.084
1015.741
1014.225
1025.649
1020.902
1015.056
1008.105
1017.104
1013.194
1006.199
1014.179
1008.868
1001.960
1010.728
1010.134
1002.259
996.947
991.688
1001.397
997.676
993.882
985.029
991.668
984.334
993.267
981.521
981.983
984.803
980.223
978.137
978.971
978.445
981.883
969.699
968.105
967.275
962.501
970.651
968.624
959.789
970.325
962.636
964.251
954.142
959.402
953.298
952.770
958.662
953.460
949.276
956.389
952.774
938.786
939.967
950.041
936.752
935.854
943.291
940.362
932.214
929.523
933.858
935.362
924.626
921.351
933.268
929.246
924.238
923.553
921.092
914.860
924.782
913.519
919.462
907.829
914.052
903.331
904.783
908.179
910.212
898.810
909.592
898.670
904.506
891.612
903.464
897.529
895.943
896.069
897.087
895.872
892.438
893.849
890.188
877.911
886.374
871.957
878.581
869.742
877.715
868.322
878.798
873.804
876.118
862.136
869.103
870.650
860.378
862.306
860.877
856.644
863.140
861.477
851.604
848.835
849.512
849.638
853.402
846.072
848.200
844.961
834.619
844.599
835.880
840.991
830.816
836.433
838.725
827.131
835.768
822.267
828.921
831.841
816.953
815.009
828.330
813.258
817.055
818.323
815.443
809.940
817.783
811.165
812.943
813.883
809.617
800.607
802.699
801.201
807.823
798.390
790.001
797.947
800.999
792.215
790.119
796.060
785.285
790.912
786.966
788.246
774.643
776.531
781.566
769.794
773.961
780.506
765.217
764.703
762.085
768.054
763.563
761.472
757.467
760.100
761.243
754.605
763.941
753.543
763.636
760.396
756.380
751.011
758.630
748.480
748.975
754.000
751.315
758.179
744.577
752.354
758.150
745.226
752.791
755.012
747.754
753.705
752.004
747.235
746.730
736.854
748.459
747.356
740.455
748.097
739.681
747.332
732.576
741.206
744.496
743.169
741.568
744.093
736.120
742.578
738.624
733.575
732.740
728.634
724.814
729.527
730.696
736.380
722.581
727.501
729.869
727.225
728.912
721.169
721.543
730.580
723.107
714.275
716.687
721.602
719.506
715.659
721.518
717.455
716.989
715.203
721.797
715.281
718.058
716.728
712.935
707.954
714.625
703.656
704.931
716.155
701.391
703.933
710.822
713.760
710.254
704.196
699.787
703.832
696.843
701.512
704.820
705.647
693.351
696.193
706.724
693.735
693.946
691.980
693.970
693.964
700.525
696.614
696.604
696.337
693.301
685.700
690.688
693.315
692.239
696.497
682.695
694.939
683.108
686.225
678.073
689.353
681.962
680.319
681.727
684.628
687.251
675.339
685.702
677.847
679.000
672.273
681.551
681.128
677.401
674.930
675.563
676.621
666.689
679.312
671.144
669.329
664.905
665.383
673.076
675.595
668.723
674.542
668.772
664.501
660.393
667.669
670.199
666.705
664.805
665.808
662.648
652.023
659.490
664.915
655.413
663.990
663.233
650.286
658.394
652.500
658.291
656.581
649.207
644.024
644.990
645.573
643.882
645.662
647.430
643.941
649.959
647.663
647.333
645.960
651.442
648.200
646.460
641.270
643.233
645.455
641.496
642.345
643.286
642.709
635.520
638.400
628.404
636.490
635.824
633.864
628.949
625.186
628.720
626.211
627.661
623.294
626.694
626.383
626.353
625.207
631.059
624.658
618.430
615.844
624.150
626.210
626.037
620.155
627.943
623.738
624.686
631.598
632.433
641.860
635.359
632.475
640.315
633.271
635.793
635.826
634.726
639.623
638.434
638.431
647.927
653.442
643.868
653.913
646.031
653.834
660.185
650.074
658.671
657.840
659.541
663.757
659.806
665.776
662.548
668.203
660.977
658.742
662.627
675.213
667.366
672.964
675.046
666.707
679.938
675.631
670.851
669.120
674.340
681.815
678.350
673.466
688.400
688.074
690.886
682.575
680.313
694.976
693.235
683.020
682.616
684.663
697.286
699.891
695.368
696.239
695.249
697.230
703.450
693.182
697.593
695.487
706.917
704.242
699.939
703.616
714.907
715.874
714.291
718.671
710.483
712.494
718.696
714.727
720.984
711.152
724.417
721.945
714.962
728.887
720.893
730.511
730.359
730.835
720.209
728.984
731.521
724.255
734.062
728.727
731.580
737.097
733.108
739.119
737.743
741.517
738.304
742.951
750.329
744.731
746.348
741.274
742.372
744.644
752.185
748.390
748.996
759.001
759.211
748.249
757.678
763.408
752.257
756.969
760.988
760.717
764.626
763.178
771.913
764.229
764.038
768.519
768.689
773.508
768.887
770.353
772.046
773.266
772.686
769.660
781.061
773.331
779.054
780.847
786.786
784.847
782.387
787.728
794.061
786.178
785.755
783.010
788.871
795.227
794.350
789.226
803.462
800.870
799.868
802.477
805.823
804.996
808.418
799.384
807.934
805.515
809.523
803.094
811.852
806.941
804.274
809.551
817.267
813.348
809.447
819.995
814.240
821.241
812.105
825.721
823.953
822.678
817.059
832.502
820.783
819.531
827.707
834.515
828.761
829.515
838.240
835.653
827.207
837.958
832.867
838.363
841.881
843.349
845.351
