534.248
533.387
543.199
533.449
531.866
541.582
535.200
542.779
533.923
537.346
548.643
547.907
545.036
553.168
555.143
546.878
543.957
553.931
558.446
548.649
552.618
559.091
547.692
563.654
562.933
551.147
558.818
555.270
562.951
568.160
567.794
566.612
560.129
565.241
567.990
574.974
569.100
564.046
570.608
572.439
572.052
575.358
576.191
578.690
574.864
572.070
572.626
578.673
582.331
578.764
584.254
575.414
580.500
582.636
583.870
589.804
580.392
584.180
595.662
593.626
593.044
598.301
599.697
595.360
596.296
603.029
596.324
592.667
595.986
595.548
597.203
594.897
595.924
596.994
601.931
600.098
599.506
612.973
607.296
610.066
606.037
609.635
619.573
608.032
607.880
608.057
622.331
613.599
614.584
616.972
624.634
623.306
630.130
620.630
628.177
630.435
623.218
631.964
633.683
627.847
635.510
628.716
626.309
626.681
630.720
629.732
638.299
634.154
633.751
643.841
632.281
641.240
645.806
642.845
648.565
640.556
646.412
654.903
640.064
644.323
655.820
656.876
647.443
644.924
653.574
660.013
662.936
649.600
649.601
657.886
664.221
655.054
659.129
667.129
667.832
662.520
668.456
670.993
663.329
663.585
676.082
672.359
668.567
674.896
670.727
679.882
675.803
681.125
674.658
677.211
686.593
682.861
673.433
679.319
683.104
680.894
677.709
689.010
685.470
683.833
683.851
684.521
698.047
692.446
689.974
696.821
700.631
701.427
703.665
697.569
699.987
703.469
704.918
705.490
701.575
703.440
711.962
709.398
705.864
711.853
705.567
708.149
716.196
717.978
716.093
715.787
717.654
708.941
711.209
711.413
714.845
726.370
718.868
714.356
725.655
724.389
722.443
718.649
731.974
726.719
720.295
720.042
720.780
732.966
721.699
725.928
731.243
723.162
732.245
722.810
733.149
734.888
736.208
739.383
735.641
726.956
736.502
727.051
728.378
729.164
735.823
732.924
736.655
733.132
732.587
728.456
740.535
739.181
728.874
730.808
734.409
742.627
739.523
740.710
741.905
734.760
742.638
743.620
745.143
747.652
735.671
736.481
741.288
748.859
741.190
747.497
742.652
742.045
739.183
736.484
740.349
736.062
739.916
749.001
740.998
741.700
746.470
745.227
753.755
751.592
746.467
753.182
746.335
747.870
741.867
746.083
753.171
752.919
751.938
748.816
753.048
755.949
746.252
752.678
757.400
751.687
754.205
759.307
751.050
757.913
748.764
758.497
756.781
755.089
759.250
756.452
759.211
749.125
763.333
757.772
761.512
755.562
764.554
751.417
754.442
759.692
750.838
751.104
761.207
756.952
755.594
760.825
762.814
765.816
767.966
753.915
756.174
761.578
762.125
768.331
767.162
769.967
758.778
768.522
765.282
770.815
771.760
772.344
766.090
761.626
772.474
770.149
765.197
765.938
763.618
760.636
771.296
772.991
773.244
763.539
769.078
770.009
762.310
767.038
767.903
769.675
767.900
774.095
766.917
770.767
764.555
769.272
773.300
777.368
769.885
770.511
768.083
769.139
771.740
773.732
768.321
774.265
769.268
776.861
773.030
783.856
772.889
783.006
777.492
778.408
773.679
782.480
774.784
781.708
786.542
784.369
782.282
776.116
788.498
780.633
782.559
785.166
789.576
785.416
778.799
790.792
787.493
778.615
785.018
787.909
785.190
784.359
792.253
780.787
782.648
784.161
786.641
785.005
787.508
791.458
789.363
786.637
790.900
782.878
792.922
791.602
785.159
785.640
795.838
784.920
789.053
798.496
788.423
796.286
793.259
792.307
802.372
795.295
796.463
796.035
802.702
788.927
795.933
801.621
801.947
806.126
798.609
797.796
806.649
797.177
792.566
799.644
807.239
797.030
806.754
803.975
802.627
806.642
796.220
803.773
802.999
807.808
808.278
802.843
812.449
799.840
799.860
800.362
812.131
809.337
803.653
813.294
811.740
806.184
817.624
814.683
808.631
804.184
806.785
806.598
807.611
816.107
817.962
807.045
807.680
814.858
822.884
820.526
818.577
819.605
815.762
816.609
824.630
823.488
811.441
827.572
825.829
813.926
820.894
821.866
817.320
821.226
821.813
831.062
827.311
822.528
824.853
831.948
828.009
831.959
833.764
827.750
820.330
820.676
825.165
827.104
831.902
821.427
826.688
830.742
831.285
833.388
825.852
836.910
827.384
833.231
825.131
832.466
840.650
830.747
839.550
837.882
843.047
836.799
830.562
841.202
842.608
842.538
836.870
833.050
843.848
836.169
840.210
837.497
834.205
841.183
835.558
844.221
845.833
837.974
845.673
836.201
851.980
842.161
850.381
843.999
849.452
851.275
853.159
847.612
839.867
847.551
851.150
848.578
849.288
843.337
856.086
855.940
853.917
853.449
844.643
856.263
857.509
854.850
859.786
861.927
846.814
848.364
849.108
848.314
856.664
862.965
860.589
865.009
860.103
853.599
858.667
865.034
866.473
868.110
868.154
862.996
863.608
866.997
861.474
865.014
864.267
864.914
861.421
867.083
858.549
863.165
873.739
860.098
873.982
867.426
866.505
869.262
869.511
876.460
873.915
862.086
874.574
870.629
872.442
867.060
868.285
879.574
869.178
866.088
877.839
876.131
876.676
878.422
879.472
874.228
877.747
878.607
873.760
878.558
877.053
876.273
876.136
879.417
882.050
881.489
868.875
870.908
878.808
881.293
879.522
870.229
880.937
870.669
873.880
876.622
868.198
879.815
872.212
878.058
879.452
881.821
869.091
866.632
878.276
865.978
867.487
878.013
878.865
873.465
867.992
871.381
876.876
870.613
872.818
865.400
878.057
878.568
868.038
867.903
876.175
868.393
878.938
878.316
878.439
875.027
873.092
871.235
864.036
874.955
873.384
867.476
865.310
877.181
875.874
869.752
866.311
861.325
873.781
871.508
876.186
869.105
861.876
860.395
868.567
872.028
873.257
862.641
868.057
861.240
867.870
867.432
863.897
865.161
860.733
860.911
871.403
860.880
858.795
860.341
868.325
867.132
864.060
867.918
871.700
861.431
856.379
861.810
858.997
866.668
858.310
864.527
860.670
863.334
870.491
866.285
859.808
859.335
859.819
860.303
864.963
865.829
866.367
868.578
867.612
855.758
855.630
854.421
858.372
866.212
861.706
856.783
861.025
855.277
864.627
852.264
863.442
853.274
865.665
854.263
862.239
862.483
860.616
850.849
863.196
856.445
862.469
865.466
853.078
850.320
849.852
865.088
862.942
852.706
863.351
864.359
850.752
859.827
855.032
855.501
861.031
853.253
856.032
849.634
854.690
847.225
859.211
862.688
859.315
855.446
851.591
858.832
854.561
860.610
847.287
847.995
847.934
858.088
857.515
853.639
845.820
859.932
851.129
846.731
856.530
853.397
844.787
859.292
847.492
858.646
854.567
854.184
846.221
858.182
855.394
852.251
853.318
848.273
849.482
856.337
841.681
852.690
856.375
855.668
853.386
848.554
846.090
854.373
850.203
851.144
850.211
848.103
855.159
846.085
855.187
852.786
849.388
852.580
853.914
849.953
849.466
851.418
851.532
847.065
852.997
846.780
840.547
841.563
848.343
841.509
849.311
845.521
845.173
835.936
843.352
837.646
838.020
835.440
842.751
833.314
846.245
834.664
834.436
831.992
843.045
843.924
835.612
844.863
837.368
832.604
833.410
844.076
832.096
831.089
832.537
834.480
837.357
832.429
830.238
839.065
829.184
842.103
834.589
834.639
828.933
840.867
830.754
824.954
830.497
834.569
832.270
831.316
824.575
830.149
830.889
823.407
827.661
830.230
824.913
832.887
830.526
825.812
828.886
828.179
829.122
834.958
831.855
827.652
830.758
830.522
823.549
823.546
830.980
823.273
824.571
828.481
821.237
824.190
816.674
816.729
822.165
824.626
828.870
829.668
818.417
828.828
821.597
816.320
824.370
813.940
815.439
817.440
816.723
817.486
812.727
818.383
817.906
819.523
813.901
811.574
815.618
815.720
820.579
815.769
815.440
814.615
812.755
814.622
812.240
816.991
822.178
814.511
818.317
806.480
813.552
810.223
811.849
817.140
804.662
803.969
803.658
805.739
804.225
808.916
804.473
809.039
809.147
815.649
809.842
812.981
802.983
802.203
808.970
810.900
813.711
811.524
801.688
803.123
809.523
809.100
798.357
802.575
804.239
810.718
801.329
799.470
804.896
806.897
810.102
808.331
806.866
795.259
805.814
808.909
805.085
808.948
803.812
801.818
799.942
797.286
795.322
795.660
799.621
797.830
806.434
804.201
799.918
789.692
801.656
789.836
789.943
790.553
793.935
796.109
788.459
795.650
802.248
792.409
787.287
793.611
788.470
791.190
789.386
793.170
798.387
794.849
797.863
798.179
793.613
793.195
787.423
795.576
783.982
796.826
791.592
786.292
781.823
788.394
794.095
793.640
785.255
781.403
783.901
793.271
781.905
776.983
788.439
781.848
784.925
775.291
779.799
783.714
773.418
781.427
781.143
776.934
770.462
774.872
772.362
776.835
770.074
764.552
765.307
775.331
762.728
775.667
762.755
762.889
769.373
771.414
768.654
767.015
770.877
761.333
767.383
758.999
763.745
765.705
751.238
756.661
756.957
754.256
758.572
757.972
748.915
754.837
751.281
752.147
750.416
750.240
749.506
743.258
747.641
750.200
753.085
744.669
743.623
750.017
745.345
736.039
739.768
741.308
748.469
736.103
733.981
745.036
739.944
744.528
740.415
729.551
735.337
740.125
732.911
726.740
728.230
728.885
730.465
726.441
724.008
723.143
726.670
718.863
733.141
731.109
722.411
729.185
723.189
719.906
727.554
727.915
726.541
721.957
715.345
710.100
712.561
719.379
718.754
717.493
713.186
717.524
709.619
703.233
712.276
703.074
704.619
712.387
712.816
705.101
702.384
696.880
699.848
707.719
710.324
705.501
703.587
706.828
696.922
700.881
701.403
692.239
702.572
692.897
697.910
688.773
691.317
698.235
686.313
687.167
697.790
682.495
681.658
687.958
687.082
686.889
678.407
684.562
685.007
680.316
686.073
685.047
676.711
680.473
687.105
679.154
685.318
679.850
670.551
669.500
671.383
677.331
667.633
680.574
665.879
670.542
664.549
668.166
662.589
672.117
659.709
669.349
672.274
660.041
667.076
655.960
669.283
664.599
655.350
667.672
653.016
663.253
661.943
649.874
664.301
654.385
654.587
661.142
657.275
652.457
645.629
647.119
645.422
646.179
649.666
643.432
646.890
648.921
641.064
650.856
648.804
642.177
647.794
646.792
634.054
634.503
635.520
645.664
630.594
641.054
639.102
640.467
632.970
634.715
630.519
633.404
635.228
632.975
634.488
640.330
639.810
626.776
641.399
627.349
628.496
627.332
629.565
637.141
636.742
629.338
640.910
634.223
637.782
631.315
632.728
640.916
625.737
635.129
632.332
630.162
639.107
628.211
629.427
637.486
627.762
626.269
636.941
629.943
630.242
626.103
628.521
624.086
626.036
630.508
635.482
629.899
630.496
628.562
637.188
630.843
634.005
623.676
628.140
625.834
625.585
626.184
622.677
624.096
638.272
634.518
629.227
627.499
623.780
622.299
637.391
636.571
629.312
629.125
629.615
622.242
625.554
630.487
624.026
635.431
630.310
628.789
630.407
630.153
633.674
632.204
621.285
633.940
629.562
634.459
628.356
631.921
630.635
627.879
633.270
624.688
628.405
620.088
624.550
634.307
620.161
633.319
625.052
631.663
626.059
634.184
619.518
619.757
624.628
623.381
625.731
626.127
626.788
625.089
622.736
633.314
628.278
620.642
626.063
631.247
622.872
629.951
631.365
620.345
629.327
623.705
617.156
630.550
627.267
618.159
631.171
621.612
617.996
618.019
627.052
619.288
625.280
618.237
617.929
621.617
618.066
626.253
622.724
624.403
615.644
618.168
617.227
615.587
617.222
621.034
619.649
626.836
630.376
628.287
625.808
615.322
621.639
617.255
620.404
625.959
628.081
623.831
624.545
616.466
616.369
616.762
626.312
622.588
628.985
622.726
628.801
625.744
615.343
625.075
622.262
625.493
627.856
618.410
626.271
623.546
627.270
620.328
621.939
618.796
622.308
621.290
622.370
617.690
623.901
615.566
626.388
619.545
611.222
615.459
616.693
620.878
625.315
618.569
624.174
620.851
612.224
622.588
612.458
614.094
611.166
622.088
620.397
616.028
624.679
624.407
613.765
625.755
621.619
626.643
632.229
627.542
633.058
633.071
633.945
636.622
640.265
627.067
636.474
637.849
645.573
638.617
637.691
639.413
648.205
650.485
650.559
655.717
643.571
652.871
658.493
651.545
659.872
663.643
651.880
652.517
657.147
660.205
667.108
656.437
659.638
662.044
664.902
668.991
671.164
677.764
675.856
668.908
679.040
675.971
675.558
685.245
674.458
677.985
679.827
680.636
689.962
684.149
692.506
684.999
692.430
692.174
694.523
698.179
695.410
705.012
699.869
705.439
703.033
709.684
707.986
700.584
712.706
701.175
703.133
707.461
713.202
707.799
708.249
709.047
719.385
719.352
716.079
717.159
728.830
718.943
717.736
734.012
727.186
735.901
727.098
736.106
729.735
736.524
730.417
738.267
731.587
746.890
734.684
740.739
735.726
739.277
751.042
754.829
754.775
744.905
746.068
748.684
749.409
752.924
754.551
758.725
764.037
765.797
756.259
761.014
769.991
766.249
772.377
764.891
775.701
768.734
776.182
769.354
780.448
775.611
783.821
772.769
783.615
777.727
774.901
790.567
779.675
782.294
789.070
791.110
786.447
797.635
790.659
790.500
794.319
802.184
804.497
803.722
795.574
801.796
800.014
809.563
806.417
814.221
814.978
814.555
812.873
819.542
810.104
817.582
811.030
825.324
820.385
823.202
826.485
826.486
822.360
826.717
832.128
823.093
837.009
828.353
825.862
829.650
827.734
836.337
843.503
837.675
833.773
846.984
849.144
844.731
848.989
843.507
851.992
843.190
856.392
854.982
852.973
857.482
858.843
861.798
852.360
857.990
860.537
869.133
870.072
872.682
866.817
874.414
867.749
872.213
868.682
870.343
876.968
870.692
873.821
875.026
880.741
882.883
883.079
877.768
880.694
878.082
881.771
866.597
876.707
874.582
874.122
873.424
867.525
863.886
866.422
873.593
874.153
871.286
870.697
859.227
864.866
862.692
853.503
857.442
866.497
861.546
863.523
863.411
859.664
858.187
856.644
849.278
847.195
846.492
852.768
852.269
845.104
841.274
844.846
849.230
852.996
851.041
845.723
845.308
844.512
839.904
834.300
837.584
831.727
838.527
840.096
838.767
837.997
830.758
841.796
831.451
833.363
826.823
832.445
835.868
828.820
833.961
832.298
828.339
830.411
822.880
818.840
821.321
824.940
822.546
814.800
826.465
818.028
823.859
820.231
811.826
809.616
817.796
812.254
817.225
816.255
814.579
804.753
810.935
811.662
802.266
803.277
799.010
799.526
808.317
803.846
805.057
797.455
796.996
794.510
791.784
796.849
799.521
789.027
791.050
787.358
792.373
789.980
789.173
784.495
794.467
794.280
794.613
786.795
786.733
781.978
778.319
792.113
782.329
789.969
776.616
788.116
780.805
783.072
777.881
784.482
773.887
773.369
778.463
778.960
779.038
766.703
772.629
773.354
768.579
776.255
761.521
763.754
772.270
760.102
761.072
765.943
763.740
761.440
766.068
768.059
760.388
761.378
754.854
764.570
758.313
749.688
749.708
750.597
749.010
746.320
748.093
742.974
754.026
755.202
748.543
753.720
741.777
743.719
739.770
746.365
736.826
748.214
743.094
741.865
732.724
737.315
735.241
744.771
739.426
734.458
734.683
740.356
731.270
739.612
731.551
722.900
727.921
722.878
735.511
727.685
731.157
728.950
732.026
720.181
718.749
723.717
723.530
727.250
725.160
717.037
719.793
720.665
713.648
718.617
720.037
710.155
717.462
710.255
703.935
702.593
707.167
704.806
701.529
713.640
707.508
712.010
705.416
704.240
706.575
702.895
711.807
711.429
709.420
702.564
704.872
698.479
706.078
710.201
695.227
696.079
706.469
705.996
702.116
704.442
691.457
699.142
696.208
699.171
696.931
704.190
690.735
693.921
691.478
691.124
693.260
693.510
693.287
695.177
692.641
697.759
689.326
698.071
697.997
686.725
695.070
697.179
697.827
687.040
695.733
681.707
694.843
691.698
687.232
684.360
680.516
685.985
690.871
691.217
677.554
680.988
676.828
689.849
681.495
689.281
687.098
678.818
677.276
686.844
680.824
679.166
677.889
675.148
672.545
674.344
682.132
676.587
678.315
679.954
681.976
683.088
671.268
670.728
675.525
682.598
668.719
670.104
669.365
677.965
671.882
668.185
665.339
668.959
672.119
668.625
668.851
667.708
663.562
667.318
669.116
671.516
664.549
664.606
667.820
674.145
668.014
660.008
669.035
664.041
657.998
659.596
662.714
658.679
663.626
669.670
664.498
662.655
658.103
664.168
658.629
665.995
665.857
659.918
663.868
652.498
660.129
664.075
656.523
654.228
663.072
652.127
654.703
659.038
660.549
656.223
655.812
650.032
655.639
646.341
656.093
655.984
651.149
647.345
651.513
645.983
646.319
652.769
646.333
645.432
650.047
647.335
655.177
641.993
648.925
646.357
653.476
652.632
650.075
643.611
648.744
642.773
648.144
644.573
649.351
642.258
641.328
635.026
642.203
638.073
643.673
639.363
634.135
641.640
633.963
643.524
639.372
637.603
634.662
629.954
637.877
640.075
643.248
635.492
632.688
635.106
633.472
629.911
639.617
626.611
636.920
634.062
624.391
624.248
629.855
629.848
627.190
629.203
631.430
625.104
628.707
