507.944
517.948
506.860
519.387
513.080
514.569
527.770
521.230
520.722
534.409
533.240
536.536
538.647
542.473
546.616
541.452
546.206
545.321
556.389
551.926
563.754
553.292
553.236
557.938
563.169
561.010
573.487
564.157
568.340
575.712
578.563
581.475
583.850
577.924
580.210
585.901
597.962
591.665
596.420
601.377
606.678
603.495
606.787
607.677
605.953
605.575
618.550
619.999
618.313
615.607
620.353
623.066
632.645
635.864
641.263
641.698
641.958
634.872
645.471
644.163
640.069
655.165
656.469
650.989
651.432
655.807
668.255
664.575
666.264
664.121
676.078
665.834
676.402
672.703
683.920
688.992
677.181
684.622
695.470
690.033
689.417
695.257
696.547
692.732
702.260
705.768
712.738
714.587
710.938
708.152
720.866
713.040
718.252
716.208
729.572
729.470
726.958
738.269
732.057
742.157
747.018
744.094
743.706
751.187
750.560
746.891
752.734
752.609
761.049
756.365
760.724
767.655
766.085
762.526
765.553
779.047
776.355
772.280
787.768
780.574
785.418
779.384
790.991
799.363
789.108
800.866
796.917
805.580
795.098
799.544
813.250
806.550
812.936
810.960
819.211
820.889
822.586
821.357
823.861
824.435
832.516
839.372
841.955
840.408
835.435
844.787
837.898
844.105
848.740
846.665
857.742
860.146
862.787
866.301
862.491
863.575
871.910
869.906
870.008
871.474
876.456
882.887
877.251
879.755
892.275
891.701
897.454
889.007
887.969
903.610
891.221
901.107
896.605
900.266
914.719
905.620
919.023
920.446
916.206
926.215
926.667
918.499
928.983
934.584
934.904
933.082
927.777
932.675
941.064
941.921
944.330
950.026
945.118
955.437
959.050
956.562
956.013
953.160
970.660
971.927
960.089
966.408
969.827
963.967
960.011
954.419
962.039
964.151
948.727
949.254
945.552
957.026
955.947
943.253
954.355
940.632
950.290
939.150
946.540
946.688
932.753
934.535
937.749
939.387
925.384
930.577
933.838
924.153
919.504
928.307
931.531
917.227
916.837
916.686
925.105
908.518
908.328
909.264
906.876
904.989
907.908
903.221
900.929
909.494
895.973
907.445
897.502
904.287
893.164
900.107
897.962
895.154
890.112
892.961
881.425
889.664
888.596
877.378
879.548
879.790
878.699
884.861
873.452
880.473
877.296
872.537
874.660
869.515
861.371
872.567
871.798
858.673
865.158
859.849
863.488
863.565
862.722
859.556
860.420
854.303
843.507
845.354
840.925
844.682
846.358
850.131
840.483
832.639
844.196
839.993
836.659
839.778
832.600
831.604
826.671
834.419
827.845
827.412
822.705
817.925
825.599
825.677
815.850
815.797
810.423
808.361
814.800
809.307
816.528
808.479
807.345
798.364
807.177
804.604
805.616
801.352
791.208
790.097
801.857
797.055
794.456
785.959
785.216
779.455
788.756
779.167
782.740
788.497
775.299
785.790
777.178
773.063
769.580
777.744
774.093
776.670
761.863
768.496
763.326
757.976
756.502
767.616
759.361
761.128
748.748
747.152
752.125
751.134
756.356
755.974
741.702
748.775
743.454
738.028
738.628
735.876
737.269
743.657
741.610
730.725
732.477
727.530
733.059
726.258
725.985
726.013
725.011
725.254
715.320
722.136
711.755
716.615
710.339
708.647
710.074
704.151
702.708
708.681
707.766
699.813
703.618
708.578
707.965
705.414
699.347
690.798
702.693
700.642
693.051
692.955
688.793
686.934
678.770
690.305
683.942
685.207
672.466
686.868
674.330
673.351
678.759
681.718
679.752
671.071
677.649
680.134
683.144
681.496
674.209
687.936
682.546
680.643
678.339
689.809
678.312
685.510
693.162
683.405
684.310
682.534
686.524
691.909
696.586
688.280
690.823
695.154
692.482
689.747
704.184
701.910
692.952
698.716
694.653
704.135
703.008
707.382
700.727
711.385
711.256
701.059
700.604
709.148
702.120
703.609
703.400
709.836
719.165
714.383
718.975
719.145
718.083
714.145
713.488
720.083
719.979
713.703
714.601
725.314
719.595
728.948
718.525
717.411
728.403
718.297
726.914
731.710
735.564
722.765
722.561
730.606
728.835
731.992
737.894
736.207
736.638
738.852
743.526
729.113
731.851
738.249
733.636
741.466
741.205
748.138
748.638
746.122
740.250
748.727
739.983
743.712
748.128
754.362
747.985
755.552
748.435
749.881
749.440
757.360
757.228
750.967
751.883
751.094
761.189
762.124
753.923
758.134
756.186
766.463
756.749
766.855
755.835
766.717
771.632
768.377
774.795
768.109
772.708
770.705
774.540
766.536
769.011
775.952
780.694
776.038
772.365
783.846
772.122
782.007
775.635
777.315
781.150
783.545
787.331
782.096
782.536
782.049
786.331
793.274
793.696
785.752
784.515
790.916
788.983
789.545
796.805
794.666
789.384
792.893
799.981
795.994
793.863
798.670
799.615
800.165
806.801
796.347
794.919
796.024
800.121
807.367
797.706
798.964
804.580
811.558
808.912
813.370
810.324
807.539
805.101
814.033
806.052
815.006
813.944
819.802
814.558
822.756
818.118
815.062
817.742
816.450
820.396
827.652
814.198
826.898
826.261
832.523
824.171
831.125
827.839
834.651
825.807
830.757
834.229
828.089
824.055
827.999
830.862
828.520
831.482
830.948
834.054
840.707
842.203
842.767
831.628
831.933
842.775
834.972
840.638
843.215
843.826
844.061
840.296
835.038
837.587
840.450
847.138
850.227
843.785
847.115
850.319
838.222
848.734
848.677
850.442
843.696
848.349
849.736
846.746
851.994
846.372
847.020
855.821
848.976
848.709
845.954
850.470
856.734
849.748
852.845
861.747
854.616
861.085
854.336
862.217
862.766
862.207
849.054
858.057
856.524
858.772
853.066
863.071
861.977
861.911
859.171
861.316
854.146
869.511
867.439
870.137
865.070
867.527
871.284
865.050
857.342
866.674
865.872
868.895
864.553
874.498
872.836
862.005
869.041
874.208
873.806
871.905
877.832
869.754
876.192
868.229
876.795
869.192
864.871
865.668
868.542
867.678
881.286
867.974
877.775
873.383
869.322
871.473
878.211
869.795
881.987
877.409
870.671
879.312
883.384
873.675
884.411
885.156
885.508
884.112
889.484
881.964
878.606
889.290
877.347
885.930
877.518
887.210
891.751
881.296
886.952
884.238
890.882
888.150
883.662
885.219
883.617
890.381
883.134
891.662
894.908
885.333
887.862
889.767
892.103
896.591
894.104
893.390
895.472
890.072
891.327
901.022
892.117
897.055
893.292
894.235
901.424
901.252
905.644
901.264
891.533
893.035
901.019
903.101
900.540
905.473
894.488
895.388
898.581
907.581
900.519
907.462
904.392
905.502
899.987
908.487
912.088
910.210
907.777
900.661
901.664
908.862
910.950
912.530
914.974
916.662
917.124
912.942
911.177
911.736
919.459
915.815
914.378
907.129
921.225
911.516
907.051
912.911
908.579
916.719
916.382
918.095
921.938
917.602
917.853
918.270
912.985
927.089
917.483
920.283
916.523
913.664
922.510
916.821
922.136
926.036
923.300
930.845
932.833
920.223
926.339
919.962
920.471
931.008
928.248
926.555
935.545
923.406
931.887
925.875
929.837
941.203
940.161
931.445
936.470
934.329
934.491
940.263
939.852
945.087
934.591
947.011
938.573
947.525
938.261
948.744
945.632
943.812
942.157
941.930
948.552
945.211
944.171
945.042
946.579
957.593
958.027
947.635
947.950
957.932
959.364
952.760
958.711
952.341
951.527
959.267
952.511
952.113
954.083
955.111
962.071
969.015
969.789
956.365
958.412
967.430
968.296
973.409
966.411
967.965
967.725
962.401
969.204
968.409
971.237
968.865
973.742
966.288
978.745
970.753
977.000
981.489
972.493
972.130
980.508
978.980
977.797
978.219
973.570
974.005
984.301
987.877
990.862
983.676
984.656
989.626
987.469
992.849
994.293
994.696
985.970
992.599
989.893
994.014
994.203
986.078
997.833
995.496
1001.657
997.102
1000.987
991.020
991.630
991.349
998.784
995.931
1005.298
1005.940
1003.854
995.645
1000.257
997.942
1009.509
999.477
1001.786
1012.211
1006.819
1006.384
1007.045
1017.519
1007.548
1012.256
1011.687
1012.543
1007.263
1014.165
1022.492
1013.478
1021.097
1021.089
1017.449
1014.554
1024.593
1015.145
1020.533
1015.150
1028.178
1020.154
1022.052
1028.114
1027.253
1030.604
1019.768
1026.186
1030.154
1030.185
1031.397
1027.748
1032.450
1036.073
1029.057
1037.601
1026.874
1039.001
1036.478
1037.504
1041.293
1030.751
1038.865
1038.918
1031.473
1034.469
1033.623
1039.761
1034.597
1037.010
1046.958
1039.447
1051.536
1041.824
1042.290
1054.359
1046.277
1042.855
1053.507
1050.200
1044.219
1053.612
1045.118
1057.426
1047.895
1059.237
1054.729
1047.758
1059.228
1051.178
1062.022
1065.504
1056.959
1067.114
1065.477
1068.163
1057.913
1067.201
1061.745
1057.049
1063.578
1065.491
1055.917
1055.424
1063.952
1047.807
1051.988
1045.936
1045.992
1047.311
1046.031
1052.349
1044.402
1039.885
1040.302
1038.676
1038.835
1035.821
1042.257
1027.114
1023.944
1036.430
1028.294
1028.390
1019.246
1024.086
1021.648
1013.577
1013.823
1012.512
1018.561
1007.371
1009.433
1007.777
1016.359
1006.898
1013.134
1008.606
1009.963
1005.464
1009.539
1007.469
1001.285
1000.695
991.915
992.452
992.463
991.351
989.152
981.805
989.698
990.120
976.952
988.233
984.669
981.127
974.640
976.806
973.919
966.081
971.202
974.252
971.730
970.594
960.168
962.622
963.550
962.567
958.011
955.832
958.432
963.087
958.295
952.823
958.406
954.289
951.023
950.712
952.548
936.210
934.272
933.647
939.224
930.932
939.992
935.543
940.375
926.192
931.826
924.849
922.864
924.622
917.657
927.587
921.806
926.713
922.264
921.821
922.364
916.547
913.680
917.931
904.518
900.086
909.359
902.978
899.514
904.840
899.598
897.384
895.224
891.672
893.350
885.645
895.167
885.720
891.603
879.824
877.963
889.110
875.632
873.174
870.525
871.888
873.663
872.717
872.768
863.663
869.941
875.310
867.526
863.013
864.120
862.539
859.531
865.537
859.195
853.931
853.092
852.529
849.853
848.265
848.585
840.385
846.909
846.390
842.077
833.365
841.837
840.636
830.148
837.283
839.695
835.376
826.865
829.543
821.224
817.801
826.685
826.518
828.653
819.329
820.334
820.043
816.317
813.867
808.327
814.114
810.340
807.793
798.528
802.936
804.767
802.281
794.910
794.796
804.647
801.642
797.411
785.677
788.813
793.905
780.430
783.784
785.724
784.809
777.450
772.873
784.933
777.652
780.334
767.241
765.747
770.863
771.514
764.043
759.580
770.326
768.280
761.546
758.851
757.899
763.729
754.106
758.007
757.283
760.529
761.608
754.335
752.926
759.877
753.348
748.466
759.016
757.939
746.124
757.471
746.117
753.141
750.795
751.455
746.335
749.955
737.903
751.843
750.814
739.091
745.559
738.248
735.516
735.885
747.120
739.691
744.807
739.342
735.325
742.940
730.604
727.587
728.271
733.637
734.285
735.845
732.832
731.734
730.075
733.018
731.026
723.198
726.818
733.046
724.727
718.697
732.342
720.522
725.455
716.995
714.682
724.800
714.348
723.396
714.044
713.369
722.196
715.037
713.094
708.634
711.367
711.932
706.229
717.323
717.916
710.007
711.458
704.437
706.428
712.556
714.737
714.692
703.625
704.359
709.130
698.800
711.223
699.313
697.657
695.181
708.777
702.387
696.408
691.894
691.837
690.188
690.195
702.149
689.974
692.154
692.304
691.078
700.184
684.634
687.708
685.209
692.672
690.688
695.429
686.921
681.425
691.227
686.844
682.537
680.316
687.871
683.653
690.550
687.150
677.901
674.654
683.510
686.576
679.146
678.138
683.441
680.524
669.941
673.689
672.550
679.549
674.928
666.529
676.565
670.629
674.971
668.747
669.847
672.636
666.937
659.005
669.671
668.733
663.038
670.350
663.625
658.831
663.881
657.689
652.702
660.760
666.926
654.935
662.873
653.836
649.836
652.683
656.657
660.831
646.365
647.916
646.746
643.619
657.030
644.598
656.064
645.867
654.704
647.784
650.436
646.986
646.660
645.798
648.948
637.723
642.617
639.149
639.929
646.165
639.378
645.536
630.592
643.383
637.550
635.191
637.479
637.611
626.379
633.467
637.504
629.197
635.391
622.741
626.711
636.512
625.712
631.494
628.199
631.180
623.394
617.903
631.950
622.744
616.914
620.027
633.563
631.668
631.367
624.865
637.474
626.027
626.124
639.605
632.189
641.270
630.365
636.765
647.278
641.322
636.638
644.827
648.907
644.499
643.700
647.775
640.988
652.032
656.357
655.000
649.843
649.788
657.394
651.242
655.140
661.757
662.003
658.435
657.020
661.868
658.300
669.896
670.005
667.801
671.082
672.407
665.029
679.422
679.061
679.355
669.331
671.944
672.144
674.093
686.164
686.694
683.397
677.493
681.585
686.446
680.901
694.340
680.722
696.374
682.662
698.404
695.000
698.725
701.086
694.752
692.486
692.798
704.185
705.311
694.487
704.699
708.717
698.094
699.592
704.200
708.991
714.605
711.889
714.691
716.031
709.611
717.082
716.958
713.027
712.503
725.210
714.164
722.395
722.933
718.047
716.519
730.812
734.522
724.870
723.915
727.413
738.122
737.669
731.130
728.523
733.915
729.120
731.299
742.297
741.108
735.325
738.533
744.053
739.739
746.694
748.077
747.731
743.590
742.155
753.685
753.137
759.766
746.646
759.169
754.247
760.406
755.851
764.116
766.355
754.362
769.871
771.003
767.173
773.227
771.448
767.051
776.143
766.031
766.845
771.589
778.981
767.817
779.781
779.619
783.705
771.665
775.766
773.851
780.648
789.687
778.715
788.043
787.587
784.226
783.902
784.138
783.174
796.436
788.522
797.666
799.802
791.766
798.691
802.463
792.607
797.635
797.608
810.576
806.320
801.912
812.112
799.823
810.024
811.109
808.988
813.661
811.875
813.654
814.482
820.634
814.562
817.652
826.324
818.200
821.871
823.830
822.639
821.445
824.241
831.537
820.748
830.023
828.680
831.076
836.120
829.284
837.189
837.137
829.237
838.914
840.409
835.540
845.854
843.543
842.685
845.858
846.810
850.559
847.638
853.155
845.941
856.621
845.676
852.029
851.989
856.168
853.686
862.413
861.065
853.753
854.691
853.675
864.011
856.392
867.263
859.139
863.963
871.602
869.900
868.576
866.833
873.195
874.533
872.511
879.628
870.821
874.492
876.516
881.482
872.933
881.312
884.402
882.828
890.850
890.062
889.451
887.949
881.466
887.441
884.317
888.230
898.638
886.227
898.794
903.760
899.803
892.475
898.270
907.989
895.219
899.657
910.581
896.965
908.658
905.187
913.905
907.121
902.496
905.303
909.780
912.790
910.451
908.651
920.829
924.232
916.754
919.032
913.796
926.469
915.464
926.366
931.951
917.334
931.263
928.772
927.768
935.015
925.626
924.749
937.676
930.886
934.325
939.903
934.760
933.563
938.331
938.220
941.308
936.826
940.367
949.438
945.290
939.574
946.309
950.740
948.702
945.423
957.742
948.277
945.913
948.692
955.800
951.542
960.747
963.303
959.158
958.467
969.228
969.098
971.846
971.936
962.313
974.547
961.256
972.569
968.913
966.001
977.364
974.358
968.217
981.656
983.061
976.450
986.156
985.607
975.659
988.342
981.101
989.827
989.568
991.449
979.709
984.952
988.977
987.811
996.277
995.836
991.499
1001.945
989.236
1003.327
993.782
1000.303
997.631
997.455
1001.152
995.930
997.218
999.318
1002.164
1010.827
1004.887
1011.082
1002.957
1004.848
1011.275
1014.911
1014.781
1022.903
1019.214
1010.920
1016.336
1011.421
1028.305
1021.579
1028.324
1031.333
1018.720
1026.738
1029.942
1033.630
1026.321
1024.825
1034.878
1039.626
1029.142
1040.904
1035.111
1032.028
1031.500
1043.410
1032.990
1037.987
1040.315
1042.709
1041.104
1044.514
1041.948
1049.985
1055.271
1044.396
1050.510
1052.642
1045.924
1049.389
1049.378
1056.489
1048.050
1048.569
1044.377
1046.236
1050.843
1038.364
1035.263
1035.669
1044.390
1045.834
1033.216
1044.560
1039.663
1041.705
1031.592
1030.565
1039.801
1038.136
1023.762
1028.274
1024.876
1028.076
1026.013
1020.533
1022.024
1022.795
1018.659
1018.165
1026.769
1025.684
1010.256
1016.403
1018.521
1014.766
1009.764
1010.863
1007.941
1005.769
1005.567
1010.942
1010.478
1002.708
1003.046
999.869
1004.088
1010.347
1002.253
1005.672
992.848
1004.281
1004.412
996.725
998.702
997.071
991.329
986.953
987.366
990.909
986.009
989.313
985.815
993.062
990.684
990.252
982.925
983.517
979.304
982.164
976.744
971.027
985.286
975.673
971.530
971.095
976.857
971.752
973.946
973.750
968.034
964.166
971.259
962.263
959.877
967.870
960.409
958.687
969.191
964.121
958.983
959.835
959.639
950.163
957.135
958.188
955.534
953.814
959.969
952.189
945.634
946.824
941.224
951.084
951.171
943.926
941.852
948.869
949.292
944.487
940.510
939.967
934.857
933.840
930.127
936.787
930.942
929.441
925.181
938.471
931.829
924.320
931.927
921.402
930.792
922.260
921.248
918.424
921.443
926.038
923.359
918.290
910.963
915.874
920.749
920.361
909.238
910.474
912.969
917.347
904.779
909.235
915.627
907.433
908.199
900.231
898.186
904.989
901.440
907.713
906.794
894.417
900.389
895.447
892.682
887.363
896.605
896.485
891.218
895.768
884.424
895.375
885.882
893.292
882.935
877.883
881.259
880.407
884.047
873.879
879.885
875.199
870.834
883.102
875.960
881.791
879.826
872.523
876.545
865.359
868.213
873.487
870.309
871.075
866.579
868.588
861.635
868.867
861.945
859.645
858.678
859.350
853.523
865.000
851.765
858.072
861.699
847.280
