188.992
194.785
197.470
194.689
197.965
210.858
200.570
215.443
218.213
205.291
218.877
219.204
211.976
221.603
218.523
218.134
225.385
231.693
235.845
235.162
230.354
233.012
232.586
248.292
249.520
249.932
250.034
252.848
251.304
253.921
262.106
249.329
261.270
263.480
254.495
264.731
270.172
275.401
266.220
265.709
281.415
275.536
275.730
282.353
275.026
291.870
286.080
287.291
292.046
294.050
289.927
300.102
296.772
297.189
307.622
300.677
300.061
304.168
309.719
307.775
312.951
309.143
315.739
324.347
327.130
317.793
325.050
333.140
324.569
324.609
329.683
339.160
331.556
338.626
345.898
343.179
339.204
354.364
351.719
343.295
345.329
354.411
356.259
354.612
362.849
355.102
372.373
360.927
372.356
378.140
366.410
373.031
381.177
375.618
386.120
387.304
385.124
385.761
394.667
385.946
387.010
400.521
394.668
400.318
399.083
399.224
409.810
400.715
414.229
412.454
412.311
410.331
421.394
414.428
413.968
415.003
428.362
429.578
433.909
424.264
428.258
440.865
428.907
439.597
445.551
438.283
436.502
445.400
439.180
455.251
452.660
452.260
461.532
456.917
465.625
455.125
470.286
470.346
459.143
465.796
462.612
467.263
480.626
475.122
478.304
482.991
489.904
490.159
487.888
494.013
484.925
488.021
489.340
498.668
502.337
500.981
498.965
507.004
498.198
504.448
509.701
507.048
510.194
519.129
511.866
527.363
518.575
527.822
531.117
521.763
530.475
537.301
527.117
536.586
543.607
539.130
541.798
541.220
539.715
555.006
547.205
548.902
546.449
563.031
555.521
562.028
558.967
560.761
566.707
564.306
575.965
576.932
580.509
570.050
571.261
571.534
584.317
582.388
578.641
580.905
583.158
596.833
596.081
586.248
584.641
589.225
602.255
591.003
591.071
596.948
597.789
592.155
594.098
602.189
598.153
610.708
611.433
610.777
604.995
599.805
600.706
604.070
615.228
611.170
608.507
607.395
620.327
611.295
623.749
610.844
614.441
611.649
622.041
617.200
624.283
622.574
616.679
622.704
624.295
629.797
630.181
622.023
625.329
624.325
629.840
634.650
640.295
630.753
640.937
629.196
632.015
632.476
637.204
633.014
641.059
637.536
650.641
652.732
640.516
654.230
644.921
646.265
642.432
643.630
656.717
657.550
649.820
648.692
652.389
660.539
665.326
653.318
659.292
661.841
657.092
664.125
663.324
663.000
664.325
662.719
668.452
668.024
675.106
667.680
675.553
676.867
669.832
679.222
682.087
677.836
677.095
677.757
686.473
686.539
680.224
682.367
688.442
687.653
692.052
687.040
694.763
683.844
681.674
693.660
695.257
687.422
692.712
700.107
693.914
700.196
693.461
698.052
700.527
701.836
696.236
707.996
695.236
703.034
697.911
700.880
714.208
713.664
701.773
704.894
702.931
704.691
705.577
713.652
713.817
716.481
714.346
723.595
710.882
717.907
723.020
716.575
725.807
721.424
719.719
719.797
734.454
729.630
724.949
729.431
724.469
733.557
740.496
738.388
734.983
742.620
728.577
740.488
741.032
743.180
736.631
743.985
738.647
737.003
744.979
739.375
744.086
749.515
749.200
741.897
742.931
757.570
747.983
745.714
754.093
757.022
756.452
756.626
763.269
758.530
756.974
764.989
757.214
759.958
768.982
762.749
758.384
764.988
764.730
762.212
775.562
763.870
774.269
772.520
780.037
776.262
771.032
779.453
779.596
782.568
785.450
777.332
775.014
778.097
787.115
788.375
793.847
783.503
785.120
781.521
780.438
786.955
786.811
785.213
791.809
787.986
781.578
783.043
791.045
782.498
786.615
780.244
789.772
787.055
782.738
776.359
783.956
783.849
788.568
775.760
788.740
779.354
785.138
774.744
788.597
778.084
783.939
773.094
775.623
786.530
772.788
787.246
777.218
771.869
775.451
786.235
771.560
783.781
778.597
782.217
782.535
777.815
776.387
776.973
784.221
771.585
777.934
776.855
772.446
776.672
780.338
772.234
768.827
778.749
781.305
775.182
781.672
777.694
770.263
769.568
769.961
767.815
773.504
778.885
767.490
782.377
769.215
768.029
772.328
766.909
769.656
780.436
767.043
771.224
776.896
772.139
773.615
767.801
768.961
780.034
766.038
767.375
769.035
773.879
766.375
777.572
769.789
763.073
766.730
773.629
772.942
768.428
777.075
772.071
775.525
775.595
767.606
771.271
772.515
763.315
763.111
770.742
760.426
763.682
763.747
768.791
767.468
773.015
764.089
761.988
768.755
764.748
759.736
771.371
770.387
761.869
771.650
765.399
770.340
772.197
763.016
765.416
768.878
761.299
768.966
758.426
761.700
760.020
770.509
755.961
756.676
762.790
760.009
767.870
769.516
769.985
768.828
757.199
769.569
755.818
760.238
760.241
764.760
755.468
767.788
760.378
766.043
761.662
760.652
756.692
758.370
759.538
754.503
766.980
767.218
762.711
754.238
765.036
753.881
760.543
758.538
751.466
752.427
762.676
763.635
753.546
764.218
765.484
763.571
764.564
756.778
762.496
754.053
751.417
764.034
751.875
760.378
749.255
756.568
754.203
754.887
754.756
749.236
762.333
760.670
757.376
748.514
755.455
755.848
758.875
760.938
754.721
752.496
750.097
749.530
756.400
747.224
760.268
752.148
761.141
766.503
761.779
767.772
758.669
769.741
776.118
769.725
765.778
767.204
774.707
771.925
782.119
774.641
790.260
777.667
791.881
786.618
788.806
791.209
791.261
801.180
803.779
805.784
808.356
810.608
811.778
808.100
815.222
815.155
806.018
815.947
823.035
818.479
812.930
821.822
830.725
832.367
830.490
829.848
822.643
832.481
836.643
828.573
841.703
831.748
835.701
838.957
845.786
849.705
848.644
852.879
852.702
851.538
855.068
862.510
854.988
864.944
866.448
860.074
861.866
868.656
869.689
869.754
879.961
879.617
873.056
879.292
879.799
876.524
890.433
883.825
890.087
888.497
898.729
888.109
899.781
892.928
902.248
903.743
899.621
899.816
904.337
901.087
903.620
907.298
906.710
917.040
911.790
914.508
912.675
916.452
926.424
921.931
921.410
922.363
927.652
934.894
938.797
931.010
941.153
944.436
937.651
935.352
940.356
946.950
955.573
952.848
944.707
959.927
948.937
952.053
964.097
965.387
959.770
966.804
968.301
966.790
975.993
970.798
966.186
968.664
982.622
985.333
987.644
988.265
977.222
988.437
995.472
995.370
999.686
987.598
998.063
995.049
996.616
1001.606
1008.398
999.084
1004.891
1006.065
1007.333
1009.235
1019.086
1008.536
1022.287
1018.625
1026.485
1016.010
1024.695
1027.093
1023.385
1033.153
1031.901
1030.698
1035.664
1028.976
1037.213
1046.294
1034.885
1051.399
1050.861
1051.282
1045.769
1058.914
1060.541
1051.798
1059.455
1052.437
1052.345
1065.649
1062.165
1064.755
1062.191
1071.278
1078.352
1076.552
1072.838
1075.760
1081.862
1077.727
1073.935
1081.299
1086.135
1085.355
1087.576
1088.274
1091.401
1099.764
1091.606
1094.225
1097.794
1094.107
1108.896
1108.739
1108.867
1115.956
1109.698
1119.292
1107.654
1105.500
1109.634
1103.686
1095.797
1104.074
1099.039
1098.588
1088.355
1090.996
1089.724
1092.459
1084.827
1086.301
1091.757
1081.356
1072.928
1086.179
1081.499
1081.850
1081.142
1067.484
1067.483
1069.254
1070.753
1057.237
1059.878
1055.399
1051.297
1050.845
1049.267
1056.669
1049.872
1052.546
1054.972
1051.220
1041.469
1035.208
1043.009
1033.278
1029.109
1039.474
1040.017
1034.892
1029.957
1032.475
1031.184
1016.970
1014.748
1017.124
1020.547
1016.280
1010.139
1009.469
1016.562
1010.017
1000.718
1002.461
996.233
1007.689
1003.215
993.623
994.411
996.970
984.621
991.414
985.396
990.621
990.096
984.691
982.547
979.956
983.190
971.084
970.799
963.348
966.904
967.399
960.249
965.048
963.335
957.880
963.517
951.739
957.707
951.059
955.869
950.973
944.229
942.335
947.008
943.381
935.760
938.036
940.857
930.451
933.865
936.989
930.311
923.061
917.057
919.885
922.799
925.355
919.846
909.534
916.954
906.270
911.636
911.680
902.179
902.492
906.309
905.950
891.468
902.351
900.207
896.289
888.269
892.979
882.241
886.525
882.881
888.751
876.134
884.578
880.601
880.015
869.440
863.934
861.583
873.361
863.377
867.921
855.098
863.881
858.615
859.788
859.029
852.822
854.628
842.189
850.012
838.107
835.793
836.617
838.740
838.757
840.753
839.188
839.925
823.840
822.482
832.719
820.987
822.521
822.892
821.518
809.997
817.782
813.716
806.430
809.214
805.993
808.366
807.948
809.809
793.944
795.609
799.833
800.454
786.305
798.063
789.874
791.480
789.517
791.043
777.171
781.206
770.321
778.723
782.060
767.841
776.329
770.096
769.565
765.117
770.260
766.922
752.626
763.799
757.225
747.216
746.117
745.395
747.384
747.277
741.094
738.408
746.045
737.095
749.587
749.791
741.765
743.046
751.890
750.612
755.015
742.147
754.415
751.379
748.707
746.688
754.545
751.533
751.791
756.475
752.626
766.297
753.013
765.395
754.295
761.670
768.802
766.396
765.456
773.324
766.362
773.647
769.460
772.633
765.738
764.366
765.921
768.816
774.574
778.584
769.106
774.314
778.334
784.936
782.205
785.368
778.232
780.211
778.526
780.950
780.051
784.778
789.289
796.020
786.661
790.010
785.766
799.738
797.472
785.976
791.720
802.890
797.404
797.636
805.878
806.077
801.531
802.807
805.552
805.805
798.852
805.190
809.754
811.220
800.320
814.234
814.461
809.498
807.910
813.376
807.135
812.933
812.454
821.086
815.950
813.304
815.558
812.761
819.913
827.261
818.966
822.095
817.845
830.436
831.439
824.179
833.292
823.003
826.506
836.918
828.391
836.874
835.654
839.630
829.170
842.309
839.431
836.982
840.972
845.503
843.435
840.878
837.933
842.698
847.600
850.031
850.153
842.169
849.012
852.774
851.003
848.058
850.656
858.762
848.864
851.431
855.855
851.271
860.548
862.237
862.435
853.661
862.185
869.845
863.450
863.146
863.833
871.953
870.700
865.182
873.036
869.407
868.722
871.464
867.495
867.465
875.680
875.282
877.159
870.325
876.314
878.898
882.475
878.695
875.170
886.283
889.921
884.039
888.265
879.582
885.781
886.930
890.955
894.815
886.104
885.410
891.115
887.573
888.266
893.167
898.939
903.022
902.880
902.248
906.725
900.968
907.767
899.430
908.734
908.756
908.745
911.140
904.227
903.375
916.153
904.400
910.555
916.483
920.887
908.480
920.383
913.365
924.631
911.721
920.212
917.704
921.651
920.490
918.704
929.598
918.892
931.699
918.810
928.294
931.282
928.505
927.495
930.210
920.942
928.145
921.824
922.870
930.962
922.385
922.465
923.582
919.295
927.650
922.117
922.933
923.053
925.723
930.904
924.582
924.549
920.197
928.348
925.879
926.032
931.652
932.598
927.366
917.960
922.652
930.755
927.218
930.328
918.469
932.749
927.371
930.415
926.391
932.395
919.388
932.515
930.323
919.884
925.731
919.184
921.419
923.964
922.173
923.529
919.665
917.574
927.804
925.055
928.330
926.320
927.733
920.107
916.655
918.397
926.921
926.773
929.040
927.429
931.788
917.567
924.507
921.704
931.045
928.862
916.717
931.254
927.046
926.337
919.984
921.513
926.205
922.315
916.742
918.476
922.733
921.460
920.131
920.567
917.144
921.920
919.666
930.913
920.158
926.797
923.715
924.265
922.152
929.452
922.819
927.964
921.452
921.036
928.291
914.855
920.247
918.834
920.913
924.102
926.773
915.506
926.907
930.317
919.213
927.548
924.483
923.243
929.306
916.160
923.020
925.381
918.595
922.264
918.632
918.644
925.075
919.230
914.336
917.137
927.734
921.297
923.296
917.560
927.435
919.685
916.290
928.541
921.731
925.196
921.228
923.352
919.631
922.431
914.889
924.404
914.357
922.428
924.670
918.106
918.474
914.682
915.690
926.804
917.756
922.330
919.795
921.168
920.972
914.377
912.808
919.465
924.722
914.630
920.977
915.460
913.499
912.700
913.694
918.096
917.048
914.872
915.133
922.206
921.573
926.640
925.143
923.872
924.271
927.015
917.904
925.961
913.659
925.922
926.272
925.287
920.728
925.417
919.156
917.792
917.123
915.323
912.338
912.836
925.354
913.440
913.724
924.148
919.429
915.134
922.316
916.615
914.362
925.195
917.777
915.787
919.765
915.703
909.937
916.611
904.374
909.344
901.703
910.085
901.761
901.936
910.711
895.456
898.461
899.647
903.776
893.214
886.517
893.654
892.226
885.413
883.242
892.276
879.652
885.631
887.977
883.842
887.427
886.494
874.977
879.592
876.896
879.769
877.497
863.398
863.156
866.665
872.651
861.090
858.480
856.748
854.987
860.531
859.449
855.393
847.908
846.129
855.605
847.751
842.800
853.920
840.641
848.344
836.459
847.884
832.448
839.160
843.237
832.191
832.473
835.115
827.273
825.637
831.667
824.249
831.405
816.534
821.537
824.340
827.059
826.168
818.989
817.796
813.735
805.378
813.195
815.364
816.092
808.743
798.259
810.490
803.489
803.320
799.058
805.981
797.763
797.817
788.071
789.783
787.511
795.951
785.286
787.289
783.460
777.446
774.868
786.146
781.123
770.144
782.732
774.645
780.858
771.011
778.605
774.568
768.279
766.951
757.272
757.698
762.846
767.467
762.043
754.979
751.840
762.708
747.077
745.663
743.285
747.140
754.681
748.523
742.322
735.924
741.518
747.392
747.017
740.296
736.158
728.711
728.093
732.123
730.253
724.379
727.772
731.302
721.566
725.450
727.538
715.049
716.084
722.146
719.112
711.845
711.045
715.262
707.569
704.147
711.106
704.652
700.604
709.576
696.733
699.699
699.012
690.211
698.015
690.062
690.805
692.149
687.438
689.598
680.110
684.093
688.481
681.553
689.381
682.712
673.937
681.603
683.697
679.995
669.271
678.690
662.729
666.181
670.145
673.488
658.333
660.472
656.629
661.359
659.205
656.709
651.198
662.392
645.291
649.267
643.305
653.767
646.194
646.998
637.144
640.716
638.247
636.771
640.434
640.533
634.209
629.760
639.293
631.310
635.516
630.076
637.705
640.009
639.864
640.930
630.387
634.697
639.409
643.497
634.316
639.918
643.293
641.736
644.954
643.694
643.427
636.946
641.301
642.310
642.578
653.131
648.545
655.637
649.593
648.893
657.476
654.784
654.618
649.843
656.399
656.601
652.545
651.175
648.356
650.239
650.224
652.893
651.792
663.264
659.115
658.023
667.246
663.677
660.521
665.950
657.704
671.945
665.614
664.876
664.294
661.743
661.845
668.693
668.219
667.074
666.663
674.613
671.483
666.542
674.167
670.109
679.690
683.788
676.023
670.233
670.934
673.698
679.277
682.231
680.938
679.727
682.507
689.279
678.876
690.103
685.125
679.042
688.743
681.571
686.467
695.419
695.585
689.488
688.170
684.481
698.318
687.264
692.674
689.158
689.027
692.603
696.360
702.788
696.687
700.059
696.563
705.560
705.288
697.531
707.399
700.147
702.469
697.784
709.567
706.523
704.848
708.902
712.591
703.709
712.753
717.331
708.267
713.820
720.356
717.949
708.471
712.244
714.892
712.218
720.668
714.124
724.926
724.688
723.619
718.061
720.872
726.757
727.629
718.442
721.886
717.747
717.387
718.713
725.517
729.110
729.814
730.339
732.576
731.925
724.520
725.938
727.264
733.530
736.392
737.540
732.646
731.700
739.568
735.821
739.996
736.931
739.529
740.454
739.459
743.447
737.677
746.875
746.396
745.785
744.028
746.738
740.381
740.469
751.300
747.799
743.667
750.840
757.752
748.340
754.935
754.786
756.016
754.566
758.904
753.391
749.819
761.754
756.159
751.699
752.768
755.837
761.763
757.504
760.133
768.778
762.133
757.772
772.117
760.988
763.121
769.056
769.080
766.625
763.049
763.107
771.558
764.562
767.953
766.823
771.244
763.194
763.993
770.329
757.237
767.129
761.543
753.537
761.400
763.392
760.315
747.731
757.617
744.834
748.651
756.376
744.573
751.308
749.146
739.985
737.827
733.522
732.891
731.828
733.708
728.634
732.537
732.855
727.596
734.457
732.764
723.355
723.948
730.442
717.546
718.618
718.019
720.460
724.638
713.715
721.950
714.870
707.009
716.350
707.809
714.283
707.622
702.804
698.278
696.158
697.009
699.679
692.288
694.580
689.420
694.646
689.465
685.849
691.362
695.330
683.845
677.740
682.711
684.586
687.382
671.631
681.091
671.051
674.875
669.775
666.981
677.332
663.873
667.934
667.948
662.966
666.484
664.269
661.926
659.640
663.428
661.664
659.883
654.255
657.260
644.610
655.756
642.651
642.630
646.214
643.027
637.446
642.762
638.293
645.323
641.948
641.688
627.386
637.222
632.470
622.507
631.906
623.340
627.289
628.463
627.216
624.926
621.685
626.131
613.203
621.552
615.833
607.927
618.732
616.844
606.257
605.760
599.342
608.974
597.377
604.088
606.510
602.615
602.221
594.862
587.212
588.029
589.838
591.734
585.298
584.601
588.484
578.078
590.230
584.832
575.926
585.707
584.282
569.344
577.316
576.008
578.080
572.776
566.471
568.359
573.081
569.360
562.494
559.353
561.240
555.219
559.107
551.618
557.866
551.836
555.537
557.855
552.494
541.213
549.661
541.051
539.862
550.206
542.157
543.801
534.157
529.889
541.907
528.674
529.826
537.387
522.609
529.645
523.031
525.675
517.243
530.130
522.305
515.795
513.714
509.833
518.751
507.655
514.764
509.840
504.085
503.708
513.097
503.727
511.155
499.205
505.288
498.925
498.123
504.459
494.880
488.907
490.144
494.069
