517.687
505.742
507.222
520.725
523.637
515.193
522.415
524.467
523.999
537.308
528.065
530.496
534.125
542.646
542.047
542.434
547.537
552.517
555.602
559.092
551.632
562.782
562.927
561.124
562.712
560.421
572.265
578.077
567.333
568.634
580.129
582.369
581.461
589.862
592.074
582.586
592.424
597.079
589.333
597.879
594.832
607.861
609.032
602.567
611.630
611.826
610.464
622.012
622.919
620.267
630.532
621.354
627.941
637.823
630.040
640.426
642.659
634.276
639.665
640.077
644.815
645.031
659.576
658.714
658.880
663.182
663.575
661.963
659.730
669.575
671.642
666.418
680.366
670.936
679.410
686.502
681.400
678.439
687.515
695.250
699.246
703.384
697.615
693.449
694.570
701.743
699.343
713.971
718.750
713.439
713.164
717.374
721.237
715.596
728.397
722.809
733.896
733.423
740.216
730.999
737.309
747.863
742.368
744.783
755.372
750.692
756.548
761.307
754.298
760.793
766.277
757.996
762.405
762.149
773.034
779.842
769.842
770.316
778.203
786.194
787.824
782.499
788.376
797.528
800.768
802.062
804.217
802.066
802.032
802.380
804.778
815.277
810.145
811.703
809.895
817.765
827.946
826.207
833.640
820.293
832.556
838.312
827.876
839.369
834.151
838.253
850.397
853.865
850.754
849.289
847.587
857.445
858.319
854.298
866.792
869.802
872.679
876.485
877.921
869.453
875.647
877.115
880.447
881.782
880.088
882.316
891.045
889.824
890.666
903.756
898.948
901.222
900.959
909.582
902.402
906.652
916.255
911.649
918.384
918.272
927.269
924.117
925.432
935.328
927.761
933.593
930.895
933.920
947.001
950.055
946.445
945.472
947.797
946.333
961.490
952.434
954.523
968.061
958.937
960.936
973.013
960.710
969.832
964.202
958.743
963.983
954.351
956.144
951.038
955.405
960.006
953.269
943.967
950.625
952.820
944.230
937.598
946.561
935.577
946.104
938.294
933.519
930.363
934.578
927.405
937.592
924.235
921.785
921.474
922.449
927.519
928.948
928.195
920.693
911.453
922.394
922.234
915.226
915.755
916.143
916.148
901.639
908.124
907.005
908.632
894.724
894.669
897.930
904.850
898.782
900.437
890.286
896.424
892.894
891.271
889.395
881.222
878.404
882.377
885.815
879.318
881.491
876.686
868.727
875.023
869.339
865.437
868.661
866.236
863.557
857.123
870.177
860.891
859.467
855.621
861.836
856.077
854.954
853.885
847.488
847.630
851.511
851.967
842.110
842.663
835.804
847.641
840.670
838.394
845.140
843.745
838.108
829.658
824.403
832.591
825.357
830.850
830.045
819.487
824.422
824.841
812.758
822.255
810.766
815.539
811.963
813.583
807.969
803.969
803.593
799.622
804.052
796.437
799.114
800.121
793.001
801.063
790.425
788.280
791.318
799.586
788.356
794.474
781.129
791.563
792.396
787.865
784.798
779.313
786.268
780.702
770.752
780.245
772.090
774.423
775.686
775.490
759.934
765.082
770.478
767.496
755.498
759.993
751.314
753.308
753.015
752.236
756.342
748.436
750.746
742.523
739.979
752.669
748.425
735.113
744.543
734.272
741.918
731.246
738.520
726.687
729.453
727.750
722.735
734.991
727.785
724.029
715.179
719.982
718.611
724.630
710.392
716.012
707.322
707.256
718.513
703.879
708.623
707.031
709.097
704.474
704.918
693.550
691.902
690.926
689.592
702.104
686.234
691.090
694.353
685.686
690.991
679.999
685.726
677.653
679.898
688.103
683.766
676.501
674.629
673.316
669.828
668.850
675.335
672.179
685.930
674.629
687.905
673.850
685.157
688.620
683.715
676.947
677.905
683.078
680.778
688.531
680.282
695.743
689.410
690.699
685.031
690.423
686.788
688.690
700.263
691.133
692.090
704.806
702.585
703.763
691.971
702.946
706.462
710.035
709.545
710.423
701.299
711.477
710.964
702.786
712.327
704.449
703.533
712.017
710.480
705.735
713.677
720.049
720.556
707.762
717.930
716.937
719.464
713.861
725.597
712.788
719.836
726.000
716.409
730.005
727.302
722.241
727.819
729.833
722.011
735.210
725.016
733.274
730.528
723.578
738.393
734.313
738.127
730.099
736.012
732.265
732.604
731.245
736.090
733.828
747.891
743.360
738.810
749.387
748.600
742.511
742.232
751.743
750.686
752.571
742.917
753.205
746.802
749.431
755.780
757.656
748.748
747.337
749.735
761.856
763.409
752.503
756.764
754.091
755.977
764.262
756.136
768.976
765.798
758.490
758.729
764.394
772.984
760.034
764.927
769.920
772.111
775.398
771.123
768.785
768.235
774.087
777.622
774.759
779.794
779.250
784.362
777.741
773.590
777.498
788.600
774.078
781.615
784.108
783.954
779.535
786.743
793.117
783.522
790.999
791.533
785.178
783.570
793.630
796.356
793.352
801.591
788.824
802.954
803.917
792.898
794.668
805.402
797.611
798.370
803.356
796.197
799.689
798.615
802.823
809.176
811.812
805.551
800.226
813.479
807.905
802.003
811.756
806.908
814.425
820.540
809.758
819.128
822.631
817.664
817.525
824.927
819.543
819.988
825.427
825.134
822.752
816.989
817.589
824.747
829.815
827.141
833.454
820.282
831.827
827.406
827.413
837.902
830.080
828.514
834.322
833.130
832.430
831.353
837.803
832.012
834.172
843.866
843.392
838.417
843.708
841.181
834.513
835.119
848.943
838.390
837.591
839.310
839.342
836.136
836.746
838.671
852.222
840.275
837.362
842.745
853.523
853.609
846.134
846.119
847.462
850.349
844.533
854.092
848.140
854.346
848.406
853.122
856.560
857.392
851.932
852.057
858.657
852.240
848.148
854.823
851.787
856.594
856.009
860.517
854.850
851.875
853.403
851.610
860.107
865.496
865.323
854.398
854.789
853.567
868.473
857.149
857.299
868.328
868.131
861.008
871.276
856.298
864.335
864.993
872.984
865.916
871.406
864.383
869.905
867.646
868.864
868.731
864.701
864.445
862.865
871.227
876.280
874.963
868.657
876.210
864.894
864.966
864.889
879.051
874.576
876.371
870.870
871.687
877.002
881.662
876.624
872.268
874.423
883.646
879.476
872.120
886.630
879.262
874.239
876.313
881.621
887.301
888.155
874.571
880.974
877.947
880.357
891.402
883.802
891.596
881.916
886.565
879.335
885.637
883.581
883.122
884.718
889.761
886.813
883.710
886.967
897.277
894.171
891.420
894.620
896.455
897.350
889.361
895.466
886.558
886.825
894.197
894.753
891.662
893.843
902.255
890.413
904.224
891.924
890.897
891.035
903.171
906.297
902.489
904.530
904.510
901.520
902.530
905.906
903.724
895.680
897.059
907.572
902.733
904.518
902.137
909.126
908.726
908.008
906.101
903.686
912.449
906.764
907.498
910.923
902.349
908.401
905.490
907.868
906.065
915.948
909.344
914.484
913.754
915.742
915.818
919.553
917.923
910.391
918.261
909.492
921.966
920.937
922.162
921.409
918.548
925.136
911.549
924.437
914.112
915.901
925.408
926.655
916.221
926.006
924.047
925.861
916.358
918.200
924.188
927.809
932.146
919.039
918.749
919.686
920.065
932.552
930.632
930.382
922.960
936.130
927.587
939.500
936.132
933.579
932.090
931.976
931.145
934.260
931.782
930.885
940.576
944.883
938.449
939.584
936.561
947.654
939.198
944.946
951.149
950.201
938.644
943.232
943.668
946.632
953.696
942.677
945.297
957.370
956.125
953.028
953.041
953.072
950.225
951.224
955.341
956.920
964.105
952.312
955.884
961.292
956.121
964.559
965.394
955.623
957.916
970.687
965.196
959.121
966.617
969.147
965.207
962.659
963.809
968.453
976.408
978.289
967.588
973.155
972.978
980.943
974.533
974.636
979.007
984.119
969.637
979.126
973.848
985.617
976.615
984.234
985.565
979.020
978.453
986.701
986.984
984.048
985.663
993.845
992.170
991.244
982.526
995.483
989.530
993.341
990.720
984.028
999.351
994.696
992.584
1001.886
993.479
1000.255
1004.520
1002.106
991.956
1000.454
1004.634
1004.985
1006.114
1003.982
996.284
1003.583
996.504
1009.339
1003.650
1009.454
1008.638
1011.494
1011.866
1015.011
1016.857
1004.722
1008.526
1015.927
1011.519
1013.229
1021.416
1015.742
1018.444
1010.128
1017.393
1020.707
1015.514
1020.759
1012.815
1016.352
1026.188
1021.887
1029.127
1023.338
1021.861
1031.540
1029.682
1030.276
1019.206
1029.263
1031.010
1035.349
1034.176
1025.035
1029.384
1033.698
1036.824
1031.451
1029.555
1026.711
1034.780
1041.444
1038.136
1039.943
1040.387
1033.237
1044.992
1046.883
1043.288
1040.987
1039.551
1039.579
1049.927
1048.271
1040.424
1045.162
1042.305
1045.117
1050.254
1048.265
1051.719
1041.925
1049.185
1049.922
1056.995
1045.566
1058.436
1054.062
1046.746
1059.597
1054.801
1048.662
1054.784
1063.408
1062.901
1060.298
1058.176
1057.473
1064.106
1061.200
1065.772
1069.100
1054.636
1067.343
1064.726
1056.868
1052.701
1047.302
1046.964
1044.964
1045.661
1046.274
1051.643
1039.238
1041.693
1044.167
1036.910
1043.057
1034.294
1028.590
1030.652
1041.323
1036.110
1026.509
1029.621
1029.365
1022.333
1016.778
1022.491
1028.686
1022.082
1018.951
1020.127
1012.004
1013.551
1018.719
1013.561
1013.688
1000.837
1010.334
997.151
998.169
1001.420
999.547
1003.488
990.049
993.067
999.009
993.606
996.934
990.326
990.551
980.914
984.780
982.560
982.008
985.051
984.849
972.717
970.485
980.332
977.674
969.569
968.433
962.370
960.124
963.372
972.030
962.323
969.140
955.496
956.260
962.852
950.709
946.152
946.436
949.361
943.150
944.357
950.330
938.590
943.625
939.541
933.974
941.698
935.560
935.534
937.911
935.391
923.550
932.227
922.434
924.591
923.047
917.911
923.668
916.574
925.593
915.147
922.358
920.861
919.416
909.941
911.966
904.625
907.503
909.854
903.110
899.853
907.193
907.206
894.474
900.842
891.360
890.607
892.877
888.992
894.344
895.378
879.603
877.864
890.282
874.695
879.525
870.746
876.199
882.119
881.256
869.085
878.114
863.023
868.496
867.960
864.738
861.821
858.852
855.209
862.005
858.027
849.861
848.656
854.477
856.468
849.047
850.960
845.020
841.969
837.789
848.259
842.390
832.003
835.926
841.620
840.968
834.997
833.749
834.718
833.089
823.574
819.171
816.539
824.740
826.385
825.386
815.986
817.794
809.398
807.647
804.745
806.642
804.448
801.827
811.804
798.949
797.225
794.749
805.584
802.900
794.624
803.376
788.706
787.188
794.525
785.186
794.534
789.124
791.764
776.611
785.683
786.998
780.569
775.441
779.864
781.988
773.163
778.686
775.080
767.627
769.788
769.348
760.435
756.409
756.646
765.689
761.406
756.763
764.881
757.912
758.442
754.827
757.985
753.734
756.800
750.318
749.463
749.582
758.621
747.478
756.229
749.312
746.712
752.131
753.145
741.361
747.330
746.816
741.291
738.387
745.330
738.406
741.970
739.776
734.828
733.567
741.311
741.690
740.903
735.657
738.648
736.640
742.114
731.805
731.154
725.354
729.699
727.762
735.268
725.188
722.532
723.631
726.571
721.286
720.281
725.733
728.266
726.298
732.283
728.945
716.004
716.997
717.386
715.247
719.735
726.490
718.127
711.721
711.539
709.114
708.841
709.394
708.151
711.847
709.145
708.820
714.475
713.581
711.273
705.356
715.416
712.145
715.226
705.768
707.990
700.484
704.417
711.166
696.301
700.222
704.720
701.294
706.921
701.105
702.109
700.201
695.951
690.767
701.963
696.926
692.053
696.553
685.988
686.407
692.562
687.600
692.277
697.758
695.192
691.146
692.639
682.302
690.350
689.950
690.935
690.977
689.552
690.644
687.939
685.542
686.342
681.390
684.647
686.787
682.393
675.783
671.580
668.511
671.496
682.191
676.241
674.813
675.737
668.733
678.190
677.460
675.306
662.183
672.352
673.488
669.071
662.603
664.538
668.512
666.880
661.564
664.776
655.385
669.590
668.057
664.748
664.397
663.380
657.296
662.191
662.987
657.404
654.801
658.738
648.779
646.644
658.122
649.171
650.355
653.801
645.733
647.198
646.120
641.572
643.860
654.112
648.070
642.146
647.431
638.484
648.117
641.489
640.487
634.083
646.736
646.848
646.798
644.620
644.573
643.936
632.280
629.762
635.163
631.487
635.761
639.211
625.798
625.925
635.328
630.199
631.405
623.196
633.480
627.029
629.951
628.871
627.919
617.659
625.974
627.023
632.371
621.771
629.768
635.815
636.563
635.883
627.869
640.363
635.472
632.450
633.655
642.497
644.761
643.624
635.660
644.759
637.676
646.469
647.144
642.172
654.279
640.858
652.232
647.454
655.178
652.350
647.024
658.219
655.146
650.433
664.778
664.965
656.238
656.953
662.225
666.916
659.259
672.684
668.628
673.311
667.186
663.749
669.221
677.886
676.281
673.134
675.763
676.197
678.168
684.757
676.010
678.945
681.918
690.708
680.948
687.826
688.278
684.507
691.488
691.103
697.926
691.826
692.129
702.321
692.229
689.637
699.791
699.248
702.714
704.645
700.061
710.587
703.631
702.937
703.029
706.013
708.353
709.765
705.428
710.421
707.484
709.550
717.451
716.897
724.994
717.341
718.082
728.357
728.493
727.847
721.684
733.311
724.669
722.148
723.748
724.640
724.889
739.775
734.804
740.996
730.077
735.798
743.889
737.039
739.881
742.910
736.320
745.330
742.692
740.396
744.143
744.242
756.073
751.680
753.144
747.398
750.036
753.266
753.885
763.910
752.918
750.875
753.391
761.869
758.131
769.719
759.731
771.955
762.854
769.336
761.132
776.997
771.184
777.453
769.171
777.396
770.249
779.120
776.738
770.777
779.218
778.383
775.041
787.246
779.165
778.510
782.646
780.462
787.866
794.012
792.868
791.496
789.530
796.355
799.558
802.564
798.362
802.269
793.780
801.822
808.206
806.310
799.352
806.785
804.578
807.587
811.952
803.228
817.443
809.632
807.003
812.482
815.263
817.062
814.839
825.292
824.720
817.291
822.542
820.918
818.446
823.200
829.799
826.657
826.331
830.874
824.930
835.117
828.657
837.891
826.359
834.972
831.230
841.357
840.197
836.693
842.921
835.651
839.603
845.545
840.632
839.877
848.145
855.217
850.594
846.939
848.312
844.656
853.140
855.523
857.074
850.711
858.432
850.503
867.016
866.328
857.803
862.828
864.447
861.671
865.770
873.308
865.060
866.243
865.328
866.290
864.849
868.051
877.033
882.649
873.792
872.711
883.569
877.249
887.730
874.784
878.925
877.275
881.108
889.760
882.718
883.883
881.584
892.466
889.988
884.982
899.901
893.470
887.167
898.458
892.096
900.370
896.915
899.317
899.876
904.393
910.708
910.164
897.588
904.924
914.597
914.630
910.609
904.759
907.165
908.241
915.015
917.274
916.632
920.994
911.066
921.595
913.344
918.341
916.762
930.436
931.741
928.595
929.873
928.526
926.434
930.205
923.263
932.699
932.799
926.887
932.147
932.003
942.468
945.486
937.866
945.741
942.644
934.310
939.101
951.869
950.348
939.603
950.026
955.828
956.447
953.013
953.891
957.802
957.703
956.413
949.908
951.176
963.303
952.969
957.940
959.493
967.201
969.709
966.607
969.391
958.680
961.344
962.360
970.562
971.827
974.223
970.238
967.429
971.274
974.727
977.778
984.485
982.690
975.012
983.312
987.347
989.394
990.222
985.119
982.069
983.326
994.652
983.645
995.499
984.008
996.389
996.202
995.554
1000.452
989.330
989.854
994.800
1000.028
994.521
1007.556
1003.442
1003.147
1012.004
998.820
999.986
1005.034
1009.833
1012.352
1005.522
1008.760
1007.650
1006.762
1013.048
1018.164
1021.646
1025.055
1019.664
1016.774
1023.138
1025.573
1017.154
1018.118
1023.255
1027.415
1021.332
1032.457
1029.768
1025.582
1026.565
1026.881
1026.324
1036.385
1029.993
1043.056
1037.859
1038.307
1045.713
1049.187
1038.887
1037.322
1042.691
1052.411
1050.424
1042.329
1050.581
1057.488
1045.729
1046.888
1044.640
1048.037
1043.181
1041.848
1051.426
1051.575
1051.398
1051.326
1038.984
1045.048
1041.151
1039.551
1034.192
1033.051
1038.789
1036.698
1027.862
1039.587
1040.179
1033.930
1024.632
1037.845
1028.315
1023.903
1026.059
1023.654
1021.832
1020.053
1026.038
1019.303
1026.454
1012.848
1022.442
1014.790
1019.074
1015.220
1016.250
1006.447
1007.944
1013.257
1014.903
1005.129
1007.416
1014.338
1003.540
1012.150
1010.596
999.849
1004.756
1003.080
1000.607
1003.535
1005.272
993.585
994.088
989.946
987.998
990.553
987.227
986.594
987.035
986.288
981.890
995.069
981.526
978.841
988.899
988.924
988.574
987.487
976.254
978.832
971.313
980.639
978.159
978.802
976.417
975.777
970.668
966.517
966.442
968.718
964.662
970.095
968.681
966.299
959.996
971.001
963.669
967.610
964.682
965.874
966.958
951.088
951.853
949.883
957.945
952.243
955.233
947.665
943.800
944.362
954.888
942.570
947.033
942.615
941.557
950.625
940.517
943.766
944.331
934.306
931.531
940.972
944.914
931.547
933.974
938.282
928.719
932.108
925.390
922.984
922.732
930.048
929.025
931.196
922.681
925.831
925.586
919.455
913.566
914.471
924.919
912.546
916.898
918.383
921.446
917.681
920.719
910.660
905.161
917.620
910.233
901.906
910.239
902.938
905.938
907.494
901.402
894.676
895.910
906.292
906.839
896.135
904.846
891.621
902.082
889.553
891.065
885.543
883.431
890.764
887.610
888.177
883.485
886.600
890.680
892.285
876.324
887.078
875.112
881.244
874.372
873.233
874.723
874.797
871.232
870.283
865.346
869.917
869.555
867.723
864.360
874.639
866.163
861.006
870.447
860.370
859.683
856.767
858.315
855.889
863.657
854.408
851.970
855.636
851.516
858.078
855.318
