506.294
505.914
513.043
513.571
518.839
518.971
528.953
531.480
530.188
525.302
527.337
543.024
536.576
533.676
547.254
542.599
550.970
551.058
551.039
559.824
555.143
565.933
552.911
557.321
571.416
562.416
564.596
578.154
566.733
573.697
580.047
589.108
583.731
582.183
589.502
592.257
594.504
599.704
597.050
592.574
607.514
596.361
609.623
615.945
608.503
619.236
620.340
616.314
615.982
616.899
626.772
622.685
624.471
624.693
628.122
641.065
635.052
639.983
650.291
639.388
647.646
648.362
646.132
662.350
660.944
652.772
662.545
656.887
660.510
668.830
674.752
671.699
677.274
682.073
675.843
677.647
690.169
679.434
687.808
683.414
686.247
701.613
696.125
698.025
695.885
711.509
712.595
715.598
713.836
706.443
708.619
726.065
727.540
718.816
718.508
730.043
732.382
739.913
729.541
728.790
735.032
737.691
736.651
743.412
742.020
744.415
758.170
760.733
757.231
758.001
755.914
757.437
761.599
776.235
769.139
770.390
777.375
774.914
777.867
787.485
779.087
784.613
796.601
794.455
797.661
789.808
796.475
796.991
805.731
799.958
800.310
810.432
807.817
812.771
810.565
825.667
826.239
824.901
832.515
825.619
823.547
831.367
827.864
831.044
841.100
847.314
842.490
841.252
841.658
849.764
853.121
858.631
860.298
865.180
857.849
858.814
873.946
871.642
865.729
877.056
870.957
879.913
878.277
882.937
886.865
894.897
891.794
887.008
891.499
902.873
891.810
906.281
910.715
902.310
910.631
911.246
913.274
918.407
915.153
920.322
922.763
932.013
932.263
923.640
929.362
931.771
933.194
930.540
942.974
940.204
937.160
951.456
943.152
959.660
956.988
960.590
952.331
959.513
962.231
960.593
963.075
966.864
965.437
960.604
957.677
960.614
960.748
965.223
958.717
947.528
960.941
944.872
953.944
950.836
947.104
944.787
944.448
945.045
937.392
937.573
945.537
933.368
939.078
934.472
929.189
938.070
926.660
928.706
925.605
923.386
915.775
928.407
924.361
927.303
924.371
923.912
922.650
920.196
908.098
913.704
905.172
915.448
900.538
901.086
904.828
908.818
903.684
891.896
901.351
895.479
897.091
896.464
891.413
897.984
892.238
890.636
884.447
880.711
875.759
884.299
876.469
877.468
869.593
875.555
872.087
866.680
867.599
874.444
860.774
868.632
860.245
869.763
856.823
862.815
863.208
850.438
858.322
853.199
852.643
847.311
852.239
856.742
841.307
845.641
842.783
837.063
841.601
845.213
842.526
830.663
835.953
829.124
828.121
834.659
829.626
834.805
821.370
826.836
819.466
819.494
827.676
824.850
814.088
817.998
813.220
809.188
813.465
803.668
804.057
805.953
799.507
801.932
802.377
802.234
797.866
794.132
798.397
791.895
799.263
798.355
799.633
795.730
784.624
794.776
789.230
785.180
775.321
781.814
776.678
783.731
772.946
776.909
780.290
777.199
773.569
763.270
775.591
764.308
772.128
762.874
765.012
764.501
758.943
757.374
753.216
748.400
749.900
745.775
743.173
744.161
755.362
740.884
749.945
742.697
741.713
747.535
737.645
742.824
732.187
732.687
734.851
730.219
726.862
721.991
731.505
726.423
722.156
725.556
715.674
714.737
719.496
710.263
714.255
710.140
711.483
703.196
715.016
700.743
699.183
708.874
711.186
701.696
708.742
695.729
704.539
691.519
688.980
690.341
688.391
692.919
690.524
684.995
686.641
686.699
685.506
680.859
677.818
685.978
684.119
679.969
674.866
673.866
680.078
673.416
683.219
681.099
684.989
672.417
686.071
677.316
686.579
679.902
691.396
690.794
681.488
684.283
694.665
694.563
688.873
688.220
698.092
697.106
687.068
685.420
688.265
689.214
701.498
698.387
690.431
704.885
694.469
697.033
700.314
703.496
702.174
703.151
703.040
711.617
711.694
708.488
711.867
701.357
714.179
715.495
709.255
715.208
713.895
720.034
706.396
717.948
715.654
710.712
722.590
723.211
725.798
715.794
718.345
722.180
721.605
725.880
719.098
720.564
728.888
728.227
726.947
725.083
733.990
723.215
734.996
725.470
724.180
729.500
738.120
727.845
740.919
734.984
732.713
730.085
736.332
746.297
731.415
736.439
743.042
749.155
747.115
744.918
746.738
742.252
746.751
744.019
752.962
740.931
751.397
752.050
746.851
759.113
748.156
754.019
752.545
760.858
757.369
762.913
755.639
752.462
759.535
759.471
764.244
769.055
766.559
755.034
757.113
766.381
762.585
761.479
762.421
763.078
772.309
766.845
764.084
773.191
777.003
768.600
777.280
779.029
777.925
772.192
774.994
779.380
773.974
771.357
785.923
779.324
784.986
782.818
790.756
785.172
780.030
788.918
785.613
780.055
791.808
793.802
794.988
792.293
792.554
796.364
796.482
800.789
790.073
797.927
789.547
796.564
804.786
791.949
798.922
804.250
807.122
794.191
794.807
802.265
804.709
800.641
799.184
802.573
813.624
809.373
802.741
810.503
812.050
807.105
804.992
811.219
820.961
820.584
821.105
813.795
809.604
812.125
812.679
812.593
823.940
816.775
825.555
825.985
819.520
821.444
822.038
819.186
833.917
823.068
822.785
834.673
823.578
827.274
836.678
831.983
840.927
832.933
834.999
834.979
831.170
842.227
844.227
841.653
845.889
834.461
845.081
844.010
840.452
842.801
836.275
833.966
843.589
844.714
841.285
840.692
843.366
848.487
848.136
841.785
843.668
845.836
838.699
853.055
854.539
843.228
842.652
846.296
847.277
845.190
855.625
856.460
856.891
857.076
845.516
851.952
844.254
852.002
850.546
857.414
852.271
855.252
856.098
847.683
848.076
848.440
851.332
864.201
858.591
853.300
852.875
856.653
860.957
867.212
857.856
859.431
864.215
856.764
867.896
856.821
856.864
860.321
856.505
868.499
871.976
859.709
864.468
857.835
865.676
871.826
869.483
872.530
867.652
873.038
873.272
872.120
876.189
864.131
871.977
869.901
868.686
864.316
864.881
868.550
867.628
873.055
872.789
880.917
873.972
875.671
869.723
868.540
869.204
884.285
873.336
882.250
884.841
871.638
877.406
875.601
880.169
874.230
877.521
888.900
887.402
878.341
885.229
874.986
887.399
889.711
879.797
888.483
885.167
878.460
886.586
881.640
886.193
891.949
881.017
885.180
883.159
895.229
890.098
884.308
891.380
895.112
893.713
892.755
887.876
895.634
885.219
897.046
889.169
891.432
889.363
900.554
899.094
901.896
897.548
899.697
903.523
894.117
892.539
890.488
891.358
897.130
905.002
906.020
906.176
896.167
903.798
908.680
906.472
908.307
899.144
906.320
899.252
904.109
898.543
906.831
901.358
903.947
911.912
901.081
910.820
901.937
911.373
912.883
901.652
916.034
905.035
905.908
907.916
905.259
913.008
918.512
919.184
905.727
910.530
911.228
918.343
921.426
914.486
920.589
919.216
910.477
909.745
922.278
915.773
921.884
912.612
925.586
927.123
923.118
919.927
926.138
927.179
927.309
921.027
924.865
924.158
921.732
929.323
917.842
927.745
930.855
922.122
935.547
922.686
930.541
922.407
925.035
935.738
931.178
934.555
933.148
938.721
933.850
928.072
932.535
933.358
938.719
940.070
940.912
944.082
936.588
935.927
941.015
946.544
945.657
939.816
948.204
947.768
942.802
939.253
941.003
951.773
955.358
942.719
944.289
955.902
955.411
953.730
948.566
956.406
956.690
957.336
959.264
957.724
960.017
962.168
955.007
961.847
958.379
953.304
963.795
964.962
970.330
960.420
965.756
957.040
965.873
959.673
966.640
964.906
968.390
969.117
968.093
971.162
975.093
978.954
966.077
979.421
974.970
971.769
974.784
977.025
977.579
974.403
979.179
974.294
973.830
982.377
982.839
988.136
986.291
986.220
983.771
986.235
986.614
985.515
985.667
981.913
987.390
987.147
991.796
983.260
996.803
985.979
993.632
1000.200
987.295
995.238
995.432
988.700
997.668
991.275
1000.161
1002.643
1004.292
994.056
1003.680
1009.245
1004.225
1008.574
1008.203
1005.761
1006.153
1002.696
1001.354
1003.506
1005.969
1016.419
1007.745
1009.743
1014.637
1004.836
1016.479
1013.321
1017.016
1011.227
1015.357
1022.180
1023.299
1023.650
1014.349
1026.375
1018.855
1027.537
1018.655
1026.749
1025.833
1021.658
1027.975
1021.423
1026.070
1023.113
1020.500
1028.819
1032.254
1031.260
1026.268
1027.726
1024.075
1036.217
1030.387
1040.501
1030.882
1033.265
1028.760
1037.843
1040.459
1034.956
1031.966
1038.728
1031.048
1039.555
1037.551
1048.892
1046.312
1040.501
1042.912
1037.114
1049.224
1039.305
1044.670
1053.138
1054.440
1048.380
1055.099
1054.069
1049.552
1053.076
1050.711
1047.560
1055.765
1059.397
1052.659
1061.139
1055.296
1059.681
1053.289
1058.720
1057.543
1053.802
1054.448
1060.215
1057.844
1066.756
1057.272
1068.116
1064.821
1060.470
1064.428
1063.827
1049.249
1058.061
1056.137
1052.729
1047.035
1042.164
1044.286
1042.619
1049.773
1047.555
1034.768
1031.686
1037.076
1032.922
1027.305
1033.704
1038.266
1031.185
1025.163
1026.576
1026.774
1016.752
1020.828
1027.063
1012.209
1015.341
1013.628
1008.842
1010.086
1015.382
1005.255
1008.802
1007.983
1009.927
997.807
1009.072
1000.566
1005.774
1005.935
994.300
996.109
996.459
994.148
983.837
993.436
989.876
985.339
977.322
985.649
988.751
983.363
985.274
981.378
970.049
981.789
969.414
976.692
975.759
974.348
960.797
964.657
965.651
962.130
967.807
957.016
950.203
959.477
955.117
954.653
958.399
949.663
952.991
939.857
953.579
945.925
945.211
942.921
935.556
945.856
942.553
937.493
927.840
932.870
925.052
922.457
935.287
933.652
917.712
915.589
923.358
925.273
921.205
910.375
908.039
917.373
915.011
914.843
906.008
902.009
914.070
900.337
905.428
908.432
893.696
901.449
903.177
890.319
894.804
893.932
883.968
893.303
896.642
885.171
882.764
884.880
888.120
877.978
877.375
883.910
872.884
870.127
874.121
879.094
865.129
875.145
871.992
859.736
858.403
862.800
859.123
861.422
862.242
851.837
853.361
853.951
853.881
857.354
847.620
842.427
841.532
841.262
839.254
844.771
845.175
840.610
845.192
842.210
839.961
833.615
828.379
837.312
827.242
832.954
831.455
823.445
819.494
814.506
817.937
825.646
816.671
815.865
812.678
804.824
804.950
812.129
800.896
811.633
807.401
796.364
803.698
794.706
790.999
796.771
799.722
789.667
790.470
788.044
782.597
785.867
778.814
779.120
777.124
788.228
774.032
771.047
770.735
780.742
782.169
770.892
775.665
772.514
772.480
771.082
757.882
767.669
769.336
755.537
763.711
767.301
761.372
753.058
763.358
754.891
764.913
760.118
753.132
749.354
758.947
752.673
759.111
749.689
747.336
746.775
750.548
743.904
741.211
742.679
742.961
738.970
750.337
751.533
752.222
736.367
751.008
737.364
741.710
748.898
748.067
740.002
734.361
732.443
731.028
741.792
739.050
730.774
726.748
740.955
730.259
731.370
727.321
725.561
727.149
733.435
728.459
729.106
725.664
724.766
730.533
723.529
719.189
725.379
720.472
726.713
716.141
723.847
726.129
727.020
720.183
723.561
721.662
714.329
718.858
716.226
721.791
710.946
718.463
709.529
706.266
715.748
717.682
716.759
714.667
710.687
708.984
704.220
714.453
709.792
710.695
706.997
705.860
700.319
707.122
709.634
704.669
706.525
693.775
699.543
694.684
699.115
690.901
700.738
696.104
698.573
701.782
687.168
698.290
696.504
685.780
687.994
683.378
685.501
687.381
692.760
686.142
680.138
682.051
690.309
683.631
681.387
680.628
686.191
683.584
682.704
681.305
683.825
677.122
676.803
671.568
674.434
675.086
672.326
671.891
679.506
673.778
679.906
676.838
665.293
677.523
666.869
674.419
676.611
661.041
668.500
658.924
665.189
672.185
665.462
664.854
665.394
656.363
669.270
669.113
654.713
664.474
655.217
661.407
661.839
664.840
662.498
662.336
655.835
651.313
649.718
645.013
648.746
656.688
647.808
647.765
650.804
649.410
654.915
650.938
647.053
639.982
648.020
645.885
637.902
640.054
638.362
644.507
643.347
633.565
638.762
641.828
638.840
638.216
632.473
630.497
630.340
630.161
639.500
626.765
626.311
626.079
637.880
625.356
624.524
626.269
629.517
625.531
621.336
624.008
618.215
628.255
626.764
618.584
623.834
630.302
622.321
633.756
621.615
634.539
639.200
633.411
636.489
631.640
629.568
638.929
642.456
632.215
643.655
642.118
640.681
641.552
647.968
648.412
653.521
649.721
647.076
649.029
652.772
658.876
645.984
655.557
655.659
662.165
661.685
651.321
657.565
657.502
658.875
659.326
667.605
660.400
669.010
667.976
670.978
664.106
663.546
672.118
666.248
677.919
669.626
668.865
674.228
672.367
671.738
675.652
680.704
682.923
679.312
691.688
686.177
683.216
690.054
694.133
691.254
686.907
697.818
696.648
690.045
689.333
692.943
691.124
694.287
707.028
705.771
699.916
704.049
699.496
699.147
705.743
715.936
705.776
705.172
709.253
710.546
719.558
719.691
719.909
724.016
714.021
719.708
722.337
728.662
717.139
718.997
723.897
730.509
722.405
725.833
736.516
722.948
727.422
738.422
727.335
728.818
736.617
743.838
732.033
735.772
738.969
735.784
742.523
743.844
742.162
738.027
749.694
741.068
754.646
750.111
755.363
757.382
748.679
753.535
753.239
763.152
755.445
760.984
765.709
765.405
764.402
764.010
760.226
761.678
766.175
764.833
773.531
761.610
770.763
768.247
774.883
769.522
778.183
772.261
774.397
778.797
782.672
782.590
784.224
788.224
787.440
777.922
789.942
782.316
787.233
782.386
797.640
785.025
784.899
794.336
800.509
801.083
791.937
798.364
806.411
802.133
804.566
801.603
806.279
797.505
812.455
801.417
815.267
806.213
808.558
810.677
806.648
818.528
818.196
820.108
813.941
817.010
817.565
822.667
825.534
819.179
821.854
822.252
817.282
820.415
821.910
832.321
829.935
832.989
832.966
836.948
825.918
833.891
838.774
843.509
842.446
842.716
847.436
839.445
838.694
844.006
847.301
842.398
851.752
847.447
840.922
843.649
844.400
855.297
845.487
858.247
848.816
855.357
854.033
854.902
860.597
853.897
866.292
857.152
866.859
856.624
867.305
867.475
868.204
864.378
867.527
872.467
878.228
879.413
875.768
873.709
883.509
873.076
871.678
886.968
884.513
884.804
879.852
877.402
883.263
892.315
882.274
881.950
890.649
883.673
888.508
888.155
886.972
897.637
892.692
903.139
889.521
893.299
900.623
905.055
901.342
896.255
906.007
908.373
913.201
907.174
901.528
915.717
905.136
910.709
916.723
919.854
917.194
911.402
911.123
922.962
913.126
915.541
914.073
922.447
921.589
918.758
925.780
924.362
929.265
922.056
920.941
928.420
933.895
934.711
929.222
934.046
938.474
936.266
930.664
944.844
941.991
939.305
934.210
936.579
945.658
947.928
938.664
950.019
946.486
943.566
956.743
945.161
956.252
951.355
947.333
954.157
949.135
954.589
960.086
960.107
960.086
963.812
963.475
969.932
963.794
958.381
958.577
971.881
966.879
977.122
976.276
977.185
977.210
977.402
971.982
971.471
976.252
977.104
985.934
985.859
981.871
975.336
989.024
988.286
983.922
984.468
993.748
981.122
987.509
997.291
995.470
997.447
993.890
990.590
992.024
1003.290
1004.679
1002.157
991.573
996.974
1007.668
1001.805
1008.692
1002.868
1008.752
1009.952
1013.447
1007.074
1012.688
1007.127
1009.592
1006.589
1018.246
1010.020
1009.614
1012.311
1022.921
1014.867
1024.080
1021.358
1015.727
1031.121
1029.391
1024.727
1027.523
1028.579
1030.713
1025.105
1027.658
1027.894
1027.985
1033.844
1028.875
1038.391
1040.430
1042.055
1043.856
1032.331
1035.368
1048.369
1042.016
1041.563
1046.113
1042.377
1042.859
1047.770
1043.649
1044.652
1047.715
1048.592
1043.840
1055.841
1055.000
1042.859
1038.274
1048.535
1038.807
1050.591
1036.781
1041.558
1044.300
1038.303
1042.476
1044.502
1038.603
1037.443
1040.981
1030.115
1035.296
1026.614
1032.366
1032.634
1026.392
1032.477
1021.453
1019.394
1023.863
1018.610
1023.202
1024.651
1024.059
1026.493
1016.713
1016.351
1014.983
1013.016
1019.757
1013.248
1016.762
1013.182
1014.172
1005.355
1008.919
1011.120
1011.064
1002.836
1006.796
1003.481
1001.457
1002.235
993.774
994.958
996.043
997.822
989.321
988.932
1000.888
986.983
994.656
987.540
991.369
995.331
991.773
979.701
979.736
977.439
986.325
976.575
983.451
987.936
977.654
987.012
982.740
980.364
968.433
969.015
969.762
977.462
979.635
972.818
962.533
966.564
962.891
974.473
970.322
972.491
969.366
969.333
959.054
965.377
959.461
960.068
956.854
956.519
962.099
953.513
956.900
956.474
953.698
949.477
953.936
956.592
951.210
945.342
948.675
951.393
942.776
946.102
948.613
935.257
937.625
932.835
934.833
934.305
930.109
930.944
928.924
938.703
934.551
934.367
934.513
930.069
936.006
919.583
930.777
922.515
920.964
920.793
927.160
917.114
918.272
926.832
910.538
920.640
919.568
922.473
910.738
917.947
907.670
919.016
918.042
916.150
911.434
907.840
900.116
906.268
906.855
905.412
906.801
905.483
905.515
900.719
904.952
890.945
891.055
887.696
892.060
894.367
896.715
883.853
897.623
897.024
880.588
880.265
878.702
883.807
881.429
886.818
879.022
881.500
886.170
872.281
877.866
876.779
872.814
874.609
876.785
878.591
866.795
873.941
866.444
869.554
866.514
867.872
865.489
861.491
866.301
856.147
865.743
868.518
863.079
859.686
853.626
857.498
862.832
853.177
861.205
858.143
