471.314
441.366
493.185
491.826
485.257
515.031
513.581
514.743
528.972
505.029
164.386
168.010
163.375
161.712
174.584
176.387
183.141
184.568
174.262
181.843
178.722
193.375
187.301
195.369
195.899
199.421
197.641
198.897
201.650
209.731
203.468
208.425
208.846
210.567
210.914
218.220
222.565
215.103
229.465
230.071
234.798
230.836
237.107
231.775
243.353
234.126
247.402
248.831
246.154
248.810
241.660
254.921
250.783
255.985
261.405
254.347
254.728
266.088
271.234
267.156
269.097
274.757
277.930
269.579
278.005
279.513
284.515
291.241
291.857
294.870
289.744
298.916
301.195
295.270
294.396
307.929
310.933
310.472
303.054
315.381
316.612
313.206
318.174
326.745
322.008
331.281
331.495
321.372
332.743
331.018
331.077
330.325
343.784
345.805
351.460
338.681
350.275
345.514
345.931
349.258
355.682
352.210
365.583
362.786
369.757
364.917
369.795
375.145
370.084
381.038
378.866
372.898
384.099
383.794
381.721
393.428
398.796
392.272
391.111
400.220
405.437
399.596
401.358
411.707
406.982
405.828
408.349
409.929
422.351
422.003
422.054
420.867
422.043
425.976
422.571
426.533
440.358
441.895
434.435
448.681
444.285
453.244
443.606
442.858
458.827
448.954
451.166
451.710
462.997
463.341
465.928
463.762
467.122
476.164
466.608
469.794
484.501
480.913
487.848
476.586
482.602
494.901
492.048
497.208
492.927
503.656
501.555
498.009
505.135
512.325
504.851
506.216
509.341
521.745
521.791
521.091
528.176
519.816
521.007
522.603
525.014
539.064
528.029
536.578
533.325
537.374
542.031
551.358
541.304
546.264
555.130
556.917
558.052
551.537
553.554
556.398
559.451
573.261
575.631
575.418
573.988
566.870
577.291
580.472
579.135
570.483
581.489
586.017
582.497
577.092
574.294
580.742
576.995
579.863
587.009
582.089
585.064
594.831
595.323
593.067
584.718
591.375
584.317
585.474
595.029
592.201
602.057
598.025
595.658
603.037
597.290
591.758
593.453
600.559
602.951
609.678
607.589
602.146
601.829
611.390
602.709
600.022
603.806
616.173
602.075
612.329
603.869
617.608
614.044
619.952
617.039
611.837
623.549
613.696
615.792
622.152
627.869
616.186
615.632
617.400
622.582
631.530
620.918
617.878
627.995
632.940
628.608
630.402
632.615
627.710
631.271
638.603
640.631
627.484
642.848
634.788
644.565
644.000
642.344
645.176
632.904
643.652
649.381
645.023
641.477
636.669
643.501
652.537
640.955
644.781
648.706
651.416
650.013
658.596
643.915
657.309
647.091
656.030
656.345
663.723
650.208
657.745
663.645
665.016
660.694
659.968
667.274
659.913
656.922
667.055
665.729
661.763
664.266
668.678
671.476
670.787
673.363
667.543
664.531
668.463
678.930
676.842
671.936
683.947
682.810
684.242
686.704
686.169
683.930
676.752
685.970
680.086
677.727
688.681
689.833
683.265
685.562
692.073
694.705
684.762
691.461
689.885
686.345
687.324
694.846
689.042
696.204
691.761
700.558
693.401
706.010
706.909
693.516
704.790
703.989
707.076
700.604
698.396
711.806
707.766
712.112
701.906
708.581
707.776
711.767
715.409
713.220
709.488
719.036
710.593
712.622
722.583
717.223
712.928
714.390
721.750
712.944
729.562
729.068
721.654
719.218
720.805
731.965
727.891
733.779
727.102
722.190
725.536
727.305
732.969
737.962
729.058
741.228
733.257
731.439
744.413
738.826
740.289
741.512
732.646
733.705
742.119
744.392
748.911
753.560
742.287
747.342
752.161
750.513
754.918
760.528
755.195
757.268
754.676
767.043
762.816
761.516
769.125
769.770
775.497
778.243
768.003
781.371
780.116
775.324
784.396
777.036
787.125
790.283
787.012
782.303
795.723
788.442
795.856
787.171
802.828
799.632
796.543
804.926
804.276
802.473
802.905
804.698
809.717
810.587
806.405
813.949
812.625
821.485
825.118
819.434
820.680
827.968
831.506
828.537
832.571
828.574
826.178
828.318
831.958
840.734
838.808
834.480
843.558
841.665
839.082
851.735
843.334
854.262
844.169
848.322
848.827
848.082
852.208
863.173
857.074
854.688
864.364
867.461
864.620
872.957
865.121
876.895
872.610
869.104
869.293
882.689
873.657
882.109
878.087
876.029
880.518
892.187
887.662
896.542
888.735
897.474
887.209
897.805
897.145
894.872
894.590
900.473
900.352
901.553
900.563
903.029
912.876
909.767
913.229
917.534
920.221
921.623
917.065
917.184
915.452
925.489
926.732
922.251
928.726
935.807
934.479
931.389
941.317
938.368
946.550
935.889
935.837
947.350
951.301
953.471
944.823
950.573
948.396
950.803
959.809
950.634
960.610
957.789
953.553
963.481
956.946
962.722
960.521
962.669
965.248
968.948
966.171
978.796
976.643
985.958
977.612
983.678
990.389
980.976
985.262
980.958
983.257
992.341
995.538
994.241
997.839
998.945
1006.001
997.824
1005.430
998.000
998.145
1008.217
1009.251
1012.287
1019.054
1018.071
1014.852
1023.018
1021.140
1020.697
1026.613
1017.993
1024.978
1021.306
1026.620
1026.071
1031.435
1030.499
1038.920
1040.046
1044.939
1046.628
1042.100
1038.406
1040.775
1050.383
1049.150
1051.536
1053.140
1054.585
1059.089
1057.232
1054.949
1050.015
1063.381
1051.694
1060.542
1055.415
1060.133
1053.887
1053.164
1056.026
1058.058
1054.036
1059.295
1059.363
1051.926
1054.086
1061.502
1055.762
1055.345
1055.542
1059.942
1058.745
1056.551
1054.318
1065.847
1066.440
1065.434
1064.964
1065.971
1062.252
1062.942
1064.406
1052.109
1067.425
1058.382
1067.279
1059.272
1058.864
1062.561
1065.915
1066.469
1062.928
1056.741
1059.903
1059.815
1054.095
1065.743
1057.621
1065.066
1064.964
1056.558
1064.842
1063.003
1065.641
1054.512
1063.025
1060.989
1054.171
1062.660
1060.600
1062.426
1053.333
1056.331
1063.142
1053.425
1059.968
1059.014
1057.899
1065.820
1060.829
1069.000
1062.628
1058.917
1063.153
1055.210
1055.163
1057.036
1061.874
1063.217
1056.841
1066.515
1058.501
1058.697
1058.982
1059.386
1062.828
1069.269
1064.525
1070.687
1060.198
1058.334
1058.451
1062.888
1062.267
1063.307
1067.160
1060.518
1062.939
1059.984
1061.478
1063.880
1063.701
1059.873
1060.194
1059.945
1069.564
1069.150
1062.515
1058.172
1056.825
1059.157
1064.686
1071.881
1057.230
1062.351
1067.665
1056.962
1059.891
1067.614
1057.999
1067.058
1065.027
1070.052
1068.740
1062.937
1059.143
1066.312
1065.321
1057.185
1072.131
1069.393
1064.758
1064.793
1066.608
1072.763
1062.979
1059.259
1059.044
1071.320
1061.619
1062.678
1061.761
1068.394
1060.193
1065.184
1065.833
1065.620
1064.446
1058.948
1060.499
1067.629
1059.442
1061.112
1063.898
1069.196
1063.024
1059.849
1065.351
1071.887
1066.402
1072.077
1074.670
1071.997
1074.570
1060.922
1071.273
1062.885
1061.736
1068.171
1072.978
1059.720
1069.583
1060.639
1075.465
1072.059
1070.432
1075.279
1071.426
1063.742
1062.287
1072.164
1062.158
1073.452
1069.750
1069.793
1074.728
1061.813
1065.966
1063.614
1074.404
1062.693
1073.338
1064.392
1067.028
1068.912
1070.537
1075.390
1064.153
1068.627
1067.539
1071.504
1071.945
1062.085
1063.921
1060.921
1067.692
1064.765
1069.464
1067.138
1062.239
1052.846
1051.335
1055.551
1048.458
1052.259
1056.321
1058.745
1054.856
1052.315
1049.734
1051.633
1042.696
1051.229
1053.083
1049.726
1035.411
1049.549
1040.051
1038.620
1038.285
1039.174
1040.452
1037.598
1026.992
1036.723
1034.253
1036.947
1023.515
1029.354
1023.456
1030.149
1023.135
1018.505
1021.693
1027.502
1025.556
1022.705
1025.421
1015.601
1019.583
1009.897
1020.429
1016.252
1009.316
1008.501
1017.424
1001.855
1009.364
1012.722
999.469
1006.882
1003.852
1003.002
1006.859
1006.058
1007.272
992.385
991.343
997.792
1001.987
995.315
996.307
997.132
994.883
994.304
995.111
995.911
984.289
980.543
987.843
980.824
984.252
985.392
975.069
982.807
981.678
983.801
973.111
979.301
977.665
978.918
975.937
968.377
976.215
971.334
963.509
971.409
971.192
959.097
960.501
965.795
966.700
963.578
961.913
965.582
960.522
952.415
953.125
945.644
947.832
946.471
946.266
951.658
950.864
941.549
943.620
939.693
940.199
938.175
943.786
942.562
941.867
937.525
933.218
934.077
930.550
930.437
926.477
928.358
932.380
922.291
934.671
934.205
925.928
922.325
929.651
927.097
919.566
918.505
920.083
916.938
916.550
914.260
908.048
914.934
914.017
910.449
903.281
909.739
904.493
907.898
901.945
911.728
911.443
904.427
898.901
906.754
896.720
900.232
901.634
896.749
891.837
897.518
901.404
888.905
897.914
895.882
889.565
893.903
890.876
883.748
882.472
883.126
881.778
874.172
882.703
875.348
873.566
884.704
869.376
876.060
879.078
871.096
871.737
863.843
876.846
864.000
869.669
865.377
858.039
860.968
861.296
862.935
855.508
858.729
862.223
855.655
855.435
849.710
859.550
848.772
845.219
854.636
860.819
855.594
855.957
848.877
857.078
861.402
862.905
855.662
862.198
852.127
857.921
861.074
861.111
863.746
860.007
850.720
861.285
855.962
861.840
859.746
865.828
867.437
858.417
859.876
861.565
859.133
858.334
857.283
863.496
870.706
869.028
862.626
859.706
869.942
858.665
871.745
870.806
868.761
870.794
872.990
864.479
865.173
867.578
862.066
876.526
870.004
877.230
871.258
868.165
874.807
876.502
865.814
871.721
880.087
871.257
878.816
867.432
880.259
878.487
874.322
878.196
875.121
875.892
882.136
876.407
882.294
884.374
874.091
871.837
879.147
876.409
873.267
878.632
878.195
884.372
883.897
887.883
882.003
874.577
880.443
884.586
880.918
878.696
891.044
889.128
885.611
888.273
884.402
878.198
892.032
888.333
889.202
887.011
887.914
881.695
890.689
883.393
889.508
894.210
889.461
881.557
881.903
891.779
893.213
888.262
892.290
898.772
884.174
886.594
900.281
900.409
899.928
901.439
898.116
888.455
897.164
894.240
888.009
902.987
891.347
902.286
893.203
895.262
893.650
893.284
898.892
891.829
894.201
901.619
891.816
899.174
902.676
897.847
906.731
897.302
904.967
901.374
906.268
910.086
903.217
900.225
904.924
901.058
909.394
911.486
900.015
902.882
901.186
903.492
902.034
914.059
912.696
915.327
902.946
908.799
904.084
908.247
914.859
905.077
911.334
915.280
915.018
905.673
913.669
904.825
909.466
913.872
916.406
917.828
912.782
919.134
910.546
914.352
923.010
914.193
922.840
922.418
917.064
918.143
923.487
911.159
923.630
922.425
927.025
924.182
912.788
919.931
918.033
919.812
926.301
917.097
919.405
915.461
927.457
925.882
926.240
928.417
920.636
928.251
916.459
931.620
925.769
930.213
917.281
919.314
916.440
921.860
921.168
912.357
914.359
919.079
919.888
920.767
920.497
916.901
917.979
917.389
910.284
916.485
922.174
919.306
917.279
909.790
912.583
911.271
916.947
910.833
907.881
904.134
913.463
916.907
906.289
903.221
909.899
912.402
898.734
900.603
903.653
899.451
897.353
911.232
910.691
905.690
909.415
902.057
899.770
905.250
905.240
899.612
894.787
894.184
893.383
892.061
894.864
898.236
895.616
902.198
896.384
901.879
894.550
893.163
887.868
898.729
897.300
890.047
894.342
891.440
888.155
897.053
897.362
882.070
886.472
892.192
880.267
886.748
890.872
893.719
890.421
880.319
881.170
886.895
890.449
888.780
889.177
874.805
885.544
887.802
881.028
885.764
879.845
876.235
885.278
885.183
882.512
878.557
879.837
878.351
870.617
869.805
879.295
878.691
868.257
879.538
879.056
871.518
874.610
879.584
875.418
865.191
872.839
862.032
865.291
865.014
876.145
863.539
859.961
874.274
864.797
872.907
866.512
860.798
863.001
863.273
855.898
868.963
864.247
864.108
863.702
856.711
858.225
852.839
854.641
861.312
854.778
861.429
859.471
858.335
863.416
863.642
852.832
863.050
856.507
861.198
859.946
861.245
860.206
852.270
845.377
858.530
850.392
849.551
843.299
855.779
844.721
850.420
843.583
851.861
840.843
846.118
845.881
840.087
841.702
838.775
843.536
837.144
849.427
836.643
843.702
840.894
837.379
847.424
835.479
844.132
835.557
842.824
831.776
841.761
831.695
837.293
834.144
828.101
834.461
836.387
829.228
834.107
834.543
829.554
832.109
825.069
823.963
836.011
836.028
827.506
830.559
830.324
824.064
835.755
823.853
825.290
820.867
823.408
828.985
835.003
821.857
821.269
821.328
831.456
823.177
824.388
822.330
826.573
824.605
826.722
823.170
836.319
831.544
826.852
825.606
829.657
837.770
829.364
828.149
833.431
830.920
830.958
836.104
830.490
839.285
841.878
832.179
843.582
838.409
842.558
842.322
834.654
842.247
834.136
845.371
830.521
841.983
838.702
840.533
831.284
838.124
846.008
836.960
840.457
843.641
838.836
846.422
833.516
843.380
842.192
843.624
837.609
845.299
835.830
835.291
844.135
849.869
836.566
838.230
843.475
844.526
851.126
844.375
842.303
841.926
844.046
841.537
845.954
846.329
844.633
854.222
852.019
852.502
844.928
847.102
843.706
853.207
845.614
843.709
855.145
851.812
846.399
855.400
854.819
844.981
849.075
846.257
845.439
849.896
850.890
850.928
849.136
847.894
846.019
852.069
850.180
855.465
848.828
856.512
851.135
851.423
848.427
862.987
859.852
853.991
856.532
856.552
861.466
852.542
859.406
853.138
855.118
854.400
861.451
858.415
853.938
858.433
860.752
855.183
857.947
853.400
857.743
854.893
856.142
855.981
862.195
869.999
864.211
868.669
855.751
867.564
863.140
861.908
870.017
866.916
864.196
861.658
860.668
861.204
868.943
869.159
870.973
869.510
871.967
871.987
864.727
874.769
872.236
862.003
876.587
868.434
867.658
864.576
873.451
873.810
863.293
868.273
864.024
869.793
864.272
864.250
879.719
865.541
867.424
866.382
865.619
867.523
880.934
877.925
879.920
869.482
879.501
873.088
875.205
879.262
880.283
875.889
877.567
882.041
876.213
870.773
872.005
878.278
875.954
870.810
871.578
882.096
875.693
885.292
882.016
884.034
878.222
888.277
881.877
879.493
886.970
881.041
884.335
875.923
878.486
877.820
883.264
885.981
879.678
886.632
881.039
891.376
889.144
895.652
881.119
885.404
892.428
891.967
893.718
887.362
895.099
892.341
885.000
886.380
887.552
897.938
894.948
891.750
890.318
899.118
889.274
901.859
892.573
891.844
905.227
902.326
901.432
900.557
895.791
894.788
909.344
909.206
902.363
905.314
909.825
903.273
904.212
899.543
903.570
908.764
907.024
900.783
910.021
903.046
902.756
906.028
915.021
909.726
904.783
919.212
918.798
916.911
910.775
920.753
921.038
911.259
918.266
917.581
911.470
915.205
910.177
916.126
922.755
923.503
922.805
920.923
920.830
928.033
922.422
916.199
928.215
919.976
917.095
931.600
922.781
930.836
932.362
928.786
922.898
927.582
926.003
931.709
930.415
934.248
924.300
932.586
925.106
937.101
929.213
927.804
940.238
937.305
931.034
933.036
928.970
937.961
936.797
928.825
936.987
943.717
933.639
933.307
940.850
942.765
932.395
945.472
945.422
940.571
938.651
945.910
941.316
936.628
936.347
946.772
940.322
945.954
939.715
949.965
951.358
942.715
950.705
949.125
945.985
950.541
952.502
952.750
946.357
956.782
953.900
951.496
945.401
961.354
960.964
956.256
954.637
958.713
958.364
957.022
953.911
961.489
953.029
954.871
952.338
963.435
953.580
959.621
955.115
956.912
954.769
966.913
964.594
959.618
969.342
962.008
969.617
961.282
972.608
958.814
966.223
965.977
966.206
965.937
965.796
962.031
962.348
968.728
969.881
966.423
976.075
968.976
965.952
975.509
973.508
975.127
971.385
979.671
973.748
972.364
980.044
985.478
977.979
980.352
972.143
978.570
984.698
976.949
984.553
982.338
980.471
989.472
990.320
985.478
986.950
987.678
979.009
977.328
977.664
984.449
978.779
980.338
975.547
975.356
975.203
986.818
985.124
979.984
982.183
977.455
976.346
983.478
976.404
972.517
969.201
981.723
968.935
975.544
968.850
978.870
982.463
975.664
976.554
978.226
978.835
972.908
971.547
971.852
980.191
979.567
964.326
977.793
974.782
969.740
969.386
977.869
975.530
972.539
966.522
962.015
975.725
966.476
975.424
975.444
963.824
970.068
972.576
965.946
974.464
969.719
966.252
971.496
968.034
959.068
961.577
957.119
967.945
967.363
970.996
959.677
963.243
959.637
959.040
959.247
967.795
964.842
969.433
957.234
956.554
967.426
957.068
968.202
966.685
963.840
965.404
961.169
966.059
956.617
953.571
959.862
951.971
951.675
954.086
951.871
963.186
960.108
959.977
958.225
958.481
958.050
955.424
946.838
952.993
950.802
954.354
952.500
959.659
957.881
945.540
958.822
957.291
943.956
948.168
951.777
957.762
942.723
951.516
951.027
946.156
955.850
954.085
941.774
942.946
954.680
949.373
941.421
945.513
951.186
941.828
947.826
952.469
951.419
949.102
945.676
951.610
937.566
950.952
945.990
941.646
950.406
942.511
936.897
945.463
939.682
941.191
936.402
936.551
947.077
933.042
939.536
935.717
943.875
935.803
933.279
941.905
935.471
934.353
942.093
938.665
937.354
941.656
934.902
938.140
936.605
932.596
929.638
932.011
934.227
941.781
935.601
936.940
928.798
926.501
927.643
928.682
928.936
928.044
937.222
928.355
924.453
926.705
924.626
926.366
928.573
929.995
930.471
936.598
927.660
929.296
928.984
920.571
934.135
922.032
924.436
931.377
925.611
934.135
922.960
918.992
930.239
922.710
926.506
