416.283
434.067
432.371
458.637
440.617
451.465
446.708
145.590
145.073
146.964
146.975
154.807
148.015
157.586
163.608
165.531
160.882
163.128
159.062
165.306
167.163
169.063
171.316
174.523
174.096
183.844
176.849
182.008
182.237
191.560
187.221
196.031
190.323
193.223
196.267
204.623
198.073
199.149
204.111
203.948
209.290
217.110
216.335
211.840
222.358
220.402
219.433
224.306
222.926
230.119
225.974
225.975
237.066
239.661
234.013
240.296
241.062
238.449
237.187
250.107
247.062
245.176
255.648
248.251
254.953
266.574
263.531
265.158
268.018
273.576
265.459
267.454
266.805
279.951
283.911
270.660
287.736
283.246
280.082
294.461
283.132
289.281
285.113
299.159
300.933
298.072
293.407
299.198
301.807
307.818
305.403
307.131
310.841
322.457
324.225
316.729
319.116
329.448
328.731
333.657
332.412
334.952
324.818
327.698
339.638
341.920
339.279
338.040
343.072
343.161
349.960
343.561
356.296
361.571
362.802
356.873
366.842
365.666
363.997
364.248
374.536
369.680
375.021
372.698
382.604
372.133
381.015
382.114
385.326
384.454
381.434
395.921
395.773
400.984
389.059
402.899
406.212
409.289
412.041
411.918
404.615
405.288
405.511
409.568
413.126
418.671
412.827
421.901
427.198
432.866
430.360
436.836
424.952
441.690
438.645
436.787
432.223
443.024
442.375
441.148
451.203
449.247
452.462
453.512
455.397
451.725
461.797
464.713
465.444
461.915
473.489
467.931
469.152
470.670
480.157
485.571
483.549
479.886
477.772
492.033
488.173
495.550
485.366
493.031
496.826
492.397
493.029
499.593
511.232
509.781
513.714
502.283
506.321
518.401
520.952
516.580
523.270
518.808
521.783
531.401
532.328
527.165
535.061
526.005
530.948
525.243
529.249
527.673
530.195
527.720
526.025
538.430
524.796
536.178
532.953
535.461
531.262
526.882
528.660
540.134
528.258
542.069
540.941
530.169
536.029
536.871
530.662
544.770
543.327
545.496
543.051
541.005
537.425
539.430
544.100
535.100
546.786
543.205
546.053
537.866
545.213
536.037
537.279
547.301
549.331
547.772
543.053
544.121
551.529
539.946
545.562
541.753
543.872
555.249
552.527
543.532
547.139
551.577
550.584
544.751
553.432
548.025
551.301
549.815
547.205
560.578
548.655
550.892
551.213
555.022
553.622
556.130
549.645
558.006
550.522
557.419
550.226
550.830
553.249
560.928
557.450
563.781
566.021
558.471
561.954
554.926
554.791
567.858
567.372
564.786
560.927
564.493
557.172
559.302
557.245
560.582
565.577
563.804
564.039
573.298
573.265
562.626
571.252
566.970
565.313
575.096
569.669
565.403
569.326
571.758
570.295
577.574
566.620
568.727
576.459
574.315
572.169
573.954
573.925
575.947
575.752
579.193
576.712
581.093
576.270
578.915
576.103
584.460
584.349
575.970
579.545
584.688
586.903
585.175
584.146
582.329
583.467
586.819
574.518
582.527
589.577
590.926
589.480
586.542
589.956
583.380
583.693
581.757
588.990
589.385
594.007
585.837
592.187
588.046
584.149
589.867
587.723
589.836
588.480
588.226
596.935
591.645
598.941
586.704
586.205
591.913
585.871
593.315
599.734
596.907
591.059
593.700
597.121
588.923
595.736
601.306
594.087
591.650
604.651
600.350
596.200
598.885
595.315
601.993
606.643
604.056
607.702
594.639
600.123
605.662
608.424
607.749
608.927
598.884
599.034
603.137
605.108
606.096
605.222
608.859
598.697
614.006
610.105
609.567
607.195
613.080
607.356
611.048
612.036
616.243
609.845
613.620
620.211
618.015
621.756
623.888
622.258
617.911
617.066
614.950
625.889
619.589
626.222
628.712
619.380
627.419
633.411
626.449
621.818
634.528
622.461
633.586
628.350
628.991
636.563
637.770
628.239
631.379
634.920
638.049
634.297
637.670
638.077
646.359
639.083
643.394
649.802
651.744
647.443
644.800
643.704
640.229
652.658
657.071
646.039
642.730
645.176
649.642
659.667
649.055
651.094
661.726
649.438
653.492
663.292
663.575
665.615
665.291
667.004
656.360
658.016
666.329
668.429
669.404
663.398
673.689
667.548
667.171
674.058
663.980
674.674
666.235
670.139
675.455
680.355
671.516
683.235
672.100
675.384
670.387
681.597
675.013
675.172
674.616
683.219
676.684
690.874
681.432
690.770
687.515
688.986
692.222
694.463
691.634
694.877
688.419
696.241
697.994
689.724
702.405
702.058
689.764
699.979
700.465
691.643
692.508
705.325
696.885
706.323
696.681
699.475
706.081
697.327
712.875
713.036
709.105
710.971
705.096
716.762
708.913
711.668
717.471
718.344
710.279
715.814
709.546
721.480
719.961
720.834
724.282
714.233
725.859
715.990
714.425
723.507
725.645
721.192
720.732
726.865
725.812
728.517
726.435
728.303
731.344
728.313
729.257
727.039
739.477
736.163
735.770
729.969
734.413
743.639
730.798
737.379
737.123
733.565
736.588
743.525
749.785
745.424
747.862
748.130
750.183
755.111
745.950
749.559
753.475
745.423
755.666
746.487
746.337
754.412
751.467
753.139
760.217
761.065
763.003
760.116
765.085
763.484
760.058
769.111
764.870
758.019
769.786
759.702
766.090
765.152
764.985
768.262
765.331
772.242
770.635
765.459
770.213
763.871
773.426
765.282
773.339
773.658
763.953
762.836
775.662
769.902
771.353
769.881
775.936
760.633
766.445
775.660
767.443
766.536
774.983
761.883
767.299
776.314
761.374
775.435
771.437
764.670
772.352
768.795
774.667
762.461
764.088
768.925
770.032
763.327
764.411
763.163
761.138
761.360
770.415
766.171
772.504
766.625
764.389
764.411
764.272
761.122
773.502
774.259
775.309
771.260
776.566
762.018
766.285
775.843
772.447
769.363
774.453
762.384
762.161
765.131
771.005
761.775
771.219
774.748
764.926
773.067
770.129
769.056
769.955
767.443
766.872
772.940
772.816
769.927
775.962
762.717
766.726
773.039
762.674
763.282
770.353
762.230
777.149
777.001
763.912
761.264
770.628
776.575
772.497
761.334
772.221
767.448
765.427
767.610
774.908
772.295
762.317
765.856
776.885
765.930
774.072
776.985
763.275
768.869
766.775
766.277
765.014
774.821
764.144
775.555
772.216
768.485
772.937
770.477
771.867
774.131
773.236
772.091
773.044
765.002
776.092
764.735
765.889
763.645
774.692
763.723
771.829
767.294
761.719
774.433
769.968
774.484
772.659
770.498
761.902
774.138
771.204
765.254
772.227
766.070
771.518
768.891
777.074
766.679
768.597
774.022
769.070
769.120
777.495
766.658
765.833
772.602
766.518
776.652
773.087
767.015
766.468
775.353
770.206
777.740
770.634
762.406
763.296
764.217
773.609
767.050
777.390
767.614
768.264
769.874
767.740
775.866
776.808
768.862
767.587
775.109
767.627
777.147
764.272
765.194
766.611
770.148
769.441
771.396
773.648
766.883
772.122
773.471
777.316
772.491
772.179
775.116
765.261
774.426
775.718
773.067
773.421
777.657
774.213
772.657
768.587
769.902
768.491
780.347
782.278
784.073
775.850
780.497
784.378
781.938
777.164
786.797
787.488
774.689
777.842
783.902
779.546
787.996
778.616
780.761
784.357
782.336
787.727
787.102
789.092
791.167
786.307
788.626
788.390
788.115
793.261
789.222
788.687
791.110
792.471
795.383
794.804
794.047
792.992
797.835
801.116
797.746
793.904
801.015
794.211
794.599
805.995
807.429
802.956
798.339
805.168
798.663
806.251
796.323
810.447
812.224
806.709
798.961
800.370
807.658
815.705
812.196
815.040
807.756
810.137
812.141
817.796
812.707
809.229
814.168
809.283
810.607
821.273
818.828
815.751
815.343
820.839
810.964
813.603
825.273
821.339
817.093
817.780
818.126
829.886
818.236
830.492
818.319
824.419
832.416
831.585
825.608
823.461
825.065
828.571
830.538
828.213
829.235
836.914
835.704
838.237
834.471
834.217
830.243
828.119
837.691
833.773
828.759
829.169
842.050
830.463
838.075
846.034
839.526
838.386
843.584
847.087
839.900
848.416
846.129
851.121
848.134
849.854
849.798
851.823
847.535
839.561
848.930
844.867
842.018
856.910
845.448
847.302
854.615
856.148
850.158
848.222
855.053
852.892
857.554
851.976
855.069
852.475
854.874
864.972
854.469
855.866
858.886
860.463
862.716
853.916
858.636
858.838
857.179
869.507
862.852
858.702
867.713
858.271
869.059
860.875
872.935
860.856
875.142
869.240
863.325
874.349
864.646
877.677
879.471
878.852
868.926
872.634
875.147
873.975
873.156
875.274
879.247
872.541
879.236
878.966
878.313
875.114
887.544
888.757
879.801
888.927
890.563
877.292
891.997
880.911
883.328
884.862
887.016
891.126
885.889
894.520
882.607
885.488
881.405
895.441
888.744
889.471
885.101
892.869
886.992
884.637
881.334
889.397
886.460
891.147
892.952
881.289
890.502
880.259
889.241
892.331
885.750
883.902
890.771
880.596
890.750
884.755
892.770
894.152
886.538
890.791
894.581
893.068
894.044
893.866
882.715
896.200
892.943
886.673
880.780
882.445
890.647
889.393
891.102
882.467
891.958
887.828
888.503
886.114
887.272
880.626
887.136
887.233
891.972
895.971
888.966
893.541
888.074
894.548
893.142
891.690
895.114
888.607
887.702
892.322
883.913
892.789
893.011
883.379
886.653
892.537
896.514
881.766
896.623
881.395
891.555
896.004
895.274
882.281
884.282
883.227
894.910
881.546
896.190
896.194
883.323
890.138
887.882
883.513
883.984
897.320
883.039
886.183
891.009
883.929
883.625
883.039
894.304
883.026
889.416
891.244
886.994
888.780
891.143
889.005
882.837
890.774
894.407
888.436
897.484
895.030
894.295
895.586
885.499
894.012
888.874
896.969
890.437
888.181
897.872
884.511
894.691
888.956
891.479
887.478
884.514
892.593
890.910
896.563
889.963
885.669
888.437
884.954
893.896
891.269
895.848
885.821
888.695
885.656
893.916
886.588
893.734
891.224
883.163
885.543
893.711
883.320
885.805
892.992
890.079
888.040
885.461
885.663
896.122
883.626
889.121
894.890
883.023
893.932
891.230
887.585
889.381
894.023
890.736
893.922
897.204
892.880
894.625
892.055
886.180
891.909
891.331
888.475
886.943
890.069
889.146
895.130
885.493
887.640
890.062
892.415
887.688
884.378
889.658
893.676
894.151
884.143
895.029
896.545
899.032
884.100
889.979
891.204
897.767
898.664
885.415
894.391
892.242
895.975
888.312
893.614
885.656
898.555
887.145
885.484
887.052
886.929
884.333
887.204
894.086
896.459
897.647
894.271
894.739
886.081
890.115
889.860
893.244
885.374
883.503
888.946
886.489
892.898
892.741
885.524
896.022
888.411
892.632
892.332
885.162
883.563
889.794
885.496
885.359
886.251
891.365
886.708
890.571
892.308
886.972
888.980
884.015
896.602
894.099
897.863
884.667
884.995
884.164
892.227
894.223
894.518
894.908
891.216
887.878
886.844
892.017
890.149
891.171
889.025
890.664
888.973
896.012
896.512
886.450
894.462
897.400
884.930
898.328
892.291
887.644
890.573
883.294
889.499
890.930
885.236
888.766
894.754
897.580
896.109
884.015
896.663
894.455
894.194
897.663
888.634
884.031
897.457
892.902
883.983
884.069
887.932
885.438
891.509
895.272
883.148
896.617
898.183
896.916
896.838
883.175
885.397
886.402
897.234
882.513
886.033
882.801
897.580
892.237
894.272
892.289
884.032
889.292
896.114
895.543
887.661
892.673
886.994
885.358
891.577
884.223
889.514
886.166
889.467
890.103
897.351
896.843
894.680
897.974
889.577
890.216
892.437
883.095
884.944
895.990
896.205
896.615
892.144
887.433
890.094
890.375
891.169
895.651
889.069
890.460
883.695
883.756
895.217
893.688
887.398
892.665
884.346
890.492
884.530
887.095
894.904
884.104
892.831
890.939
887.305
894.753
892.828
897.921
894.161
896.775
885.155
887.630
888.168
883.435
896.883
884.080
891.330
897.818
894.472
884.755
884.827
890.540
895.350
891.439
885.492
889.807
884.894
895.368
892.407
890.431
892.449
886.178
895.603
890.452
883.089
893.285
884.535
882.741
896.202
894.069
886.588
891.819
885.963
884.596
890.540
882.649
884.121
884.646
894.660
887.713
890.278
891.631
884.796
886.753
896.526
888.513
886.530
887.487
898.771
898.880
899.840
898.521
886.795
893.419
896.358
888.142
889.119
890.091
903.150
898.380
900.218
896.985
893.889
889.345
889.610
899.061
901.949
894.528
904.543
893.318
904.401
906.447
896.979
900.254
903.511
896.606
903.232
905.695
901.436
899.220
906.981
904.017
898.783
900.846
909.007
905.303
906.862
909.597
906.810
900.003
901.649
904.770
901.096
898.114
907.152
909.022
902.859
905.619
908.841
902.399
903.820
900.899
909.044
904.759
908.774
915.188
915.518
908.676
901.637
914.192
908.608
908.340
914.177
904.425
910.188
913.703
919.622
914.636
910.285
920.233
913.081
906.295
908.074
914.372
919.818
915.130
910.987
908.182
913.179
911.180
922.171
920.775
919.232
914.012
909.698
922.781
919.527
923.214
913.935
923.026
911.478
915.303
912.557
923.370
924.680
920.587
914.189
926.682
914.609
922.982
925.468
914.802
924.836
929.566
920.313
926.209
917.066
924.763
919.070
927.006
921.669
918.431
929.096
920.288
918.136
929.630
929.724
919.093
927.858
918.762
925.905
932.922
930.821
933.618
924.931
925.350
935.129
922.795
931.350
926.085
936.842
935.642
925.792
932.484
934.589
930.107
937.430
923.889
926.142
927.625
933.328
935.522
925.798
936.044
930.995
927.217
931.495
939.682
942.052
940.493
932.393
937.716
928.323
938.017
934.197
930.261
937.574
935.837
936.295
933.787
936.998
941.211
939.766
937.908
931.683
944.387
941.728
939.747
941.251
937.021
941.360
935.355
940.258
941.395
944.294
940.876
948.313
949.106
943.770
945.616
943.306
938.242
940.044
950.295
941.131
944.247
951.682
947.942
938.791
941.548
940.104
934.740
938.850
934.562
932.832
937.421
941.918
930.088
930.405
940.067
928.282
934.642
936.159
937.665
938.577
934.612
940.165
924.773
930.924
923.402
928.899
923.371
922.825
927.631
920.679
927.858
929.942
926.366
933.128
927.285
918.421
928.346
925.254
916.270
928.060
929.952
918.040
923.034
924.211
913.139
925.217
916.717
913.169
916.191
914.182
914.223
908.920
911.628
921.622
918.500
919.051
905.535
909.168
906.840
912.730
902.864
907.419
916.318
905.675
908.498
908.594
904.068
912.436
911.840
909.047
904.074
912.116
896.420
909.844
897.466
901.314
908.489
896.654
899.612
895.798
892.310
895.960
895.037
896.743
893.680
895.337
900.250
903.340
894.784
889.736
888.715
890.062
896.842
899.062
899.210
894.119
898.744
883.044
890.340
888.074
881.506
893.786
891.060
889.472
890.412
888.675
884.993
880.377
888.590
885.671
887.696
879.178
874.662
884.635
879.984
887.232
873.390
872.979
882.653
881.822
869.778
874.759
871.030
878.904
870.239
873.388
879.293
871.959
869.634
865.305
866.449
872.084
867.915
865.616
871.267
876.829
871.257
860.986
863.575
867.312
860.720
865.941
866.775
866.174
868.969
867.152
860.024
868.190
868.546
858.098
867.775
862.750
864.885
851.383
864.381
857.366
860.257
853.541
863.000
858.006
852.374
850.297
851.033
851.780
851.552
845.121
856.726
849.371
847.802
849.315
851.082
855.249
848.266
854.390
841.826
853.585
845.645
841.412
841.377
844.099
850.891
842.674
841.921
849.718
842.235
847.230
834.824
838.534
835.818
835.825
844.637
829.962
839.941
829.523
833.426
843.201
836.700
841.516
838.070
832.279
834.453
825.035
828.893
833.740
831.687
839.165
824.186
827.769
826.260
837.274
831.045
830.273
823.942
835.636
824.703
837.389
832.125
836.204
836.979
837.268
826.407
831.137
822.716
823.421
826.817
837.690
835.618
835.286
832.024
828.568
828.005
831.221
829.458
831.157
830.957
828.236
823.202
827.305
828.206
830.144
825.190
834.880
825.117
827.826
829.522
822.466
819.751
834.186
823.009
826.662
832.219
821.500
819.980
827.766
822.306
827.279
832.653
832.722
818.351
824.424
830.772
826.472
819.940
824.417
827.730
823.879
825.267
823.857
829.291
817.687
832.579
827.730
823.103
831.009
826.905
817.522
822.798
818.996
819.559
830.029
821.012
823.687
825.108
820.495
827.969
829.496
829.070
828.977
814.853
817.285
815.528
816.717
814.234
819.878
817.814
825.801
829.170
827.531
814.930
828.367
817.314
817.363
817.807
815.056
826.577
828.511
822.998
821.658
817.571
821.167
812.148
823.615
824.707
815.175
819.289
820.539
820.090
820.876
825.303
825.763
823.825
817.812
810.900
814.673
823.013
812.697
814.425
824.219
813.469
815.587
818.592
825.156
812.441
824.871
815.797
814.507
810.206
823.742
823.746
814.475
809.710
816.786
819.698
821.327
810.083
814.484
817.938
821.008
818.382
812.394
807.503
811.962
817.343
819.738
818.801
817.538
818.782
821.115
818.373
810.231
811.597
818.305
818.188
807.296
820.390
815.330
813.945
812.141
811.705
814.555
815.637
820.226
819.124
815.496
818.710
805.108
811.461
814.012
810.292
818.409
810.876
807.326
813.548
814.996
815.003
809.446
815.601
809.377
818.401
806.572
812.268
809.747
814.215
802.845
813.646
815.648
811.157
802.516
804.701
809.219
