100.579
109.644
110.129
113.375
112.384
121.982
125.894
130.646
129.201
136.003
127.345
131.023
132.499
143.923
149.211
147.123
147.733
156.514
149.581
152.345
163.314
156.083
159.268
175.639
165.464
175.569
185.549
187.943
189.888
178.687
194.905
191.216
186.994
200.592
205.554
202.411
205.665
206.034
205.795
218.099
221.475
226.023
227.479
232.733
223.668
231.042
238.599
238.292
241.037
240.812
245.705
241.838
247.153
253.353
260.710
259.744
256.879
267.657
268.472
266.914
267.113
275.433
285.448
289.374
283.686
288.583
298.592
291.021
298.745
292.268
300.756
307.652
306.195
303.351
319.085
318.459
320.803
319.883
324.223
334.629
329.877
340.053
341.677
339.211
346.562
341.396
355.027
344.591
354.293
354.514
352.180
367.518
372.720
363.632
370.533
375.723
381.554
380.922
379.816
381.521
395.030
390.663
394.361
392.459
404.146
407.623
412.338
408.580
411.159
410.945
418.199
423.196
424.013
423.027
430.349
432.908
430.756
430.361
442.055
435.152
442.681
440.631
447.747
456.643
461.937
461.995
469.559
458.747
474.360
463.891
480.795
469.571
478.733
486.220
479.228
489.235
498.145
487.020
497.866
505.521
495.685
508.006
500.883
505.043
511.844
520.570
517.152
528.360
522.486
532.447
536.696
537.918
533.851
534.045
537.692
538.915
552.759
557.920
559.915
561.337
554.758
568.153
565.258
559.748
563.326
580.198
571.015
572.120
583.592
592.033
587.330
584.821
585.455
596.349
590.734
604.524
600.571
605.111
614.999
609.418
611.820
615.170
618.084
627.332
628.200
624.724
629.276
630.819
634.113
645.390
644.719
643.746
654.613
647.994
656.318
663.517
663.043
658.308
674.273
662.476
669.527
677.309
673.563
682.426
680.096
687.693
691.936
684.631
697.751
695.330
696.711
695.552
704.516
705.497
713.161
714.760
707.204
715.719
717.809
720.205
716.366
714.701
729.677
730.937
728.975
732.872
732.926
727.980
735.829
738.301
744.944
748.700
742.973
752.524
750.287
758.827
757.258
764.110
758.692
767.825
763.620
774.897
768.931
765.117
773.212
783.606
785.522
783.334
785.292
791.664
793.379
790.192
792.582
794.168
801.632
803.461
795.863
809.478
800.054
810.997
806.888
813.823
819.295
821.138
827.372
830.694
827.551
833.219
824.700
834.592
832.496
838.991
844.812
842.400
838.874
855.217
857.200
845.020
852.541
856.084
857.393
857.959
869.077
859.794
866.338
863.312
873.423
875.993
876.002
875.339
875.499
889.354
883.011
889.403
898.482
898.370
895.791
903.180
905.792
904.743
900.834
913.092
913.287
916.790
922.940
918.164
916.972
925.488
920.462
927.045
922.954
926.488
938.161
931.670
945.008
947.681
945.817
949.495
953.962
944.212
948.888
956.746
960.355
964.365
957.577
970.150
960.084
961.977
968.656
971.835
972.812
978.678
987.822
984.072
990.228
991.965
996.389
991.270
996.168
993.242
999.433
1005.207
1002.904
1002.023
1016.487
1017.562
1021.379
1017.324
1019.786
1016.394
1020.490
1030.200
1034.362
1034.131
1035.162
1030.841
1034.474
1041.193
1046.660
1037.597
1039.221
1040.980
1052.256
1050.311
1061.518
1051.550
1068.070
1056.372
1066.885
1074.033
1071.193
1070.076
1078.253
1083.089
1079.873
1083.249
1079.019
1085.615
1093.220
1097.281
1092.610
1096.583
1096.646
1105.749
1103.249
1108.657
1103.617
1106.628
1113.532
1114.135
1117.054
1120.631
1115.110
1126.409
1124.379
1121.801
1137.568
1138.156
1130.975
1132.113
1137.000
1139.490
1137.502
1135.093
1137.712
1141.134
1143.337
1144.975
1142.723
1143.460
1129.296
1135.411
1128.089
1140.476
1137.936
1138.833
1131.000
1128.502
1133.078
1136.074
1134.223
1139.505
1136.332
1137.250
1133.697
1132.645
1132.395
1127.547
1126.043
1137.637
1130.217
1122.467
1132.315
1132.138
1136.335
1132.026
1121.705
1127.760
1128.877
1132.751
1123.214
1119.667
1127.788
1121.748
1118.017
1123.057
1129.025
1124.130
1116.957
1120.078
1116.826
1117.788
1123.181
1116.114
1114.228
1116.034
1118.761
1127.763
1113.858
1121.511
1117.785
1122.091
1123.358
1117.156
1119.830
1115.880
1125.153
1115.730
1112.797
1116.561
1120.756
1108.887
1116.063
1114.061
1118.504
1120.136
1122.027
1117.731
1106.298
1107.189
1121.194
1114.780
1119.824
1108.259
1115.423
1116.582
1104.317
1112.016
1106.449
1114.057
1110.821
1112.927
1109.259
1111.586
1101.011
1103.773
1105.604
1103.714
1107.739
1107.642
1107.562
1108.638
1099.691
1106.176
1107.964
1097.307
1105.178
1097.132
1109.913
1099.202
1102.390
1099.613
1096.485
1106.788
1094.658
1102.854
1107.912
1098.683
1100.728
1096.533
1097.742
1102.400
1096.195
1098.059
1106.270
1099.698
1105.743
1097.353
1100.052
1101.042
1088.653
1088.562
1103.353
1099.086
1092.067
1102.766
1098.211
1086.884
1097.487
1088.314
1089.968
1085.564
1097.855
1091.767
1096.020
1090.882
1098.005
1090.610
1086.565
1090.861
1090.529
1089.634
1090.205
1093.159
1084.183
1083.074
1082.241
1088.476
1091.518
1093.542
1084.389
1082.004
1088.048
1086.048
1088.448
1091.937
1090.797
1086.783
1086.100
1080.731
1078.175
1075.266
1079.181
1084.547
1087.821
1074.621
1074.057
1084.020
1076.803
1083.488
1085.346
1073.991
1078.587
1082.759
1071.061
1078.902
1084.511
1082.854
1083.762
1071.376
1075.193
1069.855
1074.541
1073.740
1079.512
1080.948
1073.099
1080.548
1072.592
1072.420
1077.246
1066.681
1064.814
1070.025
1071.834
1057.477
1061.749
1053.127
1061.812
1052.145
1055.313
1042.347
1051.727
1043.057
1039.513
1038.257
1031.839
1040.085
1024.469
1031.101
1024.089
1027.369
1023.634
1020.306
1016.879
1019.129
1016.406
1006.559
1014.019
1004.295
1008.425
1004.861
998.526
992.059
990.409
998.898
989.547
986.747
980.917
976.910
987.048
983.889
977.754
978.406
975.574
965.018
971.983
963.008
964.989
955.316
960.800
950.192
947.131
944.039
950.814
950.230
948.933
935.350
934.799
938.379
937.164
926.271
929.531
932.152
933.001
923.404
918.059
915.152
913.195
921.094
909.538
908.968
901.837
911.991
910.406
893.482
902.592
894.383
890.157
898.262
888.551
882.171
887.524
878.259
874.671
884.618
873.901
868.417
869.362
872.715
871.524
857.327
864.356
858.587
862.565
857.929
859.286
856.691
853.123
853.881
839.801
846.781
841.508
835.596
841.005
825.312
835.729
833.340
823.015
822.650
828.556
820.458
814.902
813.498
810.544
808.735
814.087
804.748
797.873
804.172
804.316
787.370
796.100
791.607
780.911
794.004
787.166
787.584
784.953
771.663
769.512
774.748
766.350
774.196
772.843
766.260
755.737
756.661
758.059
753.633
758.124
752.148
749.288
744.335
740.872
743.431
740.864
740.130
731.833
738.531
733.123
731.977
731.894
719.285
727.110
720.807
710.328
705.855
708.787
713.605
702.043
704.249
706.066
697.536
698.325
694.964
699.117
695.127
693.152
688.045
678.370
673.692
685.545
672.225
671.455
673.988
674.093
663.808
669.799
667.733
655.542
650.049
660.143
648.653
646.516
655.357
642.694
635.799
643.164
635.466
637.792
638.215
629.629
634.250
629.825
633.230
630.682
617.161
611.343
622.892
620.377
611.060
615.758
618.048
620.670
617.374
620.114
616.816
614.707
626.838
625.046
618.324
631.734
622.541
625.712
629.686
627.092
638.273
635.291
641.195
642.081
630.425
631.888
642.328
637.662
647.777
635.311
648.765
646.538
639.877
641.682
640.756
643.275
653.714
644.966
651.834
656.625
656.366
648.204
649.634
659.124
661.974
656.883
653.955
661.087
665.190
659.378
670.359
661.387
662.614
671.638
673.329
671.043
677.122
669.291
672.182
667.260
667.580
669.026
668.871
673.708
684.824
677.617
674.768
675.676
677.305
677.136
682.515
682.896
679.838
686.823
685.530
686.281
687.872
698.950
695.421
695.870
690.727
699.875
702.519
693.219
696.268
694.073
698.081
705.950
708.034
700.005
711.000
702.741
705.099
700.935
711.521
706.682
706.255
707.477
708.388
713.216
719.590
708.488
724.245
710.996
713.881
725.197
714.224
725.693
725.112
717.353
730.120
731.632
729.026
729.749
729.656
735.964
733.792
736.657
738.448
737.392
738.762
731.048
731.208
743.798
735.613
735.526
747.255
735.831
747.121
749.367
745.020
747.705
748.959
757.317
752.194
747.743
756.807
756.138
760.199
762.594
749.415
758.272
757.356
753.504
769.245
755.200
764.762
769.248
758.775
767.307
766.869
770.624
762.224
762.830
771.367
770.915
773.401
770.202
775.978
775.107
784.143
783.013
780.207
787.329
782.434
778.484
780.465
786.883
784.412
786.739
793.986
791.965
795.717
795.676
786.678
790.412
789.510
794.126
802.733
804.652
799.815
799.576
794.847
799.921
810.494
801.781
800.343
803.654
812.829
805.251
803.539
816.733
807.676
819.829
814.529
810.052
812.642
813.042
812.468
812.701
812.830
823.181
820.987
829.576
831.174
823.410
824.636
824.452
832.169
826.376
830.165
836.144
829.214
832.907
833.716
832.177
838.638
836.416
839.143
836.236
828.376
827.209
829.893
842.575
841.119
843.606
835.764
831.862
834.326
837.192
834.014
840.111
846.890
838.519
844.682
837.327
837.937
845.270
842.119
851.610
852.363
847.914
843.471
843.540
842.396
842.794
853.147
854.202
854.116
860.173
848.637
853.740
855.760
861.145
852.300
852.903
855.017
858.955
863.212
864.979
866.436
858.312
858.561
859.937
862.737
854.666
870.606
856.815
857.751
865.850
865.885
859.957
862.050
864.805
862.151
868.295
863.294
865.011
865.695
875.483
876.665
878.620
871.939
873.317
874.840
870.412
873.334
883.896
878.310
877.223
878.329
872.592
884.634
887.640
882.844
878.806
882.316
878.463
875.461
883.199
885.239
886.790
880.698
885.795
892.795
889.302
886.130
891.318
897.613
892.186
886.366
887.854
897.744
887.802
888.331
891.988
888.757
893.896
901.012
899.513
891.867
891.227
891.772
898.361
901.467
899.013
908.827
905.949
899.595
909.469
900.587
899.957
899.990
911.501
902.878
905.735
904.660
910.348
912.368
916.788
907.690
906.213
906.816
906.852
914.123
914.880
912.737
909.644
910.814
918.504
909.680
924.851
921.297
913.226
917.947
917.931
924.730
919.349
922.109
920.114
924.439
928.795
931.614
927.011
922.045
927.801
927.991
925.802
929.081
932.278
932.675
922.556
933.803
934.147
924.660
930.405
935.558
933.968
929.481
937.778
938.786
941.613
938.716
939.522
937.023
942.317
946.962
933.282
948.530
948.085
935.658
943.111
936.467
940.280
944.064
942.709
951.631
948.811
939.900
941.442
950.979
947.704
956.347
951.627
942.643
948.145
949.572
940.425
946.654
952.023
947.627
939.909
950.447
939.862
935.598
936.170
940.480
939.890
944.249
937.167
939.761
931.228
940.975
932.685
931.804
936.928
940.616
935.810
927.682
933.445
932.289
928.129
922.490
924.788
935.418
935.366
920.152
926.206
924.827
918.162
926.843
929.171
930.092
918.365
920.666
924.228
917.623
915.097
920.320
910.738
915.694
922.787
920.217
917.686
911.564
909.012
910.852
917.030
907.443
910.234
916.628
915.334
902.978
910.929
904.074
902.098
913.180
905.665
910.362
906.168
896.994
907.491
907.008
902.075
894.031
898.800
901.872
897.667
891.978
904.211
889.891
898.573
894.589
887.055
896.646
892.249
885.940
889.590
897.291
892.401
885.548
886.250
883.425
883.466
880.008
878.540
887.143
878.345
891.867
887.145
889.719
886.363
883.512
877.848
882.872
884.158
872.116
870.735
878.923
869.085
882.544
868.272
877.560
880.372
877.618
869.651
877.411
866.433
870.783
870.825
861.085
866.979
875.380
863.939
868.415
861.062
870.466
860.313
862.530
856.722
863.810
864.738
852.678
854.272
865.798
860.033
860.572
864.504
858.376
858.404
856.461
848.235
860.374
849.190
847.800
858.669
851.093
852.799
847.775
853.065
852.535
845.220
849.912
844.185
846.719
837.755
840.408
836.933
838.104
847.067
849.018
845.173
841.276
843.771
845.302
842.068
841.551
841.811
839.936
837.692
830.030
829.508
831.335
838.553
824.769
834.045
836.080
827.202
833.062
830.804
819.296
821.276
827.841
819.532
830.876
824.831
826.853
821.699
825.749
822.170
824.704
821.292
823.865
812.184
823.598
818.094
810.236
819.135
807.632
814.723
812.034
809.169
808.678
811.113
813.599
822.092
819.740
811.794
816.267
817.701
819.662
823.689
833.148
831.918
834.920
826.133
836.681
838.115
839.818
840.370
837.594
833.269
833.345
840.670
838.920
853.389
843.585
841.313
847.950
845.571
851.991
854.842
849.996
860.696
865.362
865.490
867.885
856.750
869.894
866.469
861.315
876.732
869.623
875.114
879.230
874.786
871.664
876.146
884.326
889.826
877.867
888.473
888.827
885.232
893.737
897.602
897.269
900.731
892.604
904.649
900.861
909.215
898.230
901.373
905.274
908.101
907.144
910.171
913.004
920.860
916.724
920.564
912.937
927.476
915.607
925.830
925.387
924.823
922.843
934.568
935.595
930.657
927.056
938.765
932.164
944.302
940.103
935.833
936.112
951.693
944.866
952.372
945.756
953.969
948.225
959.354
960.656
955.353
958.124
958.967
961.088
961.814
958.981
964.983
962.396
968.398
963.873
968.486
981.253
983.421
973.301
972.077
977.603
977.681
989.460
977.635
994.448
996.246
992.632
990.642
985.739
1001.363
994.855
997.586
1004.599
996.437
1007.636
1010.362
1012.455
1010.788
1013.847
1008.549
1015.923
1016.787
1014.827
1017.504
1011.683
1020.093
1023.546
1020.518
1018.022
1021.803
1027.594
1031.024
1027.422
1035.530
1028.530
1040.288
1041.039
1036.178
1040.825
1040.792
1050.100
1036.785
1041.924
1042.822
1041.406
1048.815
1047.255
1059.420
1052.504
1054.796
1055.260
1064.471
1062.942
1059.547
1058.678
1061.534
1070.917
1075.759
1075.286
1077.686
1076.269
1074.234
1078.974
1072.322
1075.853
1085.988
1091.121
1085.002
1087.064
1083.244
1081.994
1094.975
1096.455
1091.690
1094.351
1102.404
1104.740
1098.381
1103.884
1108.770
1107.491
1111.404
1100.337
1113.787
1107.128
1107.221
1113.041
1115.655
1121.814
1115.796
1124.843
1115.768
1117.403
1120.097
1123.431
1120.487
1113.821
1115.067
1123.132
1124.724
1117.661
1115.104
1115.222
1119.256
1115.550
1114.381
1115.956
1115.223
1110.120
1115.431
1104.640
1111.272
1105.620
1103.963
1103.308
1114.040
1101.053
1109.541
1112.983
1107.963
1110.924
1107.657
1100.281
1102.849
1097.449
1095.051
1095.713
1105.252
1102.769
1093.600
1106.757
1102.510
1105.590
1097.918
1088.893
1097.660
1094.441
1094.668
1090.201
1087.850
1093.438
1085.507
1099.584
1088.942
1094.506
1086.200
1091.934
1090.868
1091.066
1080.940
1093.747
1092.493
1080.440
1077.271
1081.930
1080.901
1076.988
1077.592
1074.454
1087.446
1079.019
1082.943
1072.325
1074.921
1074.906
1070.447
1078.212
1080.065
1072.650
1075.730
1073.602
1081.080
1070.452
1076.752
1068.528
1074.933
1072.042
1070.340
1070.556
1076.370
1075.528
1063.816
1063.682
1072.634
1065.711
1071.624
1058.971
1058.309
1062.834
1067.656
1058.771
1058.342
1055.357
1059.315
1057.037
1056.595
1057.885
1053.394
1064.127
1057.609
1065.014
1055.941
1054.331
1059.242
1058.884
1057.510
1060.515
1054.633
1044.672
1058.612
1051.229
1054.708
1048.642
1049.353
1042.060
1051.318
1041.481
1044.085
1046.912
1047.988
1041.935
1050.889
1039.754
1046.676
1048.981
1036.633
1038.402
1045.495
1040.748
1035.407
1038.950
1033.842
1039.951
1035.721
1042.757
1037.502
1028.464
1027.326
1037.315
1034.186
1030.494
1030.319
1039.605
1029.274
1029.319
1036.087
1022.982
1035.448
1022.021
1034.848
1024.403
1022.908
1021.747
1019.316
1021.076
1022.904
1030.943
1019.322
1029.920
1024.101
1023.766
1026.100
1012.904
1019.567
1025.707
1020.378
1018.704
1019.967
1016.339
1017.271
1009.016
1021.771
1012.103
1015.866
1011.270
1018.085
1005.204
1010.983
1015.686
1014.488
1007.246
1001.674
1012.720
1009.365
1010.676
1008.486
1007.371
1008.850
1009.351
1004.161
1008.118
1007.128
1000.146
996.887
992.979
991.805
1001.268
992.281
997.523
996.230
986.021
986.477
991.073
991.368
987.206
983.208
993.921
984.455
983.737
982.522
974.767
973.899
973.797
977.286
978.999
970.486
978.136
968.318
967.043
964.683
968.640
964.176
963.381
964.598
966.162
970.205
959.202
969.963
967.606
961.071
964.091
965.056
963.182
949.049
958.759
949.525
948.162
945.764
955.373
953.782
955.247
944.166
949.760
951.551
949.289
942.576
943.262
936.510
940.956
938.016
937.693
928.941
928.486
925.514
924.658
938.136
928.433
924.297
934.086
933.793
929.936
924.119
917.988
915.063
922.258
927.446
912.518
923.645
911.539
908.979
920.139
911.912
917.694
904.376
911.575
904.239
906.951
901.207
906.863
896.549
903.909
895.582
903.420
898.732
899.537
900.138
904.065
899.064
892.026
890.831
886.341
891.818
881.900
883.416
884.289
890.834
878.464
884.737
886.890
874.140
887.046
872.083
879.025
875.605
875.494
876.572
881.251
874.364
869.499
875.241
871.788
872.062
862.084
867.337
868.121
861.045
861.908
856.766
859.279
867.021
856.351
855.598
860.752
861.886
854.726
851.618
854.571
848.763
855.456
844.688
846.609
848.629
848.321
839.246
840.606
843.786
832.818
839.286
833.492
843.335
840.271
835.001
838.129
827.570
825.937
833.219
825.186
822.729
827.079
831.600
832.084
817.631
826.910
815.748
819.926
821.666
818.885
822.238
816.263
807.250
809.694
810.981
806.829
813.230
808.451
811.456
807.252
809.490
803.483
810.514
800.594
798.722
804.194
794.198
803.468
797.500
798.128
787.537
793.640
798.270
797.251
787.009
781.365
783.218
785.450
788.607
785.289
774.945
783.880
782.483
774.135
