538.619
530.606
529.507
536.389
532.484
540.936
538.394
542.302
546.166
538.145
536.116
548.142
540.060
548.097
545.333
551.497
552.247
550.064
549.641
555.841
555.119
560.440
549.448
551.101
561.425
557.367
563.124
563.816
566.062
558.014
559.841
570.862
571.945
567.972
570.968
563.680
574.632
572.785
565.676
568.030
573.446
570.590
581.192
580.140
582.241
577.847
584.695
582.668
585.591
584.762
584.078
586.071
577.576
577.542
590.413
594.012
595.366
588.672
586.018
596.641
599.759
593.232
587.690
593.239
600.914
590.880
595.280
590.748
592.440
602.011
597.854
606.890
606.709
596.560
608.084
603.981
608.809
609.104
608.069
610.958
618.775
605.908
612.713
619.992
613.442
616.935
610.878
613.491
611.898
618.287
613.395
616.598
629.514
620.455
630.795
626.822
620.088
626.226
635.611
621.965
634.283
636.846
628.053
640.444
628.280
643.052
632.137
643.972
638.467
641.822
636.308
638.600
640.339
647.724
643.182
649.281
638.969
641.815
652.589
645.916
657.045
657.821
644.665
645.727
651.562
658.611
651.477
657.453
663.905
651.183
663.864
658.390
665.794
656.216
659.964
663.307
660.085
666.896
667.447
672.294
675.792
676.425
677.549
674.675
667.949
673.186
680.159
673.287
677.170
684.609
685.320
681.663
683.984
674.290
684.895
684.706
686.750
689.816
693.088
693.850
686.805
688.499
687.366
697.424
688.830
696.088
689.250
695.568
696.826
701.933
692.291
701.264
692.252
698.682
699.264
695.918
699.333
706.882
699.067
714.143
710.203
715.954
706.823
715.363
710.266
716.244
711.022
708.041
712.579
711.671
715.798
714.117
723.056
724.537
724.007
728.783
720.386
722.441
728.970
725.640
727.704
724.021
721.930
733.235
727.303
723.654
721.282
732.156
721.954
731.091
737.590
732.297
724.408
727.416
724.551
726.737
725.599
737.183
732.395
738.743
733.606
728.362
733.681
740.924
740.638
729.978
729.190
733.808
743.055
740.684
734.196
744.489
738.611
744.913
739.817
744.222
739.935
742.793
745.697
736.165
744.573
739.159
747.577
748.901
739.054
743.275
736.006
748.065
747.531
738.486
738.143
750.403
740.621
741.416
743.725
739.428
749.142
741.366
739.777
742.051
743.895
740.604
746.115
754.187
746.248
752.448
742.500
750.829
743.246
752.593
744.169
754.243
745.292
758.321
749.859
751.759
747.951
746.577
760.130
753.394
751.812
761.114
760.649
748.660
757.987
761.847
753.014
762.744
762.119
760.044
757.797
750.718
748.991
749.758
762.439
759.314
753.123
751.738
759.599
752.451
757.233
754.896
759.055
760.992
764.941
767.087
768.950
754.160
766.287
759.894
768.955
766.981
765.745
764.527
761.053
766.890
769.805
760.012
768.506
763.508
770.683
765.349
774.353
765.257
760.168
764.745
768.177
766.215
774.821
773.071
776.546
762.009
774.640
767.265
777.751
773.310
765.547
775.937
778.434
767.540
773.116
776.908
778.783
770.757
771.864
770.412
771.987
775.833
767.973
776.643
776.461
775.729
776.268
781.220
778.064
769.791
778.018
779.590
775.626
776.215
786.836
774.817
774.153
778.284
781.291
781.340
780.563
784.368
785.285
775.752
782.474
783.659
782.021
783.376
784.055
786.685
783.805
791.523
782.926
782.962
783.161
793.556
790.675
781.733
787.065
794.481
794.053
790.454
787.290
793.042
782.984
785.676
789.630
793.055
789.458
797.206
796.113
785.609
798.745
791.842
798.801
789.610
794.355
785.105
797.401
786.179
797.497
795.349
800.534
798.242
792.052
798.900
799.500
802.584
798.167
799.329
791.464
805.437
792.537
805.270
802.335
801.553
806.841
804.334
802.338
802.173
803.333
800.242
799.239
800.653
805.007
808.389
800.604
804.920
802.863
801.599
807.376
806.365
808.271
812.380
809.758
804.107
809.969
808.818
805.348
816.384
819.174
806.299
816.717
809.159
815.824
813.470
819.870
818.092
821.740
816.533
808.450
812.137
814.574
824.002
817.184
824.617
818.063
823.955
816.679
815.165
818.962
817.683
827.198
815.401
817.445
816.377
825.192
815.674
818.151
827.573
832.222
821.513
821.117
819.513
833.061
830.778
830.567
820.966
830.186
823.864
828.284
822.246
837.342
823.109
836.518
830.518
835.929
829.834
834.683
836.680
841.032
828.238
836.223
831.972
840.310
835.834
842.982
842.142
833.727
844.328
838.919
830.002
845.411
834.109
842.281
844.315
832.441
841.248
842.090
839.199
837.879
835.270
848.181
836.164
846.925
836.790
846.243
837.748
848.028
853.388
842.279
851.249
849.342
843.097
849.094
854.261
842.209
847.609
845.501
851.725
856.221
848.336
851.167
849.822
853.256
850.000
851.451
845.705
861.386
857.547
847.883
860.550
861.943
859.530
862.510
862.437
860.768
858.624
852.853
854.219
865.591
857.524
859.550
865.356
861.262
868.051
854.275
862.212
859.208
860.017
861.077
864.103
869.303
861.281
867.842
870.673
858.104
866.819
859.741
871.637
872.688
875.398
868.198
870.074
875.805
876.569
872.128
875.563
872.130
872.934
866.120
875.641
869.068
879.690
872.622
869.333
879.797
870.066
867.350
876.567
873.142
871.954
873.862
882.428
879.914
884.670
875.115
876.713
872.326
882.073
884.658
870.423
881.058
871.836
877.298
883.703
881.588
872.880
871.747
873.087
877.017
880.360
868.973
873.597
876.839
869.933
867.196
876.584
876.975
868.925
878.191
868.639
880.068
874.403
880.139
880.312
868.870
872.011
872.790
875.989
866.858
873.861
865.835
878.772
874.284
875.273
873.029
878.878
869.981
876.050
874.090
868.926
871.184
869.331
868.179
865.229
875.268
865.055
865.928
863.571
869.100
875.116
863.183
874.541
870.264
865.393
873.205
869.639
875.453
872.075
868.854
867.317
863.323
868.672
868.005
868.682
867.505
860.484
865.025
868.220
862.801
865.659
868.127
872.322
873.183
866.146
864.058
868.751
864.638
869.386
864.823
862.122
868.658
859.224
865.669
857.405
857.136
857.505
867.697
866.290
858.500
865.294
855.381
856.166
856.163
863.912
855.036
868.430
860.436
861.135
858.857
854.081
860.493
859.556
855.964
855.165
852.760
859.261
863.143
862.619
857.455
854.640
853.420
859.667
859.547
861.688
855.765
859.020
862.166
864.733
863.198
863.333
854.047
850.817
861.288
863.418
859.820
852.331
858.516
863.717
852.547
855.084
852.459
850.836
852.673
859.524
858.537
861.292
848.037
852.089
847.836
858.838
862.607
849.131
855.389
853.750
858.975
860.046
856.900
860.564
845.855
847.907
849.483
851.342
854.205
850.322
850.903
846.846
849.487
848.319
845.132
855.692
852.863
853.481
853.795
848.962
857.395
854.594
847.976
857.676
846.707
857.106
857.085
854.100
852.246
853.164
848.680
846.343
852.381
853.164
849.723
850.602
853.057
845.232
840.627
847.691
847.985
840.950
842.604
854.401
851.201
842.652
846.152
848.634
839.868
847.243
841.185
847.218
852.503
841.289
846.118
841.119
845.984
845.728
838.188
835.693
838.799
836.185
847.438
835.461
842.653
845.818
836.185
835.451
841.933
841.931
836.456
847.211
838.344
845.190
843.241
838.500
832.915
836.287
830.936
844.868
834.177
834.145
835.789
839.230
838.359
832.470
832.570
834.953
835.188
832.821
827.778
838.614
839.899
826.415
838.214
828.401
826.904
831.833
834.148
833.001
838.582
830.216
836.175
835.000
826.849
836.306
834.869
831.244
826.910
820.679
824.035
830.722
827.024
823.460
820.190
829.938
831.832
829.451
831.045
827.295
821.771
820.517
821.977
819.834
816.305
817.571
822.849
821.815
822.056
822.987
825.698
827.866
826.489
815.626
813.949
828.103
814.041
827.142
813.035
824.327
823.560
826.682
821.806
823.767
820.746
824.748
820.075
819.814
812.761
810.521
808.811
818.513
811.139
823.141
811.538
813.550
819.523
818.072
811.851
816.098
813.212
811.660
811.369
811.280
811.774
806.018
809.581
807.650
804.907
806.529
812.070
812.411
806.234
805.393
802.553
813.631
808.508
815.046
813.128
805.668
807.983
803.086
804.864
805.153
800.086
813.743
807.585
808.037
803.696
812.063
807.039
805.020
807.992
810.878
798.758
795.826
800.082
798.839
809.097
795.555
801.774
805.648
808.725
798.816
807.360
793.444
804.221
793.510
796.582
804.541
792.112
797.785
792.430
793.398
801.012
794.674
802.774
795.286
792.321
793.183
801.791
790.758
798.047
791.925
796.032
801.096
791.077
798.089
793.019
799.225
794.708
791.790
787.679
790.408
794.107
787.704
794.108
788.824
789.161
790.515
795.608
790.560
786.000
795.849
796.251
786.509
781.260
793.074
792.135
794.353
792.094
786.416
783.412
776.821
782.767
779.368
773.931
775.274
781.181
781.847
780.750
778.825
773.003
769.509
768.688
782.380
776.668
775.188
773.308
777.957
772.040
764.380
767.615
772.913
775.735
769.657
771.099
772.949
767.937
758.239
761.784
759.570
753.960
759.469
767.789
753.615
760.435
752.176
755.926
763.257
762.625
760.620
762.014
751.383
753.008
756.053
749.070
758.046
750.852
748.731
754.464
747.818
748.973
753.814
742.413
747.621
737.832
750.670
741.522
737.233
736.802
739.433
746.945
732.294
731.285
742.230
742.334
743.133
727.021
729.430
727.272
734.503
723.774
735.846
735.725
729.753
732.784
729.763
729.330
724.929
717.579
721.652
728.445
717.796
729.175
727.872
725.429
716.378
713.346
711.780
716.765
710.693
709.723
708.145
719.022
714.230
707.042
708.332
715.642
711.043
703.496
704.583
706.767
706.597
708.840
709.719
712.776
707.825
704.030
696.478
694.731
707.973
701.604
695.029
701.893
703.122
702.049
691.290
693.305
688.267
692.814
690.144
686.526
699.084
694.832
692.175
688.843
683.475
684.465
694.529
687.271
689.800
690.186
684.750
691.474
676.117
675.926
680.283
688.291
686.359
682.105
676.874
683.167
670.800
673.492
678.678
670.051
667.934
667.634
669.232
670.960
665.745
673.560
662.397
665.905
668.577
670.182
672.760
670.753
664.050
665.070
667.436
668.323
661.730
665.872
666.479
662.457
664.499
662.652
656.593
651.602
663.952
654.728
658.604
646.545
659.714
645.129
656.243
651.703
651.005
648.864
647.089
640.984
646.629
640.760
639.336
643.540
637.532
638.655
648.031
641.989
638.586
632.321
637.665
639.876
644.041
641.227
641.275
630.543
633.939
629.482
629.599
630.675
640.027
627.012
642.354
640.903
636.674
636.175
641.702
637.068
629.964
635.964
632.144
639.719
641.332
633.992
629.967
627.553
640.787
639.929
633.428
627.008
635.414
635.695
629.820
627.716
626.569
633.220
626.013
625.232
632.824
634.780
629.085
625.708
629.370
626.951
632.926
638.999
638.933
639.252
624.679
633.097
635.931
638.437
630.830
636.146
630.312
624.229
631.989
623.962
632.440
627.123
631.152
631.050
624.442
637.352
628.491
623.086
635.914
633.591
636.302
635.715
633.927
624.906
623.741
625.332
631.757
624.516
625.783
627.327
621.428
635.313
630.078
627.162
623.127
629.878
636.156
623.979
625.734
627.838
627.482
622.305
623.372
621.768
633.110
634.562
628.466
625.155
633.738
620.310
625.615
633.760
627.008
626.983
621.029
626.760
626.824
630.868
624.283
623.690
633.516
628.067
628.855
630.483
621.764
630.108
626.403
629.700
621.039
624.772
623.972
628.848
632.928
632.926
620.077
619.277
629.090
629.269
629.724
630.884
626.758
630.162
619.860
625.526
628.504
630.581
626.963
627.031
626.605
621.649
630.368
619.052
627.391
619.615
628.021
628.468
623.196
624.509
616.436
629.977
617.335
617.058
626.323
628.502
628.719
616.827
619.441
622.865
614.418
624.874
614.030
625.818
614.459
621.741
627.654
621.707
625.019
624.347
627.424
622.313
626.243
613.714
626.598
628.453
616.472
625.353
613.112
617.408
622.197
617.727
618.075
615.585
616.286
616.342
612.129
615.737
627.610
612.521
623.068
620.966
621.594
624.793
625.025
623.318
625.826
612.765
612.556
625.126
612.883
622.822
617.127
614.360
625.842
618.932
611.786
621.363
619.474
610.794
626.352
622.091
621.673
625.513
628.161
631.809
625.366
632.839
625.996
633.236
626.248
631.771
632.724
640.407
629.878
639.390
646.974
641.682
645.368
646.227
640.725
643.212
645.277
651.982
648.679
659.194
659.404
658.131
652.146
658.647
662.108
667.158
664.826
659.846
662.190
669.929
668.553
661.349
666.320
676.630
670.531
667.797
678.256
681.950
674.554
679.719
683.388
682.631
683.570
689.163
687.590
684.329
692.851
689.422
682.194
685.934
687.821
700.714
696.986
702.017
699.877
701.971
698.714
696.423
703.229
711.011
699.635
713.724
706.805
705.255
704.238
716.626
715.697
716.297
714.572
713.402
711.733
712.424
717.546
719.268
729.071
724.406
723.089
735.392
728.877
724.367
730.907
735.995
734.673
728.224
737.917
743.831
735.698
747.923
736.202
743.661
745.436
743.874
753.089
742.486
743.336
745.391
751.252
761.958
754.195
757.963
750.018
761.784
752.649
759.530
757.116
764.977
767.721
761.254
770.160
761.782
777.957
773.742
770.304
778.814
770.524
780.208
782.032
776.018
779.318
778.997
783.324
793.200
792.326
790.405
788.720
794.170
785.841
789.840
799.744
803.641
792.031
795.972
797.877
805.364
803.200
804.020
812.144
805.946
803.390
812.067
810.318
810.219
809.913
815.458
808.475
824.756
814.437
812.914
820.374
817.148
830.581
826.826
833.325
827.568
834.610
827.554
838.567
829.569
834.434
840.222
832.231
830.791
838.585
844.115
834.897
844.209
846.559
850.976
848.724
842.507
845.337
858.521
845.232
851.343
856.340
848.972
860.946
863.941
867.877
853.713
863.591
860.277
865.775
873.903
867.858
862.134
869.011
871.542
866.806
878.061
873.816
875.644
879.626
879.728
877.351
877.664
874.615
881.933
882.838
869.162
874.964
872.894
877.228
871.313
876.887
870.728
866.152
871.623
872.492
867.485
860.021
863.338
867.452
868.400
862.373
854.594
865.955
853.468
861.122
853.727
849.530
857.474
855.680
856.516
855.420
851.518
844.694
844.690
847.032
846.728
849.526
847.620
852.065
837.774
846.325
843.869
836.170
843.772
841.163
840.994
839.034
846.055
845.605
835.973
841.579
835.023
836.139
831.435
827.823
830.140
835.444
822.989
833.072
829.649
832.781
828.188
825.077
829.504
827.216
829.422
816.055
820.064
814.653
827.728
818.473
816.602
815.412
812.028
815.095
812.741
818.418
809.226
807.960
817.826
806.029
805.042
810.165
810.320
803.460
805.821
812.961
810.788
804.070
807.055
808.722
799.432
793.705
804.678
806.337
801.349
798.534
802.441
792.429
788.314
799.314
786.551
793.471
791.778
793.912
788.455
787.663
790.373
789.586
780.395
780.639
780.383
787.413
776.707
785.223
778.469
778.652
786.644
786.303
771.931
783.702
774.745
776.855
772.360
775.187
776.231
767.877
769.483
763.168
763.393
762.044
773.314
758.852
768.875
765.823
763.966
761.883
760.762
768.235
757.468
764.356
761.023
765.338
749.809
752.394
759.072
747.101
758.532
745.899
759.729
751.170
755.986
748.956
753.801
747.313
745.447
748.532
744.258
736.610
736.921
745.009
738.318
746.300
744.469
740.217
736.008
733.652
735.854
739.938
740.758
734.667
739.511
724.768
739.333
733.863
729.625
729.346
721.483
730.482
725.845
719.301
717.107
716.730
715.340
720.661
719.741
727.566
717.796
718.409
721.299
716.494
710.691
707.912
717.977
721.421
713.032
715.622
716.665
715.034
715.442
715.384
701.307
702.331
714.080
710.905
699.647
714.114
707.398
707.883
705.119
699.023
698.321
697.685
703.036
706.672
699.945
708.208
696.493
701.010
699.263
695.211
700.352
707.173
694.637
693.084
701.929
700.127
700.137
693.344
690.691
704.483
702.007
700.311
695.557
689.046
691.888
687.559
689.878
691.329
689.217
689.794
684.535
685.223
687.691
685.494
694.768
683.286
695.879
695.665
685.982
686.159
681.835
680.293
688.565
679.694
689.330
684.161
688.153
691.663
682.349
680.510
677.558
683.847
685.039
690.342
680.281
674.300
680.538
680.442
676.081
675.945
687.121
684.618
680.518
671.443
676.301
671.458
679.518
671.723
676.549
671.936
672.975
682.655
671.286
678.648
668.933
667.957
670.484
679.599
677.730
678.080
675.083
675.362
664.976
670.178
663.099
665.296
662.604
661.532
673.744
663.697
669.744
669.236
664.707
661.709
663.635
672.641
659.420
663.826
658.682
657.370
664.788
663.471
668.688
658.834
658.349
657.233
669.078
666.344
661.568
666.137
659.726
656.956
664.075
663.178
658.333
659.283
652.173
661.301
657.444
654.432
654.195
656.221
649.993
660.978
649.690
655.616
652.115
656.615
644.720
650.410
649.425
644.301
643.391
649.905
654.849
642.852
647.663
653.751
653.264
642.699
650.938
648.269
640.453
646.809
640.000
646.687
646.353
642.595
640.710
635.844
648.443
640.929
647.800
644.881
635.346
637.641
635.958
637.670
637.759
639.912
631.317
637.795
630.618
635.167
641.194
634.127
639.338
631.714
641.421
627.668
640.197
641.582
627.006
631.773
640.365
624.958
639.279
630.340
636.667
628.923
630.693
626.251
623.563
626.850
635.477
635.476
631.397
623.052
