509.628
508.041
517.979
515.294
516.176
527.086
530.876
523.468
525.854
524.757
529.352
540.217
542.048
540.964
536.195
537.467
544.334
556.667
556.997
560.580
553.129
564.411
566.589
570.525
565.410
567.655
568.666
572.354
578.147
569.504
573.071
587.855
581.926
582.966
594.611
588.411
598.355
599.548
602.445
598.775
594.412
604.481
613.010
600.870
605.204
614.478
611.818
610.931
619.534
628.539
630.136
633.176
635.644
627.630
635.962
640.578
639.973
643.870
647.997
652.427
652.250
644.035
649.683
649.877
662.552
661.514
655.255
670.930
670.132
674.937
665.061
679.394
678.547
670.428
675.594
681.761
691.554
688.026
686.796
687.638
691.183
688.790
698.994
694.494
703.420
711.656
704.392
705.244
711.558
718.004
710.567
713.303
721.194
720.159
723.134
730.324
731.601
724.478
730.821
739.082
746.425
745.986
751.269
738.650
744.215
749.183
760.600
762.778
760.087
753.228
764.974
764.410
759.559
764.724
776.232
771.457
778.103
773.898
779.460
777.014
778.803
784.753
795.357
796.627
786.389
795.558
802.932
807.816
797.653
806.896
811.466
802.038
806.378
821.898
820.853
819.793
823.799
826.776
827.717
828.260
834.638
831.672
829.025
831.146
833.638
846.761
840.262
846.955
852.332
851.568
859.024
847.938
850.379
861.996
864.139
856.891
865.214
869.052
878.868
869.799
871.110
871.910
873.704
885.647
878.540
887.993
883.824
887.454
898.426
891.894
891.227
898.645
906.306
900.083
902.862
906.937
908.785
914.874
915.520
912.714
922.798
920.246
922.994
921.598
937.111
929.149
943.123
932.942
941.161
947.959
938.637
940.222
951.920
944.480
954.983
954.635
965.477
956.245
968.379
963.699
965.385
965.245
957.413
958.103
957.103
966.347
960.432
950.441
948.320
953.590
945.487
947.518
942.516
948.741
946.483
952.524
950.931
950.415
949.071
936.241
931.913
931.746
934.403
939.936
931.896
934.815
930.100
923.038
922.233
924.356
917.478
916.189
913.764
922.596
919.980
911.839
909.907
911.291
919.537
918.005
906.823
904.311
913.188
912.045
900.356
893.949
892.461
897.139
899.454
903.102
890.266
886.320
891.150
886.757
882.228
890.478
878.881
890.033
888.048
881.918
872.040
879.472
873.401
877.820
870.254
868.691
872.165
870.838
874.243
867.171
868.269
868.977
856.945
853.298
859.897
855.740
854.877
850.920
854.936
856.310
847.458
848.631
845.069
852.317
843.302
835.952
841.224
835.953
836.874
839.930
831.954
841.842
825.592
835.101
834.902
827.896
820.736
831.958
816.197
828.393
828.183
826.217
813.386
821.912
810.689
816.161
817.249
805.098
804.291
812.428
801.808
808.280
803.889
800.849
800.080
806.267
793.593
792.945
793.500
786.664
798.868
786.693
782.875
779.717
792.181
786.456
788.293
784.908
786.802
776.243
770.426
783.357
781.717
776.802
766.106
772.727
766.573
772.945
771.445
759.314
759.647
762.538
755.337
762.040
761.067
762.859
752.766
760.117
756.057
748.267
750.620
746.165
744.860
739.990
742.292
733.347
746.053
730.899
742.192
739.633
734.071
731.412
730.673
728.401
724.559
733.404
723.027
719.982
729.154
713.684
711.639
709.038
720.118
721.278
718.551
714.202
714.095
706.351
705.522
698.290
697.220
708.188
704.419
700.711
695.399
689.726
693.926
689.068
686.224
686.551
695.153
695.592
688.118
689.757
684.372
675.140
679.834
674.376
683.836
679.565
676.420
676.990
677.078
682.478
680.657
685.554
674.760
679.108
675.509
675.227
687.588
681.953
691.810
682.881
685.249
684.223
684.234
688.512
691.420
683.825
693.609
687.012
697.217
699.074
698.070
695.646
699.006
690.378
690.110
704.009
695.144
705.749
707.756
701.821
705.640
700.385
703.883
700.327
705.076
709.988
711.968
714.259
714.306
714.272
710.282
703.078
714.221
717.670
709.813
719.847
707.779
716.419
714.293
722.872
711.674
722.455
718.191
717.376
718.908
724.058
727.601
730.736
719.668
721.917
720.103
728.312
734.842
733.045
729.990
731.322
724.273
732.396
730.195
734.522
727.717
727.811
735.192
735.312
745.704
742.009
736.422
734.376
742.187
740.557
742.572
742.186
748.361
749.967
741.896
742.688
747.374
750.831
745.008
750.632
757.239
751.333
750.091
759.585
756.278
758.894
760.900
753.549
757.117
761.626
756.995
753.238
757.184
760.864
758.917
764.099
756.339
766.718
764.698
759.968
761.677
766.616
762.305
775.595
765.804
764.873
772.406
776.855
766.116
778.669
779.854
774.989
773.269
776.369
774.444
784.379
775.811
784.432
783.906
784.749
779.989
779.975
777.155
787.742
792.773
779.367
784.641
791.754
785.308
787.894
797.082
794.039
787.492
799.323
791.951
800.315
798.196
792.387
804.098
798.917
798.716
799.969
799.555
803.411
795.531
804.944
801.063
805.622
808.380
806.830
810.206
805.524
812.877
806.945
808.997
819.378
819.291
811.764
820.686
821.159
820.752
813.665
823.380
816.681
823.786
816.425
817.543
814.744
817.755
829.272
819.039
820.989
823.777
834.179
832.151
825.016
831.610
826.698
832.310
823.544
836.059
835.248
826.702
835.316
830.524
837.127
844.342
832.919
845.587
840.841
832.290
831.298
844.266
834.392
835.415
839.264
838.776
848.480
834.220
848.040
841.870
849.374
842.851
843.858
846.067
841.449
852.563
838.343
844.921
854.366
842.647
850.269
841.075
853.878
856.188
853.314
857.089
855.867
848.215
849.298
848.447
851.118
859.110
859.019
848.464
858.924
860.417
849.317
858.381
855.355
851.530
863.328
850.377
849.007
853.573
861.671
853.068
860.028
853.023
863.858
854.985
856.868
864.146
857.321
860.426
859.709
869.949
866.709
855.881
855.902
857.973
866.795
863.991
870.747
859.404
858.908
868.699
859.890
867.414
862.758
865.546
875.901
876.823
871.185
870.154
862.735
876.647
876.967
877.944
866.122
876.836
869.014
872.465
873.488
882.286
882.736
883.074
875.377
881.500
872.951
876.424
874.971
871.001
885.011
885.116
873.103
880.274
883.836
877.968
877.624
879.561
879.107
878.747
878.653
889.603
890.345
889.054
881.461
877.120
881.461
890.131
887.639
891.006
880.402
884.895
882.739
884.890
882.351
890.783
882.837
895.144
883.730
883.141
897.743
891.073
891.610
887.091
888.381
891.765
895.619
886.549
897.863
901.264
903.358
902.371
891.937
892.629
897.853
902.784
896.288
900.677
895.812
903.355
903.375
904.151
903.772
904.636
907.547
906.879
901.970
905.199
903.997
903.624
910.490
908.845
908.928
912.263
906.514
899.760
903.904
910.841
905.493
907.989
907.981
908.127
916.577
906.849
908.775
911.615
916.779
916.005
910.858
914.008
918.412
911.677
913.514
914.865
909.693
921.295
918.002
909.893
918.726
918.434
914.635
917.877
923.440
911.374
915.993
922.910
917.872
918.075
919.637
927.100
917.455
916.970
923.239
927.915
931.077
928.695
922.424
927.570
918.982
928.154
935.270
926.368
936.106
932.906
928.660
932.823
927.806
930.190
933.565
939.917
941.486
935.159
928.356
938.935
938.086
933.306
943.015
944.464
946.817
935.085
944.152
949.087
935.816
950.246
937.254
949.874
948.283
938.993
939.888
945.392
949.348
944.211
950.024
948.793
946.177
947.407
960.846
958.479
949.758
951.485
958.369
957.054
950.861
965.168
953.359
958.880
963.903
957.091
953.482
959.070
956.231
961.252
970.439
958.864
968.558
960.321
969.874
968.169
963.611
975.241
977.795
976.861
976.761
968.369
973.766
969.801
980.762
969.847
976.195
977.896
984.901
978.439
971.520
984.052
987.241
986.782
977.295
975.346
975.104
984.129
986.531
981.273
983.182
981.705
993.872
982.177
989.850
990.070
983.448
993.530
998.105
998.220
995.714
987.297
996.977
988.137
993.629
1002.614
996.032
997.011
1001.306
992.706
994.873
1006.683
997.133
1007.597
1003.574
1010.946
997.971
1001.480
1005.162
998.235
1012.150
1000.289
1010.471
1010.201
1010.301
1006.600
1005.531
1012.960
1013.137
1012.017
1016.474
1013.141
1009.770
1008.417
1018.166
1017.088
1013.835
1011.423
1012.619
1017.446
1021.926
1019.087
1028.792
1018.567
1022.126
1026.410
1018.836
1018.773
1019.768
1027.515
1024.977
1024.258
1032.065
1028.878
1023.091
1038.491
1024.226
1025.699
1029.522
1026.916
1037.306
1034.036
1037.095
1041.169
1041.094
1036.572
1038.658
1032.894
1042.353
1034.782
1046.750
1048.099
1040.323
1051.462
1043.706
1047.364
1038.191
1048.859
1048.703
1051.832
1044.525
1049.893
1047.302
1049.311
1056.325
1055.012
1051.445
1046.617
1055.415
1050.466
1050.658
1055.862
1052.230
1060.934
1063.122
1061.104
1056.873
1057.816
1060.559
1066.069
1060.605
1064.426
1066.169
1053.934
1053.712
1052.623
1054.436
1055.216
1049.703
1046.249
1057.734
1046.522
1041.011
1038.824
1047.100
1043.934
1045.427
1033.839
1035.726
1034.114
1027.432
1033.526
1029.051
1025.277
1022.931
1021.960
1019.388
1028.256
1027.690
1014.247
1017.817
1017.478
1012.833
1011.813
1021.626
1006.793
1014.705
1002.914
1002.442
1003.426
1005.234
1010.571
1001.629
999.123
999.339
991.442
996.866
994.854
985.497
993.809
991.002
993.343
990.127
981.485
983.617
986.901
981.088
985.545
972.634
984.069
978.753
975.509
976.962
967.708
964.814
964.307
960.347
963.650
960.351
960.465
962.793
960.877
954.009
949.369
949.123
954.263
946.074
952.779
950.686
940.104
951.243
945.592
947.720
944.659
944.280
939.324
938.598
931.974
925.673
929.261
932.188
926.411
928.678
930.703
920.079
918.959
927.020
912.628
919.825
908.753
915.064
911.704
906.693
911.620
915.270
909.526
911.947
907.636
905.982
894.029
892.402
898.486
904.064
898.412
889.658
891.993
882.767
883.204
888.989
883.530
879.029
888.744
875.094
876.089
883.686
883.348
868.548
875.408
873.238
876.503
865.069
869.864
861.905
858.231
855.432
869.774
866.651
866.725
849.805
861.462
855.811
849.211
855.440
854.474
845.078
853.805
842.051
849.649
835.258
847.934
846.382
838.288
835.810
833.431
836.479
836.081
827.443
835.635
823.595
832.786
830.825
828.607
828.800
827.531
813.430
824.201
808.869
820.592
819.365
812.884
801.704
813.398
811.349
802.304
802.748
796.373
793.383
796.105
794.873
791.234
799.036
799.132
792.669
783.385
793.796
782.486
788.691
783.912
780.912
783.935
773.222
771.194
770.138
773.933
768.440
764.862
766.032
768.905
767.349
761.491
771.143
760.683
762.494
760.800
754.974
755.364
758.511
757.531
754.549
755.121
753.738
757.480
752.697
758.638
754.500
752.387
749.881
751.317
757.926
743.314
749.352
748.399
741.967
749.926
745.251
752.202
740.454
750.553
748.391
743.088
741.274
734.499
738.467
741.549
743.120
745.246
733.010
735.225
737.621
738.340
728.013
729.839
727.387
736.988
726.665
731.156
733.782
724.711
731.520
731.850
732.618
720.552
728.794
731.329
731.474
721.631
719.180
718.723
730.849
715.006
723.924
714.693
721.795
722.534
718.231
714.324
711.503
710.366
718.704
708.132
714.665
712.932
716.342
717.917
705.172
703.649
702.447
708.216
706.481
711.752
713.436
707.087
709.133
701.235
712.636
710.602
704.284
698.936
705.679
698.426
702.097
692.453
703.031
705.861
696.206
694.214
695.235
691.048
701.170
692.392
689.974
688.341
695.000
688.534
697.836
687.786
696.832
694.252
687.244
691.688
682.205
683.311
680.551
683.044
684.250
683.012
680.843
686.496
674.699
678.255
677.959
684.218
671.653
673.371
673.117
678.832
670.920
671.494
674.877
681.394
679.979
668.018
673.285
675.144
663.351
666.333
668.914
668.655
673.823
669.200
664.964
658.587
657.880
664.316
657.303
662.066
654.237
661.799
659.221
656.108
656.713
651.111
658.380
657.922
659.802
654.353
661.781
652.332
655.218
649.002
659.640
656.279
643.269
645.721
644.242
655.569
649.922
644.458
640.952
644.654
651.409
643.312
636.672
638.175
646.545
645.657
647.522
638.595
638.220
636.928
644.915
635.451
631.634
641.874
637.944
630.779
634.140
639.847
635.093
629.784
628.630
623.386
636.829
623.203
629.581
624.044
623.954
629.166
617.849
617.658
618.727
621.747
632.542
622.672
628.073
625.466
623.191
623.184
626.424
624.711
630.037
635.007
634.744
644.434
636.255
635.745
640.812
647.038
641.543
642.361
645.828
642.514
647.868
648.287
648.224
642.628
647.176
648.366
651.825
649.570
657.948
661.639
663.817
656.353
658.059
659.827
659.036
664.271
662.099
669.868
663.368
665.413
668.872
667.179
671.762
674.159
676.510
669.093
670.845
669.865
675.990
684.168
674.114
673.002
685.844
676.067
681.777
683.506
687.159
688.723
692.517
691.341
686.608
684.875
690.072
700.374
701.100
691.616
700.559
699.567
696.009
706.615
706.126
707.247
702.187
708.079
703.812
712.973
709.977
716.947
708.733
715.192
716.216
715.245
715.294
712.825
712.109
719.500
723.123
726.365
720.356
729.753
719.728
728.423
718.976
725.009
729.575
735.278
732.081
736.979
732.966
731.676
732.250
738.262
742.177
744.714
733.832
740.560
748.682
749.323
736.782
750.767
745.451
746.722
750.367
741.241
756.856
743.214
753.910
756.071
759.251
762.424
751.383
761.711
759.752
757.888
765.269
769.014
759.769
766.529
771.963
758.473
766.687
770.215
774.784
776.852
765.213
779.319
767.463
778.295
776.155
774.653
783.453
783.742
774.457
776.982
783.758
790.913
788.616
784.094
793.570
781.820
787.590
795.139
792.348
793.666
797.981
794.043
798.984
790.502
796.722
802.080
803.230
796.504
796.185
801.954
797.738
806.015
800.032
810.164
815.227
811.980
810.702
804.032
808.931
819.099
808.628
813.469
817.490
813.279
817.277
827.130
816.541
824.248
827.683
818.168
830.275
828.148
822.723
828.691
834.104
833.300
839.383
839.950
829.846
841.309
831.387
839.237
847.117
832.580
839.611
840.265
847.767
841.773
843.382
850.895
844.131
855.376
852.595
856.703
845.481
850.727
849.112
857.353
850.162
852.669
865.163
861.303
861.371
853.679
857.758
856.610
863.911
872.289
863.903
872.639
872.813
866.624
866.589
868.534
874.855
877.064
874.055
877.609
872.074
870.310
871.214
888.062
887.652
877.524
875.463
883.988
890.589
882.424
888.820
887.279
893.064
884.832
884.306
897.913
890.220
891.281
898.140
892.928
904.207
899.982
903.127
902.102
894.860
895.416
901.801
906.306
912.842
906.322
910.506
905.894
911.805
907.240
912.728
916.934
920.133
919.386
915.023
924.177
917.545
926.165
924.881
915.238
922.239
927.501
929.079
932.190
921.001
926.255
937.385
925.990
927.377
926.050
930.517
941.079
931.444
936.678
941.728
931.110
941.271
936.681
944.089
936.286
937.706
949.483
947.752
940.521
953.221
954.206
954.486
957.599
960.062
958.394
950.337
950.880
953.056
964.222
953.310
961.005
956.405
955.162
963.393
960.812
957.231
967.756
972.943
963.484
974.563
964.953
977.972
974.491
974.822
979.246
977.516
972.770
983.270
983.977
979.727
975.711
979.681
988.800
980.677
988.997
983.816
985.166
991.266
981.807
995.022
988.635
989.673
990.541
1001.784
993.606
989.617
996.584
1003.502
998.399
1002.651
1008.721
1010.596
1001.067
1001.037
1010.128
1003.681
1004.220
1015.466
1009.543
1012.627
1004.905
1014.027
1016.698
1012.649
1010.394
1012.568
1018.657
1025.868
1013.253
1023.021
1016.920
1029.415
1028.648
1025.071
1031.967
1032.453
1030.130
1029.894
1032.619
1030.077
1039.304
1035.929
1028.017
1037.063
1034.656
1033.276
1045.757
1046.272
1037.344
1036.385
1043.118
1049.893
1039.861
1043.448
1044.078
1056.103
1054.416
1052.713
1058.093
1047.419
1045.338
1047.934
1055.050
1053.990
1040.613
1051.145
1042.615
1050.795
1039.147
1033.800
1039.286
1037.305
1030.146
1037.857
1029.491
1027.175
1027.636
1025.805
1030.792
1031.663
1031.492
1036.596
1020.603
1020.442
1028.587
1028.132
1028.236
1028.789
1021.240
1017.273
1025.166
1016.793
1014.442
1021.248
1023.646
1010.193
1011.372
1006.861
1014.078
1016.042
1009.902
1005.254
1007.056
1004.624
1002.782
1005.139
1008.317
1007.535
996.405
1004.531
998.655
996.339
1003.540
1000.429
1003.570
991.426
1000.407
997.965
996.701
988.399
992.549
983.581
987.435
993.827
990.001
988.042
976.750
989.639
980.294
980.954
985.788
981.346
970.071
977.767
973.376
969.210
979.270
968.992
973.182
978.405
977.955
970.071
965.225
961.609
958.777
970.542
966.968
970.047
962.814
958.374
960.973
964.564
951.413
956.526
961.746
956.229
949.015
954.610
959.719
953.858
952.207
946.769
952.856
946.834
952.907
942.319
939.620
939.036
944.872
941.148
935.388
943.522
942.400
930.540
939.160
939.684
937.340
937.157
926.339
928.469
930.192
933.421
923.456
924.707
928.372
924.552
917.872
930.154
925.521
926.633
913.561
920.187
915.115
912.651
919.300
917.254
916.451
917.454
915.867
914.086
911.982
915.564
908.380
914.488
900.313
901.058
902.614
910.357
905.110
897.677
894.969
899.924
890.932
895.004
901.795
896.622
888.335
892.738
884.408
893.526
890.225
883.030
893.637
885.535
885.930
880.212
876.742
885.750
888.070
888.034
877.788
879.239
885.634
885.100
872.420
869.749
881.457
869.798
878.614
872.094
868.123
868.795
874.816
866.296
863.283
858.844
856.904
857.055
863.950
862.984
858.489
861.083
853.489
865.191
863.315
858.316
852.548
854.235
