457.759
457.395
469.763
488.659
490.431
518.184
511.015
484.337
501.228
532.129
169.936
167.155
166.458
175.150
173.409
177.587
168.342
175.907
176.546
188.531
191.497
187.886
193.150
192.421
197.908
196.326
200.649
191.157
198.826
197.072
206.818
199.832
206.990
204.632
207.835
223.805
224.175
224.220
217.191
225.041
226.449
226.898
234.862
235.537
233.882
244.078
232.892
243.350
247.549
240.378
255.870
249.664
260.610
262.224
255.703
263.442
263.406
269.997
265.979
263.388
276.128
279.196
279.509
270.265
282.441
280.735
290.240
278.260
283.356
290.543
284.394
288.819
290.642
303.640
296.485
295.124
308.868
306.981
312.469
312.265
312.723
307.952
324.539
324.602
320.893
321.017
331.022
326.483
326.924
335.879
328.475
333.526
343.315
346.750
346.060
347.262
346.826
348.960
344.986
351.075
362.039
362.778
366.706
366.476
364.549
361.162
368.647
376.992
381.490
376.280
374.191
376.210
386.901
387.055
385.933
385.188
397.266
386.628
394.219
399.617
395.024
402.960
403.469
409.615
411.879
412.090
411.068
419.300
423.468
424.767
421.541
421.522
428.409
432.118
428.966
428.248
435.542
434.293
437.504
448.168
438.009
440.579
450.636
448.423
453.377
461.717
449.463
465.200
453.837
460.258
472.370
469.112
476.683
473.219
475.268
469.545
474.212
478.666
475.241
477.468
488.414
486.291
482.851
495.989
501.973
498.900
499.879
504.306
497.812
500.690
500.152
502.742
508.205
508.701
519.374
511.621
520.446
522.030
531.745
521.650
523.531
533.937
539.050
542.095
536.354
539.815
543.126
546.384
551.906
544.107
550.851
561.287
558.949
563.133
566.794
568.581
563.105
573.419
564.481
571.882
579.779
571.191
574.171
571.298
581.025
578.578
575.725
579.139
580.663
577.138
576.419
581.276
585.338
587.332
576.663
588.003
584.497
589.364
593.337
583.898
589.139
593.273
589.852
585.339
592.322
600.003
590.617
602.512
591.822
596.450
599.098
604.569
602.860
596.480
600.810
600.843
609.701
599.054
610.259
608.672
613.164
611.625
608.151
609.039
606.072
607.080
608.067
619.692
618.278
617.602
609.423
618.279
611.288
611.070
622.080
620.959
627.298
625.433
617.746
623.648
630.574
623.779
627.957
618.882
621.675
631.998
627.762
636.162
631.487
622.865
630.867
627.910
637.098
627.407
640.996
635.391
642.343
636.091
641.173
643.037
634.174
642.041
639.751
640.999
646.830
639.645
650.596
653.420
652.148
649.323
650.894
654.258
651.349
657.940
658.401
653.874
656.165
662.268
647.550
663.568
649.958
653.436
651.145
667.100
660.333
663.271
664.024
661.634
667.019
665.924
662.718
661.956
662.993
666.973
676.076
670.881
672.527
664.064
665.394
669.494
681.681
677.375
677.943
673.984
674.544
671.773
671.392
680.948
672.570
687.254
686.168
679.295
687.970
678.643
692.780
693.765
681.392
692.076
696.449
695.342
696.340
690.806
686.706
696.743
693.090
693.335
690.710
702.184
692.301
691.718
704.522
706.357
698.772
696.819
707.468
700.942
703.301
701.076
710.230
711.970
703.104
702.924
705.814
708.455
709.581
718.709
709.481
705.829
715.923
708.047
721.604
719.923
720.459
719.555
721.689
720.287
724.549
724.473
729.223
721.234
717.445
720.474
719.168
732.185
735.428
732.235
722.943
732.387
723.593
736.958
724.700
728.024
738.358
737.965
731.164
744.427
740.930
733.356
740.415
747.651
738.211
747.377
744.864
741.770
751.235
753.694
753.395
754.202
754.381
747.644
761.405
754.852
758.663
759.507
761.757
762.066
767.545
764.511
775.493
771.744
770.809
781.705
776.259
783.984
786.660
774.842
781.271
779.286
780.556
794.498
790.085
794.791
790.028
790.410
787.144
803.315
800.902
792.204
801.527
802.118
803.127
808.353
804.870
816.914
809.412
814.241
808.108
811.695
816.624
819.567
813.096
820.738
815.756
820.024
820.837
822.105
824.141
837.537
840.729
841.292
840.695
833.579
841.446
843.587
835.002
837.958
844.506
850.854
850.856
853.157
859.658
859.388
855.383
861.292
862.343
857.570
868.679
869.912
856.772
873.493
875.464
863.938
863.312
868.558
876.000
869.167
880.258
876.850
883.883
881.914
884.359
877.909
885.433
887.742
883.182
895.021
888.061
900.336
897.896
892.170
891.977
899.376
906.031
896.466
906.798
906.978
901.607
913.378
904.462
905.773
922.882
917.550
920.152
922.265
927.775
927.816
930.284
929.819
931.189
928.595
931.271
927.334
936.313
935.465
939.649
946.192
935.057
934.227
946.259
944.455
948.940
951.069
943.211
947.890
959.504
954.550
952.557
961.469
955.849
965.417
963.577
964.970
969.650
969.487
970.566
968.318
974.970
972.315
967.572
975.348
982.697
979.831
977.687
981.443
983.754
985.748
995.131
994.484
989.656
994.908
993.306
1002.447
1003.569
995.048
998.423
999.965
1000.318
1005.518
1005.545
1004.515
1009.385
1016.613
1012.631
1013.316
1017.840
1013.271
1024.408
1018.979
1019.571
1022.455
1021.302
1021.045
1034.067
1035.524
1039.736
1026.102
1034.321
1040.663
1044.615
1045.335
1045.122
1037.930
1048.440
1039.895
1051.763
1057.219
1054.808
1045.974
1061.215
1063.004
1059.385
1058.855
1057.560
1050.617
1057.450
1055.408
1059.851
1053.391
1056.198
1064.992
1059.428
1050.771
1063.733
1052.226
1050.527
1054.683
1066.309
1053.270
1050.917
1063.929
1051.343
1055.893
1064.926
1062.111
1052.448
1052.786
1064.798
1062.824
1065.700
1061.050
1059.935
1066.948
1056.914
1054.267
1052.510
1066.362
1060.402
1053.444
1055.739
1058.452
1064.216
1060.184
1053.544
1052.602
1063.890
1055.289
1066.680
1065.395
1062.119
1062.842
1057.274
1067.991
1056.894
1064.089
1063.413
1054.205
1066.849
1067.654
1053.522
1055.916
1063.109
1054.081
1064.400
1063.330
1055.267
1054.533
1062.189
1053.813
1060.474
1062.417
1061.283
1057.075
1054.866
1059.188
1065.209
1054.414
1057.414
1066.390
1056.936
1058.485
1064.532
1056.730
1057.948
1068.005
1066.216
1069.821
1054.952
1057.637
1064.558
1070.030
1066.604
1058.759
1059.911
1059.372
1061.666
1062.292
1071.149
1063.671
1065.207
1071.042
1061.645
1056.972
1065.992
1066.394
1061.272
1057.634
1068.808
1066.918
1064.265
1066.465
1061.432
1057.160
1066.326
1072.212
1066.475
1061.524
1063.267
1071.716
1057.810
1057.688
1066.070
1063.119
1072.021
1072.386
1067.844
1057.577
1071.120
1070.273
1067.520
1064.141
1071.237
1070.267
1062.489
1071.438
1058.711
1065.972
1060.980
1061.917
1060.179
1068.877
1065.673
1060.718
1063.487
1063.721
1070.509
1062.841
1069.676
1059.696
1070.571
1061.438
1065.594
1066.351
1067.614
1061.858
1064.042
1070.553
1063.675
1074.223
1065.467
1071.790
1062.266
1060.126
1072.066
1061.820
1072.202
1068.196
1073.843
1063.961
1065.154
1060.525
1070.806
1066.598
1062.552
1072.401
1073.759
1068.838
1068.119
1069.628
1068.710
1069.411
1067.015
1070.088
1069.411
1066.181
1064.370
1068.395
1075.966
1065.283
1067.876
1068.138
1076.333
1064.635
1067.094
1070.261
1076.306
1062.491
1065.840
1064.409
1068.220
1062.442
1068.874
1060.893
1067.949
1061.838
1069.345
1071.850
1066.750
1063.786
1053.835
1054.614
1063.070
1059.207
1050.851
1059.794
1053.111
1046.770
1045.172
1047.145
1045.202
1046.564
1049.303
1043.546
1048.462
1044.097
1040.445
1047.555
1033.443
1036.542
1040.158
1031.909
1031.727
1038.317
1032.461
1028.641
1030.653
1035.379
1026.694
1023.023
1035.952
1033.691
1020.817
1023.159
1027.499
1021.888
1017.456
1016.445
1011.914
1011.595
1019.707
1010.572
1016.214
1010.485
1014.418
1019.197
1007.180
1009.820
1001.228
1014.156
1001.376
997.568
1002.240
997.178
995.974
993.498
999.917
993.802
1004.098
997.188
988.751
989.083
993.744
996.097
990.027
996.355
990.480
991.546
986.823
986.347
980.210
976.376
983.227
987.162
985.949
984.988
984.442
975.240
976.713
969.632
968.910
974.254
972.780
977.427
969.001
969.887
965.911
968.195
962.230
956.882
962.009
967.584
954.148
963.028
963.725
956.266
949.072
947.564
955.149
950.527
960.125
955.356
943.441
944.153
954.216
946.434
940.736
940.007
943.023
937.264
935.475
934.626
944.103
935.313
933.660
933.120
935.848
941.402
937.954
923.944
929.283
924.476
925.395
934.113
921.097
929.888
916.454
924.929
926.549
927.444
912.325
925.223
915.676
917.941
917.668
920.450
907.535
913.087
904.343
910.617
907.273
912.890
913.588
898.865
898.301
911.135
904.159
893.964
905.904
893.087
903.309
902.032
888.428
890.835
887.243
895.311
891.546
883.806
889.021
890.202
892.954
890.321
886.567
882.829
883.675
882.798
888.556
871.893
881.656
875.077
874.975
881.029
875.437
875.110
875.343
878.716
871.026
860.761
872.740
862.504
866.621
865.530
865.197
858.661
867.654
867.513
852.961
859.236
852.372
851.057
856.618
845.971
854.060
849.492
861.123
859.871
858.840
859.677
857.312
859.280
850.066
855.583
861.152
859.851
855.881
851.614
861.004
857.607
859.772
860.988
864.607
857.214
852.489
860.456
863.863
865.736
863.320
866.747
860.646
856.463
867.676
868.318
860.534
868.492
858.432
872.218
870.077
863.623
871.652
865.200
870.159
868.150
863.724
869.642
864.161
867.869
866.232
871.586
876.446
877.151
864.754
867.860
868.812
875.393
878.031
872.879
871.499
875.794
869.682
866.070
875.920
869.500
867.469
878.513
881.899
868.846
878.598
880.973
881.359
873.991
869.479
871.614
871.729
876.142
883.817
873.755
886.327
879.091
881.066
881.798
876.723
887.318
875.738
889.377
879.825
878.527
881.244
878.848
885.235
887.239
879.124
891.455
889.735
892.063
882.768
885.556
881.482
891.162
887.639
892.527
895.718
894.572
880.716
895.575
891.096
889.946
894.981
886.707
896.456
897.115
892.885
888.322
895.846
886.314
891.437
888.265
888.233
888.830
896.929
898.056
889.525
903.044
898.878
894.309
901.035
892.183
889.507
895.224
903.780
898.264
895.638
897.233
892.727
895.188
897.440
901.271
893.004
897.105
896.669
896.045
905.717
901.798
897.132
902.719
904.354
906.544
909.923
897.072
902.192
897.575
900.732
905.062
901.450
909.192
914.506
901.380
902.522
913.527
906.635
910.841
907.600
915.003
905.982
905.866
911.928
910.932
916.376
915.583
916.335
909.159
906.002
912.891
910.134
918.695
908.989
918.742
919.826
918.532
912.587
914.563
916.542
923.811
913.890
918.888
917.312
915.347
915.740
922.025
925.390
916.864
916.576
920.155
916.240
921.169
929.362
919.056
926.298
922.844
918.346
916.383
925.861
920.152
930.056
928.485
929.219
929.700
925.477
914.492
924.091
915.780
918.395
916.487
922.647
915.030
924.790
914.890
915.534
916.356
912.651
920.973
919.657
914.234
907.554
909.077
916.274
919.187
919.997
905.895
912.355
917.386
906.265
910.198
905.062
913.819
915.965
915.498
902.765
914.851
908.220
910.689
900.339
912.245
897.748
902.848
911.672
900.159
907.851
895.893
896.716
901.046
897.398
896.491
893.468
893.800
893.359
894.700
897.093
899.300
901.278
890.844
897.478
894.185
891.727
895.787
895.355
894.424
895.677
895.493
896.035
893.137
891.871
887.699
892.057
892.636
887.807
896.023
887.049
894.909
891.742
879.891
880.948
883.254
881.636
889.219
889.902
888.048
878.707
875.276
889.060
875.994
880.130
881.236
876.022
884.322
884.991
882.815
882.421
881.951
875.044
878.809
881.911
882.782
871.697
868.408
873.566
870.162
875.805
874.457
876.282
866.930
875.370
866.106
863.935
867.878
873.430
868.060
862.715
875.754
861.902
861.098
870.958
862.947
863.770
862.622
869.345
862.158
860.280
859.576
870.035
854.782
860.406
867.181
861.413
853.569
862.352
856.664
860.385
853.925
853.281
865.539
860.287
855.465
856.118
860.778
856.999
861.741
862.142
854.036
848.044
849.454
855.271
844.564
853.463
850.111
857.617
853.738
852.646
844.399
847.472
850.125
854.252
848.603
845.066
844.754
850.870
837.841
842.314
839.555
845.846
849.848
839.921
839.117
842.503
843.645
847.071
835.947
839.101
842.879
843.360
836.510
838.271
831.430
844.543
835.957
833.515
837.966
842.442
840.320
832.993
829.369
831.254
835.140
827.125
826.345
827.016
835.876
834.199
831.757
822.257
828.658
835.497
830.631
820.439
831.579
826.253
826.597
833.331
834.820
827.586
829.904
836.635
829.716
827.605
827.502
827.830
831.665
824.037
837.593
833.363
835.840
826.051
825.016
827.788
833.524
837.750
836.387
831.113
837.198
826.667
827.845
837.220
830.818
834.688
834.696
839.281
838.590
830.735
836.249
831.596
832.242
832.430
834.455
840.034
844.740
831.867
835.547
836.230
839.957
834.560
836.295
832.826
838.014
844.475
834.285
837.322
838.451
842.725
847.616
845.338
848.864
845.878
844.701
849.257
842.858
851.236
850.796
851.000
837.971
847.183
851.728
837.627
847.582
844.585
852.972
842.430
845.739
843.700
840.229
841.162
855.192
853.853
845.227
842.030
843.437
853.050
854.392
843.797
854.551
846.337
856.869
847.738
856.494
851.805
846.861
848.864
850.154
852.795
845.419
857.458
847.999
846.617
846.480
853.828
856.787
853.621
850.228
849.243
858.945
856.826
859.322
857.929
851.288
861.852
861.929
856.774
865.451
860.425
851.083
854.415
865.971
864.712
857.199
859.896
861.557
863.563
857.722
866.900
853.331
858.079
867.504
861.297
860.355
859.296
866.863
855.332
864.615
857.707
864.313
866.930
864.728
863.271
869.267
858.674
872.000
873.404
866.040
867.121
871.317
869.729
874.975
865.018
875.000
872.275
862.431
862.737
860.930
875.749
861.672
863.686
865.973
862.908
876.316
876.980
867.557
871.598
878.733
869.568
874.691
878.523
874.179
866.866
877.772
869.868
872.995
874.240
876.414
866.982
880.093
879.881
868.870
877.590
871.856
871.184
880.168
872.180
869.159
874.610
871.052
875.366
870.476
885.149
883.348
879.351
877.848
886.308
880.457
886.393
877.087
876.749
881.762
882.593
887.408
884.750
875.694
881.819
886.008
887.941
882.097
885.763
885.755
879.039
881.650
886.512
889.139
895.651
886.353
883.444
887.678
887.597
894.957
883.363
891.794
887.452
893.313
891.692
887.915
893.178
898.879
897.682
902.187
903.484
902.306
891.871
889.628
904.876
896.439
900.273
892.398
899.539
901.325
896.234
901.085
896.309
897.949
903.454
906.403
906.895
911.439
909.543
898.925
908.466
912.428
909.850
907.552
907.747
913.030
907.510
901.712
909.069
905.710
916.226
907.798
904.972
914.546
910.683
911.924
913.475
921.288
911.940
916.451
919.758
916.794
917.426
921.073
914.158
913.958
916.723
913.828
919.091
914.919
922.781
919.448
928.609
915.193
918.102
924.080
918.034
927.619
929.069
927.968
923.370
931.094
927.471
920.635
930.102
927.962
929.915
936.115
937.039
930.240
932.524
929.005
926.855
929.109
934.166
940.618
938.416
928.150
936.524
933.611
931.813
931.984
931.343
938.545
941.525
942.078
945.250
946.980
948.159
948.747
941.124
937.623
940.570
947.348
935.751
936.592
941.080
942.073
946.519
949.900
953.738
953.736
954.475
946.847
950.756
956.431
946.438
952.689
944.084
948.624
950.956
953.359
960.501
951.976
956.118
952.136
949.690
954.481
963.600
950.912
964.834
950.602
955.109
957.440
966.697
961.606
964.898
957.547
962.225
956.530
965.244
955.986
958.081
963.450
971.144
958.240
959.317
965.437
963.745
959.280
959.978
965.633
976.012
972.989
974.013
969.658
970.869
977.783
963.798
974.539
969.839
968.355
966.135
970.785
966.963
976.252
974.776
982.567
975.418
977.789
972.595
978.087
971.441
975.505
974.951
977.458
985.979
984.149
974.944
980.723
983.441
982.937
984.966
983.872
989.034
975.188
979.480
980.672
986.769
976.351
981.599
983.204
986.517
976.909
979.694
986.141
986.935
979.628
984.779
971.482
970.568
983.623
979.374
974.333
982.929
971.056
983.980
976.707
974.914
977.557
972.637
981.459
982.460
973.932
967.483
974.142
966.730
966.570
967.459
973.625
969.391
976.388
972.247
979.217
973.147
963.394
972.401
973.325
977.336
977.273
968.371
964.945
973.473
971.589
966.820
962.729
965.460
964.888
968.847
962.633
965.193
959.418
957.893
960.357
957.948
964.494
969.256
968.834
970.620
968.545
968.432
957.792
959.287
960.714
965.727
956.247
959.111
954.680
955.738
963.397
955.403
962.587
965.788
964.408
954.034
966.879
956.867
953.760
954.613
955.422
962.385
960.665
950.584
959.329
964.005
957.100
955.811
949.746
955.918
958.780
950.543
953.386
959.079
956.083
948.044
951.266
954.481
948.936
957.032
951.660
953.089
958.117
944.391
951.709
947.837
956.071
956.118
943.305
941.823
948.293
953.884
947.672
940.804
943.808
943.288
943.127
940.698
940.303
948.151
938.447
952.884
942.245
951.162
942.082
945.399
944.513
943.744
947.833
938.390
948.130
950.857
945.560
948.176
945.850
938.037
946.984
946.962
941.493
947.656
947.341
934.232
936.871
937.248
945.538
935.221
933.048
938.239
943.770
942.495
944.642
929.783
939.911
931.018
931.652
931.966
939.714
940.542
939.253
929.607
930.204
930.900
933.267
935.574
932.805
936.498
926.686
932.525
939.771
928.239
937.384
923.980
931.113
934.204
929.111
931.742
931.138
935.491
924.109
926.608
924.912
935.037
930.447
934.883
930.754
926.549
926.197
932.843
933.409
919.722
924.432
917.993
926.645
