195.366
205.292
198.972
202.763
204.861
198.515
205.071
203.785
207.368
220.397
218.015
211.543
220.411
223.473
220.304
230.983
223.872
236.554
233.139
227.839
229.467
242.569
238.417
242.373
242.634
243.576
238.746
250.199
253.219
257.334
255.383
254.594
259.092
258.959
269.560
271.108
259.578
262.459
264.652
266.995
278.900
283.828
278.433
279.394
288.849
286.073
289.469
292.015
287.183
293.222
295.633
295.902
298.741
306.354
298.255
297.135
312.882
303.846
305.068
318.895
318.796
312.690
317.391
314.372
319.990
326.281
319.394
331.266
328.223
324.321
340.013
333.884
336.812
346.315
335.656
341.962
351.790
350.029
349.183
352.643
351.567
359.283
359.908
361.154
357.034
364.451
360.651
363.709
367.289
368.330
366.690
366.815
375.263
383.228
374.154
376.077
387.562
392.090
389.583
394.042
387.303
394.832
395.466
396.807
402.945
403.236
411.732
408.833
405.718
412.027
405.473
410.245
413.595
422.443
420.579
426.582
430.764
426.219
432.526
434.951
436.889
433.757
434.922
434.130
432.449
440.187
438.827
438.858
444.138
448.707
458.144
456.034
447.896
451.261
457.875
461.027
458.901
463.323
464.069
469.014
463.047
480.038
476.768
474.479
477.921
479.409
486.916
487.219
491.780
484.502
485.879
494.316
486.278
488.645
496.964
495.443
500.827
501.956
507.765
510.955
514.026
512.937
512.955
512.129
525.060
525.712
527.538
527.602
528.073
532.103
533.861
524.501
533.841
542.108
540.056
543.488
539.023
548.205
551.099
553.776
546.959
545.057
547.743
550.096
561.337
563.437
561.836
558.473
560.993
563.664
567.992
570.475
570.492
576.859
575.437
583.684
586.868
588.058
591.024
585.949
584.770
587.339
592.529
599.100
585.130
595.017
596.866
595.704
595.057
592.986
596.400
600.279
599.996
596.907
600.768
597.796
608.042
604.782
601.140
600.880
602.643
604.764
608.142
608.328
614.288
607.976
620.316
608.729
615.074
614.286
624.081
618.911
618.175
621.056
614.608
617.091
616.534
622.702
619.213
622.216
628.775
628.901
622.831
628.297
628.103
626.763
632.142
635.814
636.136
640.530
641.679
636.900
638.050
634.012
641.378
636.009
641.407
651.253
645.248
644.462
654.518
656.550
648.472
653.983
656.519
660.069
651.630
646.844
649.815
651.566
663.315
664.617
657.097
654.120
665.808
657.800
671.105
662.611
667.864
659.562
664.622
664.097
676.554
678.408
667.579
673.759
669.733
674.623
679.988
680.410
669.937
685.205
674.885
688.241
676.749
680.521
688.044
690.693
692.642
688.240
686.249
689.740
682.027
686.285
687.151
688.871
699.935
696.505
702.418
692.709
703.846
697.943
698.744
696.304
707.305
699.150
702.566
697.964
704.760
704.519
707.756
701.026
711.199
714.648
714.838
715.125
715.636
717.324
711.808
716.955
711.978
718.968
712.893
723.421
719.141
715.772
729.821
729.103
730.031
724.122
732.366
728.324
721.654
722.101
726.497
739.002
729.980
725.986
737.841
735.169
729.209
741.738
745.691
747.375
748.253
740.057
749.909
749.508
738.636
740.730
753.106
746.552
745.363
757.029
744.389
751.974
753.328
746.375
755.692
762.731
762.945
761.755
766.180
751.729
754.909
755.183
760.778
769.094
756.662
771.898
758.490
773.216
764.467
765.985
772.507
769.707
769.457
780.017
773.251
780.990
773.253
784.044
784.590
774.826
782.789
775.074
783.272
782.302
779.188
785.883
790.738
792.625
779.037
790.976
789.824
785.107
788.634
791.828
786.223
781.825
781.890
780.092
780.730
779.460
777.084
783.593
779.222
783.333
775.881
784.807
783.273
779.871
788.645
790.083
777.190
787.419
779.490
789.405
781.740
783.226
785.234
780.252
783.802
780.733
773.484
786.323
785.259
776.876
775.089
783.658
783.383
778.108
779.947
784.030
786.459
772.372
783.707
771.961
778.847
770.601
783.201
775.532
771.832
772.214
775.789
773.524
775.708
779.648
781.899
772.650
782.510
777.358
779.441
782.413
777.073
773.171
770.157
771.255
781.208
773.712
772.409
779.919
772.407
774.946
769.123
767.215
780.509
774.915
775.832
775.533
771.538
771.701
767.248
772.445
778.168
771.215
764.386
771.067
776.755
767.518
772.512
763.227
768.575
764.549
770.224
765.440
764.750
769.587
774.971
772.576
765.559
771.393
766.349
770.780
772.182
762.425
773.066
775.439
771.046
763.258
762.143
772.720
768.211
770.509
765.287
771.341
767.756
761.204
766.223
760.945
759.975
766.631
760.763
771.755
765.334
758.246
766.730
761.301
766.385
770.618
766.065
761.490
762.121
764.470
769.699
760.052
768.092
758.505
762.119
767.447
759.303
761.863
761.825
756.704
769.449
761.398
769.403
756.095
758.744
755.404
767.000
768.137
757.363
760.017
762.722
755.429
760.866
754.890
758.150
765.487
753.204
760.020
763.208
759.824
765.490
758.012
762.854
765.999
759.010
757.169
763.541
761.909
763.937
758.290
758.869
758.428
761.837
755.626
750.044
752.304
751.093
760.096
760.521
760.258
759.035
748.388
750.356
755.267
747.445
752.930
760.256
758.597
751.460
748.156
759.314
754.611
749.838
749.488
752.196
760.527
755.216
751.145
761.847
761.293
762.462
759.853
761.297
772.874
762.608
769.787
773.571
776.041
770.899
771.672
775.116
775.349
786.449
781.328
790.167
792.740
786.963
784.405
798.526
794.739
790.061
800.545
806.356
803.282
804.704
801.063
806.297
811.092
817.677
808.672
821.513
821.053
825.103
825.202
813.953
826.658
820.338
829.759
832.795
834.779
835.466
840.966
839.780
830.029
845.512
843.399
841.741
846.666
842.653
850.915
843.404
855.820
852.430
856.849
858.982
858.156
867.582
862.933
858.348
863.243
864.898
868.736
873.319
865.276
872.226
877.224
871.761
881.113
889.992
883.192
882.577
886.052
893.426
895.883
898.224
893.738
901.479
905.131
898.222
896.501
909.019
909.764
900.381
910.833
910.920
914.618
913.851
921.353
920.005
925.555
924.833
921.733
920.455
931.583
926.211
932.550
938.922
928.686
931.152
941.057
947.635
941.699
938.652
943.843
950.691
949.314
951.246
956.709
961.809
952.000
959.138
958.237
968.590
957.062
961.221
970.319
967.068
963.105
979.287
975.398
978.393
980.224
977.054
986.032
984.184
979.658
983.741
994.701
986.129
997.743
996.436
1002.532
995.195
998.781
995.856
995.244
1003.449
1014.179
1009.027
1016.184
1009.251
1010.931
1007.970
1010.979
1019.162
1022.573
1016.665
1023.554
1026.612
1033.825
1027.137
1034.099
1036.435
1034.052
1044.675
1038.032
1047.169
1036.064
1050.840
1049.874
1052.110
1051.719
1055.044
1058.469
1048.425
1062.617
1059.248
1063.966
1064.519
1063.233
1070.058
1067.295
1071.033
1073.728
1074.364
1070.899
1071.567
1076.531
1081.725
1088.199
1086.750
1091.037
1080.954
1082.082
1087.458
1094.767
1097.949
1103.414
1095.535
1103.907
1108.304
1097.512
1100.210
1101.401
1111.827
1115.105
1105.387
1113.218
1114.037
1110.476
1105.762
1108.810
1105.522
1093.998
1105.057
1099.009
1090.261
1085.225
1094.506
1082.200
1093.140
1086.951
1076.725
1076.029
1074.162
1070.219
1067.939
1069.233
1071.924
1072.228
1073.841
1072.579
1066.208
1064.678
1063.632
1050.647
1064.232
1058.150
1047.791
1055.315
1051.866
1048.594
1044.105
1047.167
1049.562
1032.843
1033.643
1036.894
1031.969
1026.664
1029.528
1024.038
1021.130
1020.318
1028.113
1027.864
1017.472
1024.302
1020.703
1019.408
1010.469
1005.589
1012.523
1000.205
1012.065
999.137
1002.910
992.611
1002.714
997.590
998.040
989.067
985.185
985.223
989.134
987.671
983.457
980.389
977.020
973.776
977.119
971.495
972.248
976.119
964.534
973.467
970.744
958.459
962.000
953.482
959.741
953.148
944.962
945.441
951.679
940.294
949.255
939.291
936.292
946.339
931.865
930.743
938.198
925.893
932.976
923.192
926.215
919.507
917.925
916.420
918.577
915.869
909.278
910.380
913.718
912.122
904.061
909.273
909.499
908.326
906.552
897.625
903.981
889.327
896.026
897.893
892.797
893.884
881.436
878.062
879.353
879.447
876.836
874.234
871.416
878.342
871.588
876.436
859.989
865.813
870.299
867.186
859.760
852.821
853.263
846.363
848.824
843.570
843.004
849.241
842.164
841.127
840.083
831.768
839.980
839.977
828.150
825.419
836.936
825.725
831.206
823.420
816.296
813.207
825.138
815.028
818.026
805.466
809.744
812.849
808.048
811.219
797.392
809.291
798.261
791.229
793.962
802.077
790.954
783.720
797.159
784.788
784.212
785.960
777.228
780.720
771.313
781.783
773.926
779.923
762.784
771.200
769.316
759.869
770.367
760.334
758.665
761.512
759.865
751.060
753.904
756.718
756.369
739.003
744.949
750.710
734.433
734.285
738.906
745.174
746.509
739.842
743.178
750.365
743.803
745.710
744.944
746.203
747.107
753.115
761.177
762.653
753.773
761.629
763.243
758.084
762.489
766.414
767.624
769.721
762.304
769.503
761.979
774.028
770.938
763.786
761.919
766.246
762.783
770.221
778.620
770.210
767.607
767.780
772.797
775.595
776.480
776.448
772.310
776.204
779.337
787.487
775.689
786.772
792.384
779.327
794.762
794.356
786.440
792.141
784.811
794.757
798.926
792.914
789.981
802.183
789.600
794.260
801.560
802.756
795.093
803.387
806.639
797.504
798.745
799.988
808.227
813.573
810.273
805.760
814.043
804.070
819.523
819.110
817.089
821.385
819.361
820.101
821.284
815.088
818.968
823.693
828.818
821.954
825.897
819.206
819.882
833.383
834.215
824.025
831.631
837.116
831.475
826.984
826.648
837.070
833.632
840.383
830.296
840.848
835.649
837.213
840.982
836.522
842.627
839.751
843.639
845.169
850.645
845.404
846.117
843.840
854.726
850.629
844.246
847.547
846.560
852.660
849.014
858.389
853.383
857.105
857.081
854.183
857.820
863.366
860.845
856.101
859.282
867.397
869.528
860.302
859.459
863.255
862.447
868.402
875.774
863.906
880.666
881.570
874.620
878.150
878.330
875.794
884.488
879.000
886.084
879.943
879.976
885.927
878.009
889.843
880.926
881.844
895.042
887.441
885.609
896.332
894.012
899.368
894.793
887.687
888.413
889.316
894.209
901.303
893.538
901.054
896.087
905.052
902.542
896.318
900.655
902.848
906.709
909.450
901.804
912.691
914.849
905.212
919.815
905.694
919.503
916.746
912.348
910.597
923.193
923.784
926.110
919.483
919.860
925.981
928.417
931.552
930.627
919.178
925.230
930.073
919.934
934.393
930.798
920.100
925.662
921.411
923.186
931.181
920.607
920.570
922.644
923.094
918.458
932.161
933.539
923.589
931.800
931.307
920.677
928.132
924.502
925.588
921.274
926.322
931.228
922.987
933.306
931.334
921.164
929.720
932.907
924.042
917.625
918.810
924.004
920.595
924.583
921.103
921.324
921.834
925.546
931.467
927.245
923.788
929.580
920.966
924.321
920.823
919.337
923.619
930.402
921.639
927.446
927.741
931.495
931.919
922.233
928.445
922.542
916.621
932.045
927.175
920.298
931.274
917.960
917.843
931.686
916.686
920.344
928.830
924.804
915.865
921.207
921.116
917.895
925.570
926.290
917.078
917.819
926.064
928.973
923.425
917.915
922.601
927.960
929.860
923.820
916.330
916.750
916.795
924.939
924.826
924.505
920.245
922.937
925.201
917.740
919.815
927.840
921.122
923.734
921.597
920.089
926.418
926.755
915.958
924.368
930.267
920.892
926.667
921.752
919.504
925.123
924.478
915.246
927.299
926.311
915.591
915.180
915.389
919.060
922.565
925.154
916.441
918.158
921.936
926.063
926.569
922.928
928.660
922.281
920.407
929.380
921.608
917.483
926.199
924.012
916.009
924.094
917.707
924.131
922.287
915.251
920.051
927.063
923.133
920.233
916.443
918.136
925.664
913.053
922.609
915.216
917.392
925.058
925.908
915.814
922.881
915.335
927.500
924.353
924.645
914.073
920.856
919.906
915.008
913.983
915.997
917.090
925.853
912.294
917.375
920.016
926.714
923.249
916.314
923.380
919.236
920.757
924.180
911.672
925.358
914.774
915.496
915.887
917.844
915.199
913.781
916.076
914.251
925.587
912.399
917.273
912.191
925.520
923.084
923.845
921.380
914.637
915.650
919.036
914.813
907.967
916.320
911.099
912.803
910.879
898.597
910.123
908.438
897.311
897.593
895.307
895.774
896.772
902.424
886.029
886.392
888.910
890.196
888.277
893.653
886.124
889.579
880.479
878.085
872.921
885.077
883.293
871.689
878.029
877.124
877.003
872.207
865.546
870.992
869.551
854.958
858.082
864.667
861.857
859.320
849.565
849.690
855.356
857.247
847.427
855.655
841.942
839.589
848.085
848.363
845.350
837.676
833.225
831.924
842.090
836.402
831.054
837.427
827.164
825.694
826.766
832.633
829.137
815.621
825.820
818.224
821.538
810.588
807.685
810.019
809.075
804.304
811.226
806.141
801.182
807.530
807.606
798.455
808.949
796.413
802.999
801.805
801.126
801.832
799.968
797.524
790.120
783.063
782.911
793.078
775.977
781.996
781.253
771.543
781.815
782.817
774.583
768.410
767.824
770.230
763.733
770.772
761.420
764.934
769.062
762.552
757.438
766.492
751.072
752.786
750.606
751.460
753.498
753.769
749.619
754.387
739.685
739.404
745.540
746.742
735.565
740.938
732.422
736.076
740.826
739.152
732.252
722.654
732.436
733.097
722.356
716.968
725.123
721.338
717.831
726.526
724.512
719.991
713.798
713.220
711.673
710.061
706.247
706.044
700.899
697.399
711.121
704.041
701.491
705.200
691.167
693.883
692.431
687.792
691.305
684.489
683.224
684.746
687.559
686.548
677.752
675.009
677.593
675.436
680.504
677.097
673.040
679.947
677.828
674.656
672.501
659.710
658.850
665.107
659.367
662.202
660.247
660.507
662.330
652.011
662.285
660.388
655.955
652.714
647.498
653.004
641.177
641.404
643.822
642.488
634.357
631.968
635.693
637.061
641.498
626.362
630.804
631.491
631.343
631.526
636.021
642.157
641.082
633.540
639.570
634.717
633.981
642.669
636.697
642.986
638.581
635.807
643.821
647.167
650.054
636.900
640.965
643.983
641.937
650.522
642.625
654.443
647.868
650.554
644.503
658.394
653.229
648.638
651.613
660.077
651.656
653.030
657.702
655.009
656.673
664.626
664.102
661.665
661.219
657.979
669.993
658.797
659.108
665.916
666.059
672.684
672.881
673.793
665.082
670.598
668.333
677.402
663.943
677.442
677.375
679.827
678.633
670.002
675.544
677.637
675.293
670.856
677.539
671.590
681.446
677.371
680.738
685.590
687.447
677.731
689.439
692.191
687.219
680.058
685.155
690.615
681.249
690.259
682.902
688.494
685.538
684.345
686.671
692.012
688.803
688.613
696.722
691.981
699.075
691.293
694.322
704.281
696.471
704.525
702.430
703.016
707.777
703.428
710.057
705.034
704.856
712.508
709.467
709.185
708.913
703.575
713.621
705.841
717.140
714.743
708.075
712.387
707.815
710.243
717.333
716.981
711.800
722.315
725.186
714.929
726.731
716.815
720.042
723.721
720.324
717.275
730.405
719.282
720.528
728.504
725.109
724.241
730.007
731.446
731.910
726.177
725.599
735.836
735.509
729.312
739.277
729.153
733.621
740.804
733.925
741.430
734.092
745.439
732.011
740.675
740.393
748.259
746.221
740.447
738.140
751.012
745.644
752.223
746.151
745.844
744.649
755.550
753.476
754.734
757.656
755.135
744.361
755.569
748.395
755.351
752.374
749.992
752.950
751.431
760.824
756.844
757.614
752.532
757.397
761.069
760.702
763.890
758.749
755.669
763.579
771.476
759.583
760.200
759.890
764.441
769.112
775.317
767.747
773.076
778.440
774.896
769.453
767.810
775.804
769.244
768.253
758.504
769.516
769.007
762.029
760.196
756.525
758.288
748.455
748.204
756.180
744.694
744.370
754.463
749.134
753.333
749.508
742.118
742.574
742.786
737.896
733.938
742.010
728.140
738.794
728.392
724.797
735.741
724.040
720.884
721.613
715.622
715.242
727.103
721.069
711.886
718.147
715.101
706.040
712.308
712.439
710.533
705.706
709.384
706.171
708.210
700.020
701.499
705.500
697.713
703.034
688.251
693.100
684.426
689.181
691.489
688.367
691.954
681.928
678.141
681.129
679.735
681.591
684.767
682.104
676.711
666.535
676.295
669.285
664.182
675.998
662.331
659.638
664.206
669.645
660.520
667.468
652.844
664.431
653.580
653.614
649.562
646.641
651.784
644.920
641.566
651.988
652.102
642.156
638.443
646.913
646.051
631.223
627.769
637.007
628.613
631.267
625.733
628.149
620.002
628.254
617.034
627.967
615.560
626.012
621.639
612.954
622.630
622.214
607.617
608.023
605.716
603.473
610.627
601.687
612.300
600.127
602.640
607.162
602.757
599.748
595.475
592.307
590.462
597.024
597.026
589.832
581.747
590.695
585.764
591.134
583.375
585.520
577.452
573.951
569.198
576.601
576.239
570.036
578.497
568.826
571.465
572.989
561.224
557.119
554.627
566.862
555.138
551.080
558.653
562.500
548.686
548.148
556.983
549.801
542.143
542.987
553.397
551.373
547.267
542.972
534.755
542.251
529.740
532.136
529.037
536.375
537.590
528.522
525.883
533.545
520.990
520.508
526.100
519.078
519.717
520.847
513.508
513.154
513.067
506.768
507.831
504.785
513.919
515.587
502.893
502.444
500.170
500.881
507.126
491.793
502.445
502.116
498.439
487.807
498.263
