580.777
576.098
575.819
568.064
580.057
584.851
584.939
572.961
580.029
584.409
589.214
586.950
577.904
591.672
577.253
584.558
578.350
583.620
593.220
593.452
586.180
588.142
594.973
591.301
596.474
592.547
588.168
602.416
592.240
597.823
603.247
601.552
595.904
602.690
604.368
598.375
606.825
606.545
611.216
612.765
604.630
609.312
611.388
603.170
604.308
610.091
616.600
605.574
613.015
620.196
612.767
611.377
608.759
610.854
615.063
624.354
624.074
622.006
619.150
623.519
622.871
617.898
629.332
627.370
627.292
629.350
623.915
636.430
631.726
634.274
636.131
626.821
629.402
635.143
640.768
635.124
632.523
630.891
637.345
640.262
644.652
637.040
635.895
648.876
646.655
651.443
652.302
652.432
648.038
651.223
648.533
643.698
642.369
650.869
658.316
648.583
660.139
660.468
652.906
660.614
655.275
658.995
666.335
664.798
653.835
666.606
654.117
669.625
663.721
656.627
672.962
668.800
663.386
662.257
666.853
667.084
663.607
673.598
678.460
672.621
669.822
676.906
676.003
671.026
674.078
683.877
683.352
683.395
681.325
674.135
680.041
682.369
687.716
691.923
681.823
681.701
689.020
694.317
687.846
686.091
687.077
698.810
697.531
698.587
690.280
687.969
693.143
688.566
701.228
694.366
702.242
697.789
694.316
700.900
699.531
708.826
703.792
712.025
705.870
712.542
714.786
709.262
714.576
712.040
707.430
711.269
715.521
716.544
709.149
713.381
717.990
717.240
724.358
714.569
715.672
722.167
721.527
720.793
717.706
721.186
730.140
722.063
721.191
733.359
730.232
722.457
737.131
733.102
732.349
724.674
729.961
729.877
740.233
734.801
729.889
744.325
743.932
733.729
739.099
739.746
744.012
737.032
738.731
749.163
750.062
741.594
756.139
755.131
748.442
758.315
756.878
757.662
767.901
756.515
769.754
771.903
765.879
761.124
774.753
770.459
773.328
774.296
768.403
780.330
772.350
774.098
778.075
783.552
787.814
782.112
793.310
782.136
791.583
789.533
791.180
797.641
794.789
806.514
808.165
807.058
807.557
800.490
815.451
809.203
817.651
818.799
810.011
809.178
809.881
812.864
814.862
817.754
823.796
825.332
827.431
820.283
826.955
825.555
832.081
840.723
842.423
836.745
842.324
833.634
840.049
842.293
845.592
842.261
846.271
850.547
853.551
846.195
858.652
853.970
856.743
861.017
864.580
866.150
856.940
863.462
874.908
871.236
878.352
872.044
872.536
870.456
869.552
877.815
876.648
883.542
884.733
887.426
891.664
889.713
886.279
893.796
898.805
897.503
896.966
893.574
894.619
907.732
901.360
897.143
898.677
912.113
913.068
912.418
908.876
911.568
910.542
909.418
922.461
919.218
913.663
918.200
920.576
922.232
935.063
921.631
923.480
928.620
936.218
927.830
934.700
931.349
933.016
934.347
940.820
942.161
946.245
949.327
947.904
953.800
960.972
953.000
956.404
959.044
956.717
957.685
964.116
963.312
968.394
970.693
973.968
972.378
978.259
971.934
969.144
973.984
984.730
980.750
985.470
984.261
983.536
991.712
987.129
983.203
996.867
991.576
1002.256
989.003
1001.490
997.925
995.903
1004.636
996.182
1007.711
1014.867
1010.018
1017.291
1010.205
1020.466
1013.808
1022.527
1018.161
1012.177
1013.669
1018.991
1027.894
1028.743
1024.786
1030.356
1034.907
1024.507
1028.863
1029.845
1044.825
1036.031
1033.041
1035.026
1041.406
1044.811
1048.744
1052.655
1055.721
1043.625
1051.492
1061.465
1054.661
1058.818
1065.071
1051.265
1050.604
1058.826
1056.752
1054.409
1062.338
1050.572
1057.217
1051.516
1061.154
1061.501
1060.086
1052.735
1065.236
1061.198
1058.819
1058.204
1053.687
1063.847
1056.092
1053.895
1052.811
1066.443
1061.273
1057.778
1058.044
1056.369
1061.557
1057.529
1063.442
1052.533
1062.887
1054.192
1053.222
1063.671
1058.595
1067.102
1055.509
1067.030
1055.945
1058.083
1058.168
1057.405
1066.672
1063.760
1065.759
1056.460
1063.960
1054.857
1061.363
1058.600
1058.845
1063.213
1065.222
1062.729
1055.209
1053.306
1068.788
1059.774
1069.055
1061.045
1060.177
1064.838
1063.140
1060.467
1059.863
1058.830
1064.244
1063.337
1054.710
1067.873
1054.129
1056.980
1057.057
1068.435
1064.449
1061.718
1057.242
1066.404
1062.534
1065.916
1061.709
1059.897
1065.304
1056.301
1069.044
1068.044
1056.307
1070.430
1064.554
1066.451
1058.048
1066.594
1062.267
1068.329
1065.382
1059.911
1065.770
1069.703
1071.416
1057.056
1058.057
1055.784
1070.908
1057.253
1059.123
1071.770
1069.048
1062.014
1059.967
1058.357
1068.131
1068.840
1063.711
1059.404
1069.341
1062.707
1070.346
1065.852
1067.035
1066.309
1072.007
1068.009
1059.424
1064.104
1067.905
1061.114
1070.791
1062.394
1058.192
1072.517
1071.988
1065.113
1072.070
1066.127
1066.704
1064.053
1064.563
1064.419
1058.897
1069.652
1073.671
1062.971
1058.374
1059.164
1068.877
1060.266
1061.912
1073.209
1070.817
1068.804
1073.441
1059.272
1070.058
1069.104
1067.305
1072.009
1069.808
1070.556
1068.843
1070.628
1067.826
1060.371
1061.550
1066.236
1068.073
1062.220
1070.663
1073.354
1068.285
1066.171
1072.682
1070.840
1068.387
1073.534
1068.661
1062.135
1071.992
1071.389
1064.651
1066.870
1063.370
1064.231
1061.196
1066.942
1061.051
1068.864
1066.563
1067.013
1066.073
1071.615
1075.756
1062.703
1069.535
1072.370
1071.379
1075.693
1070.311
1072.544
1066.938
1070.529
1068.266
1059.999
1059.427
1061.664
1065.992
1056.813
1064.468
1062.812
1059.442
1053.958
1051.253
1050.205
1056.312
1045.599
1055.238
1043.293
1048.759
1042.581
1053.734
1043.622
1036.697
1040.798
1035.769
1047.855
1047.333
1040.412
1038.357
1031.097
1032.250
1041.918
1033.254
1027.068
1024.823
1026.944
1034.789
1025.390
1022.809
1027.596
1019.327
1021.269
1025.677
1020.211
1025.274
1013.292
1025.892
1010.915
1012.209
1015.967
1020.726
1016.783
1010.697
1013.046
1010.467
1001.070
1014.814
1003.486
1005.387
998.603
999.612
1004.467
997.520
993.044
1004.253
999.803
998.539
989.629
999.369
991.431
993.183
997.386
992.628
996.368
991.976
989.892
982.683
984.258
984.712
975.873
984.279
986.469
985.273
976.070
974.426
977.733
967.680
980.457
966.975
974.265
978.067
975.188
966.120
964.931
969.693
972.390
965.890
957.592
957.405
967.236
953.068
958.145
954.050
956.010
953.713
954.911
959.106
946.620
947.106
943.670
948.340
941.698
946.664
939.918
950.928
949.645
948.194
944.858
941.769
936.993
941.836
936.546
933.541
933.235
926.083
937.599
923.806
935.531
928.836
935.231
924.849
931.877
932.018
919.202
923.449
927.253
927.688
913.731
910.910
922.154
912.484
917.221
912.962
906.410
911.932
906.772
911.899
909.022
907.863
905.412
899.362
903.269
906.971
908.277
908.314
896.418
900.072
893.358
901.205
896.987
895.316
899.254
891.427
885.160
887.763
889.964
887.233
892.539
889.582
879.508
888.139
890.103
881.193
883.070
873.320
871.103
876.459
873.161
874.274
869.999
866.848
875.520
866.890
865.710
866.928
868.961
866.911
858.990
869.955
864.455
859.681
860.287
863.332
858.542
854.766
853.279
858.455
860.338
860.378
854.998
849.780
856.432
851.500
860.981
860.485
853.491
859.174
852.816
858.581
860.821
864.335
853.436
851.244
855.774
860.440
853.313
851.320
858.339
863.945
858.467
860.038
858.862
855.838
857.204
865.062
864.636
854.993
868.392
856.936
856.066
869.312
869.440
859.378
871.575
861.168
861.445
860.677
859.448
858.923
861.559
867.119
872.537
862.471
871.804
866.821
871.608
871.978
870.475
865.943
871.602
871.787
878.049
876.063
865.093
877.678
875.218
873.016
879.774
876.971
867.992
880.322
878.471
869.622
869.132
872.143
877.021
874.592
881.047
880.073
872.394
878.040
881.908
883.005
872.790
880.644
886.994
875.946
876.090
885.893
879.467
885.504
876.577
890.296
879.697
888.158
889.633
890.272
886.269
887.160
887.306
890.327
878.618
884.874
892.699
894.365
880.125
891.289
886.091
889.790
886.132
895.856
892.969
886.939
892.644
896.020
895.631
887.801
884.584
898.769
886.534
885.175
899.836
893.084
889.457
894.905
892.205
888.587
897.900
897.068
895.309
900.560
897.777
891.380
889.870
889.731
896.825
902.044
893.541
893.517
898.420
896.946
900.959
894.174
904.951
893.358
894.744
902.580
906.773
907.747
895.105
906.675
902.916
901.526
904.328
903.404
901.752
909.903
903.545
909.250
910.220
905.466
902.149
913.661
910.745
915.143
912.207
902.668
907.742
905.275
902.788
915.895
909.535
918.279
911.256
918.308
916.460
907.620
915.585
906.048
909.547
913.000
912.226
922.463
909.373
921.964
910.529
912.088
924.511
923.742
919.585
922.884
925.949
913.314
918.825
920.988
917.374
927.539
922.589
917.049
922.220
924.281
913.843
920.188
915.660
922.132
928.472
925.880
917.375
927.492
931.346
916.557
922.968
924.780
923.397
918.641
929.301
914.166
913.072
913.900
919.874
919.571
926.807
913.379
917.723
911.771
921.934
924.188
916.327
911.218
913.789
912.005
911.880
914.218
906.188
914.734
904.943
905.260
908.251
915.619
911.437
915.733
907.614
911.591
908.583
915.279
906.217
899.235
900.600
902.497
903.622
907.405
905.619
909.741
896.620
898.548
899.166
909.530
906.779
893.576
896.413
904.382
900.565
898.731
893.514
902.970
898.293
903.680
893.410
902.011
902.872
891.314
886.444
899.800
899.718
897.641
885.194
884.153
895.734
894.731
893.253
895.152
896.952
892.958
894.925
882.243
882.060
886.596
893.905
881.479
887.558
881.010
891.442
887.018
879.694
878.767
877.679
889.558
880.112
873.956
874.227
887.830
881.196
875.287
880.317
882.730
881.133
878.226
883.830
882.869
872.417
872.734
871.116
880.557
881.161
869.978
876.102
868.657
870.362
866.917
868.785
868.035
865.524
870.671
870.821
867.951
860.950
867.927
866.727
859.970
870.463
869.725
864.067
869.681
862.927
856.570
862.213
868.822
866.560
863.461
867.240
862.595
864.617
861.730
854.975
865.851
857.061
852.910
856.388
855.932
864.221
852.283
858.965
855.962
859.084
860.448
852.409
849.714
853.664
845.976
849.124
852.277
851.181
843.251
842.095
848.204
849.416
849.110
845.337
854.230
852.644
848.410
845.948
852.427
839.861
837.897
840.932
838.606
846.297
838.887
842.990
845.377
836.078
840.784
832.675
833.819
832.674
837.309
836.118
829.669
839.987
843.235
842.091
833.900
828.999
831.214
830.981
835.918
836.433
830.054
824.121
834.910
829.402
827.772
824.061
828.973
835.594
831.515
825.435
823.835
824.244
832.918
828.756
823.234
828.982
828.560
824.734
822.479
831.230
833.025
827.570
822.868
832.816
835.831
836.022
823.255
834.440
835.462
832.829
833.194
834.217
835.573
839.461
828.985
830.332
826.766
836.579
834.630
828.042
830.145
832.251
831.826
836.220
831.122
841.307
838.364
842.974
831.549
835.817
841.703
834.516
831.000
838.091
842.384
846.256
841.914
844.799
838.684
847.947
833.601
847.951
847.580
848.595
834.351
842.031
839.468
844.592
845.895
841.385
847.956
841.231
836.311
847.848
839.462
849.823
850.845
841.217
842.986
840.180
847.848
853.344
843.597
845.444
848.475
843.698
855.372
840.199
848.771
841.837
850.474
848.288
848.900
855.059
852.134
854.434
844.971
843.606
857.693
851.587
855.983
856.962
849.931
859.557
851.625
851.753
847.330
852.543
847.405
847.170
846.365
853.428
858.468
847.862
859.575
853.259
862.147
853.947
853.207
860.527
852.978
861.026
852.173
852.412
856.997
857.332
863.708
857.756
861.941
857.162
855.497
855.942
853.824
864.550
868.169
860.675
858.265
864.818
858.209
865.276
857.897
863.147
869.461
859.110
870.419
870.469
868.931
865.170
871.930
859.491
864.666
864.493
869.645
858.693
873.222
869.199
862.996
867.925
873.448
872.743
871.250
873.690
875.314
867.547
862.250
874.398
869.036
865.441
874.877
868.647
877.295
874.666
876.294
867.314
875.991
879.198
866.965
867.645
865.853
880.139
871.574
878.630
869.231
868.529
870.605
873.350
869.410
881.404
877.959
876.578
879.862
879.763
880.904
875.388
876.288
883.872
873.196
876.072
870.237
886.296
871.018
874.887
874.419
885.626
883.650
885.572
882.931
877.784
874.133
875.169
887.542
880.568
889.297
883.300
888.531
877.150
882.142
887.222
885.533
886.622
888.575
889.221
885.207
892.887
895.261
887.520
894.603
895.932
891.780
889.899
898.359
891.035
892.603
892.649
887.458
893.368
893.532
898.548
889.876
894.194
890.377
904.432
891.183
900.676
905.777
893.227
900.846
893.099
905.213
901.972
902.555
903.126
907.617
904.082
904.723
901.607
901.426
900.905
898.036
906.345
907.351
905.202
909.299
914.016
907.441
915.612
903.903
915.131
903.781
915.364
910.669
916.691
916.366
906.662
914.159
908.283
914.039
912.717
922.130
911.615
918.670
912.885
911.637
918.131
915.737
914.746
912.427
923.780
916.254
921.342
919.118
929.441
922.571
917.483
923.233
918.250
927.205
924.863
919.376
928.018
928.920
928.240
924.587
922.850
925.616
934.436
929.763
932.713
937.795
928.608
931.664
934.066
929.153
929.995
927.481
931.528
936.707
928.057
936.741
943.724
934.912
933.049
942.328
942.749
933.524
933.086
940.599
937.972
941.033
946.928
941.859
938.466
940.785
951.694
937.301
937.858
937.425
951.263
948.574
946.950
946.092
944.083
952.957
947.603
950.906
945.982
949.391
953.260
948.188
954.290
951.654
953.376
949.289
961.048
947.275
954.743
953.980
958.819
961.580
953.912
954.927
955.963
951.232
963.340
956.732
965.516
953.671
954.503
967.178
955.032
969.642
965.903
962.148
956.632
972.558
957.893
964.042
973.028
964.316
969.968
972.700
972.296
964.287
969.440
964.536
970.983
964.684
975.133
969.005
967.758
970.883
974.720
977.248
967.635
973.681
983.245
975.004
980.706
970.124
980.059
977.642
985.169
975.611
976.626
976.197
973.811
986.543
979.231
978.877
978.603
981.782
986.059
979.409
979.007
979.794
983.858
974.008
982.042
987.581
973.124
980.124
980.261
979.462
976.407
974.827
982.389
986.074
984.180
979.758
982.851
973.024
976.603
974.149
972.954
968.656
980.540
968.096
973.961
971.366
982.661
978.474
968.374
967.327
970.852
969.160
975.246
974.271
967.925
968.941
969.363
965.997
967.877
976.015
973.391
976.151
973.898
976.584
964.239
972.278
963.906
974.520
962.411
972.998
969.420
971.359
962.079
973.365
969.006
968.309
973.230
966.315
961.108
972.365
972.288
972.135
967.534
967.592
969.340
966.394
965.096
969.732
961.337
965.889
961.975
966.820
960.727
963.175
964.670
962.912
955.552
960.069
957.724
962.515
961.419
956.111
960.641
964.667
965.717
959.840
961.969
949.739
959.912
960.651
950.171
948.786
962.040
947.843
957.965
961.553
960.341
947.953
959.717
954.072
960.374
959.979
955.011
950.228
959.500
952.210
955.299
944.461
952.119
952.825
948.891
950.997
950.967
952.062
941.926
948.983
956.306
943.817
947.218
943.340
943.098
942.299
950.174
950.318
942.778
945.400
945.730
944.008
952.884
945.228
943.753
946.165
939.011
946.273
937.444
935.490
950.734
948.311
946.206
939.162
935.457
938.143
936.577
938.857
943.288
932.875
944.768
946.865
944.284
937.115
944.934
943.618
938.797
932.123
934.723
938.077
942.988
936.585
941.419
943.960
937.332
932.191
932.361
938.225
928.736
929.922
929.670
932.884
927.181
941.082
933.480
938.530
927.924
937.986
928.362
931.013
928.584
937.563
931.653
925.301
937.856
926.744
924.188
935.587
932.735
931.432
928.920
935.579
934.615
921.818
927.294
922.815
926.142
923.448
931.187
930.936
930.799
923.031
922.655
916.856
919.302
921.901
925.348
912.174
923.125
914.975
907.627
914.507
906.378
905.774
912.645
916.926
901.915
911.484
907.961
897.198
895.804
906.360
893.655
897.393
900.515
900.651
901.505
888.092
895.285
891.025
897.423
889.992
891.077
893.952
890.601
892.451
882.678
877.058
878.893
880.502
881.489
877.208
869.551
871.912
881.575
875.814
875.769
870.302
862.521
869.406
865.912
871.296
864.915
860.454
857.504
862.561
861.567
855.474
858.078
852.493
862.562
849.882
851.539
855.357
849.310
845.936
841.167
854.875
850.609
844.242
841.178
845.771
845.115
841.367
833.520
837.549
833.193
837.044
842.789
834.721
840.242
825.613
823.046
826.800
823.036
831.481
827.163
818.495
824.902
818.397
820.003
817.515
813.340
815.626
820.042
812.100
807.360
805.468
816.121
807.415
816.686
806.804
803.990
806.733
804.878
802.325
799.893
798.449
807.065
798.766
791.739
790.611
796.128
789.132
794.034
789.911
784.253
781.555
782.115
781.765
792.561
790.301
786.225
779.711
772.762
775.342
774.745
779.310
772.995
770.559
776.624
768.449
774.962
768.509
767.636
769.863
759.907
765.760
771.077
755.804
761.655
759.616
753.512
759.084
762.240
754.577
748.851
752.617
748.130
745.734
747.271
746.786
744.313
751.749
751.575
740.870
746.985
740.170
744.758
733.707
742.982
744.239
734.340
730.128
738.801
733.516
735.619
727.420
734.986
721.494
725.366
717.862
726.889
724.545
720.953
717.285
716.887
719.147
710.574
717.288
719.665
715.896
710.166
715.634
713.230
713.157
704.196
698.630
707.151
699.056
703.808
703.735
701.931
695.465
691.784
703.504
699.487
689.787
697.294
687.072
685.079
692.330
