124.981
119.634
126.246
130.449
130.300
133.017
128.029
129.013
132.906
134.962
141.451
134.594
145.141
134.650
134.676
149.361
141.171
145.341
139.752
145.204
155.352
151.533
151.579
147.320
151.000
152.153
151.463
154.027
160.690
152.460
156.486
169.890
167.025
165.971
167.997
168.733
169.710
166.734
164.452
178.467
178.272
171.122
182.005
175.902
180.644
178.325
175.796
187.871
182.533
182.780
191.530
192.362
191.766
190.389
183.961
185.421
197.841
187.920
191.055
190.464
197.717
194.584
198.508
204.959
202.940
199.358
205.117
200.817
207.958
210.789
215.088
204.244
208.424
208.497
220.711
217.345
220.663
223.249
221.761
222.577
220.746
226.613
223.954
220.479
219.651
230.467
229.529
225.995
228.818
233.377
234.308
237.356
237.575
233.587
241.109
237.584
243.644
240.173
237.425
248.440
238.179
252.449
247.055
242.096
242.528
253.091
252.830
256.887
250.889
253.832
249.292
249.520
250.730
253.805
253.855
259.116
267.949
269.788
260.992
259.729
272.323
275.653
275.794
268.845
274.727
281.826
280.075
274.072
273.845
280.408
282.151
277.889
276.009
283.567
289.632
290.079
283.173
280.945
288.181
287.083
298.519
287.287
293.665
291.970
291.852
290.154
295.831
305.893
294.479
296.973
310.769
311.236
300.084
313.051
308.228
315.063
304.483
316.353
307.475
308.164
308.466
321.293
324.504
315.663
324.396
320.888
315.797
319.870
329.136
320.749
335.718
331.975
330.501
335.290
337.825
337.096
327.222
338.103
336.358
331.357
337.961
334.994
348.761
342.678
346.573
348.948
347.625
355.174
351.746
350.286
349.602
346.455
357.045
356.275
348.613
359.388
364.685
363.129
358.120
362.860
363.629
369.320
367.812
359.543
367.878
368.151
366.153
366.390
365.467
375.631
366.370
370.455
377.727
372.481
368.783
382.569
378.044
382.519
379.670
382.304
370.322
379.373
386.985
381.317
374.122
383.274
387.976
385.896
390.932
383.060
393.169
382.138
386.238
391.610
387.316
388.399
396.122
387.319
389.397
387.906
390.708
386.954
389.405
397.773
394.472
401.829
391.233
396.293
404.140
400.433
400.127
402.263
393.847
407.618
410.990
400.055
404.810
412.473
405.687
404.450
400.918
411.563
416.017
410.282
406.876
411.043
411.159
415.274
419.248
411.142
415.239
408.519
415.319
421.359
423.318
422.414
412.747
428.072
414.188
414.613
419.078
419.230
420.994
431.777
421.139
428.559
427.625
432.881
420.459
429.509
422.399
431.432
428.720
424.558
436.365
437.943
434.870
434.991
441.449
436.869
431.218
442.504
445.072
445.341
432.681
442.525
434.529
447.319
447.797
447.899
452.157
446.750
452.551
444.424
443.121
451.765
453.150
445.448
455.168
442.976
451.051
458.185
452.491
453.247
454.212
456.463
453.622
461.360
462.451
459.756
460.217
461.606
455.858
460.860
465.473
460.215
466.458
465.686
465.995
458.327
466.064
471.968
470.402
468.619
467.236
467.605
464.760
469.068
476.994
469.562
479.203
481.507
481.164
475.682
478.423
471.874
475.886
477.307
486.759
481.131
479.786
477.668
475.687
480.721
483.342
488.499
487.691
487.717
483.582
489.512
482.109
492.709
495.726
489.590
497.432
490.102
486.297
492.593
498.319
492.755
503.533
500.699
501.340
502.028
502.661
506.241
501.196
504.418
494.242
497.759
509.687
501.274
509.789
511.676
502.865
511.270
503.855
501.585
512.928
508.802
517.259
517.317
510.028
510.000
527.090
528.563
521.537
524.828
527.674
523.284
531.766
541.846
534.592
544.365
536.340
550.920
548.240
556.997
544.973
554.840
561.326
556.782
559.604
559.378
572.957
561.465
573.551
578.182
579.051
577.053
574.384
586.554
579.033
583.378
588.009
587.513
585.786
594.630
597.089
606.281
604.531
596.838
602.233
604.027
614.139
615.611
619.965
612.893
620.216
615.265
621.076
631.588
621.228
634.893
629.542
637.792
630.959
640.556
635.102
637.847
642.125
656.777
653.271
657.281
661.017
666.928
666.960
670.891
660.269
661.079
669.577
666.010
669.158
682.624
687.497
688.724
690.842
689.553
688.072
686.673
690.717
690.591
700.287
698.128
697.008
712.610
703.150
713.683
717.955
715.161
712.188
715.370
719.366
730.642
724.123
722.356
735.030
734.885
734.469
741.228
743.741
737.261
736.927
739.476
753.878
751.876
758.488
750.661
760.303
765.153
763.736
758.189
765.566
772.551
769.537
766.985
770.855
771.201
786.265
781.194
785.980
785.787
794.429
783.913
790.160
792.982
804.836
803.111
798.564
799.680
799.653
813.753
819.216
808.806
814.783
823.773
819.426
821.918
825.888
825.574
833.029
825.340
835.563
834.055
834.114
840.809
839.693
850.361
841.744
850.777
856.258
849.458
863.859
859.887
859.062
858.213
871.184
875.291
863.966
868.040
878.996
885.653
873.718
877.929
877.710
879.808
882.985
894.011
900.620
895.072
895.596
895.342
906.027
902.848
913.540
907.573
905.181
909.350
914.389
917.055
923.186
924.628
928.321
926.164
924.253
930.469
928.311
936.217
947.557
942.727
940.431
945.042
956.063
945.552
960.923
955.230
957.864
958.882
968.303
959.108
960.081
968.141
968.426
958.677
967.817
956.755
965.256
952.508
961.421
955.734
949.123
948.704
943.111
948.932
949.895
939.456
951.892
940.717
948.208
947.747
943.899
938.957
934.097
926.939
932.157
935.446
922.174
933.612
926.100
923.723
929.141
924.467
921.891
925.072
919.407
914.721
916.573
912.578
914.730
911.426
910.340
912.274
908.191
908.165
897.896
906.772
896.653
906.401
892.923
896.409
902.126
888.286
890.721
888.497
887.271
884.475
878.066
879.870
878.561
873.358
874.555
878.741
876.430
868.116
868.876
868.738
867.685
862.805
873.212
859.998
869.002
865.268
856.169
865.749
862.408
864.227
861.532
851.991
856.920
850.033
855.265
849.199
840.442
841.122
844.869
848.807
837.814
844.847
836.674
834.612
828.536
840.777
836.169
825.628
827.670
820.495
822.301
830.455
829.532
816.967
816.428
820.466
822.738
816.813
811.863
809.469
820.048
816.533
801.801
800.702
799.153
806.350
802.037
800.744
799.304
791.357
796.536
800.627
792.345
795.666
795.902
793.086
796.260
780.623
793.549
785.742
778.476
787.808
783.896
786.487
782.370
782.913
774.021
767.891
769.741
777.450
760.930
759.854
766.661
761.562
755.133
762.507
760.027
760.695
759.183
747.738
753.239
749.175
743.596
749.465
750.902
740.499
751.252
743.542
746.022
741.102
743.088
738.538
740.093
730.121
729.754
724.861
727.739
725.275
730.104
721.538
719.032
719.878
720.469
726.837
716.124
710.620
710.990
712.882
705.154
703.432
708.511
704.852
705.884
705.340
703.729
702.908
701.933
694.925
691.658
699.267
702.936
687.411
690.095
696.115
695.220
688.127
688.376
678.386
684.680
689.499
675.987
677.592
674.562
680.355
677.283
683.153
671.472
675.043
670.781
677.462
685.154
676.130
685.964
675.094
685.740
678.471
682.963
684.974
687.922
693.234
692.909
694.898
693.893
688.882
684.075
695.741
697.131
689.368
700.965
696.872
701.150
701.159
699.308
705.259
702.870
699.616
706.134
694.289
698.892
700.502
707.958
702.602
711.534
707.865
706.293
706.818
714.661
711.453
706.397
712.484
710.802
715.366
719.018
717.122
719.920
720.753
710.291
717.162
715.383
713.292
712.224
716.786
714.270
724.877
721.560
726.621
718.083
728.774
732.563
735.004
728.447
726.887
726.518
728.160
736.050
736.905
731.122
733.299
740.219
737.405
742.906
744.741
735.033
731.918
743.277
741.323
743.752
736.068
737.071
736.026
741.323
744.433
745.078
751.693
745.226
748.090
742.242
755.206
752.465
757.610
752.567
754.184
754.378
747.533
761.894
751.884
751.085
755.674
761.504
759.480
766.452
761.797
765.177
765.222
762.198
760.566
761.157
766.091
773.029
764.254
769.956
774.668
774.836
770.790
779.046
772.192
775.833
768.902
774.587
775.912
784.667
772.836
783.853
785.971
787.847
774.309
774.159
786.843
780.474
789.876
791.308
779.210
778.956
786.144
792.884
782.756
795.714
787.171
793.199
797.448
786.232
791.556
789.531
801.858
789.992
802.532
793.328
805.125
803.295
799.070
796.923
805.775
808.174
809.555
807.977
803.281
808.193
799.816
803.842
814.761
807.642
802.690
806.781
813.225
816.297
820.676
808.977
812.138
819.269
815.028
810.784
822.296
825.879
815.176
823.384
819.337
814.921
827.806
826.793
819.731
830.726
830.252
830.040
833.091
835.396
825.251
825.101
825.534
838.910
830.838
826.343
826.471
832.834
841.613
835.766
843.716
845.104
842.689
845.283
836.076
846.520
840.473
842.992
837.215
840.965
840.555
836.009
840.884
841.122
839.871
850.392
839.613
845.860
848.259
842.789
842.199
853.879
845.817
848.273
845.609
851.987
849.366
856.658
850.536
851.742
849.741
843.335
845.582
853.748
851.185
857.260
849.294
846.632
848.765
860.227
858.213
854.762
857.612
856.157
855.037
849.463
856.073
850.105
850.531
853.928
863.175
861.886
857.507
860.868
854.843
852.917
865.187
854.794
861.604
856.251
859.874
856.960
865.508
868.158
871.808
869.939
858.449
866.357
869.232
860.323
866.002
865.440
873.589
863.480
866.089
875.196
863.201
864.074
864.671
866.367
865.378
867.719
880.358
872.446
872.480
871.767
869.512
872.918
869.697
879.876
874.726
875.506
880.858
881.079
884.250
882.935
883.951
881.903
881.554
886.973
872.235
880.476
876.328
887.422
881.004
877.222
890.257
886.891
880.052
884.398
891.473
892.133
879.273
890.195
885.228
889.653
880.511
889.569
890.587
882.885
887.574
884.051
887.580
897.345
889.850
895.075
890.212
887.930
890.616
898.005
888.191
899.890
892.528
895.484
890.452
891.597
902.098
895.584
902.161
897.139
895.434
899.989
891.992
904.891
906.247
906.052
899.994
897.772
905.362
899.791
908.660
897.705
906.172
896.835
903.649
911.750
906.314
903.708
901.399
898.971
911.734
901.783
913.154
910.960
913.919
912.573
905.041
909.648
910.982
910.218
903.903
909.749
904.748
912.192
918.003
915.294
920.201
908.699
912.841
920.392
920.547
910.760
919.839
916.168
915.090
922.031
909.623
924.602
919.972
917.560
911.138
912.722
919.559
924.150
915.768
915.019
922.093
923.461
919.458
916.972
925.650
922.127
928.569
930.275
931.677
921.856
930.951
929.923
932.257
935.075
935.500
925.488
925.012
939.574
938.006
928.750
934.918
942.126
930.906
934.961
929.574
941.447
940.700
936.261
937.103
947.902
946.329
939.910
935.774
939.114
947.870
943.774
951.370
949.152
941.201
946.254
944.340
955.212
950.502
950.412
958.718
949.686
947.460
956.904
962.270
953.695
954.628
958.525
962.485
955.536
954.734
957.051
962.187
954.577
963.983
955.164
969.115
963.312
963.981
957.903
962.551
969.743
966.990
960.452
976.285
967.239
973.179
968.843
970.883
973.622
971.069
977.700
972.372
971.649
980.130
968.945
970.450
971.630
971.381
980.522
984.774
973.352
980.939
983.955
976.604
981.272
976.980
981.739
983.832
991.776
989.362
993.122
991.387
992.573
987.644
991.505
998.796
989.349
994.157
999.655
1001.422
1002.113
999.782
999.121
991.750
993.984
1003.648
1003.014
992.148
992.490
998.944
996.478
1003.138
1009.370
1009.345
1007.513
1007.836
1009.842
1010.911
999.575
1005.914
1003.850
1015.267
1008.421
1016.745
1011.035
1011.142
1012.725
1009.026
1012.062
1013.966
1022.310
1009.475
1015.036
1012.294
1017.948
1019.106
1022.283
1019.085
1022.673
1017.215
1015.948
1028.985
1024.175
1027.900
1030.741
1020.493
1020.149
1026.824
1020.837
1027.846
1024.925
1025.291
1023.376
1029.363
1037.485
1032.410
1034.351
1041.405
1033.317
1036.206
1032.133
1043.569
1039.360
1038.827
1035.108
1047.782
1035.255
1048.820
1047.581
1047.907
1039.786
1046.980
1049.831
1048.333
1046.429
1046.615
1055.742
1054.134
1050.276
1050.223
1048.528
1043.653
1059.586
1057.580
1061.146
1051.158
1049.926
1063.641
1061.243
1053.978
1060.714
1062.140
1057.735
1054.118
1063.710
1064.475
1060.352
1063.783
1068.251
1062.437
1056.465
1064.626
1059.238
1059.260
1051.940
1056.340
1057.716
1057.531
1051.320
1045.588
1042.530
1041.412
1050.354
1033.671
1043.698
1031.832
1040.080
1028.398
1037.905
1029.176
1036.941
1035.650
1027.282
1025.076
1024.247
1020.943
1021.941
1015.355
1011.396
1022.070
1015.059
1014.364
1010.562
1013.229
1013.183
1001.269
1013.893
999.060
1008.804
1002.151
1004.406
991.132
1002.948
995.799
996.847
996.181
990.163
985.039
992.577
979.447
986.426
977.656
974.638
983.714
982.367
975.358
980.399
980.338
977.450
971.075
963.740
969.196
968.550
960.307
956.751
965.610
954.681
956.039
957.503
951.363
951.144
954.111
953.401
943.076
947.298
948.089
953.533
945.568
936.553
935.245
946.420
937.342
943.027
928.847
928.457
932.048
937.996
933.068
922.643
926.736
925.649
922.282
928.238
928.022
911.733
919.538
921.818
921.582
905.093
914.261
906.413
907.587
899.888
907.156
906.638
901.598
894.324
900.131
905.801
902.873
901.558
890.799
889.307
890.857
892.708
883.869
878.561
887.904
885.928
886.101
879.631
879.597
884.469
873.969
878.445
873.018
870.498
867.297
864.032
861.951
869.874
861.939
867.953
866.936
851.166
863.290
855.571
855.931
852.862
851.516
846.376
850.393
852.734
843.228
846.716
836.916
841.936
832.623
842.284
830.907
830.246
841.129
826.318
822.261
822.490
825.073
818.290
826.628
816.545
827.041
819.833
819.635
809.632
817.409
819.356
815.313
806.038
802.004
799.729
798.668
799.434
796.700
806.767
801.771
802.752
795.835
792.093
795.902
798.763
785.894
789.481
780.367
784.830
788.517
776.617
789.807
775.277
779.729
780.120
780.273
780.025
770.899
779.138
774.476
772.047
763.765
773.433
765.163
760.708
767.866
767.757
759.884
762.647
765.116
757.210
759.697
756.231
763.311
751.823
754.567
755.694
755.899
747.668
748.214
746.795
758.371
755.514
752.796
751.082
749.423
741.149
751.348
750.064
749.976
748.318
750.316
744.611
740.429
741.008
747.217
736.162
746.893
737.407
736.801
733.663
732.889
732.439
738.591
729.593
730.244
741.032
733.329
737.484
729.334
734.879
736.139
736.868
734.040
733.133
720.754
720.441
725.940
723.233
718.007
728.095
716.035
719.983
727.871
715.657
712.835
720.073
714.561
724.963
718.231
717.771
710.666
719.421
710.267
720.060
718.579
712.063
709.451
715.933
717.556
710.648
701.700
706.179
703.088
713.648
706.202
710.643
701.723
705.595
699.293
696.512
705.421
705.775
704.548
694.871
706.837
705.316
697.046
699.655
691.179
697.189
702.311
701.177
686.109
689.674
688.928
698.452
693.660
684.244
695.074
695.403
681.378
684.536
681.739
693.431
689.859
690.948
686.357
681.792
687.461
676.958
678.594
672.889
681.789
685.107
684.471
681.021
673.142
675.198
675.075
675.029
670.707
679.678
670.161
674.506
664.242
673.489
663.672
664.597
669.707
665.258
668.368
662.997
663.720
661.611
666.588
668.503
668.330
665.627
666.827
663.950
659.657
665.412
651.536
659.981
664.948
657.115
658.810
654.832
649.832
651.051
653.050
650.969
650.827
656.298
658.409
646.629
656.414
655.732
651.788
654.868
653.495
643.410
644.877
644.311
638.122
645.089
634.610
640.637
638.278
642.618
638.851
635.170
640.015
641.228
641.552
642.102
630.099
641.429
634.994
628.854
630.603
637.768
634.059
625.664
633.570
622.174
625.850
626.667
628.892
628.154
628.413
625.776
629.642
620.024
617.277
625.303
631.758
620.896
634.721
634.711
634.324
639.208
627.254
634.336
643.225
639.891
631.829
635.494
633.633
645.027
638.867
647.454
638.774
646.486
648.721
650.985
642.090
649.490
655.975
656.459
646.436
659.382
654.325
657.967
660.450
654.035
659.533
658.322
656.810
655.808
670.675
662.610
673.869
670.837
664.158
670.763
668.035
672.829
671.913
677.081
672.087
674.093
683.017
673.341
674.624
687.413
684.371
690.398
684.182
680.894
687.802
688.868
684.813
696.640
694.280
686.239
689.007
699.334
701.810
692.412
696.664
703.028
697.176
705.217
709.054
708.078
709.100
702.369
699.693
711.334
713.153
714.134
715.677
705.393
705.383
713.466
713.578
721.277
713.167
713.609
719.215
727.587
714.936
730.084
727.919
728.222
726.617
723.726
728.569
729.445
724.316
725.077
725.134
736.830
726.858
743.182
738.036
731.118
737.118
741.654
742.650
737.947
736.445
745.889
740.348
741.380
745.666
744.239
745.329
758.245
746.434
756.120
756.235
757.117
752.527
764.203
754.890
756.923
767.473
769.394
769.045
764.827
761.641
761.488
759.892
763.236
771.357
774.068
767.621
767.110
771.536
766.743
780.920
772.829
770.893
782.775
785.232
779.382
783.166
790.921
780.190
786.756
787.055
781.502
789.618
784.675
795.590
786.320
798.807
788.960
799.801
799.260
800.428
797.909
796.911
794.523
800.533
803.510
802.570
805.163
812.876
803.343
800.977
805.525
802.971
810.841
819.721
821.199
808.670
821.794
818.925
810.702
817.949
819.056
822.679
825.172
827.231
818.683
825.866
833.677
828.712
829.802
833.148
837.577
825.013
832.796
841.820
839.169
844.613
836.863
832.832
839.411
844.771
