607.354
601.174
606.995
613.583
606.328
617.786
617.539
605.283
609.525
619.329
611.106
617.641
619.485
610.124
619.272
612.116
622.999
619.640
627.133
628.016
615.348
628.448
616.909
627.399
629.492
627.586
622.480
629.209
634.101
633.690
628.829
638.307
624.240
629.072
631.105
637.955
629.633
641.037
629.194
644.592
645.352
634.226
646.913
634.131
634.049
641.041
644.501
646.365
641.166
653.389
653.908
647.748
640.438
649.698
656.000
648.844
654.128
649.103
655.884
660.664
660.330
651.284
662.646
657.344
661.539
657.480
662.253
666.025
654.895
655.568
659.931
660.033
671.621
665.820
661.972
668.680
663.034
673.360
666.754
669.419
672.322
669.226
678.950
672.290
676.708
669.691
681.713
673.391
676.662
685.917
672.719
679.910
682.002
673.561
681.662
677.219
682.424
689.834
691.318
686.936
693.035
686.620
688.330
683.039
685.393
695.923
690.248
687.393
688.098
686.715
696.203
695.745
697.417
700.759
696.291
696.804
693.546
705.040
696.334
699.592
696.728
707.486
708.423
697.910
706.614
709.381
712.853
714.255
716.706
709.597
713.745
717.452
710.800
718.828
718.799
718.676
720.904
724.574
717.778
722.271
719.194
715.943
724.628
720.686
716.137
722.474
728.622
722.276
722.812
730.614
734.088
721.002
728.157
733.449
737.903
730.569
728.431
729.544
740.384
736.293
728.722
736.006
733.408
743.770
733.000
739.384
745.273
742.474
747.028
737.247
749.035
741.095
738.307
751.815
740.543
740.899
755.370
745.144
748.801
750.424
746.725
746.217
753.680
752.143
751.067
762.913
764.297
751.423
759.932
752.325
761.596
764.367
765.895
767.732
768.490
764.427
771.885
764.048
768.042
770.641
774.158
771.637
763.470
761.689
774.705
775.159
773.305
761.499
764.016
768.425
767.203
767.440
775.748
771.091
761.107
770.886
774.888
764.417
775.643
770.042
771.170
761.679
766.781
762.156
768.522
771.028
765.987
772.212
761.573
774.659
775.397
770.076
767.656
766.002
771.786
765.367
768.053
769.087
767.832
765.183
761.082
765.981
760.795
773.954
765.346
767.740
761.462
765.004
770.171
767.046
762.422
762.740
769.292
771.428
764.835
772.391
766.808
769.293
760.996
769.008
776.615
763.258
761.955
768.980
763.942
769.139
766.828
766.971
764.065
764.933
776.545
765.598
764.458
774.379
764.897
771.327
771.879
776.056
770.200
773.063
761.296
766.728
761.654
774.228
770.415
769.945
768.633
775.914
769.290
763.681
771.800
767.405
768.794
763.916
771.369
772.135
767.079
765.712
762.146
761.927
776.372
766.610
767.453
770.161
765.467
764.817
775.427
775.855
775.697
774.958
771.792
771.405
765.073
776.500
766.673
773.742
774.163
775.364
769.074
776.710
771.672
765.531
770.595
764.379
762.271
763.931
773.754
763.528
772.660
767.585
766.951
772.118
775.367
776.036
771.786
770.082
775.617
767.020
775.393
770.646
771.083
768.817
764.465
772.414
769.383
771.219
762.187
772.086
762.754
769.405
768.915
764.916
774.488
773.550
776.998
774.231
767.500
768.789
764.785
766.849
762.474
774.828
777.150
771.272
765.618
763.443
769.534
763.231
764.308
774.519
775.485
770.313
767.746
762.871
776.845
774.024
762.923
769.596
773.725
769.042
769.810
772.244
768.685
767.022
770.858
763.859
769.227
766.018
766.287
765.170
774.874
769.085
776.620
769.736
764.204
769.030
769.660
762.253
770.892
774.775
769.649
776.163
766.919
766.231
769.276
766.277
777.875
767.885
775.392
771.745
781.539
781.666
774.747
782.522
780.552
783.427
779.852
775.552
778.482
786.661
777.070
785.328
787.462
790.508
782.219
777.673
793.082
789.343
786.809
790.135
793.801
786.436
790.527
789.542
784.714
786.126
791.926
784.815
791.516
798.547
796.939
792.396
789.405
800.952
794.596
790.670
800.974
795.194
791.860
794.358
795.744
807.827
800.353
801.734
802.618
803.936
796.642
799.059
809.177
807.775
808.636
804.301
800.984
812.212
811.714
806.063
805.130
805.171
803.522
811.175
808.789
817.121
805.994
809.927
821.300
821.256
811.475
817.190
814.473
824.415
810.628
813.308
816.383
818.149
819.204
819.070
818.485
820.238
826.616
826.460
823.470
820.773
816.471
821.067
827.175
819.055
825.486
824.518
825.615
834.597
828.340
822.501
830.497
832.479
836.881
834.739
839.061
834.100
827.126
836.367
833.074
833.774
829.193
844.470
836.247
832.243
841.732
844.521
846.541
832.926
844.312
845.441
837.420
837.568
842.239
835.992
838.885
845.934
852.903
853.553
839.994
841.903
847.863
851.078
856.126
847.970
851.211
850.967
849.591
850.914
858.982
850.665
851.755
854.865
852.040
858.224
848.675
863.057
859.199
858.919
851.264
853.845
853.920
864.952
855.475
853.677
863.945
856.573
869.710
868.366
866.821
868.602
860.796
859.087
869.174
874.520
869.067
868.216
876.368
869.680
869.101
877.812
877.318
878.907
877.506
874.553
866.012
872.708
867.514
871.587
874.006
871.084
870.174
880.283
882.320
883.138
886.557
872.473
884.741
881.933
889.632
889.640
875.915
875.918
890.162
884.212
888.981
891.582
889.892
879.500
891.778
882.539
880.705
895.227
881.295
883.896
883.792
895.651
892.920
889.692
895.426
890.919
892.955
892.996
893.677
891.082
894.281
887.823
894.401
891.432
880.448
891.485
894.307
891.444
884.936
882.459
895.000
891.850
894.102
883.469
891.644
893.286
889.347
882.410
891.045
880.912
888.546
885.765
893.404
892.150
893.153
887.662
895.959
895.668
893.619
889.777
883.048
889.468
881.757
888.474
887.133
896.139
888.730
890.226
895.279
888.724
884.718
888.010
887.986
887.563
884.762
893.150
886.657
884.498
890.031
891.379
891.104
888.426
890.332
890.678
886.938
896.505
884.979
896.542
895.367
894.339
888.305
890.729
895.646
886.318
887.173
893.277
886.470
887.276
885.614
889.334
891.980
884.846
896.540
896.301
887.030
893.157
888.289
888.072
894.043
894.792
890.269
892.193
885.562
886.652
891.675
886.707
882.052
892.150
890.877
884.419
891.984
890.386
883.674
886.688
884.190
895.285
891.811
884.272
896.370
888.602
894.561
887.688
890.478
892.656
890.128
894.981
886.567
897.956
895.968
890.527
887.825
884.138
890.272
898.019
889.192
884.379
896.406
889.659
889.051
897.495
889.000
891.772
895.240
888.526
889.663
887.860
888.797
886.479
883.877
892.984
893.134
887.330
894.637
883.680
888.422
889.492
897.625
887.111
887.370
894.836
890.549
894.236
889.479
897.976
897.880
889.044
889.654
888.875
887.131
895.654
888.611
896.071
885.663
886.435
885.969
897.123
888.263
897.596
897.218
890.856
892.557
888.411
897.916
890.126
884.404
887.233
893.976
885.616
898.583
886.731
889.982
894.741
891.322
896.409
889.962
897.092
884.764
889.600
887.474
888.223
884.526
883.985
890.193
886.087
884.825
888.394
884.697
892.167
893.407
884.121
896.045
887.594
892.424
888.334
884.572
884.658
891.577
887.928
892.921
896.793
899.252
896.089
894.367
895.222
892.859
895.423
893.299
884.552
892.963
896.450
885.090
883.812
896.389
891.224
883.484
892.304
895.061
890.237
899.072
896.709
891.621
896.724
886.823
893.824
891.974
890.063
893.902
898.733
893.376
885.890
892.526
883.234
886.431
885.677
896.244
891.509
894.801
887.452
896.416
886.940
886.871
892.243
884.133
894.067
887.036
884.458
897.020
895.022
890.907
891.446
885.750
897.645
886.479
892.497
887.543
888.680
888.390
897.065
891.459
888.961
887.614
891.270
891.122
891.246
882.728
888.271
890.810
893.693
892.973
892.402
896.535
892.560
892.168
888.695
883.406
885.201
885.595
886.856
884.897
890.883
889.840
884.524
891.592
884.266
885.417
893.878
885.586
883.127
884.304
883.697
884.252
889.094
898.366
885.817
898.044
890.884
893.971
894.229
884.133
883.566
896.512
894.527
896.281
889.150
883.116
894.365
884.441
894.118
888.451
891.832
890.634
896.119
883.299
887.136
883.953
888.541
884.649
889.292
885.854
889.065
897.936
897.565
893.642
886.954
891.721
888.055
882.373
891.983
886.364
883.871
895.846
887.553
892.103
886.169
883.760
890.942
883.658
895.186
892.658
892.920
882.312
890.798
888.223
883.214
889.807
891.737
885.137
897.386
893.991
890.967
883.578
886.637
885.527
890.453
884.563
888.258
886.962
882.524
887.161
892.163
894.875
895.642
882.470
882.491
888.373
893.272
883.451
882.151
883.297
883.174
889.784
882.140
894.918
883.182
884.886
882.269
896.088
896.482
886.656
891.984
896.017
893.373
891.889
884.880
887.271
895.501
893.375
897.491
885.509
891.537
898.806
885.135
890.268
893.112
884.917
889.477
890.196
894.526
896.135
888.150
898.357
886.872
899.983
898.937
888.762
889.587
892.399
898.437
903.629
895.512
900.358
898.396
903.154
904.715
895.167
899.617
894.832
893.919
898.981
900.045
892.563
897.497
902.960
898.018
901.167
896.216
900.358
906.806
902.946
902.742
900.639
903.342
906.981
896.227
911.011
908.291
909.575
908.582
906.052
912.242
911.227
904.726
902.516
913.426
898.009
910.271
911.592
913.263
904.808
906.004
899.774
905.136
905.502
905.308
902.619
904.653
910.763
902.669
906.396
910.947
910.037
914.382
904.336
908.286
917.488
912.724
917.014
915.983
916.677
918.269
920.120
916.016
920.156
906.672
914.648
911.079
913.678
918.830
915.293
918.886
923.024
908.761
921.244
921.214
913.021
921.949
924.043
924.441
915.092
923.497
921.335
917.539
917.907
923.967
920.307
913.723
921.158
921.503
920.635
916.335
923.624
915.657
915.161
917.173
928.778
915.849
915.591
927.197
920.053
927.715
920.104
928.480
917.875
927.160
926.640
930.664
927.114
922.829
918.767
924.551
919.197
922.805
927.590
935.458
921.969
929.433
923.514
933.795
927.546
933.851
924.046
925.176
925.790
928.602
925.948
934.551
924.729
935.133
931.635
930.164
939.229
931.931
932.039
927.033
940.547
940.478
926.877
934.661
935.039
938.086
942.822
943.208
934.818
938.371
933.222
938.444
942.819
931.288
942.946
933.745
938.863
945.734
934.292
932.618
938.395
935.234
932.428
935.192
935.857
940.913
945.174
937.776
944.034
944.073
941.055
934.023
948.729
938.010
938.649
941.047
942.989
948.721
946.895
939.500
937.687
939.526
945.749
944.835
934.720
944.859
946.328
940.317
932.563
942.009
943.631
937.518
936.265
935.286
930.303
935.913
933.862
933.268
938.837
933.294
934.903
935.610
927.795
939.027
929.726
924.861
930.078
930.987
927.358
929.232
935.045
928.504
926.977
931.412
922.081
925.800
926.253
915.890
927.049
914.791
917.223
927.741
928.306
920.213
925.197
919.969
918.910
923.115
916.427
914.697
920.456
911.159
916.049
919.726
916.249
906.619
911.355
919.271
909.449
916.073
916.967
904.148
901.769
916.503
914.217
906.758
914.676
909.570
914.199
899.490
908.248
910.261
903.736
908.995
901.149
909.299
899.883
897.158
905.330
904.799
894.471
896.465
897.671
895.179
900.763
896.542
898.902
903.188
900.823
894.879
894.492
890.033
887.189
896.649
895.403
892.948
894.780
892.958
890.552
893.020
887.119
881.679
889.899
892.661
882.803
884.265
879.213
885.927
880.889
884.761
877.395
876.672
877.758
876.752
885.363
885.556
872.443
872.076
883.271
882.346
883.601
869.269
872.512
872.243
881.098
880.188
880.668
868.026
868.239
867.959
872.150
868.490
868.442
874.411
862.091
864.113
867.026
869.062
868.186
869.369
862.231
863.256
860.141
859.622
861.982
865.545
859.468
866.719
857.978
867.221
857.549
867.892
860.263
856.040
856.233
851.669
853.473
858.538
849.747
853.522
850.032
854.759
851.990
854.894
853.237
859.398
857.915
844.929
853.654
848.478
849.597
853.130
841.908
843.521
853.090
844.085
843.239
840.885
852.569
852.149
842.640
837.654
841.451
847.352
842.003
848.029
845.437
840.139
835.610
831.351
836.174
833.794
838.605
841.614
844.115
837.580
840.564
829.107
837.491
836.148
830.578
832.375
832.536
831.047
827.330
824.626
833.080
837.428
828.935
834.350
835.879
836.286
828.943
838.675
826.724
829.377
828.362
828.388
828.260
836.487
825.033
832.139
825.827
837.390
836.379
822.609
831.627
836.953
823.748
827.438
825.049
829.585
825.306
821.390
833.596
833.402
823.932
822.511
829.955
822.578
832.749
828.358
835.041
822.806
833.719
835.386
826.615
834.338
826.288
832.395
830.071
819.123
823.144
821.647
821.296
828.347
829.291
831.823
833.299
831.691
819.688
828.953
824.902
824.636
820.376
831.913
817.632
831.155
828.710
825.405
829.608
829.298
817.682
824.630
829.368
823.651
831.277
829.371
821.587
828.879
818.175
820.251
817.366
816.164
828.730
819.227
821.435
815.244
824.102
816.278
816.311
823.547
822.447
818.002
815.524
822.881
822.866
822.293
822.328
821.822
825.307
825.797
815.127
820.144
819.705
825.068
825.370
827.522
815.800
818.308
813.017
817.940
812.239
823.913
822.387
815.432
817.638
812.732
814.405
819.083
815.562
821.790
816.594
824.201
823.495
824.774
819.309
817.580
810.967
809.971
823.797
815.363
823.690
817.738
809.262
810.391
814.776
818.493
811.215
809.469
819.774
811.310
823.220
818.548
813.674
808.885
808.710
820.453
808.370
820.342
818.981
815.923
818.444
817.560
817.184
814.610
817.439
815.136
819.746
819.365
818.829
808.027
807.523
812.134
808.873
817.807
812.548
812.589
812.360
811.805
811.960
808.405
809.049
820.374
805.330
805.174
804.539
816.392
809.298
819.679
810.265
813.461
804.869
807.178
811.364
817.660
811.058
805.720
812.824
805.650
814.509
807.004
814.295
803.426
802.127
802.160
812.922
801.958
811.266
802.208
804.080
804.172
803.808
805.463
798.481
794.660
793.796
790.962
788.540
779.196
773.243
773.902
775.412
774.818
773.718
757.999
765.681
754.377
756.916
757.037
745.630
739.328
745.991
743.410
729.464
733.959
734.267
732.865
728.000
712.797
710.277
722.057
713.683
704.710
709.224
696.632
703.593
695.701
687.772
689.763
687.174
676.175
679.747
675.548
673.063
671.961
663.455
672.109
669.525
651.128
653.324
659.931
655.385
643.315
643.124
638.890
634.031
628.224
629.456
623.396
628.767
617.107
618.870
612.531
608.053
602.965
610.889
604.848
602.699
593.451
587.474
594.108
580.415
589.197
589.348
575.944
568.355
580.431
577.559
568.476
566.212
564.080
563.144
555.157
546.910
551.905
542.098
549.842
545.684
539.703
526.738
533.713
529.773
522.072
515.884
512.622
514.038
509.141
512.849
502.393
503.252
497.591
493.093
490.976
489.274
488.837
486.719
476.424
477.510
482.641
471.336
476.656
461.177
465.529
451.725
458.325
447.863
443.207
444.415
451.724
434.460
435.671
429.363
434.122
428.128
417.911
426.983
420.134
423.011
415.077
410.721
409.468
406.489
396.070
395.780
388.359
393.600
384.445
389.154
381.689
373.867
374.981
373.247
369.219
363.253
364.950
367.207
364.820
357.358
350.765
342.059
353.067
342.156
341.180
332.762
339.833
329.780
332.558
331.997
320.720
315.349
309.463
313.620
311.258
310.604
300.532
295.219
288.852
292.818
287.742
285.108
281.006
286.360
282.414
269.470
272.497
273.212
268.998
270.483
253.378
263.414
251.993
253.323
248.349
247.314
233.580
232.148
241.044
237.467
223.825
233.285
229.620
221.643
209.122
207.829
203.537
207.692
212.023
201.693
206.101
198.746
190.061
190.396
194.477
193.045
186.998
192.755
187.866
186.498
191.040
197.563
185.280
184.383
192.675
184.566
193.671
180.701
188.621
180.406
190.966
178.517
183.330
193.037
180.684
189.249
178.713
182.816
186.225
190.615
189.104
186.951
174.294
183.841
178.243
179.018
171.675
177.716
179.587
177.828
170.524
176.034
180.449
182.806
182.371
182.993
180.787
177.112
167.636
176.131
169.710
178.759
176.147
167.427
175.735
165.615
163.250
173.848
163.327
161.599
173.080
160.220
173.188
167.341
170.149
165.667
160.561
171.562
166.825
158.414
165.388
166.542
165.901
164.679
157.588
159.400
161.214
157.503
158.558
159.966
165.128
160.725
160.986
164.005
164.547
155.832
155.713
154.845
151.056
158.755
153.888
162.129
146.068
153.077
156.176
144.920
152.194
146.556
155.198
149.504
151.892
141.944
153.711
153.156
149.838
145.529
142.303
152.520
138.967
141.199
148.211
143.183
140.372
149.858
151.236
144.740
146.874
144.821
140.461
139.440
144.778
140.144
136.487
141.569
473.295
436.262
428.803
470.064
470.122
446.249
427.901
421.606
428.331
452.621
436.936
431.466
437.311
407.499
425.555
414.204
426.750
428.768
423.129
427.467
427.942
442.842
404.481
411.653
413.143
419.624
415.125
426.163
426.551
405.280
393.077
427.916
405.170
380.031
417.503
401.197
384.575
390.446
374.710
387.858
414.213
401.073
408.529
367.101
362.700
365.691
371.257
402.717
367.595
358.325
374.058
367.769
354.704
374.044
370.448
389.106
362.851
352.041
385.622
375.434
368.493
349.761
365.248
353.664
364.082
339.381
370.065
370.613
353.689
323.560
332.861
348.671
334.694
353.331
324.211
361.079
351.009
