524.700
527.920
520.781
531.171
532.500
523.822
533.117
536.294
526.330
531.561
526.208
531.539
526.253
527.577
526.553
541.309
538.124
536.064
539.946
533.435
534.627
540.482
541.592
536.288
536.514
535.570
533.373
538.849
543.621
535.089
546.994
545.089
543.807
540.393
540.698
536.216
537.525
538.974
536.514
536.265
540.257
543.623
545.603
541.719
540.231
549.156
539.568
553.751
554.443
554.462
549.412
546.925
544.177
545.301
549.096
542.300
542.567
544.259
544.128
554.501
553.871
546.440
545.975
552.007
548.194
547.353
556.006
556.936
554.165
550.791
555.025
562.150
551.151
556.650
560.779
553.478
552.457
552.542
565.365
564.927
557.214
560.711
562.926
562.547
554.236
563.166
561.638
564.958
565.975
556.385
561.544
559.451
559.362
564.871
572.389
567.346
563.942
566.024
563.008
564.222
560.547
559.503
564.486
573.652
571.751
566.419
564.312
565.300
576.876
575.622
573.831
574.231
576.202
576.228
564.993
576.089
572.940
578.280
568.619
580.442
573.377
568.790
567.752
573.761
573.173
571.620
582.901
582.933
577.502
573.843
575.254
577.080
578.902
572.319
579.713
573.316
587.568
579.470
584.878
579.036
575.518
575.472
588.590
581.892
587.136
577.824
587.339
582.897
583.663
593.827
584.905
581.695
591.653
582.931
582.536
589.241
590.259
594.887
591.228
597.311
591.201
590.683
593.352
593.213
588.694
587.878
596.572
594.233
594.848
592.968
587.060
601.459
587.841
602.507
599.485
598.603
599.384
596.029
604.143
599.752
600.800
597.032
595.116
599.540
605.895
607.415
594.091
607.628
604.417
593.857
601.665
600.517
606.522
605.978
609.408
601.753
599.946
608.022
610.656
603.223
604.336
599.777
612.458
608.592
614.415
608.040
605.296
615.702
608.872
620.058
620.656
611.454
616.617
614.468
621.961
616.369
620.239
623.240
613.164
624.520
617.439
628.433
628.463
618.936
625.095
625.528
633.554
635.803
628.212
629.688
633.027
629.730
630.539
634.047
630.568
628.783
641.115
642.528
641.695
643.538
642.644
635.313
639.456
648.865
641.798
644.194
647.227
641.500
646.723
650.239
644.328
651.283
646.835
644.772
644.481
652.970
655.298
653.048
649.402
653.103
654.559
660.027
656.101
655.082
657.383
657.639
656.314
662.525
668.724
659.914
670.187
663.579
657.070
662.684
660.819
669.004
669.154
665.855
669.146
662.222
672.121
667.330
668.600
675.305
679.163
670.762
683.451
677.201
675.890
683.884
679.773
677.944
675.697
683.212
683.048
682.792
689.458
690.939
692.503
686.722
682.113
690.285
687.793
682.653
694.054
688.371
691.217
697.431
688.584
690.830
702.239
695.153
694.116
701.660
698.510
696.510
694.712
701.821
703.460
701.860
700.357
702.629
711.330
708.655
698.859
699.901
710.335
704.866
708.182
713.455
719.347
707.604
711.076
709.294
720.634
718.780
714.718
712.319
723.280
720.813
717.348
716.550
724.640
726.241
722.823
720.949
721.179
720.275
723.063
731.647
728.723
734.902
727.686
726.433
734.079
737.629
727.488
733.720
738.908
730.576
733.616
737.769
742.157
741.934
740.296
733.888
741.752
741.932
743.563
749.574
737.017
746.132
742.712
751.723
740.537
743.011
744.376
746.419
752.591
744.074
758.307
748.850
756.209
752.334
758.166
760.640
760.468
763.703
755.209
753.150
760.070
756.118
760.162
765.811
768.959
769.058
772.218
764.675
759.065
772.535
763.220
770.217
768.409
762.563
764.534
770.579
767.492
762.971
776.364
765.752
764.324
768.468
765.543
775.318
769.748
767.515
773.706
773.123
772.335
773.555
774.936
772.372
765.320
763.239
772.119
768.962
764.380
774.104
765.967
764.533
764.503
773.998
769.643
767.251
775.960
765.999
762.785
774.837
762.382
764.429
760.993
767.599
763.418
774.961
770.148
774.028
776.002
762.833
763.735
774.928
767.969
771.945
772.294
772.135
764.682
768.961
773.103
762.338
771.533
766.368
771.472
761.845
764.157
773.842
766.749
769.195
761.819
773.875
766.554
765.196
773.675
766.202
772.361
770.355
772.349
764.031
763.623
761.133
771.280
776.221
763.969
775.795
769.304
763.033
768.813
771.920
762.015
775.250
765.340
773.767
766.211
770.101
769.300
763.768
769.012
770.821
764.533
770.151
763.709
767.797
772.512
770.005
775.355
762.566
773.894
770.247
773.392
763.557
764.920
770.534
769.858
775.357
767.176
766.508
776.665
776.349
772.398
776.509
763.989
767.387
771.247
769.144
776.853
776.413
775.912
761.598
766.147
772.317
776.684
769.276
768.152
767.700
769.504
777.445
770.174
772.539
773.514
765.691
777.601
762.836
773.313
762.556
771.474
772.049
764.769
769.813
767.589
762.112
772.049
769.555
763.114
770.074
768.470
776.327
774.106
777.185
762.876
772.202
766.208
770.762
771.110
769.437
766.794
776.082
770.514
762.211
767.578
773.326
772.482
774.335
764.965
769.685
771.053
767.047
777.874
771.488
768.582
766.608
776.411
771.682
774.542
764.872
771.681
774.114
767.605
763.509
776.148
768.880
769.688
763.162
770.181
769.195
767.117
765.145
768.548
763.259
762.382
776.947
765.666
764.875
777.918
776.220
765.127
767.562
777.838
779.480
778.402
772.656
774.176
771.960
781.482
773.103
777.242
780.003
780.883
776.278
781.865
787.258
788.072
775.386
787.579
786.107
787.733
783.293
780.685
780.560
790.032
787.991
792.503
792.275
792.734
788.303
796.315
796.111
784.550
795.046
797.732
788.344
793.990
785.793
795.443
800.615
800.468
797.711
801.348
791.705
801.339
790.157
792.739
806.590
797.886
796.802
795.895
796.841
800.957
805.149
809.998
807.295
797.782
800.099
802.789
800.693
805.641
804.898
805.988
814.403
814.323
805.968
809.948
808.650
807.976
816.243
820.110
813.031
813.420
819.128
815.981
809.132
808.213
816.510
812.274
819.466
811.644
815.839
817.129
813.996
824.999
818.007
827.888
818.364
820.052
829.684
825.836
822.898
824.855
825.995
821.579
833.821
831.913
823.636
828.776
828.685
822.345
826.465
823.296
830.278
837.453
830.567
834.674
837.542
834.275
830.050
842.398
838.135
834.535
838.467
840.400
832.049
841.194
832.136
848.467
841.621
834.584
834.697
837.830
848.963
847.064
843.925
853.268
852.810
839.723
854.883
845.110
844.757
853.030
853.419
856.344
854.491
844.270
851.829
844.939
857.245
847.038
851.449
862.506
857.141
851.422
851.774
857.409
861.440
859.135
862.216
851.758
860.476
855.856
863.950
868.964
861.367
869.987
861.647
856.940
868.713
860.530
869.237
874.127
874.951
874.640
860.952
867.792
871.994
873.219
877.449
869.123
875.471
879.762
880.431
873.276
871.269
881.496
881.519
874.770
881.368
875.381
874.581
874.063
876.482
883.264
883.661
882.987
876.175
882.421
880.877
886.456
880.801
878.068
892.315
892.466
884.047
893.732
893.082
887.706
884.999
884.682
890.063
886.792
890.879
881.463
880.728
881.343
890.783
886.066
887.524
881.005
888.238
891.459
887.035
892.670
887.812
887.618
883.710
880.326
886.515
892.011
881.324
887.959
893.366
882.391
893.446
884.247
882.949
888.611
885.447
895.627
894.732
883.086
888.136
895.494
890.608
885.989
892.922
887.331
885.880
882.804
890.743
883.196
890.279
880.794
893.769
892.505
884.251
885.936
885.734
881.861
885.253
887.503
894.534
896.458
895.213
889.553
891.890
888.874
888.916
883.251
890.272
888.036
893.453
883.915
889.626
880.959
893.261
888.167
890.063
891.959
890.674
886.095
892.008
891.526
891.108
881.578
890.113
890.729
883.382
891.351
887.989
883.320
887.347
883.687
887.589
890.744
888.871
889.421
896.117
890.509
892.813
883.988
889.261
882.304
891.464
894.424
896.420
889.235
888.461
897.409
892.496
882.259
896.660
896.420
890.927
885.811
889.856
881.768
888.135
897.122
897.535
887.176
894.773
887.083
897.079
891.195
894.921
894.942
897.579
896.416
893.190
897.802
892.115
891.216
887.005
895.525
884.564
887.934
885.528
887.069
886.155
889.355
890.587
895.541
889.506
891.386
882.934
883.403
886.197
887.529
897.383
888.515
883.381
890.113
892.097
890.520
885.422
888.038
892.911
882.849
895.864
884.586
893.929
894.356
894.918
891.887
894.466
895.893
887.947
891.912
890.575
888.479
889.562
883.875
892.956
897.431
892.192
887.417
896.100
889.553
883.252
887.700
889.116
883.543
895.582
887.009
888.491
894.919
886.958
897.238
888.214
883.328
883.588
888.010
896.708
892.083
897.361
885.591
890.041
886.273
889.888
897.869
891.915
898.774
898.019
890.905
895.542
897.347
891.864
899.220
887.909
888.562
898.943
891.052
896.247
896.813
886.653
891.219
897.061
883.549
895.175
895.485
898.920
889.141
886.276
884.145
895.659
886.553
883.690
893.010
885.935
887.620
896.624
898.414
886.942
894.717
885.154
893.817
885.434
896.000
887.513
889.059
888.378
889.382
895.303
889.023
885.931
898.603
896.332
893.021
890.123
884.599
890.570
893.539
889.034
884.118
896.175
895.821
891.232
897.249
886.185
898.028
893.621
888.546
891.131
895.089
897.436
885.529
889.340
895.283
896.020
889.533
893.714
887.037
897.247
896.511
894.447
895.480
891.748
893.932
897.566
893.675
889.244
893.297
885.962
893.802
893.595
890.389
894.241
893.620
890.712
886.435
883.756
888.676
890.982
887.534
890.602
891.221
891.234
893.469
893.682
897.670
887.769
891.757
886.722
890.451
892.276
888.099
890.374
889.127
894.451
884.269
883.306
885.089
897.049
885.150
889.975
892.388
883.834
889.839
894.441
885.177
894.727
895.529
885.787
887.851
894.723
897.296
885.067
895.148
897.809
897.518
892.611
883.486
886.279
886.359
895.420
897.497
887.963
895.902
886.991
882.241
885.212
886.016
887.592
893.625
888.650
888.103
884.463
894.401
884.323
896.168
891.486
891.927
897.903
882.195
882.644
894.847
883.797
884.503
894.888
897.908
889.948
886.944
892.091
894.154
888.827
884.863
895.543
882.604
889.407
885.557
895.780
892.847
896.503
886.145
896.087
888.021
889.434
896.281
893.445
894.676
891.861
882.112
892.105
891.008
896.574
892.540
885.711
896.024
888.924
883.169
889.421
893.232
885.008
883.302
883.774
885.057
887.881
896.586
890.543
897.232
884.509
893.402
884.832
882.515
887.182
895.776
882.925
895.451
886.799
895.791
890.608
893.341
894.569
890.965
896.237
885.644
900.367
895.842
895.216
892.243
897.126
892.045
886.276
897.167
893.723
893.430
892.926
891.227
900.284
893.910
894.591
901.481
899.476
901.215
897.758
900.647
902.621
898.264
904.895
894.814
893.625
898.038
907.180
906.797
893.718
900.509
906.399
898.665
901.921
898.861
895.607
903.701
903.614
910.471
901.473
907.622
903.128
908.842
902.863
903.820
900.549
904.029
909.363
907.744
905.966
901.434
903.968
906.575
911.448
914.693
901.677
907.228
915.858
906.799
903.700
904.703
913.370
907.825
911.847
913.002
913.505
910.295
915.530
910.355
912.155
918.043
908.958
906.897
913.283
905.861
916.883
912.333
908.740
918.503
914.925
913.562
916.981
911.306
910.257
909.369
920.768
915.137
918.459
919.867
909.268
909.473
913.075
921.601
909.767
917.414
918.782
925.089
924.086
926.949
926.271
913.305
918.183
914.565
922.724
920.597
921.318
923.694
922.657
920.634
918.927
925.438
919.221
921.267
924.902
922.860
917.584
918.243
920.424
920.293
921.157
918.566
920.085
919.057
924.012
921.172
931.113
928.111
930.742
929.329
932.175
922.104
926.852
929.909
933.385
926.412
928.922
932.097
924.423
932.514
935.089
933.923
933.138
926.503
933.392
934.997
935.146
939.924
935.112
937.377
926.431
939.733
926.018
939.020
926.192
931.253
932.775
932.214
937.459
939.217
933.851
939.915
941.653
932.700
943.735
938.794
933.754
935.559
942.277
935.894
936.606
938.594
943.998
937.771
944.665
943.324
936.046
946.861
940.759
940.702
938.263
942.576
947.929
935.204
948.850
938.174
943.900
940.062
942.264
945.678
950.653
938.387
944.498
941.185
937.158
942.962
938.409
942.497
941.156
940.399
937.821
938.093
936.756
935.242
941.532
942.082
935.505
941.180
941.091
937.197
925.767
930.775
934.748
929.935
925.661
934.423
928.995
924.804
929.345
929.150
920.138
931.375
928.569
926.071
918.998
926.273
930.261
920.362
930.002
929.970
916.523
929.157
916.411
915.624
924.227
916.939
923.495
913.765
915.854
915.674
915.792
912.570
910.843
915.748
908.398
917.939
910.916
905.166
916.304
904.026
911.996
910.834
902.300
904.192
915.662
907.069
905.530
907.760
904.773
912.052
905.951
901.767
902.885
899.934
908.374
906.667
906.325
901.711
895.092
906.684
903.305
897.147
899.857
895.329
898.321
903.999
892.159
892.049
888.054
902.466
891.212
887.783
896.044
887.173
898.378
890.312
887.110
884.181
894.344
893.287
891.906
885.025
882.964
892.941
887.268
886.003
879.068
877.374
883.897
891.728
878.642
884.519
887.477
874.150
882.325
872.889
875.510
886.425
876.564
883.926
870.743
878.763
869.098
870.797
875.872
868.095
872.476
870.218
871.605
880.772
870.215
877.523
866.562
872.832
866.038
869.259
875.778
868.337
871.019
860.741
865.568
864.398
873.536
863.595
871.638
865.937
869.530
867.847
866.591
867.253
865.967
862.917
856.832
852.144
866.325
863.297
864.854
851.292
859.355
862.681
859.460
857.052
857.879
850.029
858.374
857.476
853.426
851.063
848.969
845.996
842.389
841.864
842.406
844.994
848.378
853.098
844.502
841.450
846.666
839.216
838.637
845.466
845.234
843.454
845.269
846.568
836.219
848.581
835.526
842.698
836.869
842.976
844.776
835.241
843.186
840.307
828.638
830.568
827.623
839.590
828.292
832.234
837.898
827.266
832.180
838.806
832.743
838.162
831.876
824.001
825.307
835.535
827.397
834.897
835.465
832.585
827.404
831.526
824.841
823.674
829.754
830.054
836.572
832.329
822.292
833.585
832.016
824.361
822.567
831.087
823.387
832.840
829.358
829.667
831.136
826.289
836.123
825.007
834.408
832.096
828.743
832.268
829.236
821.494
835.225
825.839
826.382
830.327
832.382
832.739
820.960
825.165
830.987
833.493
832.507
824.420
819.206
825.789
826.767
827.954
824.071
833.495
822.436
821.322
825.154
829.057
822.838
823.647
832.609
826.072
822.299
832.541
828.044
831.400
829.214
821.057
829.025
830.288
831.235
831.006
830.520
815.996
828.899
815.448
817.755
822.480
818.720
816.571
814.897
824.838
825.447
822.990
819.328
826.757
814.910
823.261
820.994
822.576
823.127
820.863
817.268
822.498
813.074
826.096
820.188
815.135
823.585
827.068
819.762
817.333
815.745
818.252
812.117
814.175
819.566
811.826
822.564
816.778
813.875
825.620
826.615
812.593
826.248
812.522
810.635
823.302
814.102
816.124
814.834
812.999
818.395
822.035
819.135
810.954
810.987
811.647
811.247
809.901
809.140
810.583
811.786
812.387
813.383
823.628
812.360
814.587
817.085
809.558
822.937
814.974
811.854
808.945
813.251
815.831
808.781
811.540
810.300
813.292
811.918
807.127
815.807
812.160
819.751
810.200
817.549
810.530
817.312
808.057
813.004
816.405
814.893
807.270
815.952
811.126
813.769
805.880
809.080
805.615
816.079
818.393
814.119
807.918
809.608
813.421
818.143
810.224
815.377
812.569
811.058
811.191
802.999
814.376
814.303
806.078
811.147
815.761
810.569
814.258
805.847
816.347
808.832
806.267
807.405
809.478
795.826
803.763
792.031
797.594
793.192
780.307
779.574
784.650
778.389
768.511
774.711
769.972
757.375
758.561
750.705
756.266
758.982
754.440
750.129
743.263
742.258
739.126
726.977
734.794
727.964
717.288
714.598
718.325
715.518
713.079
703.500
710.118
694.229
696.235
688.859
691.773
692.572
691.063
675.975
678.192
674.882
668.648
674.069
672.439
664.185
669.872
656.695
659.141
654.631
650.472
647.716
644.878
633.226
644.517
633.751
637.601
633.320
628.370
621.791
613.891
616.533
616.290
616.545
599.256
610.480
599.180
603.538
586.763
592.046
582.843
582.496
584.078
574.343
569.496
569.252
563.916
569.739
571.306
555.495
556.976
550.138
552.784
552.375
549.711
548.230
539.221
528.802
534.469
528.410
526.845
529.789
517.798
512.351
510.142
515.893
510.395
503.826
502.936
498.066
501.777
485.337
483.362
493.266
479.316
487.981
471.322
477.631
466.576
463.264
469.879
464.736
452.906
457.518
460.161
454.742
444.288
449.289
440.146
430.748
438.187
427.121
430.750
427.190
417.283
419.541
418.070
412.465
416.859
412.615
404.035
406.031
404.649
387.885
398.555
382.026
381.307
379.198
381.142
370.296
365.958
365.968
364.239
364.199
353.437
362.997
354.300
353.387
353.549
350.591
339.622
341.588
333.430
330.630
329.243
322.940
329.192
326.137
317.213
314.498
317.447
312.352
298.601
303.360
304.512
299.285
301.156
293.628
295.149
289.051
280.333
278.242
278.292
270.627
266.329
270.331
264.063
256.508
251.565
257.648
252.630
252.138
237.718
236.147
236.189
239.075
233.221
226.403
218.413
215.204
224.525
210.896
220.898
218.233
209.909
212.665
204.039
196.122
