140.076
136.851
149.535
144.599
145.235
158.798
161.323
153.775
159.629
154.385
164.402
161.585
171.130
176.028
174.649
172.611
169.055
173.332
180.641
183.388
176.346
182.434
192.894
188.913
192.772
192.323
201.358
193.191
194.192
209.391
207.806
205.052
215.099
204.287
208.679
214.328
217.805
226.034
221.621
225.350
231.805
229.458
237.900
239.689
243.664
235.962
247.678
237.286
236.996
239.222
253.776
253.725
256.804
261.873
261.166
252.080
260.318
269.562
262.435
274.299
265.807
270.712
276.242
284.426
279.137
287.221
279.667
291.658
292.814
297.442
295.110
292.251
300.706
295.513
307.601
296.403
312.366
300.708
302.135
308.332
305.963
311.556
317.980
314.715
318.354
324.641
323.706
333.742
324.840
337.741
342.910
340.772
338.631
339.319
346.173
344.587
346.011
354.523
360.336
347.495
352.042
363.134
357.950
359.351
369.231
361.845
368.161
379.159
379.458
384.049
375.273
382.119
381.761
391.774
382.043
390.148
398.771
391.377
388.034
389.927
407.331
398.019
406.936
400.842
410.979
413.828
417.575
415.025
415.051
419.783
422.354
417.473
425.920
434.624
427.870
431.907
432.981
444.274
438.384
440.198
443.973
449.572
453.299
443.295
457.620
458.752
449.563
458.665
466.634
464.451
470.944
462.079
476.553
468.166
465.667
477.035
480.730
477.296
478.860
485.303
480.602
491.038
490.904
489.843
501.010
504.004
495.231
507.772
511.062
511.525
502.165
513.814
511.631
511.943
520.975
514.571
515.898
530.458
529.659
532.241
529.154
537.359
535.364
529.329
530.653
537.115
539.989
541.464
545.748
543.136
550.522
556.368
558.438
559.428
560.249
559.999
571.708
570.972
569.744
567.337
572.129
573.538
581.456
569.839
574.429
572.856
580.574
584.378
586.098
573.884
584.358
586.306
583.383
583.161
579.471
588.019
581.487
582.312
584.320
593.843
585.694
587.341
593.218
588.034
593.439
591.877
600.537
596.284
603.187
604.756
590.165
601.959
599.481
607.532
605.126
597.803
602.908
610.227
597.422
609.458
611.392
606.415
612.592
610.221
614.788
614.391
611.875
606.924
615.201
613.438
616.400
610.755
615.761
620.357
618.959
619.667
617.701
616.496
627.519
617.659
625.204
619.017
622.148
618.609
631.464
619.819
625.666
631.761
635.559
629.607
635.827
638.574
640.626
626.560
635.615
632.344
640.334
639.104
645.857
637.870
646.407
633.072
636.063
634.869
650.435
639.412
652.101
645.918
651.634
654.910
643.980
645.803
645.308
654.490
655.569
658.141
651.297
660.829
654.116
659.576
653.373
663.192
655.772
661.095
662.991
666.690
659.526
663.190
667.988
669.969
665.051
661.938
663.229
661.941
670.282
662.054
674.117
674.173
666.604
672.495
665.747
667.936
675.082
684.094
670.209
670.694
679.455
678.156
679.396
688.765
686.727
686.670
677.805
688.628
688.226
681.019
683.214
689.106
681.758
697.154
697.615
694.876
697.482
685.578
690.358
691.653
702.664
689.916
704.243
703.657
693.806
707.594
707.204
706.886
701.689
708.713
701.037
704.944
700.927
710.412
703.804
704.054
702.303
710.133
712.205
708.747
708.587
712.148
708.270
712.106
717.536
710.467
712.607
715.583
717.575
726.260
717.904
716.359
724.536
728.853
723.609
718.411
730.654
721.712
721.177
721.012
735.412
732.307
729.367
733.565
731.381
727.626
738.483
732.480
730.820
739.813
733.403
735.086
731.657
734.043
741.333
749.774
746.972
740.759
752.629
742.675
746.448
750.511
750.536
759.991
757.755
751.024
754.753
762.875
769.822
759.579
766.972
771.027
765.043
778.133
777.804
768.578
768.239
770.411
771.898
775.315
776.929
780.923
787.116
785.924
789.478
783.817
785.501
795.886
792.056
801.444
793.670
792.897
794.388
794.827
802.039
813.836
815.237
811.443
815.146
809.316
813.429
813.340
823.695
823.959
814.873
822.162
821.677
828.712
832.178
833.087
836.600
829.699
839.454
834.059
839.325
836.850
841.933
842.298
849.114
842.227
846.205
845.359
843.220
857.129
856.440
859.927
861.709
861.113
857.777
857.292
861.547
862.383
869.060
872.580
862.968
871.510
867.375
868.195
880.179
872.370
869.438
884.072
882.196
875.085
882.172
882.443
890.444
894.789
890.936
885.389
895.780
902.031
899.616
905.078
893.962
894.230
908.674
906.167
904.389
901.337
908.370
911.448
917.564
920.525
910.861
917.245
912.046
917.251
914.822
919.921
922.576
918.467
932.412
924.112
938.727
934.103
939.480
929.548
936.403
941.812
934.980
941.893
946.694
945.638
949.179
949.117
954.785
952.365
953.792
949.239
957.845
952.845
964.674
962.954
957.438
963.611
963.875
970.854
970.262
977.605
973.382
981.513
976.958
974.381
976.117
983.331
979.177
975.550
987.411
992.670
987.727
988.960
998.898
988.565
987.257
1002.400
991.504
994.482
1004.211
995.077
998.463
1009.503
1000.171
1003.405
1014.682
1005.265
1005.663
1007.429
1019.517
1021.041
1013.743
1021.407
1020.407
1018.208
1022.714
1020.641
1028.330
1030.761
1024.536
1033.213
1035.550
1039.480
1031.033
1044.522
1043.965
1040.370
1052.163
1039.515
1052.857
1047.184
1052.045
1056.068
1057.609
1050.101
1050.452
1064.384
1054.870
1052.193
1054.628
1062.227
1053.879
1063.587
1061.042
1050.508
1052.718
1054.422
1063.139
1066.164
1056.947
1054.640
1062.840
1061.806
1052.195
1053.585
1064.904
1056.720
1053.953
1059.595
1056.615
1060.546
1058.736
1058.790
1054.056
1062.780
1060.549
1059.651
1065.497
1062.261
1060.851
1066.790
1066.192
1060.049
1066.008
1067.252
1062.777
1060.247
1058.678
1057.867
1058.065
1055.501
1054.519
1055.028
1057.162
1061.423
1066.585
1059.988
1063.079
1057.437
1059.331
1062.624
1062.515
1066.665
1063.599
1060.927
1054.168
1064.993
1062.681
1055.065
1058.909
1066.675
1062.295
1057.166
1068.977
1056.091
1053.987
1062.473
1069.786
1068.242
1058.438
1064.545
1055.610
1062.652
1062.891
1069.031
1060.851
1055.620
1055.367
1061.407
1059.892
1065.591
1063.545
1056.282
1058.661
1060.610
1057.087
1056.430
1070.915
1059.608
1060.318
1066.562
1064.530
1064.245
1068.537
1056.152
1064.890
1065.494
1070.474
1058.119
1063.518
1069.002
1068.735
1068.540
1061.037
1067.939
1065.386
1062.723
1066.481
1067.168
1071.507
1058.303
1066.222
1067.220
1069.158
1060.903
1064.861
1069.513
1058.636
1064.066
1072.904
1066.973
1059.059
1072.599
1069.819
1068.336
1058.167
1063.737
1065.466
1072.689
1057.663
1069.390
1058.139
1059.938
1065.570
1071.346
1062.724
1067.730
1061.654
1071.883
1059.228
1059.173
1069.574
1070.010
1060.495
1060.325
1062.622
1060.784
1062.363
1066.915
1061.646
1059.437
1060.907
1063.756
1074.822
1068.526
1069.109
1074.914
1063.591
1062.231
1065.476
1061.777
1062.473
1069.714
1070.630
1070.041
1073.940
1066.186
1062.774
1060.497
1072.211
1067.527
1069.655
1067.530
1064.326
1068.152
1066.156
1060.695
1068.776
1070.557
1072.855
1063.094
1064.713
1066.309
1071.683
1072.655
1065.862
1066.700
1062.885
1075.714
1063.991
1075.276
1075.826
1067.798
1070.489
1074.489
1076.587
1062.993
1064.646
1066.727
1069.723
1061.248
1059.082
1056.743
1065.761
1063.072
1055.089
1065.301
1054.340
1051.079
1056.455
1059.563
1050.705
1045.234
1048.120
1046.165
1055.511
1046.576
1042.267
1037.562
1042.699
1034.948
1048.190
1034.022
1036.614
1036.153
1033.801
1034.859
1039.913
1031.264
1037.689
1035.581
1034.404
1026.954
1030.660
1026.656
1031.920
1026.095
1025.036
1018.721
1020.041
1019.738
1016.726
1019.754
1017.802
1012.681
1008.207
1019.478
1011.512
1013.445
1013.483
1010.674
1002.059
1003.998
1007.721
1004.972
1004.627
1006.061
1000.775
995.334
1006.124
1006.667
1003.723
989.960
1003.070
994.439
987.453
991.091
987.641
988.074
987.899
980.131
988.488
986.207
991.879
989.969
978.591
982.116
984.612
980.062
975.737
979.396
981.991
979.173
971.436
976.420
976.194
973.854
965.273
964.236
960.799
969.390
966.605
961.265
965.582
965.793
955.404
956.494
962.925
960.614
959.839
960.684
949.739
948.596
948.637
951.578
950.001
945.082
944.392
954.498
942.786
947.078
943.572
940.339
943.009
947.057
939.313
941.731
944.286
939.077
938.391
939.302
938.747
933.091
934.841
937.294
924.915
929.365
925.751
930.945
924.412
923.856
923.817
915.540
922.285
918.369
916.494
919.967
918.731
912.003
915.562
919.224
905.796
905.057
912.378
905.668
901.280
902.618
900.885
896.114
908.890
894.992
904.428
894.006
892.426
891.318
892.499
902.144
895.757
889.674
891.424
893.634
882.447
891.669
885.048
884.428
890.128
889.483
876.906
878.408
884.597
874.216
884.606
880.407
872.462
870.124
877.700
878.919
868.970
875.078
863.665
870.739
875.495
861.195
869.000
870.514
857.785
859.504
868.739
853.022
862.345
857.128
862.090
850.362
854.407
860.470
847.764
860.456
846.165
859.936
847.626
857.185
849.600
856.516
852.065
854.235
849.645
856.689
860.700
856.931
851.074
862.575
856.443
866.056
858.440
857.066
862.063
863.585
861.510
858.641
867.888
864.037
868.761
860.655
868.273
863.592
863.767
858.918
858.424
861.798
863.244
862.801
867.153
862.420
864.327
860.062
863.384
860.637
872.142
862.872
868.831
870.705
864.516
870.711
865.059
867.261
877.978
872.267
868.292
864.085
872.600
869.448
866.266
873.963
877.587
868.891
871.231
878.510
873.295
871.123
881.963
870.613
882.393
878.896
874.924
872.156
873.161
885.730
885.257
884.871
880.595
872.385
879.744
884.124
884.223
882.480
881.487
881.698
884.111
887.493
889.749
889.455
880.397
881.026
881.707
882.586
888.521
890.902
891.996
889.370
879.960
888.463
884.002
888.552
889.623
893.720
891.746
885.653
895.979
896.449
886.712
885.235
893.743
890.580
887.249
887.812
898.280
895.106
891.145
899.566
889.650
895.408
888.076
899.104
902.291
902.198
894.292
897.384
896.307
890.602
902.165
890.027
899.539
893.232
895.166
895.605
900.595
902.544
897.677
892.831
908.593
901.174
895.315
897.435
905.309
899.129
908.550
899.036
897.701
900.000
909.952
907.006
897.640
900.544
909.725
905.390
909.413
902.732
907.542
912.029
912.493
902.943
909.142
906.932
909.588
911.523
903.388
910.537
905.889
907.065
909.370
909.327
910.897
912.053
916.027
906.560
910.473
916.625
920.864
909.623
915.557
915.236
923.124
923.383
921.412
919.480
923.308
916.591
913.454
925.898
911.433
912.739
912.435
921.304
924.455
923.409
921.008
923.390
915.719
918.873
926.028
921.864
930.781
929.838
922.257
923.419
920.857
920.178
928.755
917.822
917.817
915.566
921.773
927.740
918.911
919.872
917.272
922.178
914.640
922.574
915.289
915.940
917.645
916.302
922.284
921.437
916.572
910.948
920.526
918.300
913.885
907.082
917.270
906.164
911.433
906.101
911.452
906.209
916.993
907.306
901.068
907.004
901.982
908.502
906.301
913.207
898.265
897.243
910.963
907.931
904.516
904.520
896.379
908.409
906.894
894.291
898.299
896.302
898.903
893.097
892.913
894.757
898.715
903.241
897.354
894.542
902.852
890.021
892.486
893.365
897.865
897.045
890.945
897.364
885.890
892.796
886.765
893.047
888.794
890.456
889.322
883.156
881.798
880.164
892.791
883.081
880.465
882.812
882.102
880.276
887.469
876.384
886.793
886.779
874.782
877.285
878.157
886.184
872.100
876.380
884.312
882.682
880.991
878.258
884.034
870.846
876.072
874.127
879.671
880.678
871.463
871.313
873.786
879.973
878.411
877.565
864.351
877.224
870.970
874.427
869.336
868.463
873.807
863.945
860.874
859.176
866.243
858.426
860.258
864.709
861.961
863.953
866.737
861.057
855.778
853.798
861.529
854.213
856.403
865.647
853.496
851.687
861.477
856.671
850.737
862.760
858.008
854.315
858.880
858.747
853.831
859.497
856.938
859.165
846.244
855.507
849.955
852.913
850.335
850.855
844.144
841.151
853.258
854.257
841.346
841.514
850.737
843.193
837.686
841.069
843.374
841.402
837.558
846.480
848.533
841.878
838.961
842.648
844.734
845.672
847.648
846.810
837.196
836.808
833.195
838.981
828.991
838.363
836.190
835.549
830.901
826.544
832.017
837.630
834.491
827.762
839.843
838.325
825.130
834.827
824.356
836.555
827.111
821.122
835.226
825.529
824.871
820.240
828.526
820.300
835.250
833.091
835.939
823.160
830.865
834.151
837.127
824.953
827.136
830.170
826.626
824.377
832.309
839.335
834.963
830.225
838.155
838.372
826.700
827.128
839.575
827.748
827.172
840.844
832.332
833.659
830.658
833.719
836.868
836.488
836.672
842.759
831.749
844.346
840.606
839.397
844.321
841.233
835.719
841.096
846.700
843.307
840.778
838.458
843.293
832.804
837.771
841.980
839.110
833.873
840.238
837.224
841.240
840.751
844.027
849.849
841.082
837.745
841.964
848.455
845.124
851.054
850.990
852.211
841.642
850.228
853.228
846.460
839.709
849.318
851.901
839.797
853.950
845.770
850.813
842.662
853.208
852.118
849.466
842.332
853.838
847.894
851.390
845.537
852.994
855.463
844.537
848.971
849.493
855.230
849.560
860.339
856.495
860.255
857.665
857.139
855.790
860.606
849.087
859.998
861.401
850.293
854.903
860.160
853.544
853.853
850.477
860.079
853.533
852.020
859.144
851.935
853.753
860.384
854.981
862.472
853.890
863.967
863.065
853.383
863.031
862.732
858.869
857.643
868.852
865.719
865.715
861.560
855.658
863.202
858.768
867.062
862.071
869.226
862.785
861.225
868.709
869.655
869.633
863.056
864.945
869.420
873.964
868.185
861.151
862.053
862.189
870.133
870.656
868.665
873.691
864.849
873.715
875.641
876.886
873.736
870.570
868.405
874.468
877.315
871.566
871.804
878.468
873.076
871.311
871.621
871.790
870.986
867.873
878.753
868.626
868.144
880.389
875.014
871.111
872.944
876.826
871.510
872.697
871.958
881.825
879.102
875.578
880.707
886.293
885.666
883.009
887.200
880.907
875.351
883.734
875.171
884.737
883.657
885.577
879.501
883.748
880.413
876.969
885.729
881.110
880.773
878.486
892.900
880.274
891.962
893.646
891.715
881.202
886.642
891.804
885.127
896.324
897.362
896.523
895.213
899.872
897.864
889.123
900.078
898.602
888.291
891.550
895.924
897.498
896.356
902.574
896.627
893.554
906.274
905.894
898.022
906.457
893.493
901.175
899.071
899.664
904.819
898.236
910.428
902.970
898.394
906.065
900.417
912.482
911.408
913.323
910.656
904.810
901.024
912.053
903.910
908.694
904.611
908.252
918.088
910.170
917.100
909.157
915.291
915.569
918.353
917.472
912.625
914.681
917.233
924.647
920.925
910.740
918.303
917.979
914.482
912.733
914.146
917.890
929.858
917.110
928.866
925.640
931.676
920.586
927.099
917.530
924.340
923.451
927.320
927.550
921.680
935.234
931.046
923.869
936.629
938.417
923.643
933.899
934.189
928.599
934.230
933.133
932.179
928.423
935.152
936.509
928.901
934.880
929.654
935.124
934.537
943.593
934.838
947.545
945.848
938.478
944.982
944.383
942.454
939.087
942.258
948.831
936.378
945.087
945.919
938.892
940.060
949.414
941.295
950.411
952.551
945.239
950.307
944.379
952.298
948.867
949.381
954.251
950.676
952.502
945.759
952.183
956.227
947.278
948.243
951.684
949.458
952.978
962.094
954.457
951.772
959.960
967.277
958.098
963.314
963.165
969.437
959.884
967.649
969.729
967.464
963.693
969.647
962.402
962.501
967.586
969.078
973.944
971.900
961.162
971.497
972.417
971.359
965.460
968.672
963.405
972.843
968.134
972.314
973.117
971.893
972.968
971.551
973.388
974.173
980.467
979.486
971.432
978.003
986.116
980.357
982.674
980.722
987.133
977.358
983.792
987.695
988.788
979.845
976.481
976.855
982.110
980.688
986.520
978.583
975.819
982.656
987.557
982.741
977.374
980.276
985.597
972.966
984.962
976.228
972.383
972.419
980.863
971.229
985.224
975.544
983.328
976.803
972.570
981.747
978.426
972.195
981.726
980.137
972.518
978.062
978.488
979.136
979.832
976.928
973.985
970.480
966.330
978.454
964.410
964.698
978.922
965.664
972.346
977.467
975.319
977.132
961.490
970.039
963.194
962.882
971.975
966.308
967.565
971.014
964.306
973.625
971.659
963.836
960.241
961.777
959.975
958.801
960.808
970.586
970.969
967.685
961.906
965.718
959.872
958.889
961.457
956.673
957.738
965.490
955.105
956.715
967.522
966.796
963.795
953.872
960.752
953.632
962.829
958.365
951.320
956.217
963.652
962.337
961.267
954.520
961.049
950.243
949.418
952.339
950.103
957.147
959.092
950.099
950.328
957.022
960.377
959.321
949.110
947.046
954.450
951.074
951.799
953.659
949.801
953.916
948.460
947.776
956.067
945.145
948.175
948.514
945.735
944.080
950.897
950.014
944.905
944.762
952.568
948.927
939.133
952.748
950.977
946.358
942.058
945.965
939.083
943.724
942.694
942.635
943.280
936.246
936.035
937.974
944.382
938.748
939.106
939.374
937.526
946.966
934.804
934.177
943.774
931.703
942.445
938.084
942.998
944.572
930.346
933.903
941.013
930.243
932.028
942.653
938.639
939.805
932.429
939.303
927.861
934.358
938.374
929.983
937.149
934.674
941.294
936.366
935.860
926.279
924.891
924.630
929.082
924.994
934.977
935.687
929.428
935.976
926.361
936.542
931.785
929.136
931.423
923.330
927.752
930.436
933.321
926.600
923.127
928.003
932.160
931.727
920.339
927.504
922.703
923.922
