191.926
193.570
203.355
201.500
209.960
207.157
214.796
204.102
206.930
209.338
222.576
220.802
211.466
223.789
220.180
229.374
224.323
223.232
230.015
228.696
240.693
237.485
239.885
247.329
237.344
239.053
247.581
248.146
246.061
255.232
251.639
261.366
264.240
253.234
255.592
261.272
269.472
263.541
265.090
274.972
281.485
277.087
274.114
287.000
274.327
287.685
292.572
291.099
286.565
289.194
291.407
288.053
294.906
303.287
298.961
305.350
299.273
312.137
316.518
306.289
319.545
315.486
322.687
326.644
317.357
323.580
318.996
322.898
336.574
328.570
336.430
336.722
335.963
334.316
338.079
349.092
341.134
349.061
348.434
353.914
355.769
355.092
363.161
365.835
365.580
368.773
366.360
367.535
360.584
362.875
374.250
381.975
378.808
381.698
377.150
375.916
384.279
382.089
390.858
397.601
394.163
391.847
403.440
398.794
405.371
404.528
404.807
399.454
401.865
414.156
417.706
407.777
414.541
422.328
423.569
428.391
421.548
426.648
420.779
427.042
428.280
430.398
435.757
441.373
435.607
442.625
444.783
442.014
449.975
448.381
452.325
459.736
447.935
449.224
464.439
457.893
469.833
457.798
471.629
460.967
476.203
475.526
470.541
469.522
477.862
482.475
487.566
485.818
491.117
484.316
485.982
489.876
496.651
503.587
496.983
505.011
508.768
511.205
503.221
508.030
509.865
511.677
507.510
520.938
517.196
512.063
527.860
515.726
521.095
534.812
524.664
533.415
538.568
535.793
540.418
540.906
542.952
542.463
538.621
551.823
541.879
547.903
557.410
561.423
549.427
554.935
567.841
569.135
563.319
559.785
574.291
576.864
566.697
574.482
570.079
571.925
572.934
575.613
582.288
594.204
592.166
583.325
595.148
586.697
586.926
596.457
591.242
600.327
590.936
593.943
592.155
599.813
598.234
596.125
609.859
604.774
600.345
610.958
603.588
599.579
606.275
611.989
609.209
607.949
618.352
618.907
621.294
618.540
617.078
623.681
614.120
616.166
618.700
619.431
619.982
629.357
625.666
626.890
624.864
622.273
634.127
636.051
625.638
627.546
626.528
635.393
635.043
642.098
632.286
643.758
632.353
637.390
635.313
644.690
648.675
644.918
643.418
647.240
639.232
643.045
653.346
646.500
642.117
657.878
650.913
659.544
659.209
661.984
656.505
660.980
663.696
666.244
662.165
659.545
655.129
665.287
665.277
666.549
661.624
672.241
663.844
676.230
666.303
665.062
672.955
675.199
674.076
676.901
674.140
684.328
680.099
684.975
684.045
684.746
685.010
687.188
677.383
681.022
687.905
689.347
686.335
682.382
684.591
687.089
683.484
687.805
689.299
686.838
695.108
701.888
702.320
703.981
703.189
707.437
693.654
696.028
702.519
704.543
697.671
698.772
701.341
715.675
709.561
713.023
709.702
716.995
717.202
711.731
714.420
718.877
724.035
724.904
713.739
724.143
719.944
714.400
722.167
718.405
719.899
719.593
724.942
725.496
722.291
724.321
736.573
733.150
737.256
730.349
730.110
738.300
742.860
740.750
731.964
733.978
745.529
735.056
749.881
744.268
746.586
751.768
750.545
748.518
753.658
755.069
757.168
754.822
745.062
757.974
755.177
748.837
759.036
755.259
755.973
767.020
755.782
760.411
755.832
768.064
756.774
760.244
771.154
773.903
765.375
764.509
765.138
770.427
775.413
775.324
778.597
767.807
780.990
779.203
784.872
774.324
776.331
787.174
775.266
786.707
791.329
783.432
783.280
783.956
792.963
783.329
790.717
783.895
779.858
786.849
786.138
787.120
781.041
790.540
783.568
778.089
777.158
784.503
787.402
788.363
777.185
779.863
776.530
784.193
787.016
778.343
776.680
773.933
784.665
778.206
783.182
784.745
785.353
786.193
777.558
780.111
772.275
773.131
784.473
781.695
773.944
775.660
779.088
774.729
782.668
780.617
786.159
773.619
783.873
770.751
785.215
785.356
769.858
779.744
779.352
771.866
783.584
769.927
782.191
775.193
771.529
771.697
773.724
769.122
783.519
772.802
778.855
770.939
774.268
771.209
770.212
771.604
778.430
775.165
778.729
769.024
766.555
769.731
772.680
769.770
774.039
767.421
776.120
771.621
767.911
772.514
768.130
766.830
771.185
772.004
776.405
775.121
777.543
766.970
772.064
777.283
772.556
765.263
768.350
763.115
766.984
775.760
776.622
765.069
776.753
766.013
771.046
772.438
765.118
765.089
765.241
762.446
765.137
769.683
769.478
773.955
763.767
767.787
770.896
769.457
765.015
766.515
771.757
767.501
760.791
765.703
772.632
760.376
767.230
764.858
767.439
760.785
771.485
767.963
761.841
757.661
755.765
759.041
755.386
758.306
758.214
770.366
761.352
769.828
756.985
762.080
768.686
768.297
762.696
754.655
766.058
764.142
757.715
768.058
760.393
767.033
757.246
756.168
758.389
763.196
765.786
754.118
754.859
761.163
766.969
756.675
765.874
764.997
752.513
762.268
755.923
765.026
765.648
749.753
749.760
756.211
756.309
752.623
756.182
758.112
758.641
761.805
759.012
762.519
760.363
762.578
757.225
751.936
753.787
752.177
747.990
750.893
752.947
748.570
755.038
751.183
746.156
747.733
747.318
745.750
745.476
750.282
750.797
747.120
752.204
761.752
761.983
756.371
760.163
764.801
765.190
762.420
765.047
773.147
775.227
768.239
781.424
783.544
780.965
782.753
791.935
783.339
785.862
785.428
800.053
797.549
788.375
790.601
800.180
808.582
799.011
805.289
804.175
803.187
818.035
807.957
807.857
818.235
815.078
812.608
819.995
819.445
824.284
831.234
827.876
834.233
836.521
825.662
827.582
835.251
832.050
839.005
837.646
842.804
839.951
843.546
851.401
849.781
845.917
855.324
859.779
860.662
865.652
857.483
865.327
869.309
872.178
876.676
869.264
879.899
873.799
870.972
875.206
874.530
886.149
886.034
887.924
885.571
889.933
889.279
885.912
896.677
899.617
896.512
907.991
907.001
906.050
900.889
910.708
913.483
908.203
909.394
909.206
921.458
917.252
918.326
922.292
916.716
917.727
927.639
930.430
936.494
936.646
935.416
932.976
942.307
939.855
943.235
941.734
952.449
942.987
947.210
956.114
946.865
961.325
948.635
955.497
959.837
956.642
968.591
958.988
971.651
968.806
971.899
964.283
976.962
973.490
983.002
979.795
976.394
980.329
989.535
991.206
992.571
982.482
985.439
999.343
995.340
1004.514
991.204
1006.011
996.423
1006.562
1013.803
1002.352
1017.584
1018.171
1012.771
1010.248
1023.675
1018.234
1021.510
1022.199
1020.241
1028.729
1032.863
1028.591
1029.518
1034.598
1033.200
1037.262
1036.241
1046.247
1036.676
1051.040
1038.281
1045.163
1051.840
1045.084
1048.861
1058.673
1048.901
1058.379
1064.379
1057.743
1069.047
1058.131
1064.231
1065.642
1068.864
1071.329
1076.441
1073.440
1077.178
1085.608
1081.975
1085.026
1080.131
1094.842
1088.878
1085.371
1088.776
1091.096
1103.347
1090.506
1094.020
1105.671
1104.111
1105.663
1109.024
1111.557
1102.934
1108.682
1103.213
1114.930
1101.026
1107.251
1103.483
1105.811
1099.774
1095.022
1089.413
1094.649
1097.775
1084.049
1082.494
1089.027
1090.460
1086.863
1083.659
1072.961
1083.322
1071.553
1079.837
1065.845
1063.576
1064.501
1060.971
1058.217
1059.713
1065.518
1052.724
1053.767
1053.250
1046.086
1052.213
1042.508
1053.466
1047.276
1046.642
1036.397
1040.412
1037.706
1034.250
1032.908
1040.284
1023.386
1032.848
1019.568
1023.852
1017.440
1016.351
1027.117
1025.154
1013.109
1018.596
1012.515
1016.860
1014.294
1013.985
1005.011
1004.043
999.124
999.210
996.660
992.202
993.689
984.395
992.886
994.158
989.817
981.120
977.614
982.673
970.880
969.281
980.488
977.779
976.768
964.372
974.294
969.996
970.207
964.686
966.674
953.277
958.388
953.082
948.652
944.197
941.647
951.346
941.638
937.501
948.293
932.399
941.391
930.148
931.953
935.331
931.549
928.257
928.883
921.723
921.617
921.157
922.061
916.955
917.751
906.301
919.200
917.170
912.485
899.911
898.591
903.380
903.646
891.236
892.621
889.897
896.597
893.637
883.811
879.983
887.420
889.759
885.033
886.034
874.702
882.676
877.302
866.186
866.749
864.250
859.735
867.532
870.774
865.356
863.848
862.834
852.700
858.919
856.523
846.578
842.068
849.642
839.570
841.289
846.477
838.550
843.529
827.779
837.139
830.719
833.334
827.849
818.916
826.343
829.513
818.929
825.427
811.535
822.227
820.255
810.652
814.229
806.950
800.948
806.566
807.141
808.185
800.512
793.248
791.174
796.269
795.600
789.771
780.689
792.854
787.916
780.880
773.397
783.823
770.821
768.019
768.986
778.545
761.740
763.961
769.528
769.090
755.490
760.655
751.218
762.305
757.679
757.854
747.056
746.733
747.447
742.337
736.158
734.184
748.359
748.325
736.827
737.531
738.876
742.035
749.421
753.708
751.565
756.880
750.058
748.198
754.005
750.057
756.664
751.510
759.624
758.853
762.361
763.070
762.473
767.561
759.707
759.753
764.571
768.601
763.850
762.062
764.347
766.600
770.056
768.551
776.368
770.901
776.701
779.610
770.425
771.832
771.176
775.348
775.262
785.144
779.378
786.548
790.517
783.923
778.435
790.885
784.894
786.840
780.947
796.781
784.697
799.066
796.772
785.903
787.083
798.583
788.161
802.334
791.210
790.978
793.543
796.058
796.183
798.629
799.669
796.473
811.414
807.893
805.800
813.979
810.338
805.088
805.786
815.998
818.820
807.116
815.130
822.596
813.160
815.075
816.694
816.385
816.416
817.843
816.697
816.619
819.123
817.366
821.308
822.802
824.498
822.886
835.393
828.904
826.764
839.586
828.744
832.324
837.062
841.158
844.094
839.050
832.285
832.739
838.871
847.573
838.090
837.954
837.590
840.439
839.814
852.873
845.314
851.647
853.824
850.408
856.459
845.434
855.278
859.640
858.684
857.915
852.613
852.842
863.531
856.747
867.556
854.719
865.646
864.808
861.992
868.916
865.779
873.435
865.793
869.760
871.367
874.447
876.907
872.385
877.212
867.913
877.115
876.701
870.037
875.173
886.451
887.454
878.351
880.572
875.854
877.620
882.408
878.851
880.738
884.307
896.063
886.479
892.499
893.224
891.334
890.253
897.326
894.087
900.902
900.000
896.482
899.646
903.753
908.643
895.208
899.564
904.857
897.877
911.813
906.299
914.480
901.503
903.321
916.135
918.337
906.090
916.874
910.900
919.175
915.344
916.479
917.955
914.484
919.968
921.632
918.341
925.706
917.256
929.570
930.104
927.811
924.609
929.537
932.593
918.766
928.287
927.670
919.114
923.044
932.011
925.212
933.572
932.280
918.576
933.336
933.162
923.135
919.770
931.708
929.533
933.616
923.415
926.808
923.177
922.954
924.041
926.588
926.949
919.299
927.425
921.342
923.681
919.803
920.641
929.795
928.982
918.849
931.819
925.759
932.018
918.210
919.043
929.073
924.553
922.642
932.908
926.146
921.811
928.068
922.561
931.959
918.726
927.287
919.389
926.688
927.836
919.449
925.049
920.010
917.064
927.919
923.584
927.636
916.641
925.053
927.990
930.438
923.824
928.412
925.978
930.987
925.840
922.025
929.415
915.998
923.983
925.117
931.570
925.522
920.572
931.095
927.535
929.867
917.577
923.911
916.500
928.572
924.453
925.045
917.068
920.667
919.276
917.997
916.104
920.512
919.977
926.749
916.187
926.961
930.431
917.211
918.680
918.879
917.196
921.793
924.363
930.414
925.537
919.197
929.827
924.185
921.137
921.758
920.979
918.445
917.810
918.032
929.879
922.713
916.641
925.419
922.273
923.182
925.901
915.922
920.192
917.230
914.124
928.352
926.539
915.737
916.461
913.669
926.589
914.279
918.112
920.159
918.496
920.907
928.536
928.078
926.708
927.931
926.366
920.917
914.606
923.955
915.655
928.615
918.388
927.913
924.668
914.110
918.222
924.867
921.242
920.344
917.442
925.801
917.866
919.377
925.960
925.936
924.782
918.001
925.131
921.406
913.826
916.613
915.752
926.365
922.236
914.871
912.968
914.856
914.155
925.000
923.778
922.747
920.141
915.853
919.837
923.715
925.632
924.706
913.678
917.664
920.337
926.057
922.325
921.943
917.267
918.208
923.597
922.934
912.924
917.584
921.345
921.105
919.962
916.088
923.729
921.379
915.118
913.613
910.702
906.371
915.420
906.808
905.813
900.859
911.421
910.628
898.103
906.813
904.790
891.575
901.542
888.468
887.300
894.498
891.960
891.175
885.069
879.584
887.217
883.961
889.103
882.590
875.709
876.807
869.181
878.158
867.658
876.138
877.928
875.570
861.625
866.353
866.584
864.203
865.849
858.297
863.752
860.476
860.718
853.938
849.186
855.711
850.628
852.166
847.340
850.912
844.748
843.942
843.994
841.147
843.765
832.163
832.383
839.013
831.652
828.677
833.183
832.576
830.559
826.511
829.693
820.851
827.844
826.108
822.483
812.180
811.869
816.092
812.992
811.983
806.825
805.173
804.518
805.575
809.581
810.164
796.037
801.191
804.035
789.580
792.631
791.987
796.216
791.595
784.509
795.071
789.768
780.235
787.733
779.726
775.660
780.780
785.249
776.368
771.941
779.424
765.287
763.113
761.552
766.716
761.889
766.081
763.492
757.650
753.200
765.948
764.810
753.690
755.188
759.046
755.203
749.175
742.805
741.993
741.039
744.980
744.061
745.990
742.361
743.359
730.109
733.084
730.281
727.771
727.032
734.997
728.596
735.320
725.811
727.508
724.474
720.392
713.425
722.508
720.910
721.322
720.521
720.434
715.449
710.157
704.900
713.058
710.196
702.627
699.861
697.610
705.414
704.286
692.503
703.317
698.056
692.723
693.457
684.477
694.636
690.982
691.344
677.255
681.740
687.364
685.255
671.267
671.829
675.110
681.044
671.262
665.473
678.179
669.027
666.630
663.252
666.803
656.320
658.950
668.054
663.379
651.019
650.642
647.092
652.742
652.866
651.107
650.591
648.216
642.923
651.720
648.225
635.221
634.990
645.727
633.286
628.123
629.782
625.356
632.502
639.850
625.017
637.683
638.144
640.626
631.534
635.372
631.107
640.742
635.051
646.639
642.136
634.937
639.933
648.439
644.166
639.550
641.012
642.357
638.996
644.373
649.623
641.017
655.891
655.256
641.799
651.112
648.594
658.508
653.095
645.378
648.580
660.714
653.915
662.060
659.099
661.317
653.961
665.139
658.383
656.404
659.275
666.370
659.936
666.889
660.122
658.888
672.382
671.953
672.783
661.864
668.545
666.042
671.408
671.472
674.230
673.083
675.306
680.906
666.119
680.373
669.268
674.097
672.842
670.727
684.934
673.234
680.553
682.267
675.302
678.964
682.757
687.279
680.284
679.823
685.935
687.673
683.821
682.765
682.810
691.110
682.092
682.758
691.406
689.664
699.492
699.852
695.149
688.131
700.887
690.020
698.644
698.953
702.471
700.090
693.728
694.403
705.642
705.785
701.061
694.954
709.246
700.314
705.274
698.275
712.554
712.434
700.964
710.625
708.055
710.147
707.859
718.894
713.929
709.285
714.932
706.908
714.571
721.532
719.856
713.473
720.142
725.177
716.309
716.834
727.672
724.031
720.554
724.702
725.465
724.776
717.889
730.666
719.118
733.374
726.895
733.744
726.281
724.123
725.727
724.994
723.713
733.581
728.496
729.073
733.195
729.098
737.569
739.082
735.702
729.960
739.344
732.918
743.037
745.432
741.730
736.562
736.690
744.852
745.015
743.102
752.087
741.747
743.940
747.987
743.573
756.458
754.989
743.462
755.954
749.250
758.397
752.954
748.343
751.451
752.371
759.295
753.403
762.286
758.903
756.979
753.725
761.222
757.420
762.873
769.542
758.492
760.599
768.506
768.090
769.628
772.375
772.065
775.541
773.572
768.092
777.482
766.523
769.905
779.794
774.632
764.655
760.709
761.102
767.611
768.052
768.879
758.335
765.331
758.274
752.270
749.805
752.704
760.007
754.457
754.583
746.058
739.632
745.180
740.620
739.576
736.934
740.156
736.458
743.171
732.025
727.955
726.352
734.404
731.032
726.338
732.552
724.119
721.352
715.141
713.860
721.615
726.005
724.847
718.535
708.018
712.848
705.004
704.280
712.928
701.815
705.097
709.038
709.811
695.692
700.627
696.330
690.496
702.007
690.496
699.323
692.126
683.396
688.181
688.611
692.749
683.504
680.782
683.566
687.464
686.148
673.717
672.144
673.858
669.935
676.479
677.064
677.373
670.984
664.618
661.113
666.851
669.016
664.336
664.236
651.983
663.988
653.502
647.870
651.639
649.752
652.204
643.243
653.808
641.187
646.719
639.961
637.415
637.607
640.006
631.218
642.973
632.004
633.195
627.956
630.145
634.777
622.049
619.019
616.964
626.333
623.723
625.850
621.965
610.753
616.943
615.390
610.960
616.713
618.158
601.448
615.022
598.839
601.775
608.974
608.455
595.328
599.403
601.525
593.955
597.354
593.817
595.933
589.920
593.198
584.021
585.093
584.474
584.066
581.708
584.184
576.585
581.658
574.034
572.518
581.170
569.055
572.988
568.878
563.940
564.498
561.136
559.685
565.786
564.998
561.737
551.798
550.545
548.017
554.473
548.906
556.852
544.264
551.863
546.502
551.479
539.041
549.630
548.920
545.498
535.326
532.361
542.962
540.050
531.452
534.367
526.919
522.408
520.105
525.541
517.961
518.204
525.843
516.638
515.440
518.395
518.729
515.352
510.273
509.686
503.141
501.037
506.162
503.203
506.510
495.705
503.319
499.589
506.822
502.650
497.787
488.968
493.162
486.288
