575.503
573.697
581.374
581.897
572.456
584.945
574.688
581.531
586.943
586.593
576.747
587.927
576.070
585.107
577.277
585.705
583.600
587.361
590.483
582.723
596.061
582.773
594.554
595.279
591.439
595.390
594.585
600.381
599.099
604.892
600.860
602.829
600.174
600.307
603.989
606.525
598.056
606.518
608.962
599.783
610.794
608.377
608.073
609.352
602.280
614.277
609.161
612.580
607.296
610.680
617.762
615.478
616.776
618.232
621.866
623.323
621.798
623.745
618.575
628.961
629.865
630.711
621.174
625.998
619.445
629.065
633.066
621.347
632.847
629.686
637.592
638.111
630.787
639.930
629.944
637.752
631.663
645.136
641.638
637.718
633.887
641.598
634.093
637.741
639.754
650.463
639.762
652.728
645.816
639.918
649.216
654.889
642.642
652.404
653.381
656.430
650.952
654.542
654.298
662.068
655.242
662.169
662.935
659.864
658.892
653.956
657.745
660.037
665.220
661.873
665.017
664.360
670.218
670.128
666.447
664.345
667.461
673.707
667.671
676.209
672.636
666.938
669.703
668.803
679.504
684.423
679.051
671.760
674.153
686.652
678.635
684.856
678.994
690.895
683.044
682.773
680.682
695.454
696.308
685.914
697.711
690.481
687.141
698.220
695.794
695.601
699.993
695.982
699.719
692.783
702.859
698.049
693.009
693.838
698.000
706.003
711.622
703.164
699.536
710.777
705.319
708.670
711.858
703.093
705.152
716.783
711.161
714.757
715.793
722.832
713.077
708.930
715.292
723.740
724.019
723.088
723.458
723.608
721.466
730.098
719.795
725.966
728.118
732.249
727.817
727.034
728.165
734.609
734.361
734.561
729.216
740.499
726.673
733.755
740.264
733.104
735.297
740.638
735.021
741.246
745.393
749.810
747.895
742.963
752.939
749.999
745.949
750.781
755.362
755.219
753.459
754.794
753.296
756.717
755.848
765.224
764.091
773.349
771.573
772.061
775.507
777.581
779.967
771.553
776.605
773.681
785.181
786.454
784.990
785.986
787.965
782.103
796.775
785.916
799.288
790.350
797.858
802.418
808.114
795.619
810.996
801.003
807.517
814.075
814.711
809.513
813.734
813.103
819.416
818.728
815.387
827.076
831.215
829.609
820.862
821.711
836.089
823.742
835.047
834.763
832.793
844.547
840.471
844.565
845.989
838.496
850.437
847.308
848.575
844.443
845.141
854.950
859.241
850.476
850.665
860.191
865.943
858.982
866.596
866.386
874.760
865.340
864.162
868.193
867.158
882.448
878.169
873.680
874.671
874.841
879.745
884.070
893.680
888.609
889.129
891.250
893.858
887.909
889.771
895.924
907.297
893.729
908.862
903.794
900.378
913.202
913.413
908.363
907.776
917.900
911.568
924.638
919.856
911.925
920.818
921.611
924.608
924.907
922.702
937.307
937.851
937.605
938.885
941.609
938.160
946.854
941.835
942.662
935.923
940.282
950.830
949.127
946.788
952.310
956.227
950.158
957.302
961.091
955.847
966.148
958.301
960.141
971.920
963.790
962.505
973.077
964.425
974.448
973.222
973.015
977.706
981.769
985.589
981.865
980.841
987.483
983.756
986.645
995.330
994.935
998.656
994.083
990.823
999.183
1005.703
1000.246
1006.442
999.141
999.212
1011.457
1014.088
1008.081
1018.767
1008.993
1018.883
1016.811
1016.968
1022.940
1016.738
1029.526
1024.290
1030.114
1026.421
1024.969
1031.370
1040.035
1036.481
1037.055
1044.145
1042.203
1035.590
1036.633
1042.479
1054.210
1047.508
1041.901
1043.756
1046.266
1055.068
1062.838
1062.484
1051.575
1050.131
1054.778
1050.710
1060.466
1057.548
1060.777
1057.134
1065.395
1053.665
1054.578
1057.483
1055.828
1060.908
1058.984
1053.487
1057.113
1055.191
1053.196
1064.588
1055.862
1063.341
1060.346
1059.348
1053.886
1062.078
1061.085
1055.310
1062.876
1067.380
1063.200
1058.149
1056.305
1058.575
1058.278
1062.616
1065.583
1058.603
1066.949
1060.668
1066.068
1053.478
1058.999
1057.037
1056.362
1066.526
1058.827
1056.046
1064.541
1060.546
1053.143
1067.897
1059.682
1065.994
1057.495
1061.825
1058.195
1062.094
1065.896
1068.816
1057.054
1062.360
1058.124
1056.575
1056.312
1068.394
1060.600
1058.631
1062.397
1069.162
1057.676
1062.080
1054.587
1057.891
1059.419
1063.913
1060.421
1054.945
1063.068
1055.395
1057.516
1061.502
1070.393
1063.665
1068.769
1065.513
1060.403
1059.338
1066.889
1066.220
1070.768
1055.570
1057.805
1067.993
1070.130
1064.662
1062.657
1064.372
1058.849
1061.443
1064.506
1064.421
1065.747
1067.913
1063.680
1063.522
1062.882
1066.160
1065.237
1057.254
1056.808
1064.100
1057.553
1058.064
1060.681
1063.042
1068.082
1072.572
1067.702
1063.193
1067.122
1065.994
1068.252
1065.846
1069.701
1072.493
1059.406
1068.607
1062.855
1061.139
1070.214
1061.288
1072.324
1060.551
1063.525
1062.061
1058.992
1071.821
1060.136
1065.619
1059.476
1067.153
1070.446
1070.606
1068.628
1060.777
1073.951
1068.191
1065.131
1071.146
1068.773
1071.133
1066.078
1067.049
1064.757
1059.217
1073.620
1074.231
1069.899
1063.959
1064.815
1073.729
1062.770
1069.600
1070.896
1071.874
1060.286
1066.283
1066.270
1070.561
1061.549
1064.802
1064.139
1066.724
1069.714
1068.798
1072.459
1073.034
1068.538
1069.396
1065.298
1064.044
1060.486
1070.155
1063.522
1073.861
1061.899
1073.194
1071.424
1074.531
1076.262
1061.682
1063.692
1064.495
1072.721
1067.897
1073.756
1065.363
1068.825
1073.912
1074.096
1068.964
1058.887
1064.343
1057.007
1061.347
1066.634
1059.291
1061.308
1052.200
1056.466
1058.810
1056.264
1058.071
1059.798
1055.489
1044.229
1045.505
1051.661
1047.112
1044.992
1039.012
1044.021
1035.627
1039.643
1042.580
1032.893
1047.009
1035.845
1040.770
1037.255
1026.812
1027.942
1034.369
1024.357
1031.933
1021.775
1025.153
1022.450
1033.117
1020.800
1030.089
1015.344
1020.048
1012.737
1019.948
1011.680
1025.037
1015.464
1014.096
1011.242
1015.562
1019.662
1013.279
1001.838
1002.490
1004.548
1013.158
1007.532
1002.918
997.450
1009.401
998.178
1004.829
996.795
1003.743
988.908
1003.360
989.431
986.325
991.823
993.812
989.862
991.689
984.150
985.751
983.562
980.676
982.690
979.959
987.890
978.825
981.916
980.686
984.709
976.757
980.812
966.292
978.332
976.644
963.652
967.296
974.467
975.256
966.027
958.433
972.073
965.769
968.700
964.343
957.536
956.155
961.742
959.633
961.466
953.271
950.325
956.600
946.374
957.551
947.099
944.826
950.317
952.750
944.563
947.322
940.803
935.122
943.106
939.060
933.151
932.424
941.104
927.629
934.475
927.964
936.218
935.628
933.551
931.684
929.886
928.460
917.537
921.741
915.904
929.225
917.267
924.369
919.498
914.684
920.280
912.662
907.859
916.529
912.177
905.352
904.624
913.314
907.482
900.348
906.464
904.168
900.520
903.137
900.260
892.271
906.184
905.506
889.447
894.265
889.166
886.182
888.978
884.320
882.868
894.847
881.303
880.313
890.239
882.883
887.469
877.435
881.474
878.411
883.353
876.643
881.104
874.494
879.891
876.836
868.401
872.263
873.850
867.304
872.388
871.783
860.822
865.710
868.921
866.746
870.113
868.795
860.493
854.101
852.106
862.814
850.405
847.703
850.372
853.496
860.290
849.177
854.994
851.573
855.381
860.048
857.672
850.173
861.652
857.755
858.026
854.468
849.604
858.004
851.716
864.084
851.248
859.225
851.308
858.454
865.124
866.282
861.064
856.038
865.230
867.500
857.579
868.846
859.225
866.845
859.074
870.603
856.912
863.865
865.313
860.133
862.726
868.101
874.406
862.268
859.787
872.945
869.411
870.147
867.222
874.946
870.731
876.961
868.001
863.137
877.781
864.954
865.770
878.141
874.936
872.775
879.154
869.920
881.467
868.764
876.343
870.936
881.537
877.589
879.189
870.807
872.012
881.740
880.550
875.033
882.435
879.934
881.923
881.170
877.412
875.754
879.699
878.078
876.699
874.357
885.751
876.933
887.990
874.822
886.463
888.458
877.811
884.099
887.343
892.717
884.294
886.883
884.296
888.141
892.230
892.179
887.889
889.653
882.153
887.413
887.747
887.402
897.546
887.735
896.902
887.548
894.748
887.536
892.427
893.047
890.884
891.200
900.444
893.108
886.081
889.593
899.485
901.234
902.854
898.513
903.906
902.904
904.827
892.836
890.872
902.709
897.465
903.561
904.943
898.244
895.311
896.540
895.255
905.564
898.322
895.903
903.672
905.666
907.543
896.209
896.733
908.155
896.748
897.189
912.332
908.697
899.519
901.890
908.374
913.544
900.453
900.457
909.502
915.172
912.300
913.477
912.565
903.760
914.165
904.099
903.193
918.577
910.770
913.160
906.883
910.104
906.744
920.412
918.684
916.271
910.832
916.219
909.467
912.060
917.851
908.103
912.250
918.510
924.634
923.271
924.147
924.606
919.678
920.443
912.462
911.854
926.234
917.288
920.387
926.427
920.729
914.360
919.694
922.610
917.860
927.287
929.832
921.822
928.446
927.228
930.783
924.770
927.957
921.554
923.927
914.568
927.055
922.554
920.134
921.099
919.062
911.976
926.103
924.233
921.750
919.610
908.508
921.767
914.101
910.303
920.092
915.241
912.557
909.815
913.391
917.133
906.595
916.910
904.271
910.067
907.430
912.580
910.202
900.802
915.504
912.478
900.306
912.472
907.451
900.185
909.431
903.143
902.483
910.984
906.720
905.886
907.444
895.595
907.364
896.640
896.552
891.312
906.027
897.195
904.508
895.492
898.561
900.460
892.956
895.771
897.777
890.534
896.172
886.057
897.043
894.119
897.893
892.208
891.927
892.225
895.228
892.172
887.206
881.039
890.827
884.638
883.938
892.691
887.738
881.625
877.308
881.372
890.409
879.768
890.137
877.236
874.800
878.191
883.895
885.902
878.495
877.105
873.301
881.437
879.759
885.705
870.950
877.110
872.726
878.879
879.807
877.890
881.256
872.109
874.041
866.016
864.520
868.087
877.516
872.424
871.025
872.243
874.353
867.843
870.005
874.938
871.200
863.126
873.908
864.668
858.808
858.035
860.928
867.727
870.742
858.523
860.482
863.613
858.322
860.561
857.686
857.578
853.728
853.663
862.487
856.932
852.564
849.675
863.802
863.298
862.778
852.409
847.246
861.936
846.940
849.447
859.131
850.194
855.763
856.428
846.996
857.058
856.087
844.940
855.340
846.739
850.281
845.981
851.758
849.530
838.443
844.873
852.180
850.037
843.111
848.848
835.564
842.341
850.077
848.454
843.895
848.544
840.616
833.974
833.620
833.071
844.178
831.410
833.126
836.323
833.743
832.590
838.828
840.813
829.902
827.213
825.422
825.013
829.741
832.639
832.609
828.064
830.362
830.992
834.412
827.972
826.540
832.497
831.943
826.411
831.177
833.094
826.067
827.040
831.700
828.627
825.015
830.498
832.782
828.907
831.489
826.566
833.748
835.683
833.013
827.383
837.376
839.102
825.344
831.906
834.122
825.952
831.845
831.570
829.019
830.586
835.066
829.698
837.034
828.630
841.062
829.358
829.743
829.101
843.827
840.341
835.943
831.101
836.261
844.634
834.275
842.506
837.846
834.101
835.815
837.028
833.015
839.535
845.029
839.948
844.265
834.701
835.268
835.186
846.362
841.156
841.687
840.833
836.016
843.345
841.984
841.631
850.796
842.380
842.986
841.904
850.167
850.982
844.033
847.157
842.338
844.731
851.081
848.076
849.565
854.338
840.621
840.951
841.376
847.935
853.067
845.499
853.569
848.412
845.183
844.275
848.618
857.526
855.858
848.058
849.190
850.770
848.748
847.893
852.856
857.206
853.646
846.423
854.252
854.481
854.237
862.729
863.055
849.804
860.223
862.993
861.971
862.306
858.206
855.558
851.134
859.107
864.646
864.688
856.768
855.065
860.643
859.303
853.952
859.795
856.785
857.654
856.101
859.670
863.876
867.543
866.064
859.377
861.264
862.604
861.101
864.947
861.493
863.074
863.972
863.427
867.750
868.210
866.055
863.597
868.162
858.085
859.754
864.611
871.961
866.499
870.355
859.903
862.251
863.507
869.939
872.997
875.109
870.820
874.911
863.749
865.145
865.741
866.103
871.145
872.345
876.530
865.915
869.024
870.864
876.220
874.248
871.356
870.824
876.023
867.147
880.008
869.251
871.439
878.851
874.511
875.049
878.699
880.998
870.212
873.681
878.579
875.162
884.867
870.016
872.051
877.529
881.000
879.228
886.761
880.128
878.917
886.597
884.794
879.660
885.017
877.974
888.882
882.945
877.083
878.553
879.933
890.277
887.616
886.116
887.842
888.529
893.704
893.601
888.196
887.077
881.699
882.646
891.917
888.172
897.323
892.499
884.143
895.338
889.297
891.786
900.238
893.037
896.019
889.754
888.474
891.950
901.427
903.042
896.594
899.391
893.303
899.150
904.012
904.023
903.995
894.851
898.121
896.602
897.231
901.622
897.794
906.589
906.197
912.548
905.739
901.034
912.257
914.025
914.276
911.266
906.510
914.489
903.520
906.448
908.134
903.694
913.468
913.967
916.514
908.777
916.906
911.458
920.081
914.055
916.551
918.363
919.990
919.459
917.081
912.298
914.426
917.555
912.950
917.393
915.784
927.659
918.837
921.470
922.413
927.941
918.022
918.681
921.521
930.466
927.686
918.321
930.692
934.034
919.610
934.414
922.819
934.486
935.434
928.778
936.511
928.115
928.651
927.741
925.126
927.224
932.200
938.872
933.655
936.284
933.744
939.197
944.487
936.285
940.504
939.737
944.546
937.389
944.622
947.693
933.409
936.066
936.570
939.342
936.095
949.519
936.427
938.891
946.907
940.819
948.782
946.139
947.800
946.058
941.976
951.215
944.191
946.371
954.191
943.770
943.436
957.674
954.230
948.150
956.064
949.963
953.726
962.251
951.804
954.251
963.934
952.700
950.627
955.460
963.732
951.550
966.770
966.167
954.419
958.371
964.954
956.885
963.482
958.612
963.346
965.434
963.612
965.204
964.440
965.583
958.641
964.055
965.485
964.486
960.704
971.762
964.973
975.068
971.739
977.425
974.752
974.727
973.302
970.793
980.880
967.702
969.704
975.386
979.083
968.154
980.173
976.517
981.065
975.060
983.418
986.153
982.821
973.751
984.086
977.246
973.389
982.643
983.683
981.731
990.865
977.220
979.489
977.905
988.642
980.615
974.182
976.714
973.057
973.734
977.419
975.528
982.385
976.744
976.176
972.878
985.935
978.221
976.196
980.980
983.450
974.971
976.628
978.326
969.405
979.256
983.198
979.749
977.154
976.934
970.348
966.861
977.404
977.480
972.886
978.946
980.274
967.822
976.713
975.031
973.587
971.909
977.246
972.004
968.115
963.822
972.254
970.915
970.920
966.195
962.891
965.006
966.111
972.496
965.955
968.402
960.055
968.565
963.834
968.249
960.567
964.328
973.156
965.422
958.172
967.890
959.210
962.849
967.539
957.981
955.102
961.705
965.224
969.966
954.709
966.709
958.744
964.284
954.617
957.233
953.253
967.327
957.543
966.858
956.501
952.007
951.549
954.049
956.587
958.496
961.858
953.374
959.850
952.117
958.674
958.576
956.108
962.108
955.520
955.639
959.024
958.518
952.836
954.777
946.459
957.467
950.349
955.483
944.048
957.079
945.392
943.816
953.372
956.671
941.973
952.698
946.131
944.932
945.899
951.132
941.112
948.766
949.130
940.269
952.956
950.932
943.635
939.996
952.015
944.576
949.574
950.461
942.959
941.755
942.127
950.174
948.496
936.387
935.816
935.667
950.277
938.382
938.397
942.758
942.711
946.259
933.781
945.120
937.885
947.196
945.942
938.354
932.198
932.976
940.347
933.497
945.560
936.794
934.030
938.238
932.350
934.618
941.528
942.587
932.622
929.034
930.562
929.454
941.914
932.016
930.230
939.299
931.326
929.976
928.468
935.129
936.263
931.555
937.165
923.624
931.853
938.029
922.036
927.196
937.372
931.784
922.241
928.848
925.486
923.207
930.047
924.806
926.368
920.174
923.334
921.404
927.969
922.866
932.020
924.698
918.693
922.612
928.179
921.024
923.041
912.291
914.293
922.587
920.130
909.075
912.017
911.767
913.829
913.414
902.949
908.354
903.398
905.554
900.775
894.804
893.294
901.874
902.457
894.418
903.804
902.182
892.424
898.295
892.712
889.884
889.677
895.918
881.144
889.782
880.992
888.292
876.295
881.454
881.845
871.103
885.264
881.826
873.196
872.951
874.255
875.742
873.130
862.217
865.195
871.033
857.751
858.436
856.375
860.629
853.586
865.434
851.073
857.884
857.747
859.324
847.357
857.264
854.025
850.014
847.803
851.586
846.611
848.789
845.864
848.835
847.679
838.099
839.435
846.047
831.897
836.698
829.360
832.055
834.218
830.684
828.904
831.749
821.947
824.376
819.914
826.453
824.372
825.983
814.039
816.830
819.450
815.009
809.609
807.302
816.006
815.111
806.051
807.833
800.866
811.852
802.053
811.828
802.579
807.958
809.465
793.545
806.533
800.058
802.550
799.546
791.198
788.702
789.649
788.086
788.195
787.780
787.598
781.338
789.567
788.445
786.201
776.746
787.128
772.820
779.564
771.849
771.969
770.561
770.804
777.813
773.905
774.541
766.378
759.459
765.883
772.912
770.593
757.669
764.767
759.901
751.200
755.340
761.605
750.639
756.573
746.891
750.582
745.871
745.689
754.287
739.404
744.668
743.513
746.894
748.621
736.921
734.017
735.685
735.054
740.860
729.982
738.637
733.584
727.282
725.146
730.268
733.911
732.931
725.531
728.305
719.529
715.525
727.204
715.033
722.009
717.063
720.355
712.703
713.801
706.740
711.612
718.257
710.450
709.104
704.695
703.049
708.088
697.861
704.271
708.493
697.917
695.628
702.531
700.403
700.851
701.291
693.520
696.691
697.112
689.171
