108.278
118.345
116.466
121.936
121.491
111.030
122.294
124.700
126.430
123.567
129.463
131.569
133.458
124.246
135.153
133.615
133.223
138.787
127.701
126.340
127.402
129.332
142.932
143.233
138.357
134.787
136.457
142.776
151.122
146.799
151.091
151.270
148.669
156.667
145.636
156.800
159.964
150.704
157.213
160.822
154.997
149.615
156.195
161.741
160.475
165.573
161.100
159.417
169.287
168.624
174.546
163.905
169.743
165.067
169.097
164.549
175.987
170.500
175.885
171.338
170.073
172.021
176.357
182.397
182.685
184.967
185.041
184.382
193.879
180.956
182.854
194.005
184.426
184.434
189.790
199.180
191.318
188.560
203.239
192.872
199.902
208.001
195.166
198.646
202.086
203.761
199.541
208.751
215.626
215.329
213.145
216.853
206.877
215.421
221.645
210.774
217.289
211.457
224.736
225.919
218.071
229.721
215.783
227.031
223.325
230.296
232.529
231.226
232.344
231.226
238.950
240.258
239.231
242.692
238.173
244.228
237.659
241.460
244.786
238.986
242.347
235.602
245.316
248.221
248.516
244.129
247.984
257.607
250.894
251.757
245.819
251.978
253.592
255.806
263.097
258.419
262.489
256.801
263.019
265.288
257.358
267.344
273.925
269.634
271.964
271.931
269.181
267.622
266.339
266.232
268.534
281.464
272.722
283.977
275.840
286.777
281.026
283.929
287.543
286.759
278.636
284.357
287.759
281.573
292.183
294.846
287.575
291.018
288.110
289.682
294.866
292.278
292.320
307.369
300.240
303.952
308.922
296.609
299.932
300.263
304.828
303.916
303.369
303.499
305.562
317.192
306.143
321.200
322.533
318.378
319.852
319.182
324.848
328.058
329.731
329.475
328.312
321.344
325.155
328.819
333.623
331.083
328.221
324.358
333.634
334.301
341.000
329.479
329.078
334.952
337.692
336.581
341.647
346.759
339.880
340.091
342.496
351.095
351.668
341.702
356.504
346.044
348.579
358.778
349.625
358.222
352.795
363.673
358.031
359.614
358.169
357.838
363.599
367.636
366.900
369.506
361.283
368.636
374.416
373.138
363.945
376.377
370.533
378.173
366.652
380.424
370.040
383.469
380.162
374.209
377.153
387.788
384.414
376.489
378.185
384.402
383.322
383.373
389.126
391.086
395.692
395.374
384.373
390.549
401.565
398.228
398.148
394.197
401.431
404.752
398.332
402.584
408.284
399.651
408.865
400.058
411.914
413.796
403.336
409.570
403.555
408.887
414.792
421.061
421.238
422.471
417.907
421.859
425.728
419.984
417.285
428.505
419.560
421.944
421.079
418.110
421.216
425.386
433.441
427.290
426.211
426.487
436.186
441.874
442.368
437.089
440.115
440.213
446.442
437.267
438.294
448.363
442.691
444.469
446.213
443.304
453.673
453.157
454.461
446.435
446.264
446.968
460.173
460.590
459.523
454.814
458.678
451.797
453.339
456.583
455.036
463.464
462.031
465.668
465.108
467.320
462.191
463.903
464.658
465.488
476.914
472.530
471.828
473.508
481.149
484.205
482.272
473.075
480.713
478.915
486.430
476.998
486.529
479.832
488.641
479.867
488.229
491.627
498.483
496.723
500.266
488.225
489.314
491.125
490.953
498.536
495.142
501.553
508.724
505.397
496.245
498.551
502.398
504.318
505.373
503.345
504.271
514.157
515.091
511.740
513.911
513.622
517.275
518.772
525.054
512.579
526.735
514.892
520.508
518.454
525.978
522.928
532.592
527.213
522.402
530.284
522.346
529.332
524.255
526.199
534.084
530.016
540.463
529.743
542.552
534.313
540.676
539.213
548.262
535.823
551.350
550.065
551.892
552.628
541.661
548.123
552.872
542.927
544.510
555.080
548.930
561.570
550.291
548.772
549.764
552.912
565.456
564.510
557.833
565.895
561.344
557.612
559.760
571.219
572.008
560.420
573.160
569.020
573.741
574.390
569.514
571.223
579.391
578.237
579.459
578.132
579.400
579.194
585.022
587.056
577.672
575.936
584.586
588.717
582.042
584.242
591.454
593.005
588.691
598.236
590.072
596.821
596.798
593.360
589.234
595.294
593.406
592.851
605.811
596.404
595.198
606.414
603.075
608.895
602.760
608.129
613.430
603.800
612.609
603.929
609.068
617.581
607.210
609.661
608.348
610.824
613.062
611.996
619.419
620.653
621.334
614.257
615.582
630.898
625.443
629.742
624.931
634.509
628.930
624.847
626.780
634.117
635.258
629.893
631.220
635.683
630.116
638.866
640.210
643.180
647.726
636.182
648.264
639.946
636.260
651.666
650.077
652.027
654.582
652.159
644.096
652.081
656.820
658.472
651.660
657.261
654.158
655.349
662.346
651.024
660.645
654.906
659.894
668.877
670.604
666.275
661.490
659.633
669.280
663.827
665.281
673.135
673.721
675.998
667.252
667.487
678.040
675.820
681.720
672.662
678.683
686.132
686.192
682.888
680.469
680.083
691.725
682.183
693.576
685.767
693.938
682.176
692.710
698.640
686.693
690.088
700.842
689.194
688.555
692.180
694.797
705.356
694.777
698.044
694.369
701.244
709.217
701.719
699.567
699.853
705.780
710.911
709.812
708.187
712.773
712.344
705.849
711.894
709.425
708.746
725.430
721.395
726.492
721.045
728.562
719.383
729.589
729.083
725.780
730.636
723.466
735.374
724.003
733.072
721.573
728.299
725.883
724.530
727.116
726.585
726.291
725.842
723.921
730.979
739.187
733.253
740.176
733.074
740.391
730.930
728.629
726.521
730.477
728.648
738.944
742.603
739.448
728.567
731.797
738.500
733.449
731.826
740.363
738.162
744.843
733.263
738.775
736.976
737.492
746.293
747.351
733.725
746.993
743.620
737.741
741.443
742.769
748.080
743.671
741.174
749.996
739.915
746.547
737.632
751.807
752.597
738.320
746.962
741.769
750.763
752.748
753.054
751.786
748.208
740.004
743.634
753.403
744.026
752.428
743.154
752.162
745.409
755.776
752.462
749.530
753.734
751.166
747.752
748.221
748.381
758.489
756.036
751.866
753.844
754.304
753.013
760.599
749.930
761.779
757.254
760.389
763.561
749.664
757.016
764.093
752.584
765.644
751.273
757.661
759.521
761.578
766.433
755.185
765.474
767.064
767.152
763.520
764.795
757.871
767.273
765.304
768.900
771.343
766.313
765.133
764.134
758.971
757.988
764.048
766.774
760.726
773.591
770.351
764.619
771.856
768.183
760.694
762.293
762.726
769.810
767.376
762.144
769.825
764.970
766.160
768.254
766.150
773.022
774.183
764.804
769.181
780.560
772.557
772.049
781.566
776.977
770.364
776.121
768.100
780.324
782.582
772.434
770.931
771.820
780.878
777.602
772.029
772.534
783.324
777.751
784.747
777.627
774.234
785.643
786.206
773.096
781.839
781.035
775.149
785.727
778.211
779.614
784.652
776.981
782.974
787.957
780.965
791.933
790.184
780.340
790.236
790.403
780.495
791.432
792.506
787.723
790.875
781.171
790.427
784.870
783.244
791.552
794.337
788.590
782.143
795.755
791.823
798.331
786.741
784.256
789.870
796.928
785.404
787.256
789.867
796.988
795.709
799.862
799.546
791.017
799.627
800.767
799.501
801.002
801.777
803.489
795.578
805.854
796.774
792.248
803.267
801.356
808.142
802.226
808.629
803.877
797.015
802.712
810.769
800.974
799.112
809.659
803.969
799.295
805.388
804.115
800.112
807.016
815.273
801.703
805.197
811.796
816.073
815.593
817.583
806.096
812.077
817.913
814.554
817.901
814.458
814.803
814.393
806.955
813.660
811.701
813.349
811.143
811.541
820.682
825.212
812.448
820.620
813.433
813.212
812.213
820.314
826.434
815.147
824.472
815.703
821.183
815.488
815.679
827.984
822.647
832.429
819.161
831.156
823.863
822.473
833.088
826.226
829.323
822.123
827.021
825.757
835.418
824.367
823.762
832.975
836.812
829.131
834.260
835.297
831.752
837.082
827.342
838.067
831.449
837.613
843.004
840.738
840.445
836.252
834.867
835.008
834.900
841.345
836.674
839.933
836.794
835.946
848.270
848.046
844.913
843.571
849.287
842.519
839.972
840.277
848.341
842.369
842.057
844.731
852.608
847.792
847.723
844.943
851.486
843.162
855.437
855.528
844.939
855.223
854.861
844.850
846.636
847.763
858.340
846.382
844.614
859.265
845.641
859.848
850.059
853.738
850.559
851.435
860.296
860.161
850.716
860.930
857.388
865.052
861.655
862.634
853.651
862.250
861.611
866.527
859.399
860.707
858.971
854.450
867.742
867.448
865.083
859.332
863.038
865.811
867.115
869.701
868.301
870.433
864.047
864.546
869.777
869.601
873.018
864.982
865.003
871.624
873.404
867.533
865.016
877.284
869.822
876.773
876.840
866.582
874.818
870.240
870.022
867.352
869.179
869.240
883.253
869.586
885.252
876.206
872.559
876.625
881.162
881.090
871.580
882.527
876.077
878.240
869.006
871.645
870.238
877.828
877.837
879.147
878.636
868.601
874.805
880.928
878.382
882.409
871.575
873.448
880.337
867.703
876.565
879.024
880.780
871.649
873.543
871.334
869.300
874.477
865.879
877.400
869.583
873.123
879.240
872.973
877.394
868.079
865.501
865.310
877.634
873.071
868.897
864.460
866.511
863.109
877.661
864.991
877.179
867.623
863.216
877.004
869.524
876.375
861.338
862.029
870.218
872.851
868.609
864.961
867.099
871.128
862.174
865.508
869.735
861.359
873.228
863.152
869.781
859.554
874.078
871.236
866.457
862.368
867.815
872.240
863.382
872.372
871.411
869.436
866.918
863.131
868.289
868.777
870.147
869.616
864.323
866.721
868.408
869.720
859.344
857.581
855.684
870.673
859.661
869.910
862.822
859.609
867.578
868.550
857.681
868.409
865.646
863.653
865.126
860.004
855.593
854.581
864.104
860.292
867.746
859.343
867.378
855.842
865.440
866.638
861.003
853.806
855.579
862.195
858.100
859.362
852.387
853.394
854.696
861.210
859.120
859.303
857.547
855.469
861.691
860.402
862.546
858.804
851.733
850.555
859.105
862.108
852.401
851.824
852.885
857.906
851.579
847.383
855.893
851.718
854.529
860.539
859.570
861.029
846.046
854.057
857.123
861.228
855.918
853.434
860.494
851.033
859.975
857.302
849.498
855.959
849.422
853.581
859.290
843.641
847.559
849.465
853.486
850.121
843.438
847.436
845.521
842.419
847.569
849.429
854.226
850.027
854.071
852.924
846.460
852.379
855.112
854.006
846.027
848.004
851.988
852.808
855.354
850.494
840.038
853.294
853.582
853.692
848.242
843.464
847.511
848.463
839.150
844.123
840.219
850.623
846.782
837.846
847.475
840.815
848.476
847.655
849.715
849.295
843.685
844.134
834.135
838.199
847.091
838.162
840.656
846.991
847.949
841.368
845.316
838.130
839.583
832.701
839.025
835.065
837.651
844.278
831.914
830.513
835.536
832.031
833.112
843.818
830.406
838.893
839.054
837.667
829.406
842.080
835.969
830.116
826.749
840.060
832.276
837.669
828.472
835.858
830.255
824.082
831.822
835.397
826.844
833.363
834.248
835.530
821.255
821.057
829.245
834.611
832.144
831.921
819.940
830.183
831.565
825.451
833.409
823.168
824.986
819.286
831.471
824.188
831.685
827.887
824.507
828.076
827.754
815.514
824.960
820.531
816.735
817.521
814.433
817.945
827.095
828.684
826.700
813.575
819.819
821.855
812.172
821.472
826.046
812.523
813.689
823.353
812.559
815.434
824.525
809.534
818.634
823.242
814.690
819.303
808.027
821.896
809.045
808.813
817.020
811.790
817.905
819.883
814.229
813.979
819.781
808.139
810.043
806.377
814.644
815.333
816.869
802.230
805.401
814.679
802.657
808.023
813.510
802.473
813.157
814.240
809.664
809.070
803.825
810.499
814.135
812.115
808.463
798.595
802.943
806.715
802.146
803.811
807.238
809.813
808.581
800.328
805.270
804.577
797.545
806.406
801.964
804.539
795.605
798.548
802.358
799.205
793.889
807.120
806.958
796.710
791.206
792.149
790.420
793.164
791.269
789.975
794.696
803.255
801.750
799.197
797.999
796.734
800.940
787.297
789.205
792.104
788.811
796.377
790.420
787.896
797.140
792.066
789.131
785.034
787.283
795.142
796.653
784.190
789.037
797.035
783.771
786.620
787.500
782.080
792.705
789.772
787.045
781.408
784.198
779.345
782.423
786.891
780.297
788.350
775.816
781.171
775.169
781.447
778.484
783.117
778.328
773.180
777.773
771.740
767.486
772.980
766.068
778.454
779.188
772.657
763.648
768.669
775.429
771.794
761.537
773.918
769.047
760.535
763.613
762.641
768.198
769.826
760.319
766.971
755.719
753.064
761.907
750.009
764.005
751.821
756.982
761.968
758.083
759.838
756.020
744.108
758.103
748.549
744.641
749.667
754.254
741.705
745.119
745.837
752.192
748.318
742.282
749.108
736.025
741.798
746.238
737.379
730.621
730.492
732.295
743.102
740.911
735.511
741.294
736.441
728.533
726.295
730.037
731.108
724.841
731.552
724.537
733.570
726.443
731.065
717.703
721.946
724.070
724.924
725.219
712.998
718.144
726.547
720.686
715.584
716.650
712.034
722.495
716.073
706.596
711.159
717.484
713.107
714.133
708.586
715.821
706.796
708.480
701.369
702.548
704.169
708.807
704.627
703.547
699.046
700.961
703.084
706.292
696.798
701.515
691.254
700.385
700.466
694.818
698.264
689.526
686.698
690.755
692.338
694.431
694.494
692.891
682.029
684.888
685.789
680.195
677.964
681.289
691.399
687.647
674.922
679.495
678.900
680.811
687.130
686.579
670.469
679.755
676.609
678.701
671.828
676.543
674.775
679.630
675.705
670.378
670.226
661.839
661.422
661.266
675.010
665.333
670.856
661.186
670.183
658.363
668.913
661.260
655.352
662.560
658.100
662.026
650.985
662.991
651.871
648.937
656.234
650.402
656.018
654.038
652.656
655.394
654.062
643.066
643.619
643.161
654.104
648.992
639.842
644.768
643.542
636.994
650.811
647.318
636.798
641.728
635.401
641.185
640.131
636.208
629.221
638.033
637.160
633.039
629.787
638.475
631.616
631.011
630.904
639.372
633.543
628.292
637.811
633.644
630.645
636.216
641.527
632.054
637.424
627.700
640.803
640.035
638.799
637.906
628.031
630.477
633.665
631.922
638.141
640.550
629.843
634.666
628.500
640.230
628.070
636.393
629.344
628.893
639.683
637.458
628.475
631.455
632.207
637.761
635.221
627.427
626.907
630.141
627.060
626.545
624.254
633.622
625.048
630.169
637.052
622.862
627.546
628.558
625.219
628.112
627.635
622.593
623.701
630.422
627.113
625.680
625.861
627.174
626.639
633.738
627.790
637.031
629.693
626.605
622.231
630.606
629.051
630.987
623.658
628.180
630.597
623.891
631.090
629.008
627.850
623.950
624.791
619.926
623.637
621.791
624.933
627.943
635.462
622.893
631.012
634.053
630.236
627.954
625.478
634.385
627.391
625.319
627.097
628.978
619.729
625.469
629.177
627.447
631.450
625.770
632.991
630.247
626.041
633.610
623.055
619.895
627.563
619.726
618.450
629.334
630.525
629.006
626.458
617.730
629.958
623.357
619.431
624.329
617.925
624.972
628.533
617.242
625.123
620.330
624.099
630.913
616.881
631.147
623.328
618.341
620.649
627.931
627.570
624.904
615.288
627.470
629.275
627.856
615.111
625.276
626.813
615.795
618.605
621.850
624.623
628.002
622.014
624.680
626.893
619.592
615.654
627.934
622.100
618.268
621.225
623.537
624.100
614.084
615.165
625.084
627.841
622.429
616.768
615.723
621.075
617.851
618.768
622.676
613.432
621.520
617.836
617.548
618.805
621.149
620.762
612.588
622.001
618.764
619.986
624.447
625.561
617.042
613.069
623.234
612.635
614.701
619.529
615.010
616.972
610.366
619.292
617.978
623.131
620.262
622.325
626.657
616.772
625.813
633.106
620.115
634.338
631.518
628.216
636.605
627.467
634.617
630.587
638.771
634.981
641.847
639.859
639.236
649.730
641.595
649.765
654.102
650.345
651.107
650.424
653.477
651.360
660.079
662.595
654.586
665.828
666.213
657.261
664.114
663.770
668.341
661.615
667.183
672.001
667.651
674.278
673.579
668.915
671.894
675.947
683.057
688.299
682.179
690.708
678.648
691.906
683.880
681.908
695.663
685.947
687.280
700.629
691.395
699.402
690.954
703.376
704.291
708.656
709.825
707.781
701.388
709.244
704.192
703.036
704.487
719.683
713.097
714.326
714.988
718.105
719.102
725.064
721.585
719.326
723.519
719.260
722.411
723.803
723.791
727.788
736.955
729.529
730.066
738.174
733.543
734.392
747.044
741.956
749.170
742.181
739.676
742.570
746.485
756.683
753.622
754.571
755.973
751.491
760.673
755.812
765.744
763.273
762.731
766.587
764.306
758.654
768.662
772.359
772.512
777.182
774.571
766.552
766.317
767.551
775.960
772.206
775.637
772.384
778.154
777.865
788.616
782.109
780.902
782.635
782.556
789.338
790.126
793.988
798.068
796.420
792.514
800.454
796.143
803.728
803.682
797.363
806.907
799.238
815.506
811.046
817.792
809.509
805.372
814.158
810.016
813.637
816.247
818.512
822.828
818.233
824.255
821.369
829.757
829.969
827.361
832.458
827.432
830.316
830.494
836.587
831.292
844.473
843.420
843.213
849.728
840.289
844.232
842.606
853.100
854.134
852.609
843.259
845.863
852.109
852.681
850.182
852.111
853.600
861.650
860.017
856.278
865.235
869.805
860.909
864.355
874.944
864.062
876.786
873.148
867.993
879.018
872.870
881.386
