592.649
587.312
584.558
597.747
593.137
598.538
591.602
595.721
602.954
603.053
597.870
598.823
599.880
608.381
596.105
602.292
596.464
601.987
609.423
613.241
615.496
608.256
602.215
615.061
606.666
617.755
615.401
620.325
611.718
614.029
618.308
621.794
612.322
628.714
618.352
623.754
626.822
625.104
633.800
630.680
634.779
626.889
637.687
625.503
632.247
639.667
641.888
630.265
642.276
635.783
638.196
631.434
637.467
640.732
648.473
642.832
643.746
651.116
653.436
640.951
647.647
641.145
657.540
648.481
658.993
653.544
658.372
650.266
649.990
664.303
650.351
654.969
662.835
664.717
659.946
655.525
661.089
669.581
670.189
668.520
662.607
666.399
672.977
664.540
678.329
677.326
674.172
677.024
681.732
677.616
685.006
673.671
676.946
675.106
678.885
677.092
688.358
690.993
686.278
692.793
693.602
690.890
686.878
694.251
689.210
695.856
686.903
690.836
689.138
701.347
695.515
704.270
706.126
702.508
698.819
694.215
701.057
698.173
701.503
698.744
702.462
710.324
714.186
702.855
703.339
706.649
716.569
709.819
707.949
715.123
711.626
722.954
717.053
723.569
718.885
723.301
723.719
721.534
732.377
726.402
722.531
721.699
733.107
732.119
731.549
738.329
727.257
732.749
734.179
731.508
738.804
741.594
731.255
732.719
738.026
741.391
745.891
741.853
745.488
739.977
753.285
741.696
743.537
748.282
750.855
756.652
756.938
753.533
761.247
751.404
748.597
752.583
754.599
763.842
758.657
754.845
758.509
761.978
764.271
760.558
760.983
765.219
764.333
775.228
764.887
770.726
778.163
772.711
769.648
768.481
769.093
783.712
781.192
772.641
772.877
781.655
786.515
783.231
778.734
783.597
782.907
792.226
778.565
788.345
791.380
787.607
790.706
779.094
782.847
776.954
792.014
782.194
783.962
790.041
777.921
779.491
787.440
780.578
790.636
780.479
788.180
785.666
788.396
780.832
775.697
785.111
783.640
788.852
785.716
775.221
774.769
782.676
784.713
782.538
783.547
772.550
775.340
780.869
777.729
774.337
781.032
775.086
773.571
784.216
784.854
780.098
779.949
775.424
783.068
781.809
775.942
778.830
778.449
781.543
777.214
769.615
782.188
782.657
768.799
775.845
772.171
780.572
782.569
768.797
772.317
769.359
777.793
773.469
773.147
778.341
767.966
774.437
772.599
773.619
777.367
772.738
766.914
766.914
777.454
776.130
771.850
768.488
769.137
766.963
771.100
777.818
771.993
772.822
777.827
766.395
776.531
768.007
773.838
772.523
771.808
771.083
777.381
776.771
770.052
766.256
769.394
771.321
771.233
760.802
770.132
765.799
772.061
774.002
770.908
763.681
774.468
762.771
771.264
773.396
769.560
764.888
762.923
761.231
762.851
773.675
762.769
766.578
762.655
765.146
767.986
760.063
762.758
765.778
761.791
763.289
758.616
761.426
769.239
768.294
758.247
766.316
766.145
768.078
766.183
762.025
762.230
766.368
754.670
758.297
756.257
762.874
760.442
761.911
755.807
759.401
767.897
759.289
754.130
763.755
758.712
764.655
753.006
754.171
753.325
755.146
755.744
754.544
765.300
754.153
750.699
754.373
765.501
762.252
756.546
762.534
760.750
756.870
749.851
749.624
753.523
761.717
759.802
761.402
755.944
762.196
761.843
756.183
763.534
762.234
758.440
751.791
755.311
762.154
749.351
756.739
748.157
756.845
750.316
760.977
753.240
751.926
755.246
749.342
759.849
750.795
744.980
760.691
754.958
752.549
757.102
760.975
764.921
759.668
772.235
765.277
778.125
771.219
773.169
782.710
781.899
780.649
783.062
788.994
786.056
792.361
785.866
794.803
785.568
795.539
802.163
793.762
797.933
797.594
796.496
798.243
807.880
813.132
809.941
818.043
807.710
808.409
819.323
811.776
821.684
829.548
818.070
830.544
828.793
829.048
828.678
831.979
833.903
836.454
844.868
846.944
850.130
839.049
842.590
852.910
849.687
844.214
847.519
852.775
852.807
857.883
853.926
863.883
867.272
861.797
871.972
870.620
875.240
878.038
876.615
881.387
870.965
883.745
875.841
887.251
886.430
884.994
896.615
893.319
899.944
890.789
902.182
904.687
906.713
905.766
898.852
901.551
907.693
904.994
912.966
912.179
918.608
923.619
917.772
923.951
922.365
916.483
918.517
924.425
924.541
931.006
929.187
927.680
936.869
945.120
939.251
939.284
947.139
941.040
951.781
951.945
952.600
957.960
949.556
952.270
964.179
958.209
960.546
963.915
959.826
962.230
962.623
970.943
969.132
981.011
975.124
985.259
973.083
984.849
980.145
978.472
986.114
986.907
985.153
991.276
1000.934
989.852
995.637
1007.018
998.447
999.078
997.930
1004.123
1000.976
1007.698
1004.527
1014.957
1009.349
1020.100
1010.885
1027.498
1023.584
1025.478
1033.454
1034.653
1022.228
1036.853
1038.477
1028.978
1043.497
1034.890
1038.601
1047.313
1044.990
1050.930
1051.761
1043.671
1046.473
1055.917
1057.023
1058.606
1059.495
1067.360
1054.809
1063.003
1064.957
1068.142
1075.275
1066.515
1075.450
1068.245
1079.185
1084.475
1085.222
1079.831
1082.969
1091.808
1088.522
1083.225
1096.690
1088.203
1097.271
1101.741
1097.623
1099.850
1103.157
1100.098
1101.441
1103.295
1115.022
1117.724
1117.465
1105.445
1101.976
1111.282
1107.438
1100.864
1106.367
1103.444
1094.623
1089.083
1096.712
1091.795
1088.947
1089.326
1086.121
1088.380
1082.571
1082.227
1080.314
1069.715
1067.872
1073.203
1073.314
1075.186
1069.957
1064.711
1058.979
1058.533
1056.351
1060.137
1056.721
1049.183
1055.840
1044.982
1045.289
1039.621
1043.262
1036.200
1037.870
1036.663
1041.841
1040.884
1034.878
1029.310
1033.693
1027.022
1033.068
1023.910
1020.230
1025.686
1017.678
1021.138
1022.693
1011.776
1019.979
1005.165
1012.648
1013.464
1006.613
1003.619
1004.856
1006.749
1002.023
988.214
993.601
990.303
993.977
992.827
986.796
980.822
988.797
982.162
975.992
976.147
972.333
977.056
975.354
970.747
962.207
973.433
957.980
957.767
955.624
951.556
953.391
952.961
948.426
948.875
948.114
943.472
945.738
943.093
937.264
939.990
933.524
935.058
926.984
933.888
937.666
921.076
925.128
922.952
925.240
914.879
923.026
920.791
919.973
916.006
905.100
915.165
914.719
910.656
907.832
904.487
899.977
892.855
889.600
895.976
893.924
892.073
892.550
880.256
880.737
890.728
885.212
872.602
873.874
877.769
871.504
870.229
871.887
862.794
868.429
871.312
869.890
858.080
852.795
861.246
856.913
858.444
845.382
850.169
843.988
851.303
848.425
847.814
841.932
837.532
842.627
835.340
840.503
831.074
831.169
826.158
829.920
818.682
823.485
823.949
816.460
820.231
818.155
809.898
812.226
814.492
811.170
809.805
805.942
797.453
803.725
797.798
795.271
789.887
790.871
795.415
793.290
793.889
781.549
791.025
781.752
780.865
771.533
778.241
779.609
775.573
763.375
773.328
759.887
761.485
763.874
754.894
759.904
754.427
750.946
756.805
759.589
746.722
750.652
752.148
752.352
740.017
739.222
736.384
738.336
737.095
742.564
752.735
740.370
753.560
752.610
753.232
757.630
743.446
749.645
754.908
759.101
759.378
763.143
762.943
750.051
751.960
766.660
754.255
758.342
761.766
770.268
756.309
772.167
758.208
765.106
775.242
773.942
768.449
777.627
779.519
770.918
769.745
776.317
767.662
771.890
775.379
777.614
778.510
779.930
787.381
786.971
784.190
776.748
783.447
782.229
781.207
780.424
789.173
795.102
789.680
791.970
796.025
796.041
789.243
789.727
794.370
795.821
799.861
806.100
796.484
799.500
801.053
798.376
810.809
808.628
802.476
803.946
810.708
806.737
809.852
801.837
808.313
807.986
819.096
808.375
811.568
811.068
813.652
821.927
821.350
812.420
824.656
827.823
821.565
816.712
817.503
822.043
823.158
833.254
828.181
820.312
833.164
825.960
828.897
830.841
832.279
839.883
829.815
828.117
833.084
830.388
830.560
837.814
838.215
845.250
849.249
835.825
850.105
841.684
852.123
853.331
847.930
856.499
849.779
850.995
858.105
857.984
852.116
856.707
847.285
849.683
864.529
860.620
863.693
863.686
856.314
854.208
855.068
867.260
870.142
859.022
859.204
863.866
870.011
874.445
874.870
866.622
876.894
867.266
873.355
873.336
879.088
883.181
879.592
873.507
873.805
879.308
886.911
878.907
879.723
882.499
891.997
889.446
881.309
895.555
887.799
888.820
896.147
886.191
897.366
887.735
899.690
889.294
898.510
903.668
902.380
894.928
901.549
904.177
899.216
909.523
905.983
908.578
900.795
908.984
912.826
914.534
904.334
905.210
916.315
919.586
906.421
920.479
917.487
920.306
914.948
925.028
916.032
912.032
925.765
920.859
921.533
922.220
920.849
927.311
923.272
934.260
923.070
924.528
925.698
918.756
922.118
931.562
929.984
920.106
927.705
930.365
926.751
926.589
927.772
920.269
920.132
918.178
931.402
920.215
921.995
929.888
927.629
918.311
928.621
924.227
924.512
930.854
925.247
926.063
920.325
918.025
920.266
920.906
919.992
923.976
923.344
928.026
926.521
920.557
926.073
929.151
925.917
926.553
925.361
917.838
920.525
924.397
919.907
921.578
928.483
920.391
923.374
931.501
929.449
932.040
918.088
921.154
924.933
931.227
927.112
922.147
917.831
930.161
918.279
921.066
918.654
931.734
923.928
929.370
926.358
921.923
916.173
919.919
924.531
923.789
924.570
916.739
919.493
929.568
917.270
922.527
925.877
928.728
922.263
924.941
927.666
923.071
917.573
928.798
920.619
930.086
928.760
917.659
921.690
922.695
916.489
915.817
930.654
920.259
915.247
920.849
930.690
928.952
923.626
920.659
918.966
925.332
915.401
917.961
914.902
926.481
926.409
927.986
919.274
920.691
922.651
922.384
929.768
914.470
917.907
925.987
922.390
926.278
915.698
917.753
925.124
928.236
927.473
929.259
926.525
922.166
921.309
913.913
915.552
915.186
914.074
914.450
918.031
922.599
915.881
928.647
918.325
920.942
921.702
928.357
920.862
922.501
920.977
928.157
928.064
914.041
921.057
916.319
916.147
916.465
926.417
912.879
922.838
925.610
914.570
927.092
920.880
924.263
918.298
926.796
926.768
924.644
913.479
916.349
921.574
913.588
917.126
919.372
927.884
917.278
927.672
923.448
925.060
912.555
912.760
921.331
922.509
913.778
919.863
924.826
926.838
915.152
911.857
912.601
922.965
916.150
911.956
911.520
919.896
915.649
914.457
918.780
923.061
921.981
924.108
914.199
912.875
917.921
907.505
915.039
913.728
903.018
916.628
905.509
900.121
898.164
902.083
901.308
903.737
904.798
901.523
892.957
892.755
894.708
895.105
888.547
881.103
889.356
887.347
888.210
875.094
881.669
875.929
885.799
870.265
869.875
871.899
873.299
864.533
867.619
861.844
874.206
868.745
858.587
868.170
856.556
854.183
863.682
855.236
863.367
858.707
851.705
854.981
857.103
855.709
852.487
845.704
838.194
836.296
845.393
843.710
845.221
844.192
836.447
838.204
837.471
834.249
823.908
832.426
826.275
831.336
823.814
829.752
818.305
816.863
816.581
810.741
817.374
816.340
814.086
815.904
811.663
813.077
804.882
804.592
811.884
803.350
799.873
791.815
792.828
796.498
793.294
798.660
792.933
783.069
786.035
791.255
791.883
777.452
781.939
779.873
775.642
786.930
780.150
775.218
776.902
765.862
769.139
775.594
763.691
765.696
764.070
769.824
756.277
764.468
758.617
755.306
758.901
762.693
755.832
757.056
754.608
752.747
745.766
749.091
744.628
740.139
738.888
743.316
747.184
733.148
740.153
737.640
737.682
739.710
725.094
726.575
725.624
733.202
720.998
729.080
729.461
715.651
727.940
722.159
718.811
718.275
715.943
714.314
704.650
718.126
714.678
713.592
703.933
709.350
708.517
702.229
694.989
696.332
692.357
689.628
688.778
699.452
684.167
683.234
688.010
682.821
685.743
680.539
680.713
683.378
677.243
686.476
674.842
681.173
670.366
680.396
670.275
663.094
672.868
668.118
662.037
669.448
660.064
663.786
663.604
651.812
652.433
656.756
661.882
655.576
643.681
653.151
644.475
643.843
646.207
641.266
635.603
642.524
633.701
634.730
645.158
637.035
637.102
631.704
633.022
626.236
626.959
632.237
631.401
627.717
641.017
630.013
643.850
645.779
639.396
639.247
646.538
638.410
645.460
635.307
641.794
644.645
651.206
642.087
650.586
647.917
654.040
648.392
647.911
645.956
652.915
647.385
644.425
650.155
660.222
649.111
657.846
658.211
660.264
653.621
649.922
664.244
658.373
660.979
657.252
656.930
663.361
663.753
658.041
664.845
661.203
669.450
672.798
667.080
671.026
660.343
664.740
673.206
668.174
664.975
668.465
665.496
673.572
668.983
668.797
682.269
672.666
683.200
681.904
671.899
674.568
674.391
676.204
679.974
683.509
680.548
675.435
677.233
683.782
682.369
677.387
690.044
680.742
687.611
683.915
681.711
685.535
688.800
695.281
687.249
684.680
693.054
693.276
686.752
696.123
691.235
694.658
699.748
705.420
694.721
696.266
703.046
702.347
696.770
705.448
705.717
695.719
701.749
709.389
704.528
712.384
706.321
715.424
714.295
712.681
713.881
706.668
718.570
716.489
717.569
719.564
719.090
709.854
715.584
721.537
720.261
719.649
717.487
717.852
717.305
723.638
715.739
715.370
722.085
724.927
726.978
718.620
729.027
733.627
722.099
724.768
722.065
724.611
727.287
723.655
730.733
724.855
725.852
734.302
737.077
733.045
741.490
731.364
732.516
731.825
731.826
733.952
731.534
740.748
748.378
740.795
740.425
736.592
736.253
737.476
743.770
746.186
740.684
743.982
755.291
743.980
748.524
741.932
756.874
748.969
758.693
746.142
752.640
746.878
753.474
748.366
750.234
753.522
754.760
750.954
755.766
760.067
753.348
754.339
756.163
761.926
759.756
759.844
763.968
758.064
764.731
771.321
764.857
763.247
762.954
764.300
768.177
778.104
768.944
773.406
768.426
765.781
760.969
770.436
770.121
762.149
764.814
759.165
755.849
754.660
750.704
761.056
755.098
748.926
750.366
747.360
744.690
740.893
748.918
751.337
743.660
734.154
737.002
734.222
740.426
730.827
734.970
728.365
730.270
727.157
731.430
723.164
730.609
727.301
729.504
729.407
721.133
724.480
718.073
718.722
717.296
705.425
704.455
707.389
708.569
702.770
699.421
698.214
697.764
694.983
694.811
702.001
697.589
699.381
701.482
700.496
689.210
695.457
693.923
693.471
694.374
679.138
686.048
688.667
684.155
684.358
682.165
683.970
674.217
671.704
677.742
676.707
668.380
664.431
673.328
658.953
661.854
658.208
656.544
662.844
664.611
651.229
648.381
656.512
660.355
653.643
645.714
655.784
646.674
643.060
643.774
645.263
634.444
638.934
632.551
641.454
640.116
632.072
633.820
629.814
626.176
636.335
625.787
624.482
631.798
627.629
616.687
621.121
613.274
616.707
617.506
607.720
612.456
608.039
608.487
616.941
612.514
607.071
606.698
608.769
594.549
601.591
600.671
597.884
594.095
589.738
594.705
594.733
592.453
586.038
586.664
592.163
577.944
587.341
588.045
580.951
582.093
581.601
571.876
577.030
570.661
571.467
573.378
567.836
562.599
574.495
559.839
560.838
569.621
565.312
561.665
563.355
551.484
555.007
561.879
552.496
548.281
548.043
550.417
543.391
549.021
544.155
537.116
535.889
533.827
545.630
531.897
529.712
529.581
530.110
537.056
529.002
534.024
524.664
517.944
527.314
521.384
526.041
519.237
517.358
518.935
514.423
515.415
519.077
511.151
516.255
505.483
502.068
505.916
511.379
500.920
494.216
504.982
503.360
500.897
494.585
498.595
487.513
489.375
491.715
489.818
492.857
490.874
478.759
474.296
476.187
479.303
474.916
472.067
479.228
469.453
475.104
467.751
460.372
468.960
463.182
457.266
450.126
451.242
451.944
447.823
455.430
448.475
450.127
435.764
447.396
435.084
440.932
438.037
425.514
433.595
435.050
423.350
421.643
423.085
416.346
424.248
414.116
421.775
416.258
412.319
407.638
407.465
403.901
409.688
398.213
406.399
390.343
388.282
400.176
390.190
394.429
394.684
380.096
386.783
377.634
384.002
371.969
373.286
370.250
377.644
367.848
368.505
362.564
364.407
364.378
357.996
354.418
359.880
353.678
359.152
347.969
342.024
343.037
353.147
341.289
345.998
337.120
332.408
340.009
332.613
329.282
326.217
323.803
319.503
331.116
324.580
315.492
316.913
312.110
312.701
313.550
312.422
311.937
301.043
303.793
299.517
299.318
300.248
294.915
290.117
301.285
295.946
296.475
289.996
288.160
287.641
278.300
279.274
278.437
271.891
270.369
272.650
273.024
266.965
270.104
260.016
259.725
261.979
255.571
260.429
249.562
255.581
250.727
254.181
249.951
240.833
241.959
235.635
233.933
235.214
228.764
239.557
235.772
227.049
219.631
226.785
230.348
226.727
216.847
221.458
212.849
221.531
207.905
214.398
204.510
206.901
201.962
202.946
201.101
202.866
197.023
202.013
185.737
193.886
186.586
192.305
190.975
183.733
186.460
181.737
172.008
170.385
180.396
166.042
174.746
167.778
162.249
161.371
167.116
167.455
153.250
150.291
491.893
476.897
498.689
498.546
459.137
479.240
451.142
430.301
451.881
450.464
441.988
454.976
449.419
398.718
426.172
388.100
388.928
392.806
409.115
386.411
370.976
379.408
386.249
374.390
361.080
324.749
