196.249
192.358
206.182
203.195
196.764
212.412
210.720
201.786
212.098
211.369
208.872
216.091
220.311
226.035
230.836
220.111
219.695
232.430
236.759
238.456
235.287
241.991
233.621
246.742
249.653
243.368
254.502
249.061
252.754
247.489
253.651
250.157
258.180
267.246
269.677
262.569
268.831
262.402
270.348
278.276
273.072
278.137
271.188
280.989
275.371
291.915
293.834
289.177
288.252
285.867
299.222
302.823
302.784
305.737
296.992
304.314
313.041
311.820
308.350
308.090
318.302
316.741
316.782
323.486
320.484
315.739
328.218
334.332
328.888
334.955
339.885
337.883
334.876
334.652
334.118
345.528
341.268
353.420
353.026
346.873
348.108
348.403
353.410
359.611
354.313
367.656
366.340
364.043
367.671
376.336
366.661
376.570
378.599
383.819
373.213
380.997
379.835
378.602
386.568
393.862
398.116
393.713
388.671
391.531
399.511
402.523
398.437
410.518
407.139
405.682
406.659
410.693
420.846
414.978
411.675
425.423
425.450
419.593
421.446
429.885
437.795
426.514
430.525
432.009
441.471
440.223
442.223
448.058
452.872
452.456
444.073
455.142
460.902
459.958
454.278
468.253
468.710
464.114
468.086
462.620
477.797
470.566
474.723
470.561
475.485
484.744
479.528
477.481
479.333
490.316
483.034
497.891
492.666
491.474
495.772
498.916
497.719
499.956
503.460
507.860
506.510
518.724
513.469
513.944
521.142
525.057
525.959
519.312
531.975
531.249
536.177
530.076
534.201
529.074
533.087
544.332
547.706
546.580
538.461
550.468
550.637
551.342
547.055
552.909
561.096
556.840
554.431
557.959
568.102
560.839
568.760
566.806
576.172
582.602
569.395
574.868
574.723
589.020
582.165
585.501
595.305
591.704
588.651
598.510
599.016
598.774
594.069
601.143
599.690
602.874
593.045
598.907
603.830
605.563
608.732
603.386
606.580
608.377
603.298
601.917
613.339
614.969
607.879
606.077
615.626
610.870
618.858
607.715
619.910
613.848
611.074
619.039
621.583
620.709
627.423
617.321
631.402
620.692
622.076
629.029
620.068
628.234
629.297
629.037
639.320
625.442
629.557
632.288
637.241
632.125
645.305
639.781
636.663
634.169
637.708
646.370
647.995
639.424
637.861
643.548
648.657
643.705
651.925
657.083
658.381
659.658
657.458
650.258
657.075
662.918
653.082
663.636
657.902
660.683
660.760
662.087
656.608
658.832
659.364
662.328
661.698
664.573
664.816
676.914
676.455
677.236
671.715
676.764
668.305
671.744
679.379
683.219
682.356
682.236
684.506
677.616
684.702
691.815
677.612
680.849
682.157
690.739
691.024
697.949
689.431
689.559
692.924
689.900
701.349
700.132
690.438
696.084
696.534
703.478
698.088
694.733
703.563
704.561
705.205
713.889
711.022
706.186
705.320
702.499
705.504
709.508
719.815
708.597
714.049
714.644
721.836
713.299
725.692
715.263
721.698
723.898
715.394
727.008
729.672
726.764
721.698
733.272
723.823
723.141
728.169
728.611
736.638
729.423
734.196
732.698
736.190
735.550
732.176
739.627
738.685
735.001
748.504
745.688
738.739
742.328
740.650
745.485
753.369
746.809
745.656
749.344
759.842
752.424
755.469
753.022
762.043
753.950
763.710
755.844
753.942
766.553
759.028
763.062
771.563
771.953
760.687
762.939
765.133
777.116
763.763
767.647
777.959
772.739
766.429
771.455
769.446
779.328
780.818
782.836
787.279
779.367
785.233
776.776
782.731
785.886
783.473
786.829
793.583
785.831
782.941
784.333
786.128
779.968
783.140
792.077
779.770
780.132
783.478
782.323
784.552
789.345
789.423
790.588
783.252
790.451
787.496
786.532
776.789
784.173
784.444
776.033
789.233
779.754
785.262
775.619
780.809
777.903
775.018
776.698
779.360
786.137
784.706
774.571
786.874
774.586
773.172
786.884
774.671
774.587
780.087
786.348
774.700
779.040
782.975
784.476
780.753
774.863
780.970
778.132
779.808
780.056
776.091
773.406
778.753
769.617
777.256
782.347
782.192
769.211
777.196
776.217
780.287
781.977
774.169
774.125
780.353
770.536
780.308
780.327
766.718
771.749
771.078
780.731
775.446
772.018
773.960
778.704
778.990
766.540
779.411
765.661
768.570
770.326
774.193
768.809
770.586
777.765
767.433
775.307
767.378
774.290
773.604
774.306
771.480
768.648
768.463
763.723
768.087
773.215
761.108
765.703
770.558
760.373
762.238
770.032
762.448
759.655
769.596
773.743
767.935
765.562
773.498
759.080
766.523
773.907
766.635
763.802
764.697
768.740
766.002
764.424
761.462
769.788
757.330
758.073
768.513
768.961
770.198
764.930
758.081
756.978
767.950
758.970
764.151
755.876
760.061
762.155
758.406
761.150
754.262
759.944
767.453
756.077
756.641
759.251
753.873
760.185
758.915
763.454
764.502
761.714
766.448
757.214
766.373
751.766
766.290
759.728
765.851
759.237
755.554
765.359
752.789
758.298
750.764
754.409
762.041
754.506
753.051
755.400
759.293
755.481
761.355
753.677
763.306
751.437
748.496
756.766
753.019
748.185
756.155
748.129
755.663
747.550
758.590
746.736
746.958
756.751
756.746
757.248
750.154
747.230
758.806
747.524
746.643
759.487
754.852
756.963
761.573
760.198
753.365
754.854
759.943
772.037
763.466
762.170
776.120
778.572
780.498
769.718
783.871
780.412
779.188
782.011
788.676
791.933
794.049
794.076
796.497
793.302
790.127
799.704
802.095
801.781
810.678
796.926
799.884
810.269
808.934
810.238
807.669
821.801
824.775
818.312
828.503
815.559
823.907
821.225
835.995
827.818
832.486
833.091
833.334
833.379
832.338
846.777
841.656
841.370
842.171
853.870
853.086
847.334
850.188
860.584
851.263
853.974
861.668
855.581
857.529
865.774
870.596
876.279
875.959
869.301
878.295
874.819
874.341
882.962
876.422
891.088
878.765
892.680
883.568
897.281
894.769
900.631
901.878
902.823
901.564
897.075
907.605
908.827
902.663
912.005
909.709
906.516
916.374
909.388
917.032
921.911
914.364
930.331
921.605
930.676
932.442
932.025
930.173
939.833
937.091
940.129
937.813
935.594
940.528
944.727
950.997
949.635
956.678
945.389
952.543
955.328
957.974
962.080
962.920
955.241
960.493
967.512
972.356
968.962
978.705
976.746
977.458
982.170
971.680
977.111
985.747
992.024
981.662
992.901
992.665
989.706
988.708
992.649
995.287
1006.845
1005.630
1007.794
996.564
1006.439
1004.656
1008.545
1017.608
1006.709
1013.896
1023.860
1015.598
1015.018
1023.838
1016.593
1021.846
1020.573
1031.945
1034.725
1037.472
1035.934
1032.458
1034.392
1047.354
1035.909
1041.972
1050.892
1044.906
1051.128
1048.189
1060.011
1054.711
1059.909
1052.308
1066.871
1058.470
1060.400
1069.972
1069.789
1070.597
1063.963
1079.219
1069.864
1078.603
1073.390
1080.894
1082.680
1076.835
1077.798
1089.915
1094.238
1096.085
1099.771
1089.252
1091.790
1101.589
1104.603
1095.292
1100.975
1097.620
1108.918
1103.184
1108.710
1115.349
1102.874
1110.107
1108.876
1105.240
1105.820
1096.200
1093.754
1104.786
1088.447
1093.395
1093.954
1088.461
1093.341
1086.374
1085.667
1078.443
1076.095
1072.905
1069.428
1068.160
1067.844
1073.957
1067.375
1069.541
1072.398
1064.642
1064.180
1055.467
1053.322
1052.142
1052.568
1046.514
1047.686
1053.641
1051.656
1042.562
1049.010
1046.894
1041.351
1040.573
1043.601
1035.397
1032.928
1035.400
1034.356
1022.038
1027.159
1021.307
1020.312
1026.393
1011.501
1018.880
1018.246
1007.697
1006.641
1004.495
1008.754
1007.528
996.279
999.996
1001.653
996.435
995.642
999.582
992.642
982.010
990.944
987.099
979.907
978.870
978.720
978.570
969.134
975.116
967.219
974.364
965.523
960.403
973.009
964.591
963.941
965.494
953.813
963.336
960.984
950.578
945.770
955.965
948.014
949.260
942.109
933.617
946.105
931.015
941.013
929.116
936.852
933.002
925.113
927.566
919.609
922.544
925.686
917.954
920.188
915.339
905.693
908.247
917.732
909.373
898.882
902.619
900.504
895.500
905.200
891.369
899.571
897.433
887.048
896.408
885.743
883.610
886.467
883.539
886.838
880.446
873.994
878.466
875.043
877.975
864.559
861.128
865.110
856.104
859.275
864.413
861.373
855.524
846.723
851.866
848.925
841.012
841.889
846.552
843.432
846.041
840.304
836.711
831.393
829.699
829.128
838.043
830.963
834.197
829.369
825.062
819.573
823.416
815.529
818.953
817.031
812.163
802.562
801.236
813.780
809.118
802.004
795.829
803.335
795.441
800.011
794.180
789.710
781.820
790.343
785.997
786.289
779.236
777.288
780.016
782.724
770.375
766.061
764.135
770.324
767.161
768.345
764.018
763.962
758.215
763.976
753.271
751.565
758.113
747.302
743.177
743.232
742.413
748.022
736.343
741.015
741.864
742.558
747.413
744.812
742.509
744.339
747.831
747.954
752.297
754.253
747.135
749.377
761.444
753.821
759.303
758.773
750.379
758.892
765.218
754.822
753.454
755.804
761.456
757.845
762.708
758.858
763.698
773.439
774.142
764.017
765.589
766.672
767.095
780.251
776.918
780.309
775.876
772.519
782.316
772.168
783.558
780.534
788.219
785.515
790.327
792.285
787.614
787.544
785.408
782.319
782.223
797.999
797.819
786.780
788.252
787.008
802.603
802.612
788.703
800.545
795.229
797.757
803.912
804.720
806.777
799.212
804.858
798.977
804.196
807.820
809.966
811.293
812.968
804.260
803.642
817.839
820.811
809.277
813.946
812.648
823.734
823.195
820.682
826.505
827.268
822.579
828.343
822.926
825.168
818.396
828.435
828.847
834.527
825.898
824.245
825.840
825.444
832.857
841.778
835.834
840.330
828.608
829.993
842.341
834.637
846.084
844.697
835.901
841.391
839.714
842.428
839.730
850.789
844.747
854.877
846.371
851.909
852.525
853.087
854.838
858.768
851.452
861.734
849.858
851.533
865.069
866.809
866.234
861.592
857.990
869.800
867.656
860.835
864.878
864.721
868.310
873.549
872.460
864.891
872.692
867.016
881.176
870.687
869.454
884.001
874.370
872.483
875.914
872.562
883.484
881.378
884.259
884.748
887.542
888.112
887.217
883.409
882.242
883.461
896.285
891.612
887.220
889.274
889.153
898.572
900.214
904.435
891.913
898.885
900.033
906.357
900.995
904.046
898.089
901.292
897.379
910.708
913.523
907.541
915.389
915.915
903.258
919.103
910.015
905.705
908.661
911.454
914.759
918.635
916.574
920.100
920.969
920.943
914.561
929.530
931.047
929.217
925.906
929.647
932.375
933.076
934.406
934.270
920.370
923.607
928.900
918.991
932.831
933.472
920.644
924.354
927.290
921.858
925.328
922.292
919.412
920.203
930.743
933.577
921.066
919.234
927.535
923.363
920.476
930.285
921.998
930.646
919.145
928.028
929.639
926.797
932.934
917.406
918.026
918.090
926.411
924.812
925.828
922.314
927.482
920.827
929.215
932.661
926.902
921.814
921.389
927.496
930.782
921.456
922.439
919.098
917.553
931.914
919.399
917.867
924.555
930.059
924.155
918.337
931.061
928.728
921.235
922.007
921.012
924.752
927.731
917.314
931.321
927.161
922.887
917.317
920.240
918.602
931.040
930.755
931.484
923.634
920.572
922.172
925.952
928.423
918.782
915.709
927.698
925.785
924.992
926.720
930.977
918.080
929.520
920.222
925.007
925.636
929.405
923.499
921.005
926.372
921.631
924.650
916.448
916.975
914.927
919.598
918.307
916.142
925.664
927.671
923.244
923.869
928.636
917.918
928.811
929.459
925.205
916.000
928.871
927.866
918.667
929.309
922.811
929.682
922.317
921.707
925.976
929.573
915.407
917.592
917.144
925.873
927.290
918.040
921.599
917.712
921.916
928.298
924.168
914.500
914.195
918.909
926.420
921.719
918.298
919.965
915.058
918.122
919.944
923.916
927.542
916.767
915.741
926.764
924.535
921.591
918.102
925.791
915.038
920.003
921.170
917.156
922.487
924.689
916.818
927.222
927.314
923.067
922.379
927.686
918.843
912.373
912.627
926.556
917.442
914.563
923.360
921.539
916.101
913.435
918.405
926.632
913.393
922.723
923.570
916.691
921.485
922.101
926.248
916.383
919.013
925.551
915.854
913.802
913.792
919.048
913.073
911.743
920.564
920.206
915.131
924.625
919.735
910.474
920.609
911.010
913.310
912.726
909.756
904.202
900.407
910.315
898.119
899.142
899.323
906.353
904.126
900.641
901.769
888.273
888.202
889.791
893.277
895.208
883.805
883.903
885.448
884.312
876.884
874.008
873.026
876.180
873.758
876.942
868.231
874.817
875.469
863.538
864.827
866.713
867.100
857.921
853.099
851.625
862.496
856.074
849.422
854.999
851.782
853.145
841.116
846.905
849.894
843.962
845.318
845.912
839.283
838.810
839.149
837.390
826.172
828.072
832.465
827.551
832.709
823.159
818.410
820.995
827.158
818.409
815.087
824.665
811.981
821.078
810.715
816.053
812.744
816.538
803.535
800.619
807.392
801.576
795.740
802.663
791.811
802.184
801.323
802.601
794.787
799.026
797.667
785.063
786.447
783.383
788.326
783.693
778.096
775.933
785.252
780.390
774.681
776.589
778.969
769.380
777.573
773.073
769.486
762.682
757.536
764.382
760.952
755.052
761.443
752.703
754.654
758.772
752.405
747.285
752.463
747.650
745.772
740.073
748.974
736.664
734.543
734.517
745.753
730.288
730.121
729.233
740.722
732.587
726.689
729.323
720.276
722.845
728.223
723.206
722.567
722.373
718.998
715.938
713.621
715.569
706.597
709.591
706.806
703.346
713.370
707.895
698.766
696.271
704.798
696.133
700.131
703.188
695.730
701.310
689.876
695.774
687.670
692.723
688.345
679.161
690.940
685.897
688.273
676.649
679.575
671.712
670.272
675.081
679.352
664.792
665.116
664.745
672.788
662.018
657.560
659.944
658.277
666.378
665.906
651.435
651.361
660.979
650.956
650.018
656.631
650.652
639.722
640.672
643.019
647.869
634.018
635.841
631.772
641.869
633.368
632.208
635.402
623.809
630.677
634.039
627.169
630.820
634.778
639.487
642.379
645.110
642.294
641.685
631.289
641.438
636.099
648.838
648.429
639.257
650.620
646.828
647.864
642.224
649.652
645.225
652.297
649.784
643.094
653.255
652.450
655.845
653.900
647.567
650.606
661.117
656.227
658.546
656.959
661.719
658.704
661.990
659.853
655.010
666.327
659.029
658.411
666.100
664.417
661.871
667.678
672.904
669.148
670.521
674.038
675.710
673.663
667.764
662.645
669.017
666.344
670.729
674.550
677.046
670.342
681.910
671.439
680.637
682.514
678.484
685.868
678.255
679.900
675.136
676.629
688.793
689.888
677.391
686.300
682.763
685.607
684.208
688.386
693.414
686.869
684.360
689.434
691.946
690.019
690.904
687.148
692.712
696.276
692.788
702.100
690.064
689.219
699.282
703.859
696.182
695.651
701.618
701.611
705.333
694.668
703.216
703.736
712.356
699.070
703.343
699.348
707.279
716.118
714.007
709.923
702.650
708.076
715.744
720.344
717.746
716.474
719.872
722.471
721.915
715.565
716.938
712.703
715.605
714.098
725.185
720.369
725.007
721.953
721.913
720.116
716.676
721.950
721.587
727.393
722.698
723.089
728.405
733.948
734.647
728.487
725.578
724.935
731.107
737.454
735.124
729.373
735.897
734.512
737.015
740.119
746.132
744.992
736.029
747.130
747.362
743.221
736.804
735.685
736.572
751.075
752.735
741.778
745.955
741.889
755.186
742.088
741.755
755.743
757.708
756.281
747.792
748.256
756.390
748.078
760.122
761.000
756.587
757.499
764.927
763.691
762.933
760.980
756.724
766.568
768.018
767.823
765.667
757.261
766.619
770.364
771.782
772.468
766.263
776.299
771.884
768.077
773.475
770.047
775.211
763.875
774.517
772.745
766.250
772.912
768.517
769.078
767.015
761.716
761.992
762.291
756.313
753.725
748.914
752.394
746.779
751.517
740.240
744.812
736.831
744.025
734.868
731.962
740.578
734.859
740.908
739.499
734.528
735.127
733.269
736.428
722.754
727.238
716.424
726.048
714.000
720.454
712.997
715.752
719.926
721.995
720.761
709.655
702.646
714.009
712.617
698.948
712.645
695.692
708.438
706.961
701.580
701.076
688.797
695.809
688.222
695.624
695.536
694.811
684.003
688.480
683.783
682.526
689.928
678.846
680.840
685.880
674.476
674.787
673.950
665.999
670.425
665.885
661.268
662.116
670.602
670.908
666.455
657.552
652.016
663.408
664.593
662.862
648.901
658.197
653.228
649.310
643.550
651.131
645.622
647.972
636.969
645.674
633.926
643.803
630.646
634.117
639.231
637.562
637.929
630.260
624.291
628.977
630.068
625.966
618.165
626.800
614.722
615.457
618.494
612.701
622.473
616.592
612.628
602.695
605.762
604.635
608.544
603.380
603.344
594.947
597.647
602.297
602.858
588.562
601.647
593.267
598.243
591.821
581.872
586.882
591.739
582.630
581.578
588.632
574.888
580.911
581.139
580.662
577.807
578.528
570.471
572.466
563.069
571.971
565.894
559.914
566.110
564.053
559.653
556.046
559.608
550.920
561.180
551.896
555.428
545.478
554.587
542.878
551.319
549.029
538.458
545.056
536.655
536.628
542.515
534.060
533.734
540.499
535.266
534.235
536.950
522.137
531.685
522.542
531.601
522.718
525.746
516.234
523.146
515.095
513.719
520.988
516.452
518.602
511.244
513.878
512.937
501.202
498.034
509.058
504.011
502.779
501.881
501.623
488.416
489.273
497.903
494.333
