1144.229
1143.887
1139.487
1142.337
1136.191
1145.791
1132.699
1136.304
1133.304
1135.232
1140.646
1132.162
1136.317
1134.967
1130.888
1131.032
1133.658
1133.562
1133.791
1125.986
1140.678
1135.763
1127.814
1128.493
1125.013
1139.211
1130.391
1126.186
1127.058
1126.809
1125.078
1121.784
1122.140
1120.966
1121.857
1134.179
1134.772
1132.905
1131.371
1131.857
1121.090
1126.184
1119.781
1131.490
1122.560
1124.240
1130.530
1120.107
1115.869
1117.453
1121.586
1127.228
1124.281
1116.357
1128.198
1122.548
1123.897
1118.586
1120.638
1115.971
1117.320
1118.771
1118.720
1112.610
1118.323
1110.470
1122.933
1116.342
1117.676
1122.624
1114.517
1111.582
1111.060
1111.071
1112.701
1114.191
1119.065
1119.702
1120.942
1115.086
1119.602
1116.132
1114.126
1119.777
1114.998
1110.057
1110.761
1104.116
1117.974
1109.619
1102.523
1110.910
1105.069
1105.683
1109.204
1108.750
1109.531
1099.558
1099.881
1102.639
1114.541
1105.730
1105.068
1097.933
1105.426
1099.863
1110.685
1101.718
1106.405
1104.324
1102.663
1109.198
1106.293
1101.708
1096.001
1095.016
1100.583
1103.686
1104.897
1100.026
1098.206
1093.886
1096.390
1093.125
1093.995
1097.966
1093.635
1101.128
1089.784
1102.556
1102.353
1092.482
1099.972
1090.540
1092.603
1094.785
1100.171
1099.359
1092.469
1096.729
1098.941
1090.286
1095.340
1085.482
1097.413
1093.232
1087.944
1086.632
1087.363
1096.510
1095.804
1094.166
1083.557
1089.112
1095.923
1080.350
1092.849
1081.419
1080.137
1082.382
1092.667
1093.606
1091.546
1086.511
1087.103
1078.162
1083.070
1078.834
1076.431
1083.715
1078.454
1088.560
1078.867
1085.488
1073.974
1078.253
1085.003
1080.955
1073.588
1076.731
1083.469
1084.332
1076.224
1085.595
1080.627
1081.188
1072.031
1069.754
1073.264
1080.969
1075.969
1069.156
1075.023
1069.941
1075.542
1070.782
1081.962
1068.656
1068.211
1079.351
1078.114
1071.429
1061.344
1072.245
1059.282
1067.779
1066.390
1065.157
1053.734
1055.267
1051.840
1052.589
1047.343
1043.000
1044.472
1032.722
1038.241
1041.723
1035.808
1037.306
1025.863
1033.043
1024.374
1015.399
1023.325
1019.799
1005.650
1009.130
1015.369
1005.733
1003.672
999.959
993.780
996.204
998.709
988.036
984.803
987.215
990.029
986.799
983.693
978.991
972.071
969.130
970.728
963.887
968.177
969.590
967.915
956.716
962.680
956.689
948.130
945.246
947.220
950.269
937.099
949.955
943.156
933.751
929.318
925.494
927.422
922.907
927.131
919.947
915.603
914.814
923.038
907.718
912.365
914.508
909.553
899.702
905.129
905.556
900.624
897.133
887.546
894.586
886.061
882.667
891.292
882.970
886.498
884.459
883.084
881.054
875.077
868.902
860.861
857.108
866.001
862.601
862.573
860.704
853.586
858.155
850.862
845.589
835.902
834.449
832.697
842.393
829.109
830.350
826.385
834.877
820.405
824.271
827.547
825.817
809.494
816.703
819.279
812.876
813.192
801.703
807.893
801.953
802.353
798.238
795.016
793.561
795.974
792.443
783.369
781.598
774.634
774.577
769.455
778.514
766.259
762.222
773.480
761.383
766.879
766.021
763.793
750.728
758.503
746.524
744.673
737.610
747.435
738.885
738.929
734.683
728.130
736.014
723.182
730.754
724.133
728.010
724.966
717.176
719.807
713.337
708.903
715.959
702.318
704.038
703.400
702.581
699.452
688.960
695.728
695.190
692.020
684.960
677.351
676.412
671.475
678.416
673.668
669.523
674.054
671.367
665.401
661.337
667.173
661.100
659.031
658.734
645.428
653.685
640.647
645.964
644.636
637.913
639.563
631.562
636.111
622.272
624.244
618.763
625.103
623.714
617.903
616.436
618.430
611.624
611.878
624.800
625.128
616.812
625.342
618.465
627.037
629.118
625.791
627.377
618.734
631.867
634.903
629.971
625.102
638.962
639.475
634.577
637.208
639.016
633.452
637.538
644.966
646.483
638.413
639.255
640.581
641.263
639.057
646.241
646.713
654.967
657.187
652.815
647.884
651.788
646.411
649.651
652.177
649.054
653.268
664.534
662.385
665.719
662.662
658.094
669.572
665.936
672.788
664.183
664.128
662.856
667.720
669.981
679.030
671.754
681.958
670.813
683.397
672.554
674.097
683.328
683.768
685.442
687.525
680.916
677.810
678.945
692.982
683.952
681.426
694.454
698.048
687.749
691.365
696.487
703.112
689.332
691.157
696.950
695.236
694.950
694.407
699.859
708.386
710.650
702.429
700.878
710.833
715.737
703.644
710.093
712.495
716.045
708.885
718.867
718.777
715.656
718.409
718.011
719.312
716.241
730.156
718.603
727.799
718.758
734.822
722.862
726.145
727.017
724.309
738.216
726.397
739.299
734.482
733.141
742.670
738.908
731.923
744.042
736.171
742.583
750.221
740.917
750.033
752.640
742.587
749.119
745.666
751.292
746.904
747.911
753.362
760.593
760.875
755.229
752.155
766.174
752.878
762.126
755.276
760.357
757.030
758.712
769.829
761.857
772.738
774.704
765.386
776.039
777.467
780.458
777.937
768.600
771.316
770.437
778.724
784.745
777.249
778.023
783.951
788.175
788.475
784.673
783.960
780.857
786.911
794.443
787.979
793.427
786.363
796.518
790.594
790.845
792.861
804.213
792.349
808.870
809.787
806.358
811.759
803.387
814.003
800.933
808.984
802.938
811.256
816.203
806.082
814.495
808.305
815.887
811.449
820.088
826.523
816.145
815.609
826.927
821.944
823.139
824.863
820.388
820.327
818.351
819.716
832.682
832.335
823.463
823.360
829.573
837.109
825.952
832.007
837.393
840.781
836.696
829.962
842.625
829.680
830.602
832.365
834.804
833.070
832.259
843.429
840.869
836.604
840.566
843.613
841.864
836.904
846.869
838.661
843.625
849.612
843.976
847.437
843.546
840.733
850.659
844.111
849.099
848.488
847.609
851.989
847.692
858.515
846.952
861.415
856.652
862.329
856.168
861.582
852.166
856.358
852.479
857.474
855.926
868.642
858.566
856.259
857.128
860.316
868.963
857.761
862.920
871.839
863.281
866.327
865.434
867.139
870.527
877.975
874.918
864.642
870.443
866.963
876.818
867.320
882.036
870.726
880.145
880.842
882.306
869.866
883.972
885.375
873.500
884.269
874.495
885.857
874.236
888.423
877.076
891.053
881.523
886.610
883.383
885.640
880.243
883.613
895.480
885.238
882.271
889.233
894.224
894.478
886.090
888.744
885.694
902.198
895.475
892.559
889.451
900.163
905.385
904.522
899.012
897.951
900.899
907.359
894.124
908.303
902.819
903.627
909.775
896.817
909.924
912.715
903.905
910.202
900.842
900.800
902.525
904.456
902.377
914.031
903.868
904.376
916.092
908.097
919.470
917.936
916.506
914.182
911.238
915.549
919.539
915.263
926.127
924.746
926.283
925.184
926.402
921.170
922.520
925.114
920.564
918.205
928.453
924.004
923.475
931.545
922.035
931.278
930.681
937.704
931.661
929.627
929.855
937.713
932.639
932.963
939.260
934.522
942.140
942.182
935.749
938.934
935.432
932.222
932.905
933.657
946.872
942.538
948.599
940.529
937.123
949.798
941.681
938.697
947.011
952.448
952.239
940.651
941.555
954.294
957.389
948.199
945.796
944.011
941.266
947.203
949.073
941.819
944.720
937.593
943.401
950.848
942.427
945.435
945.496
938.253
932.076
945.182
944.359
931.043
943.282
934.978
938.675
939.040
938.133
940.097
940.766
926.997
935.484
930.882
924.602
932.482
936.038
929.185
931.740
934.456
919.835
917.648
922.779
916.570
919.065
925.944
925.266
924.550
917.244
919.663
914.356
923.040
923.539
921.525
921.775
921.956
909.312
913.620
915.981
919.060
904.664
903.660
908.994
912.795
910.756
916.184
902.264
902.291
905.367
906.010
900.719
903.581
911.045
907.507
904.566
905.074
898.537
892.661
893.910
902.749
901.745
892.114
904.140
897.112
890.433
887.449
898.800
894.714
886.252
892.828
898.928
889.545
885.953
885.709
886.821
894.364
883.674
882.903
887.875
892.629
891.425
878.777
887.227
885.968
881.855
878.692
878.791
873.220
878.487
880.789
881.674
872.738
870.221
877.499
879.851
880.702
876.814
875.612
867.319
875.876
868.288
874.970
869.696
872.053
862.979
871.348
861.843
863.656
869.996
861.410
857.670
864.355
862.263
869.121
852.660
858.474
857.904
851.764
856.492
850.686
864.281
849.644
860.011
859.580
857.014
855.753
857.921
854.327
855.621
845.417
847.258
842.555
841.699
851.920
845.186
845.604
850.458
836.761
845.784
839.896
846.807
836.721
842.047
844.883
840.062
832.859
837.090
841.846
844.250
828.709
832.988
841.313
835.591
836.165
838.492
834.078
828.462
835.590
832.372
834.449
832.607
832.046
824.042
822.814
826.737
827.680
828.517
823.339
821.683
823.479
829.426
820.520
825.322
813.333
817.448
811.514
809.649
812.077
812.417
821.067
814.536
807.229
816.515
806.094
805.487
807.258
812.804
808.372
811.103
814.076
815.655
818.935
822.729
821.866
821.794
827.280
828.738
832.774
835.878
839.978
830.370
831.466
843.068
831.373
838.399
837.468
847.279
852.168
852.543
842.298
842.517
850.284
847.120
851.236
856.787
861.903
864.426
863.708
862.721
858.317
859.615
875.100
867.235
872.786
868.448
868.635
869.895
884.468
875.737
878.828
886.568
876.798
885.510
882.507
888.224
883.523
895.855
899.165
896.959
888.566
889.649
892.656
905.490
897.406
909.931
901.920
905.261
908.411
911.321
903.334
905.275
918.064
922.907
920.954
925.996
914.051
918.956
925.602
919.052
919.616
924.906
928.692
937.740
938.468
935.428
939.457
929.227
934.825
939.924
946.906
944.090
951.977
947.693
946.832
951.281
955.118
960.382
958.076
953.717
963.321
951.333
958.757
961.333
967.366
965.870
959.280
963.461
969.064
970.749
979.166
980.839
977.997
969.821
980.625
984.480
979.983
977.371
978.031
994.860
993.158
997.241
996.904
986.014
989.507
992.806
994.321
1003.540
996.883
996.734
1007.265
1013.555
1002.914
1002.245
1014.889
1019.595
1012.153
1017.629
1015.225
1011.727
1015.953
1029.130
1023.104
1016.880
1028.174
1028.604
1034.789
1029.149
1033.504
1035.588
1032.821
1034.443
1041.896
1042.295
1037.207
1035.454
1039.370
1040.925
1043.151
1052.023
1053.483
1046.507
1050.277
1048.568
1062.012
1061.648
1064.808
1063.532
1067.532
1061.661
1070.507
1067.558
1070.495
1064.217
1078.202
1078.102
1074.173
1081.506
1077.260
1076.713
1075.661
1088.217
1087.687
1090.379
1091.149
1084.706
1094.361
1091.416
1097.478
1102.381
1101.488
1096.314
1100.706
1103.825
1100.506
1100.916
1113.293
1108.418
1112.352
1111.769
1108.762
1107.671
1111.027
1124.835
1112.877
1125.187
1129.609
1123.911
1121.558
1125.832
1121.228
1112.992
1116.718
1122.347
1120.072
1118.238
1115.744
1123.174
1114.941
1108.176
1113.248
1119.285
1111.756
1112.233
1108.342
1113.574
1106.298
1112.885
1103.909
1115.773
1107.647
1114.023
1113.397
1100.350
1107.180
1107.654
1097.780
1098.709
1110.933
1101.711
1094.449
1096.319
1102.254
1102.503
1102.108
1095.892
1099.463
1101.144
1096.965
1102.924
1089.377
1092.620
1092.868
1098.778
1094.290
1098.827
1098.020
1085.557
1097.867
1085.483
1088.594
1085.146
1092.431
1082.998
1080.206
1082.710
1088.049
1089.611
1077.477
1078.369
1081.713
1090.326
1077.047
1074.732
1088.149
1087.964
1087.574
1076.861
1079.116
1074.067
1083.467
1070.639
1072.549
1069.210
1083.636
1076.051
1076.357
1069.089
1066.335
1077.226
1075.387
1068.126
1074.013
1066.906
1076.351
1066.898
1072.563
1073.184
1069.511
1071.616
1067.838
1068.342
1060.827
1064.057
1063.579
1057.862
1056.218
1054.752
1064.626
1066.235
1060.299
1059.422
1065.507
1063.844
1063.018
1057.283
1059.063
1051.319
1058.073
1053.638
1059.435
1046.655
1048.260
1057.934
1054.482
1043.734
1049.579
1055.203
1051.100
1043.140
1043.716
1041.954
1042.795
1044.864
1049.095
1044.352
1049.173
1039.903
1048.627
1045.378
1035.850
1042.536
1035.381
1033.068
1040.450
1040.261
1042.483
1033.628
1040.740
1036.634
1043.906
1043.043
1033.473
1034.999
1034.947
1039.947
1037.585
1037.481
1037.760
1035.034
1032.026
1036.696
1036.010
1022.737
1031.179
1035.101
1019.325
1023.391
1027.168
1019.436
1026.932
1029.972
1025.016
1022.263
1014.317
1029.283
1017.488
1012.297
1021.010
1020.202
1018.372
1011.449
1024.283
1009.377
1012.771
1014.970
1018.125
1009.101
1020.918
1012.603
1014.146
1006.901
1007.703
1008.899
1016.265
1002.550
1006.001
1013.154
1003.532
1014.951
1007.363
1010.419
1005.461
1012.268
1001.977
1007.165
1002.503
1006.771
1006.993
995.997
992.757
998.269
990.589
996.599
991.389
996.194
988.559
993.597
988.267
990.489
981.251
991.831
985.586
981.604
974.998
975.160
987.742
972.740
973.858
970.469
979.807
977.627
973.850
980.062
974.891
971.241
975.436
972.481
962.077
970.301
966.517
964.959
958.160
968.427
958.583
958.750
961.216
956.077
955.745
958.896
948.499
955.240
952.351
949.433
951.073
953.483
949.444
942.175
944.797
936.134
942.873
940.699
939.780
945.062
931.072
933.587
932.165
932.094
927.082
934.534
924.581
933.214
932.389
925.470
931.577
928.020
928.599
916.923
918.081
925.912
927.132
924.294
921.256
918.668
916.808
907.355
910.087
913.960
915.405
906.024
915.743
910.926
906.019
907.688
903.251
903.094
903.871
902.775
895.306
905.095
891.111
896.912
901.852
896.378
889.291
893.585
889.502
893.012
882.160
879.414
878.123
888.849
890.818
890.340
875.055
882.257
882.010
873.693
876.431
869.630
882.291
874.845
868.784
876.929
871.447
862.497
864.345
861.431
869.135
871.470
866.886
858.997
859.706
861.943
864.665
850.058
856.297
851.906
853.388
857.791
847.929
848.539
845.106
853.016
843.686
846.841
849.454
836.988
843.364
845.344
838.646
841.580
836.903
834.460
833.350
836.161
838.546
828.746
829.777
837.281
832.398
828.445
827.869
820.270
823.005
824.455
830.220
817.656
823.765
822.552
824.098
809.819
819.209
815.328
814.844
819.397
810.763
803.958
806.948
815.017
801.730
799.763
808.066
797.374
801.219
796.863
808.281
795.298
791.515
803.480
788.183
801.545
798.349
788.296
787.897
796.238
790.587
782.014
781.685
793.822
786.266
777.281
780.322
781.423
779.292
779.199
781.344
776.487
766.947
775.102
770.576
762.561
761.845
755.887
764.294
756.772
760.047
746.801
751.486
751.900
744.065
752.441
736.015
740.967
739.230
734.410
727.598
739.454
731.507
730.125
723.465
725.866
728.787
713.145
719.052
721.530
709.322
712.369
708.075
702.041
696.851
708.702
697.726
697.333
698.766
691.561
697.886
692.044
683.943
683.105
675.070
685.461
674.359
676.649
669.242
675.827
671.267
671.148
658.315
656.740
662.971
658.227
649.255
647.058
658.290
653.043
652.006
649.877
636.884
640.133
638.273
635.055
633.409
636.320
622.374
631.723
618.808
625.898
626.686
620.607
611.708
621.088
607.987
602.259
611.226
610.013
601.271
601.097
604.861
592.049
586.321
592.306
584.796
586.166
576.703
588.089
572.243
574.061
574.357
566.655
576.353
575.495
563.065
557.806
565.144
556.187
550.377
563.049
545.834
549.127
553.809
551.215
548.187
542.612
538.045
535.184
543.248
540.819
531.505
528.394
532.340
519.250
518.034
519.964
518.988
523.940
507.291
513.026
517.743
508.995
503.301
497.172
493.503
503.999
495.837
499.784
498.136
495.380
494.711
490.774
489.845
474.867
472.230
473.529
472.945
469.849
471.026
466.111
463.418
471.477
460.836
464.928
452.590
452.803
448.250
456.149
444.370
441.462
447.541
443.576
439.842
435.089
438.630
435.776
432.483
428.553
428.539
429.201
429.797
412.705
411.584
411.239
417.163
416.037
402.378
404.138
412.135
404.816
404.767
401.189
399.274
388.082
393.164
381.613
383.413
380.399
385.454
378.743
377.342
371.653
379.374
364.399
366.887
372.016
369.157
356.705
359.280
356.223
353.821
360.945
358.919
345.045
341.965
341.349
341.173
343.537
345.129
342.492
342.396
328.176
328.944
327.778
322.712
328.046
321.409
332.523
330.030
325.689
324.411
314.356
325.150
319.620
322.621
323.686
313.548
314.895
308.239
304.901
305.297
305.391
314.212
311.353
309.041
303.177
303.596
305.760
295.607
295.944
296.772
301.858
295.477
295.378
293.329
294.821
291.974
281.749
292.484
290.771
285.323
280.084
285.377
285.816
279.997
268.672
271.981
271.332
271.949
269.373
274.818
264.196
266.474
269.221
267.962
256.567
266.523
258.037
264.956
255.362
255.743
251.782
260.201
255.046
258.014
254.892
253.300
246.019
252.610
250.151
239.870
234.245
248.492
233.668
235.821
244.329
229.830
238.018
230.793
239.254
236.335
227.935
220.984
224.197
223.692
223.992
218.174
219.246
220.950
211.026
209.438
217.084
211.778
209.600
213.723
216.123
206.462
202.538
204.045
206.276
195.800
201.223
194.482
199.357
193.819
201.332
195.876
194.990
193.921
196.306
186.635
189.814
183.801
188.472
189.316
176.644
176.836
175.288
180.655
180.509
183.200
176.907
175.668
165.935
173.269
173.644
167.818
163.048
170.570
166.122
161.695
160.648
162.194
153.637
158.235
152.549
157.252
150.697
145.669
145.325
146.368
145.963
141.819
151.409
138.902
141.086
143.895
149.294
134.804
145.481
139.151
131.920
142.272
137.115
125.273
137.366
133.555
130.916
133.609
130.270
129.516
123.934
126.045
125.631
115.253
122.014
116.088
108.313
116.936
118.378
116.354
112.299
102.919
112.521
109.946
97.601
103.008
97.846
96.889
102.274
100.524
101.086
91.390
98.000
93.901
93.897
85.921
89.379
93.681
91.078
80.712
86.095
76.284
73.518
85.424
70.583
71.945
73.846
