446.493
452.918
446.440
441.599
453.115
444.244
451.398
450.460
459.202
454.766
458.051
449.452
465.472
450.607
457.247
463.781
454.686
468.300
469.462
457.638
466.910
470.825
459.613
469.423
467.096
466.260
463.561
468.760
475.926
476.062
478.332
483.984
475.991
478.015
474.610
485.814
482.438
488.494
488.296
476.443
480.912
485.593
486.808
481.762
488.994
484.868
486.507
496.538
490.011
494.060
494.414
496.984
488.673
502.511
505.469
492.068
496.326
494.476
498.756
497.256
506.493
511.630
511.236
509.400
512.886
511.362
515.595
512.428
510.474
506.378
509.436
519.460
508.701
520.800
520.213
517.510
514.040
526.571
528.170
515.954
527.531
531.985
520.317
519.343
522.288
522.935
537.321
537.696
532.218
528.984
536.058
541.564
541.646
537.300
531.515
545.815
539.125
547.336
541.751
549.485
535.789
541.540
541.914
540.399
553.259
542.256
547.141
554.927
551.366
544.893
558.153
555.362
551.397
550.074
553.445
551.833
560.539
552.273
562.706
554.810
558.251
569.934
557.198
561.832
574.634
563.169
571.667
569.494
576.984
570.792
577.981
573.322
567.519
568.547
574.535
581.164
584.229
579.575
577.410
585.926
579.214
587.383
588.524
578.972
582.408
586.354
590.805
586.346
596.639
595.910
597.592
600.568
589.702
592.965
589.204
594.301
604.272
598.121
599.236
603.504
604.726
597.138
596.333
606.944
602.626
613.155
614.869
601.520
613.948
607.542
611.847
620.191
608.569
608.304
611.654
615.363
620.655
617.646
625.755
618.817
622.904
629.440
621.383
623.116
631.661
625.999
620.614
624.984
623.256
632.019
626.077
635.730
628.267
627.939
638.285
629.736
630.975
638.260
644.355
638.163
647.687
634.871
648.876
641.492
644.764
638.223
648.760
654.642
642.032
652.067
643.564
643.226
644.448
659.218
650.782
650.941
649.030
659.738
662.199
655.841
665.854
659.472
664.416
661.916
668.068
658.005
659.733
671.437
667.692
658.215
659.158
661.998
670.549
671.096
672.587
666.685
668.868
669.403
674.523
671.626
669.007
675.268
674.431
669.706
673.891
677.606
682.168
673.379
679.044
689.171
678.343
686.988
690.155
690.092
678.799
688.174
687.453
690.278
684.136
690.378
696.894
698.159
690.386
695.120
697.917
689.584
701.363
692.399
703.365
701.620
692.208
704.991
707.464
709.393
706.430
697.259
709.781
702.209
706.632
700.951
708.736
713.870
716.314
717.803
706.613
714.992
712.366
717.834
720.492
721.880
718.383
714.425
715.721
717.476
721.530
722.351
722.262
724.684
723.559
722.326
720.709
727.914
731.751
726.793
727.656
722.935
737.728
738.472
738.762
733.815
730.725
733.789
742.536
728.966
743.430
745.598
745.588
742.472
732.934
745.576
742.951
740.646
748.958
745.286
749.547
744.127
754.790
753.621
743.078
757.226
752.780
755.535
750.741
757.943
750.927
751.991
753.074
759.641
757.890
763.955
765.737
763.188
755.818
757.364
755.596
760.688
762.677
770.566
763.063
765.482
760.369
770.022
768.602
767.773
777.008
777.438
774.857
771.656
775.141
775.899
783.149
772.732
782.757
772.049
782.402
776.206
786.412
780.708
781.201
788.686
782.217
787.307
780.768
783.061
789.959
782.336
787.410
789.711
785.346
792.887
788.802
796.879
799.579
801.510
791.876
797.320
795.569
796.386
796.310
800.781
796.416
808.503
803.954
796.815
800.936
804.350
810.692
813.799
801.696
802.379
802.458
816.860
803.360
811.947
803.502
818.073
815.258
804.538
815.574
812.006
810.517
813.726
804.898
809.553
805.496
813.518
818.281
815.440
807.364
818.378
807.664
813.511
812.225
813.808
813.898
818.041
816.899
818.320
811.715
808.241
822.072
810.571
815.892
814.673
813.541
816.018
809.516
821.681
817.219
809.996
819.672
813.018
824.295
825.803
825.348
811.133
813.349
818.370
819.962
822.875
817.018
825.280
825.406
818.971
825.621
814.872
814.716
815.927
823.966
819.963
816.558
826.951
816.542
827.416
822.005
817.199
815.566
819.902
822.468
821.912
822.148
819.980
829.403
825.190
830.841
822.807
825.484
822.654
820.401
831.985
824.967
818.050
826.543
832.927
833.121
821.473
820.933
827.290
829.997
835.467
834.274
828.593
833.938
831.638
827.865
832.967
829.361
829.863
827.231
829.569
833.013
823.356
836.037
831.465
827.372
834.085
826.225
832.754
837.028
836.719
829.743
831.608
832.742
829.609
826.247
828.514
831.517
839.675
826.833
839.327
831.004
831.428
826.526
827.799
841.256
829.879
828.022
837.652
828.130
843.778
836.797
843.560
832.440
837.545
842.393
830.368
843.340
838.772
835.336
838.798
842.970
838.704
837.930
839.951
845.657
835.791
834.815
844.888
845.976
834.038
839.651
842.357
848.058
834.579
844.080
848.058
836.097
845.713
849.462
837.651
834.686
843.140
845.198
835.534
843.360
849.576
848.903
840.428
842.029
843.014
840.161
844.980
840.815
839.230
840.182
838.285
837.772
844.390
852.072
840.229
851.728
849.287
838.933
851.060
853.388
843.272
850.312
847.949
849.296
849.281
850.019
842.802
847.079
849.641
841.287
847.511
847.891
846.190
842.469
845.507
842.793
851.019
846.842
849.091
842.778
849.156
847.548
838.802
841.221
841.199
851.298
840.152
851.014
840.848
843.832
842.049
834.327
847.245
839.041
845.427
839.358
842.393
844.044
838.946
843.334
841.791
834.680
842.265
829.404
831.281
831.841
828.303
827.032
837.965
829.135
824.053
834.094
825.109
826.906
831.209
822.760
831.115
824.019
821.632
827.041
829.692
830.971
822.147
825.960
818.696
820.823
824.702
823.943
826.462
817.830
817.165
818.139
819.040
818.978
819.884
822.296
822.358
809.468
809.807
806.304
820.534
810.733
814.907
808.214
815.532
814.698
804.400
809.598
806.199
805.003
801.677
799.663
813.886
812.978
807.017
799.654
810.306
809.155
805.891
802.901
799.812
797.766
792.474
791.748
795.747
794.493
805.484
792.920
797.014
800.154
790.340
798.935
799.164
790.138
793.295
800.601
793.875
784.834
785.281
783.733
783.956
792.115
790.767
784.352
795.358
785.403
783.588
778.696
781.662
777.566
778.380
789.026
775.183
781.710
778.488
777.427
788.226
783.380
776.689
780.681
784.302
774.082
774.382
781.407
783.047
778.564
778.991
766.970
770.410
765.171
776.458
770.900
768.236
771.744
764.972
765.307
764.069
773.554
759.987
774.553
772.252
770.534
764.848
772.292
763.236
768.287
761.711
755.702
762.267
769.438
755.446
756.266
756.417
754.512
758.062
756.984
764.826
755.493
757.217
751.054
760.512
749.969
748.022
760.131
754.155
751.881
755.458
744.800
745.889
743.953
753.718
756.438
746.841
754.908
743.099
745.869
743.737
747.587
744.382
738.363
736.409
744.952
739.800
738.932
738.187
741.989
740.666
746.873
739.688
741.576
734.672
737.386
732.338
739.307
740.548
731.095
741.500
738.931
739.085
734.539
747.790
740.910
744.399
740.064
738.090
746.061
749.379
744.279
752.642
753.490
741.783
745.710
747.936
749.178
752.084
761.075
754.968
750.471
763.119
758.793
756.644
755.680
754.477
757.179
756.358
758.390
770.024
769.321
768.426
766.146
773.421
773.245
772.660
763.861
778.593
780.534
781.519
780.268
780.121
770.450
776.311
776.544
774.569
777.038
783.563
779.313
777.814
784.849
793.286
791.300
784.435
795.011
781.657
794.789
785.346
788.122
796.847
800.066
788.992
791.305
803.460
792.454
805.944
804.450
805.377
802.431
800.452
803.392
809.113
802.974
801.390
801.218
808.408
802.630
803.366
816.383
804.528
811.457
813.261
808.943
822.262
818.116
811.907
821.657
812.400
813.306
815.807
825.539
820.064
831.551
829.115
818.241
819.074
827.123
830.050
825.446
831.447
829.882
826.166
836.582
830.142
832.128
839.393
840.289
837.467
841.317
846.364
836.618
839.436
836.477
836.881
837.960
846.145
840.043
841.891
855.468
843.726
848.427
855.356
851.292
851.978
860.653
861.025
853.796
853.977
864.943
855.885
863.045
854.321
865.421
860.963
863.481
858.055
871.842
872.779
874.510
873.777
874.955
863.730
872.937
871.367
871.134
867.151
878.971
874.847
873.769
879.320
872.117
877.639
881.265
880.522
890.517
881.630
888.311
893.148
884.000
883.943
885.170
894.698
883.116
899.286
887.564
897.664
901.405
893.476
890.735
896.133
898.201
899.345
898.514
895.211
896.876
910.256
910.438
904.164
907.157
907.884
901.218
907.467
916.665
918.377
909.676
905.905
915.789
917.890
911.191
919.130
918.961
916.970
923.158
915.794
917.639
915.932
925.228
922.263
932.402
930.442
925.657
928.155
927.567
921.454
928.335
919.935
927.917
928.618
923.005
928.812
913.828
913.594
924.724
922.381
926.562
926.593
917.352
923.850
916.496
920.420
921.512
912.129
924.218
920.608
916.192
912.968
914.229
914.005
910.149
913.366
914.273
920.967
917.864
910.269
911.811
909.338
909.902
918.291
912.460
911.054
905.693
913.581
916.348
903.635
908.875
914.883
909.747
911.846
911.054
910.455
910.102
912.089
899.665
910.432
901.934
909.619
900.680
899.309
904.800
907.304
903.410
903.117
900.882
902.606
904.929
896.228
909.287
897.880
907.477
894.881
906.676
905.870
892.236
904.915
897.815
892.619
898.293
894.118
900.380
890.492
898.647
892.215
894.935
896.195
895.624
898.994
897.502
891.247
886.138
890.198
889.805
891.956
896.618
889.051
896.003
892.790
889.680
886.612
884.993
893.815
884.302
890.115
882.525
895.202
894.686
882.336
892.307
891.110
888.668
888.905
878.436
888.626
883.391
890.581
887.969
884.782
888.438
887.680
885.073
890.873
890.574
886.713
878.965
879.300
879.954
881.142
879.412
876.844
873.679
882.319
878.896
882.009
885.628
878.336
885.335
885.677
880.134
874.933
873.273
873.941
879.192
871.957
876.401
880.662
872.347
878.573
877.385
871.222
867.335
865.351
879.050
875.910
872.116
868.068
872.182
875.677
874.361
876.151
867.475
874.404
864.304
868.334
872.976
865.070
870.031
861.299
869.849
864.836
862.948
864.843
859.115
868.968
865.322
858.612
864.292
859.104
857.969
862.434
857.971
856.944
863.887
863.019
856.636
857.156
860.270
859.896
866.109
854.487
867.475
851.688
853.678
857.160
856.131
863.503
863.764
862.103
863.580
850.136
850.810
856.325
858.448
847.723
859.513
843.944
848.758
849.324
850.001
848.536
851.808
839.418
839.093
849.311
845.017
835.989
845.740
836.964
841.926
835.541
836.057
836.333
838.119
834.588
838.262
829.337
830.667
836.963
833.602
827.272
828.127
832.547
830.863
822.603
830.991
830.217
824.971
828.337
815.630
828.436
822.161
825.595
822.809
821.279
824.105
811.916
810.947
822.230
818.987
806.273
813.906
816.847
811.011
804.346
800.447
804.904
802.047
800.540
801.735
808.767
796.428
805.421
796.463
798.473
792.736
791.628
792.835
789.096
791.230
791.125
792.265
794.037
797.890
783.510
785.832
790.239
782.270
791.173
787.338
781.502
792.853
777.392
789.905
790.217
782.267
773.387
786.540
778.139
784.967
781.349
781.147
773.873
780.562
774.058
771.566
766.125
768.968
765.767
763.516
775.039
770.303
763.480
761.468
764.390
757.805
762.699
764.679
761.742
767.310
764.375
750.733
760.417
759.911
759.461
751.748
756.149
748.071
747.222
756.682
753.827
748.482
748.075
750.521
741.530
740.057
749.227
747.345
749.377
743.676
744.185
741.610
738.534
734.234
740.006
738.920
732.493
740.295
737.703
740.484
733.125
726.313
724.031
730.489
734.429
732.066
719.452
733.505
722.485
727.525
717.192
727.957
724.991
728.545
727.053
715.305
711.475
724.541
717.403
707.982
707.361
707.611
715.540
715.408
717.870
712.901
717.141
704.163
704.052
708.808
712.605
706.636
699.601
706.545
702.758
708.421
698.043
706.691
697.563
694.433
696.336
694.726
695.348
695.414
689.371
700.122
688.511
695.118
692.014
695.691
694.041
685.595
681.734
690.219
690.461
680.506
676.086
677.205
687.516
682.257
672.199
680.700
681.586
679.197
681.388
689.280
683.213
685.277
684.512
685.537
689.873
686.494
681.163
683.769
683.247
691.121
695.623
692.996
686.594
692.123
692.361
704.575
690.484
699.838
700.543
704.636
705.487
700.280
710.269
702.581
704.847
706.133
709.286
714.725
714.137
713.742
714.740
707.390
718.452
718.082
720.066
722.281
716.928
720.156
717.948
717.697
716.920
717.540
718.131
725.932
726.369
730.496
729.401
721.959
730.929
724.144
722.643
726.685
723.894
738.643
730.580
740.472
742.665
743.158
729.732
745.663
734.789
740.654
745.491
747.856
739.673
744.958
736.464
742.954
749.987
745.849
755.635
744.838
750.653
756.255
755.661
749.458
747.216
758.125
751.525
763.366
755.213
757.016
754.268
754.683
767.930
768.568
762.678
771.026
770.035
758.420
770.595
769.445
770.627
774.385
778.061
766.213
771.183
769.445
770.148
777.400
781.207
773.075
772.866
773.483
774.121
784.638
786.775
781.869
776.544
782.437
781.857
784.710
789.189
791.332
793.182
781.928
786.406
788.299
788.779
788.692
786.537
792.630
796.790
794.477
794.260
803.488
803.656
802.766
798.556
798.016
796.033
802.659
800.138
810.729
801.556
812.165
805.450
809.870
811.430
816.336
810.776
814.318
809.679
822.891
817.551
824.136
818.275
826.495
813.316
816.560
816.365
827.733
831.350
826.501
831.928
829.042
827.990
835.567
825.042
834.258
831.205
832.158
825.759
826.894
828.671
829.903
837.464
835.177
834.018
844.274
839.896
845.228
849.593
851.034
843.873
845.514
839.584
843.005
847.492
857.241
850.007
851.489
855.313
853.142
860.222
849.135
852.489
853.509
862.871
860.849
855.034
858.079
862.144
868.160
860.603
858.610
857.513
862.692
864.830
862.798
869.486
877.164
867.525
873.995
877.528
883.167
884.138
878.996
877.322
882.782
884.492
883.241
891.941
888.140
896.556
887.034
896.918
892.233
903.067
898.938
901.321
906.062
902.054
902.668
907.057
899.574
912.589
900.420
911.661
911.888
916.391
912.227
916.989
913.254
912.749
926.132
913.556
928.173
918.434
930.815
927.705
924.227
923.105
926.474
938.039
933.682
934.866
934.388
931.073
933.002
943.581
946.353
943.898
945.622
950.718
947.719
941.049
954.876
952.207
950.854
955.951
950.039
953.557
957.743
960.172
959.213
960.619
967.734
967.402
963.037
959.193
964.600
962.953
967.198
977.269
976.232
975.885
978.478
980.284
973.644
987.731
975.154
987.864
983.192
987.923
990.001
984.236
983.396
985.145
988.443
993.852
997.764
1004.366
1001.844
995.789
1002.649
1003.972
1000.749
1003.823
1009.828
1012.943
1004.617
1005.390
1008.299
1019.717
1020.305
1019.573
1015.020
1023.846
1018.142
1013.762
1018.006
1019.215
1031.972
1031.265
1029.526
1034.103
1023.552
1024.735
1026.850
1039.064
1037.873
1032.480
1034.382
1041.099
1046.451
1044.698
1049.648
1047.657
1043.803
1043.768
1055.754
1047.387
1059.782
1057.451
1058.574
1054.294
1063.305
1067.343
1061.710
1060.795
1057.749
1061.432
1070.391
1067.263
1073.002
1074.285
1069.875
1080.693
1081.247
1069.782
1080.886
1082.532
1074.045
1088.878
1077.765
1091.589
1090.230
1089.048
1094.839
1087.334
1086.550
1098.939
1096.522
1089.689
1093.804
1104.535
1095.626
1106.228
1096.187
1106.478
1112.424
1103.065
1108.564
1116.347
1110.184
1106.458
1110.936
1109.998
1118.871
1116.925
1114.131
1122.278
1124.468
1128.536
1118.378
1130.676
1119.540
1124.360
1131.505
1123.339
1131.668
1136.948
1139.027
1135.869
1143.037
1142.909
1137.864
1129.082
1126.846
1136.057
1129.188
1123.810
1131.782
1122.337
1132.340
1130.774
1132.095
1123.882
1114.804
1126.759
1118.930
1115.141
1111.672
1110.117
1118.959
1119.809
1120.525
1109.883
1109.155
1105.035
1111.008
1107.905
1112.462
1101.837
1100.587
1111.978
1098.146
1098.596
1101.947
1098.401
1105.408
1093.529
1099.804
1096.504
1095.719
1099.332
1087.640
1089.612
1095.451
1094.519
1094.901
1089.529
1082.301
1091.379
1078.718
1083.034
1084.567
1074.649
1076.716
1075.152
1083.418
1074.283
1082.797
1068.037
1077.262
1071.945
1068.699
1069.669
1070.089
1074.369
1072.234
1069.115
1065.315
1057.306
1062.896
1066.612
1051.971
1054.566
1052.480
1055.476
1060.350
1046.892
1045.576
1057.717
1052.224
1048.235
1044.917
1047.589
1048.403
1047.487
1043.901
1038.417
1042.339
1038.004
1044.148
1037.865
1030.884
1036.127
1031.328
1033.794
1040.606
1033.740
1024.469
1024.829
1027.290
1033.196
1022.210
1024.385
1021.738
1018.876
1020.004
1019.680
1013.985
1021.288
1011.909
1012.473
1023.617
1021.732
1019.524
1010.278
1010.209
1011.051
1011.146
1012.040
1010.411
1009.883
1009.959
999.311
1001.240
1005.259
1008.003
998.292
1001.798
1001.341
994.785
993.553
988.011
990.562
986.547
984.110
989.122
995.121
983.868
985.054
982.768
979.714
976.157
981.404
987.581
976.098
987.131
971.002
984.549
976.471
968.085
979.612
979.984
977.866
966.057
971.230
976.029
964.852
962.401
966.821
961.716
964.162
959.694
968.333
952.777
955.832
962.059
958.854
952.651
949.834
951.822
953.239
948.053
951.786
956.921
943.794
943.765
953.611
949.655
935.766
946.718
940.212
942.117
941.666
930.211
944.416
930.435
941.967
940.356
928.951
925.711
930.755
935.238
935.797
930.429
918.381
926.983
920.283
915.130
922.230
