141.212
135.804
150.849
142.865
157.371
151.727
149.929
160.809
158.446
161.720
161.870
162.956
159.307
161.128
167.207
178.187
173.164
181.470
181.319
177.788
186.528
187.664
182.841
186.051
188.750
194.153
196.985
192.104
207.736
199.733
208.172
203.906
215.688
208.741
210.927
209.804
216.021
214.999
221.482
218.199
224.164
227.079
231.032
230.386
241.221
233.907
234.410
247.638
247.956
246.980
252.875
250.185
247.574
250.398
250.040
255.690
257.838
266.267
264.577
263.495
265.668
264.954
270.761
277.794
281.314
288.454
279.312
281.830
286.681
292.717
292.586
286.435
298.397
306.275
297.153
303.559
309.962
311.943
305.617
304.168
311.714
320.528
319.659
321.166
320.831
320.035
325.101
324.682
331.437
336.295
332.268
334.930
341.212
336.509
337.169
345.202
349.412
358.172
347.580
357.520
364.279
359.465
353.560
370.468
371.530
364.981
372.977
373.808
379.816
381.668
375.405
382.872
379.877
387.773
384.291
395.118
395.771
387.984
397.597
391.538
397.389
397.723
399.744
411.488
405.016
406.066
420.510
415.567
423.004
421.883
425.206
425.431
424.483
435.719
425.230
427.818
426.848
441.407
446.225
446.649
440.740
449.493
449.895
446.930
451.762
452.686
460.629
457.847
453.098
455.833
470.279
464.329
469.396
464.382
474.928
471.010
474.937
475.720
475.633
476.387
486.799
495.945
485.308
495.204
487.335
489.551
494.532
507.235
500.881
498.539
513.693
510.659
517.146
512.684
521.465
515.412
526.977
525.603
526.151
531.565
528.297
524.781
527.105
532.994
536.063
540.364
543.939
539.252
549.405
542.415
552.167
557.213
548.189
554.321
565.983
562.909
569.258
568.551
565.060
571.500
574.839
566.755
582.244
568.051
569.295
578.050
581.265
574.618
578.005
586.686
587.280
583.880
580.425
587.467
585.178
591.725
589.723
589.785
582.973
593.874
597.529
596.701
592.985
587.048
598.528
590.652
591.784
588.205
594.217
589.258
604.805
598.468
597.944
595.567
605.503
604.385
602.622
609.755
608.301
598.892
603.105
609.299
605.408
606.454
612.959
609.074
618.560
608.028
608.983
616.943
617.538
620.165
608.827
623.923
624.055
617.263
617.616
618.249
614.009
625.798
629.310
631.217
628.504
626.175
623.350
622.212
633.427
624.264
623.846
632.292
632.487
625.438
628.150
640.360
631.793
635.819
630.022
633.132
639.748
641.480
643.824
637.883
643.799
636.359
636.716
648.162
647.065
645.338
645.146
649.266
651.385
655.169
651.606
655.208
647.911
652.837
652.164
653.569
647.573
648.987
651.091
655.880
652.184
667.127
652.300
657.189
656.994
670.769
670.518
665.965
663.061
661.292
665.691
669.184
666.617
667.991
665.657
667.852
673.361
675.518
667.723
675.616
669.066
681.366
681.625
679.014
671.043
673.563
675.200
678.393
674.848
685.141
688.817
692.281
686.809
682.305
687.218
695.477
692.914
690.430
692.169
683.959
689.251
685.130
691.042
689.721
699.447
704.385
697.199
704.606
694.408
701.981
702.559
701.461
697.902
709.729
696.375
700.293
712.747
714.160
705.119
708.348
714.796
701.979
704.688
712.616
717.302
715.504
709.053
707.947
716.142
710.661
719.112
715.728
711.965
718.178
718.032
718.973
715.701
726.409
723.515
720.122
718.046
730.297
728.697
721.843
730.232
733.982
723.036
729.828
737.674
739.074
729.593
729.083
743.582
731.141
730.030
736.208
735.961
740.391
745.888
738.253
747.038
749.184
742.419
750.309
747.289
756.014
758.681
754.975
763.629
752.561
764.001
764.822
758.723
760.635
761.943
760.133
767.602
769.921
770.959
771.100
781.510
775.902
773.110
788.335
783.525
779.992
792.553
787.681
784.818
790.201
785.403
799.150
802.561
796.145
804.247
800.474
802.988
799.446
811.742
804.192
810.294
808.427
813.691
819.212
813.020
818.654
813.317
819.565
816.658
827.008
824.796
819.296
819.405
835.256
830.485
830.185
835.400
841.518
830.087
829.749
846.330
846.457
837.580
843.875
845.575
853.682
847.475
856.613
854.791
855.873
855.178
851.972
851.644
855.111
863.203
856.395
867.806
863.276
873.520
866.168
865.242
876.439
879.615
870.606
873.743
873.256
881.916
879.236
881.935
882.660
883.884
893.086
891.205
894.656
890.198
893.501
901.802
890.483
892.466
893.192
905.601
901.570
913.566
913.189
906.481
916.539
904.225
918.336
919.784
911.393
913.067
912.337
915.639
920.371
921.080
929.252
931.284
932.563
937.195
934.141
941.582
928.003
940.610
936.179
940.657
940.982
945.324
951.577
946.755
942.413
950.996
957.900
951.814
959.747
952.111
953.575
962.338
967.690
959.364
963.629
971.688
971.833
974.039
971.536
967.013
980.857
977.840
973.122
977.981
974.451
977.133
978.824
981.838
985.682
992.675
984.011
992.108
998.109
995.239
998.419
995.834
999.615
997.874
1009.467
995.886
1012.120
1004.011
1015.724
1011.629
1014.150
1015.724
1006.941
1014.129
1015.436
1016.616
1017.599
1017.556
1027.590
1027.610
1023.520
1030.730
1031.414
1035.754
1031.498
1028.040
1033.037
1034.548
1037.364
1043.935
1039.325
1040.615
1051.296
1045.772
1046.513
1059.182
1047.029
1058.897
1058.144
1053.624
1051.905
1060.546
1060.936
1060.935
1052.487
1063.622
1065.649
1051.937
1057.858
1060.629
1053.945
1054.196
1051.895
1058.640
1060.326
1050.922
1055.828
1063.156
1059.316
1064.689
1064.850
1061.653
1055.573
1058.293
1053.852
1065.992
1067.232
1059.712
1055.575
1054.703
1055.131
1058.530
1051.791
1053.771
1059.181
1057.979
1063.808
1056.696
1057.033
1061.822
1057.372
1054.233
1055.170
1055.524
1065.555
1066.770
1060.673
1054.559
1059.006
1061.576
1053.404
1057.996
1062.149
1064.539
1060.153
1057.454
1068.897
1060.300
1056.671
1060.787
1066.228
1068.693
1062.550
1064.831
1066.905
1068.454
1056.223
1058.555
1066.835
1067.920
1060.822
1056.743
1059.910
1058.719
1056.873
1056.978
1063.118
1059.764
1070.131
1064.837
1062.891
1064.329
1066.622
1059.987
1055.284
1058.336
1055.547
1063.535
1063.786
1056.313
1063.509
1064.581
1066.864
1065.443
1067.452
1059.823
1066.598
1068.013
1062.765
1056.775
1065.027
1058.620
1057.964
1067.704
1068.081
1056.717
1057.036
1062.493
1071.548
1058.713
1064.384
1066.017
1064.540
1065.976
1063.726
1069.714
1056.559
1059.921
1061.615
1062.384
1066.700
1068.633
1067.306
1063.357
1057.341
1071.563
1059.544
1067.240
1066.207
1068.483
1062.293
1060.272
1062.971
1059.368
1058.204
1066.757
1061.995
1073.255
1067.680
1067.637
1072.932
1073.215
1060.545
1066.336
1071.188
1067.095
1062.254
1065.777
1068.087
1070.642
1062.796
1073.086
1066.727
1058.791
1074.129
1066.825
1060.012
1059.328
1066.863
1069.230
1062.986
1073.646
1067.360
1059.643
1061.666
1067.882
1069.084
1066.550
1064.718
1069.004
1068.093
1072.723
1061.009
1069.849
1067.832
1068.213
1067.970
1062.157
1064.883
1065.030
1067.398
1074.864
1068.509
1063.921
1064.112
1063.908
1071.543
1072.497
1072.404
1062.506
1067.634
1064.300
1073.990
1076.950
1062.520
1061.455
1068.074
1066.958
1062.261
1066.909
1068.195
1061.971
1071.486
1066.834
1064.976
1064.498
1062.890
1055.447
1066.433
1060.757
1050.859
1057.682
1055.468
1056.163
1050.542
1055.394
1055.569
1049.989
1043.977
1047.892
1047.951
1051.928
1045.059
1038.199
1045.262
1039.757
1035.775
1041.988
1044.018
1029.367
1038.359
1036.989
1038.168
1026.988
1029.558
1028.739
1030.518
1024.933
1032.509
1018.788
1025.043
1025.320
1025.259
1020.775
1023.595
1013.181
1014.503
1009.862
1023.660
1016.131
1008.496
1014.143
1004.453
1003.580
1014.384
1012.770
1008.432
999.824
1011.199
1004.216
1004.333
1008.395
1003.407
1002.592
996.321
991.936
1001.709
990.704
990.111
992.944
996.693
999.000
997.430
987.545
994.239
983.440
988.705
982.324
990.613
988.157
978.893
977.299
972.844
973.698
970.733
973.175
980.799
979.161
977.239
964.310
976.777
964.769
973.934
966.102
968.567
968.393
964.976
955.208
961.788
962.441
958.061
952.336
965.465
956.598
950.376
946.646
959.232
956.545
952.155
949.066
949.577
953.977
942.624
951.306
945.654
936.707
939.654
940.507
934.515
941.029
938.176
937.413
940.407
933.254
927.357
933.882
924.038
934.154
925.828
930.997
920.105
930.563
930.983
918.946
928.028
921.668
924.934
923.625
925.768
910.547
913.418
923.271
921.273
919.398
913.353
918.190
911.710
907.407
907.648
911.743
901.398
897.682
905.039
899.699
895.699
907.847
903.490
902.886
889.020
888.997
888.830
894.136
899.525
891.351
883.627
886.097
887.452
887.659
887.237
883.922
887.280
882.027
882.233
878.742
872.652
878.207
876.199
881.976
874.519
877.023
875.933
874.616
866.190
876.983
867.915
872.725
861.828
864.089
866.429
869.656
862.415
853.234
860.738
859.982
861.627
864.348
848.128
854.377
859.819
846.915
851.773
854.047
851.106
856.927
848.118
848.001
859.370
861.319
853.051
861.120
862.294
850.231
855.214
864.209
852.792
852.786
859.857
855.360
863.173
864.111
854.770
862.485
859.498
868.691
867.229
855.152
860.833
863.713
869.936
869.979
866.268
868.574
862.762
863.187
869.862
863.985
864.077
873.847
862.149
873.070
875.186
859.920
863.986
875.414
863.387
869.358
869.110
872.168
868.476
862.793
871.172
872.994
877.707
864.977
872.296
878.959
870.674
872.914
878.405
868.919
875.042
873.859
881.618
876.676
871.553
870.039
878.766
875.842
871.679
870.254
879.120
872.620
881.047
873.904
872.476
872.665
876.907
880.146
884.433
887.681
888.325
876.240
878.791
889.550
882.763
876.551
881.833
881.616
879.192
888.869
882.693
888.380
887.817
881.190
888.773
881.677
885.334
884.662
888.299
894.362
894.819
888.630
895.004
882.568
887.796
884.401
895.286
885.439
894.713
898.892
887.458
896.951
898.775
898.385
894.721
897.981
890.039
888.534
890.356
888.072
895.705
903.227
898.117
901.313
898.696
899.978
890.700
899.270
903.433
901.665
895.701
893.248
906.606
905.336
897.694
906.461
900.887
904.921
905.544
907.008
909.730
907.329
905.339
897.812
901.555
902.730
910.034
904.495
898.490
906.515
914.711
912.571
905.682
913.481
915.663
916.798
901.370
916.344
914.013
904.503
916.038
910.015
909.414
908.528
908.051
907.370
909.364
906.896
906.582
907.990
921.688
911.151
917.067
916.616
912.461
923.566
912.738
922.968
911.359
922.172
916.553
911.940
915.039
920.696
926.200
927.227
919.597
927.347
919.560
918.311
920.116
919.138
925.067
921.887
916.464
926.536
925.581
919.438
919.032
919.160
928.916
927.865
915.368
926.746
928.991
926.152
920.993
923.748
916.859
921.521
921.555
910.932
916.722
913.228
914.232
911.243
913.878
921.132
916.260
917.520
911.724
918.844
907.411
913.144
912.869
908.116
916.175
908.222
912.668
903.119
912.008
911.719
914.411
904.254
899.658
905.222
913.098
911.478
909.040
904.551
904.654
905.804
899.448
904.500
895.008
896.270
901.759
905.293
905.305
896.548
900.203
903.049
891.198
905.178
890.355
892.756
904.333
898.716
900.779
899.871
889.723
889.166
893.100
895.751
890.461
892.597
893.186
889.153
883.243
888.169
896.892
896.765
886.078
887.234
882.215
881.655
880.371
883.654
884.928
893.150
886.344
878.545
889.014
885.796
877.502
889.643
888.273
883.151
881.643
875.903
877.878
875.755
872.782
884.923
878.158
870.615
878.711
878.023
872.836
883.828
870.504
878.752
879.358
867.042
866.763
880.359
878.803
874.540
864.861
870.926
877.602
871.159
867.639
867.117
869.494
873.240
861.869
861.585
871.369
871.857
873.050
862.935
857.899
860.046
857.342
856.408
863.269
860.499
858.505
865.204
853.384
860.784
857.313
863.475
852.830
863.304
851.645
850.765
863.190
851.083
852.668
852.147
859.029
846.365
860.466
858.847
850.290
849.817
857.870
848.185
852.178
846.031
856.785
856.974
845.803
855.829
852.249
853.917
847.697
845.100
849.537
850.120
851.681
838.755
845.421
839.647
845.273
837.087
848.820
840.233
838.783
843.743
837.874
833.400
843.519
831.068
839.862
840.180
830.629
830.368
843.227
839.824
838.678
835.755
829.714
828.792
830.197
833.763
836.230
825.829
838.841
828.848
836.735
828.884
827.021
828.260
820.654
825.439
830.495
827.333
832.318
821.777
830.786
832.089
832.346
833.845
834.259
827.694
823.529
834.557
825.476
824.224
824.133
824.591
825.927
836.080
830.685
839.812
830.403
831.153
831.707
838.943
833.063
834.618
827.566
832.146
828.875
842.399
838.313
829.121
840.092
828.509
835.256
835.914
835.225
830.887
839.047
835.035
844.820
830.248
835.394
830.507
841.319
835.058
845.721
844.334
846.681
845.163
839.783
848.318
843.623
846.313
846.670
842.518
836.981
841.164
844.940
846.835
840.749
850.604
839.194
841.394
842.590
841.635
849.035
850.897
839.621
849.360
849.317
846.488
851.900
841.285
841.175
851.837
840.455
852.550
853.586
845.218
844.160
853.929
842.665
845.915
850.121
847.042
845.167
849.691
849.441
855.841
856.361
851.870
855.698
850.072
859.536
848.572
858.895
845.770
846.690
857.982
861.927
848.008
847.694
851.305
862.331
861.077
863.595
848.419
851.981
852.118
848.887
864.355
864.362
854.278
853.507
862.854
854.387
859.030
862.575
853.720
860.290
866.503
859.545
855.416
854.176
853.336
862.555
863.045
864.531
858.771
868.162
866.940
862.899
860.164
865.799
864.204
868.253
864.388
865.760
857.568
863.299
872.734
860.058
864.154
868.985
871.215
860.035
870.173
860.916
868.739
861.527
868.781
860.913
869.495
865.657
869.520
869.944
864.335
869.949
870.702
875.152
875.148
872.333
864.252
868.183
868.090
874.570
866.040
867.972
877.183
877.083
868.840
876.004
869.714
872.600
877.686
870.026
876.719
868.917
877.502
878.194
875.360
882.521
880.797
879.768
881.206
871.672
873.991
882.235
885.497
885.101
882.495
877.585
880.248
881.708
876.007
881.078
875.891
880.215
884.285
877.137
885.645
881.132
876.271
889.455
888.665
880.141
881.248
889.789
879.123
894.042
894.209
893.491
895.724
895.811
896.760
892.651
885.220
893.031
884.815
896.238
887.337
884.591
889.571
886.889
895.114
897.856
898.540
894.450
896.935
898.818
890.661
898.254
898.475
891.337
894.585
900.285
906.705
901.448
893.204
906.169
906.159
903.869
904.436
909.004
905.852
899.269
908.829
912.700
906.249
911.736
905.540
901.294
905.820
912.955
907.996
913.454
905.269
909.942
905.415
914.150
905.536
908.940
918.191
910.588
909.897
913.066
921.912
912.107
922.574
916.305
921.029
911.548
918.667
923.093
918.498
925.252
926.769
925.810
924.083
922.602
916.007
930.864
919.906
923.798
925.154
930.008
924.387
929.441
928.530
925.781
923.036
924.742
924.007
928.991
927.262
922.159
925.940
926.896
932.658
934.285
924.757
937.264
938.886
936.999
936.944
933.755
933.028
932.187
929.142
943.739
936.616
936.566
939.448
944.577
946.375
941.607
938.830
940.429
949.545
934.714
935.688
947.258
948.242
949.681
947.843
952.611
941.270
943.700
945.566
939.330
944.872
954.325
948.445
943.852
954.124
944.376
950.250
959.229
952.358
957.706
952.160
956.465
951.031
958.630
949.832
954.078
955.593
950.919
958.201
954.346
958.449
956.207
954.619
955.540
955.242
957.513
965.519
968.800
956.646
963.190
957.745
964.782
971.210
966.687
961.998
964.649
958.510
970.861
961.913
972.615
966.628
963.519
971.654
963.438
973.202
970.614
966.224
973.365
972.035
979.660
979.071
970.730
975.704
975.657
972.219
973.403
968.309
983.162
971.232
982.288
979.416
972.114
981.244
971.887
977.537
974.247
982.484
982.799
988.330
975.414
984.445
988.319
984.844
985.686
984.883
981.221
982.021
989.170
975.496
975.431
980.720
983.380
975.341
984.626
983.841
972.935
976.015
983.955
983.487
971.947
984.109
978.212
980.143
974.056
968.855
968.625
983.358
968.512
982.061
971.131
976.448
967.204
970.815
975.776
976.001
976.801
979.318
973.057
977.334
972.585
971.007
972.316
972.014
966.531
963.410
963.781
969.878
963.203
971.814
961.451
964.769
962.441
976.047
968.958
974.260
965.003
961.160
965.661
963.275
969.637
970.311
969.876
966.553
966.919
957.030
967.852
965.857
966.236
965.999
956.481
963.255
967.039
963.947
961.040
962.559
968.744
961.469
968.027
959.727
953.832
961.854
955.396
957.950
954.946
957.876
955.061
953.512
951.644
952.261
956.097
960.698
964.354
964.290
961.508
949.784
953.594
957.470
955.812
957.501
947.875
960.683
947.930
956.278
956.130
956.487
949.442
945.740
958.207
953.870
958.813
957.399
954.507
942.690
944.801
952.021
953.917
941.372
951.475
954.843
946.714
955.714
951.440
942.028
946.941
954.860
951.127
943.447
948.979
944.951
943.441
940.713
946.429
936.909
937.774
938.082
948.972
949.633
943.763
950.437
949.528
942.649
934.188
946.497
946.502
947.078
935.557
945.580
942.306
937.504
934.065
938.205
937.322
945.044
930.610
943.211
937.096
933.649
936.143
937.626
936.566
941.329
928.543
935.500
939.053
929.851
930.217
932.424
936.899
933.259
938.494
929.250
936.993
925.219
938.196
924.678
927.621
925.631
933.237
927.473
926.950
935.282
937.233
936.495
936.308
923.483
923.009
924.691
922.306
935.157
935.916
926.821
921.704
919.890
920.733
927.146
926.091
927.884
929.087
930.253
926.984
