574.493
574.277
582.130
576.711
583.561
572.080
585.746
578.008
582.738
585.978
573.504
582.711
578.467
576.335
586.831
581.942
580.543
581.448
587.239
595.028
582.106
586.686
583.465
584.833
589.444
585.905
593.466
588.931
593.148
598.304
602.940
599.790
607.330
602.943
600.356
598.116
607.938
603.169
599.930
600.374
606.549
615.086
605.767
611.242
613.639
612.725
616.023
609.286
617.335
614.773
614.809
616.656
623.737
618.552
614.997
617.032
625.439
621.768
613.771
621.432
626.604
631.362
619.807
619.950
628.135
628.461
630.810
635.769
622.117
624.062
639.606
633.687
626.953
629.651
633.841
638.863
631.754
641.929
643.811
646.787
636.953
634.072
645.119
646.201
636.179
651.046
640.306
641.265
652.427
642.711
655.028
653.473
652.081
653.190
656.203
647.237
646.182
653.246
655.723
657.203
656.789
654.694
652.326
661.927
655.464
662.292
669.121
656.705
667.034
665.918
662.743
669.595
673.034
662.053
662.276
676.355
671.529
673.954
666.154
670.469
668.488
672.104
668.610
678.226
676.505
683.277
672.039
677.220
672.801
673.380
684.121
683.616
680.104
683.968
685.569
688.044
688.675
694.528
682.447
690.577
694.761
692.538
684.764
695.554
690.436
699.753
695.399
704.305
703.840
705.022
703.524
698.126
705.864
693.696
702.721
708.233
706.347
707.006
708.478
702.693
707.387
700.763
706.673
708.365
710.761
707.156
714.870
711.652
717.093
711.183
717.134
716.470
715.328
714.355
726.127
724.382
715.851
729.045
723.232
720.653
720.953
721.849
724.392
729.099
730.717
732.255
736.635
723.957
734.616
732.982
725.704
738.270
734.040
734.706
738.167
728.855
740.257
735.991
742.920
747.305
747.783
742.731
747.669
749.630
740.641
752.940
742.904
754.296
758.386
755.021
760.557
751.605
762.048
762.929
767.974
769.600
762.010
772.394
774.593
774.934
776.403
774.278
783.026
774.558
773.771
779.841
786.562
787.200
790.275
780.750
796.312
788.451
795.932
786.147
797.214
790.810
799.485
803.736
802.508
800.710
803.633
797.925
809.882
814.290
808.446
817.137
807.490
821.190
824.015
818.696
812.998
819.061
817.742
825.605
820.214
835.438
828.781
832.862
827.212
828.284
841.075
845.430
833.780
836.530
846.560
844.730
846.585
848.056
856.399
855.352
846.813
858.417
850.128
850.185
862.050
862.595
860.309
866.449
868.705
868.055
868.720
872.763
871.527
865.416
878.164
875.958
883.134
880.670
879.675
887.052
882.139
877.757
894.355
884.189
894.731
898.341
899.200
896.562
890.074
896.045
906.955
895.362
894.648
897.839
911.767
910.439
912.218
916.776
911.885
916.110
911.435
923.855
916.888
915.976
914.239
924.603
929.651
927.616
927.413
936.625
928.991
932.037
941.479
928.516
932.378
932.650
945.972
937.051
948.506
939.750
951.545
943.781
944.242
947.723
955.511
949.129
955.957
957.089
960.562
957.740
963.260
963.585
959.868
967.002
967.765
969.069
967.462
971.312
981.540
969.931
977.033
987.847
984.385
983.603
980.592
983.643
980.607
986.012
986.756
996.243
988.180
1003.573
1001.797
1001.314
1000.196
1001.291
1004.089
998.794
1012.069
1010.426
1005.453
1009.669
1014.672
1021.597
1016.998
1011.752
1022.835
1014.594
1027.631
1029.100
1027.064
1028.490
1033.510
1033.766
1038.871
1029.514
1039.313
1031.212
1042.374
1042.796
1041.207
1044.188
1049.735
1046.872
1046.010
1042.446
1052.035
1055.046
1056.088
1049.766
1057.397
1064.889
1060.063
1064.326
1050.365
1060.034
1053.936
1057.600
1053.046
1051.245
1065.399
1050.455
1050.646
1063.056
1053.462
1064.557
1052.269
1056.244
1063.455
1060.427
1052.897
1064.805
1053.441
1054.374
1057.351
1052.141
1063.679
1059.851
1064.389
1053.578
1067.090
1057.622
1052.977
1055.289
1066.584
1055.102
1066.578
1065.814
1061.781
1054.028
1052.269
1061.609
1058.870
1053.317
1052.544
1065.722
1055.583
1064.393
1063.799
1054.165
1056.958
1065.198
1053.768
1061.698
1058.977
1061.601
1065.113
1068.580
1068.744
1056.536
1060.217
1066.323
1063.577
1063.629
1058.846
1065.714
1053.981
1059.586
1062.424
1067.778
1064.369
1065.594
1069.275
1066.988
1059.586
1061.037
1055.026
1054.354
1068.313
1069.099
1070.209
1065.707
1064.023
1069.320
1066.042
1061.427
1065.009
1057.577
1066.601
1055.154
1070.300
1067.488
1064.955
1061.876
1069.050
1057.826
1056.814
1060.791
1058.436
1056.844
1061.204
1058.644
1057.512
1066.203
1058.774
1062.453
1058.887
1065.199
1056.100
1062.539
1057.521
1063.931
1060.304
1064.143
1063.650
1057.995
1064.751
1071.065
1065.846
1060.110
1057.674
1057.256
1072.186
1058.114
1063.619
1058.238
1058.426
1061.552
1062.319
1067.293
1068.917
1063.214
1059.077
1063.407
1058.722
1061.501
1066.570
1060.459
1063.055
1062.590
1071.806
1061.552
1060.063
1061.414
1060.325
1069.584
1071.903
1068.955
1061.254
1072.286
1060.794
1071.579
1068.641
1061.234
1073.404
1069.987
1074.255
1061.324
1071.912
1062.021
1062.851
1073.820
1073.948
1061.020
1059.516
1072.930
1069.917
1069.264
1070.494
1074.842
1063.605
1066.965
1068.173
1064.154
1075.249
1069.417
1066.946
1065.702
1067.807
1069.871
1066.720
1062.274
1062.258
1072.247
1066.596
1060.600
1075.958
1065.244
1062.019
1066.926
1070.847
1061.700
1068.422
1075.548
1073.517
1063.972
1062.301
1074.605
1071.532
1063.457
1071.647
1073.682
1064.741
1073.074
1064.829
1064.410
1059.970
1062.665
1068.129
1066.667
1051.838
1058.801
1060.613
1055.898
1057.105
1054.083
1056.435
1045.937
1045.802
1055.444
1044.378
1043.975
1049.511
1048.741
1048.758
1036.451
1034.246
1044.454
1041.471
1037.239
1034.446
1040.878
1034.982
1040.939
1027.545
1029.729
1038.078
1036.515
1027.070
1022.865
1020.668
1020.377
1018.287
1017.211
1014.486
1021.948
1013.729
1017.272
1019.069
1012.074
1016.317
1012.093
1016.441
1007.601
1004.856
1017.315
1001.221
999.890
1005.219
1007.992
1009.669
1001.355
1002.194
997.143
1002.501
1002.388
1000.442
1004.103
991.659
990.720
996.650
993.017
986.923
992.840
991.556
989.211
986.688
985.213
986.378
984.628
976.448
988.345
984.447
977.842
977.083
980.333
980.036
974.655
969.602
972.890
966.829
964.240
964.566
972.713
964.317
973.194
968.104
959.999
969.087
965.714
961.312
952.136
957.021
952.421
957.753
951.967
954.425
946.046
960.211
958.219
948.380
945.121
951.336
950.299
946.132
944.239
950.631
946.658
936.865
941.610
937.339
944.749
936.153
942.142
940.558
932.929
940.062
930.705
938.044
933.338
924.430
926.660
928.980
923.530
922.082
920.957
921.892
920.926
924.570
912.788
912.151
915.844
907.756
906.548
916.601
913.994
905.093
908.163
903.939
909.826
911.479
913.308
910.602
908.831
903.696
909.077
907.580
899.122
898.455
890.997
889.152
894.337
897.855
899.891
891.864
885.096
882.382
890.140
885.017
893.340
884.285
875.943
889.720
884.984
888.447
881.975
874.864
876.983
878.853
878.289
877.517
875.256
873.250
878.406
865.914
874.180
863.946
865.262
871.269
856.547
862.877
862.157
864.004
865.415
858.163
851.780
859.332
860.149
853.166
859.969
853.000
857.237
855.673
853.101
845.995
852.137
857.748
859.002
861.608
860.136
849.270
861.721
857.005
855.447
856.456
859.740
866.034
859.338
864.948
854.594
857.835
859.451
856.479
864.779
867.382
858.785
864.077
854.192
864.897
858.778
855.410
858.221
857.509
863.544
870.290
872.342
867.972
864.649
871.581
869.872
867.026
865.690
859.795
873.478
872.878
867.593
869.685
874.039
870.649
862.567
877.437
874.595
864.632
869.263
873.022
868.080
870.394
871.994
867.810
877.565
872.726
871.296
866.912
867.912
877.320
881.451
873.604
871.127
878.923
873.999
877.627
885.548
883.037
883.485
873.752
881.908
887.237
872.245
880.045
875.805
874.026
879.131
874.809
884.833
884.135
880.999
879.730
884.857
886.130
880.360
889.252
889.533
892.229
890.099
888.755
878.977
882.617
894.750
891.374
885.504
884.879
891.205
894.239
886.708
885.389
893.063
890.416
887.737
885.297
899.712
890.595
896.868
890.695
888.244
891.467
898.376
889.060
891.156
896.921
888.470
900.355
890.771
892.460
897.425
892.415
904.658
891.658
905.716
902.642
902.185
892.952
895.208
899.512
903.271
897.916
900.171
906.180
904.641
901.623
910.131
896.102
903.274
900.368
900.607
905.689
906.847
902.244
903.690
902.418
909.588
913.819
905.006
910.460
908.756
905.809
907.393
904.860
913.963
902.942
913.876
909.585
908.397
907.373
917.716
911.142
904.920
905.176
916.822
908.779
906.939
905.981
906.986
906.802
915.804
920.969
918.038
917.577
914.739
912.447
918.138
915.587
918.385
915.672
913.330
914.548
913.641
921.071
918.990
914.236
916.013
918.559
921.557
927.120
919.937
924.337
924.479
919.776
917.758
920.259
921.339
917.779
922.951
925.873
919.040
926.625
921.983
929.174
924.052
921.881
913.990
918.996
912.573
917.229
918.957
910.773
909.828
923.190
910.351
914.260
910.171
917.315
914.226
916.434
917.418
906.942
916.626
911.693
906.658
906.861
913.892
904.344
901.700
910.493
900.935
911.414
902.430
899.542
902.487
911.231
912.211
899.706
897.981
904.826
899.688
907.304
909.529
895.933
903.407
906.767
905.309
895.731
893.001
896.620
892.888
903.803
895.714
902.788
890.031
888.923
891.018
892.019
899.956
898.681
894.997
900.049
893.243
885.509
886.752
897.002
887.741
889.350
883.643
889.148
893.882
884.906
889.727
891.310
880.903
881.976
886.392
884.094
885.494
883.154
883.268
884.520
887.284
890.004
874.460
881.096
884.071
885.720
872.568
885.945
881.347
872.381
884.272
871.470
873.772
882.169
879.002
873.591
878.226
874.790
873.294
879.038
874.421
868.860
867.772
866.364
869.019
863.701
876.491
865.679
873.461
870.782
873.472
871.199
863.620
867.972
872.695
873.062
869.345
870.932
871.397
858.348
871.515
861.117
861.202
857.984
865.777
867.831
852.737
859.153
860.008
857.823
860.152
851.191
852.293
858.409
863.562
856.853
848.545
861.598
855.287
861.344
860.700
858.993
855.166
846.391
847.376
845.191
854.036
845.243
847.239
844.144
842.630
854.282
840.728
840.683
841.397
848.838
843.152
846.861
851.496
851.821
836.286
850.772
842.746
844.966
839.975
849.451
834.054
847.810
834.850
844.750
839.833
838.773
836.486
836.894
840.845
834.608
837.492
831.621
837.263
835.800
831.492
840.885
839.576
825.496
829.097
839.396
823.763
831.166
830.522
827.103
834.199
821.903
825.119
820.163
827.318
826.774
819.564
835.189
821.545
828.718
834.215
827.669
821.239
831.615
833.759
828.689
830.572
833.508
825.376
823.374
823.895
839.152
830.787
831.320
825.798
826.625
835.547
830.022
837.453
837.446
835.502
829.064
832.746
829.275
829.566
833.550
835.745
831.150
828.843
843.385
840.081
833.668
843.117
831.407
845.163
843.726
836.869
845.992
837.520
840.641
832.310
832.952
834.546
843.707
845.314
843.591
847.052
841.005
843.758
838.627
847.846
848.472
837.630
836.261
836.085
845.320
848.538
845.341
842.452
852.324
839.056
838.954
847.712
850.424
842.316
852.231
846.198
846.618
852.810
843.243
846.267
845.990
855.084
844.701
846.645
843.684
848.102
846.500
846.102
853.213
857.973
847.477
843.970
843.204
847.709
849.663
855.807
849.513
853.774
858.543
850.415
860.036
845.621
847.381
852.584
849.411
851.065
847.694
861.397
853.232
851.122
852.444
858.876
849.626
851.641
859.491
849.834
854.489
855.305
856.559
857.228
858.960
858.539
851.863
862.722
856.863
857.188
861.718
860.569
863.252
867.683
854.214
864.688
854.007
855.579
858.768
857.172
856.140
870.127
866.800
862.114
862.099
863.543
872.084
870.720
869.917
872.917
860.631
873.010
865.380
862.322
873.664
872.802
874.903
869.024
868.832
862.998
867.076
870.620
863.103
871.068
866.535
862.367
872.029
878.146
867.366
869.227
866.276
876.771
872.907
865.254
867.461
866.716
876.516
874.027
871.673
869.053
878.311
868.247
875.692
870.230
877.867
882.734
882.617
871.262
877.404
869.928
880.408
869.746
883.657
883.704
879.587
883.914
870.569
872.680
880.401
880.481
874.293
873.739
876.206
885.067
872.901
883.876
887.544
878.679
881.844
882.216
878.357
883.314
879.198
887.900
891.243
877.593
881.142
882.643
888.769
893.563
886.746
893.044
889.006
891.446
887.779
895.292
887.497
892.843
894.354
885.813
894.780
892.307
898.963
901.413
894.354
891.797
897.192
894.234
893.162
894.902
892.724
903.396
902.252
903.327
904.399
907.990
903.324
894.507
897.052
905.243
895.839
900.474
903.942
910.555
910.254
900.792
898.773
909.354
912.122
911.522
909.299
914.868
912.682
917.193
915.200
913.091
910.005
916.300
904.250
910.665
919.583
909.441
911.670
914.940
920.733
909.118
915.078
922.190
909.544
910.350
920.385
926.456
913.303
914.619
913.077
928.525
916.081
929.629
915.441
929.723
919.090
925.743
925.977
931.888
930.000
932.529
922.795
927.116
926.041
924.235
931.776
935.208
925.866
922.529
925.171
938.463
936.950
935.601
935.738
931.538
936.376
934.857
935.176
942.293
940.886
937.916
929.867
944.655
936.785
939.260
937.343
937.772
939.045
936.101
945.114
937.145
949.363
944.543
945.584
935.371
951.341
938.902
947.111
940.385
953.223
949.684
944.605
955.241
945.374
951.133
948.317
944.135
948.069
950.497
944.037
954.476
945.260
958.815
959.751
948.081
961.071
955.142
962.422
958.473
949.938
951.513
951.076
959.095
955.758
953.089
956.587
956.190
964.439
965.566
967.199
954.609
964.351
958.291
959.968
969.262
964.399
972.400
968.332
960.719
973.660
961.744
959.948
973.710
972.207
961.346
973.232
971.266
964.682
971.887
975.418
971.425
967.934
964.863
968.868
980.713
975.661
973.769
981.301
973.431
971.930
976.937
971.697
979.788
979.251
980.650
980.894
972.619
984.414
975.887
983.789
977.793
989.768
979.186
984.767
991.028
987.299
983.475
974.513
975.288
977.645
976.744
979.192
977.734
980.364
975.042
971.890
983.507
981.224
973.026
975.692
977.887
980.210
977.195
972.711
976.692
975.985
983.731
983.194
981.999
971.643
982.495
969.786
980.330
969.191
979.600
979.022
976.359
976.346
965.984
970.009
974.198
978.715
979.125
976.274
974.523
967.051
974.959
975.117
977.402
975.595
965.533
967.492
965.502
973.534
965.361
971.738
964.232
966.641
973.305
965.524
965.814
973.934
964.741
969.155
963.865
957.619
965.373
966.351
959.590
967.999
967.922
969.589
969.821
957.465
955.747
964.409
968.691
966.658
959.636
954.987
963.313
965.609
964.456
953.128
957.560
962.004
956.340
964.945
950.746
951.184
959.383
952.929
959.976
961.809
954.754
956.171
963.444
953.075
959.465
949.140
955.159
955.959
954.544
952.281
949.816
954.520
957.121
952.785
958.636
949.968
948.957
946.088
946.428
954.536
957.207
955.262
955.943
945.745
944.810
949.354
948.392
944.370
950.482
953.372
947.193
952.647
948.507
950.649
948.656
941.637
944.906
938.106
941.087
942.686
950.515
943.915
949.030
951.374
944.810
947.272
938.749
944.506
945.450
936.162
935.996
940.330
942.937
942.509
933.174
947.755
946.172
946.878
946.730
932.052
939.287
940.881
942.102
939.488
933.108
939.091
932.290
929.775
928.956
940.276
939.199
937.404
942.749
934.005
939.373
942.580
926.623
927.860
928.720
937.736
941.062
931.159
938.257
935.734
924.628
938.013
926.890
932.088
924.480
931.429
937.764
923.850
928.525
933.455
936.661
935.780
932.577
933.744
920.710
925.966
922.551
933.596
920.323
931.408
921.585
927.090
926.762
926.680
921.797
924.293
927.033
915.980
914.285
920.257
925.400
915.438
917.394
907.653
911.775
910.661
914.135
917.210
909.356
904.827
900.635
905.055
911.353
908.388
908.607
902.442
893.495
895.587
900.669
891.978
893.564
894.989
888.805
891.553
892.219
886.514
889.667
880.493
890.297
876.699
879.079
880.948
886.074
882.595
872.180
879.615
874.360
881.571
881.594
879.999
877.119
877.264
869.592
866.244
866.725
861.175
867.375
870.060
858.117
864.021
858.681
860.123
862.990
860.809
861.527
855.153
851.692
847.275
844.900
845.673
844.954
851.709
841.163
848.519
842.971
843.526
837.632
845.479
837.936
832.342
835.576
834.099
828.503
836.726
832.436
830.014
827.194
822.140
821.955
829.542
830.217
822.896
821.610
821.629
826.972
822.474
824.689
812.658
820.523
809.628
819.219
812.743
808.204
815.095
813.724
807.113
802.538
810.746
800.422
807.713
804.212
804.194
796.616
796.377
800.409
790.213
798.162
791.186
788.366
794.691
788.662
792.740
791.339
787.600
790.787
781.161
774.446
782.222
785.951
779.685
784.320
774.935
780.648
767.747
779.433
771.421
766.455
769.628
768.385
766.249
757.762
769.687
766.056
754.054
763.816
763.154
758.555
756.569
749.832
753.653
748.906
757.169
746.700
752.779
754.456
741.799
743.587
746.173
750.043
736.010
749.323
737.616
735.526
743.315
743.201
739.192
740.443
736.201
737.959
738.238
728.507
724.141
723.041
727.590
724.045
721.981
725.736
719.045
715.940
713.391
725.586
723.913
722.042
709.255
706.681
707.659
709.958
707.595
702.355
708.213
713.142
697.791
700.695
696.942
698.701
699.778
693.374
705.108
689.031
697.550
697.957
688.536
684.409
687.098
694.120
