226.813
220.957
228.995
226.355
230.903
235.424
221.701
225.463
233.340
239.454
233.356
243.304
242.085
232.516
237.069
234.237
240.857
236.991
241.098
239.960
250.371
252.626
249.108
251.452
261.006
257.003
259.617
258.212
266.167
255.529
261.366
262.007
267.985
258.929
269.258
266.746
265.729
274.061
271.613
271.235
270.559
273.517
278.209
273.137
281.803
280.951
283.969
287.259
289.328
292.072
289.896
289.858
288.811
291.178
294.773
299.445
295.492
302.317
300.469
309.349
300.647
298.616
308.835
314.228
308.644
309.197
312.566
316.873
311.501
312.239
325.388
315.176
321.001
322.638
324.781
322.358
323.754
334.157
321.536
323.623
326.471
325.324
326.678
338.954
329.442
340.016
344.388
345.644
343.840
343.704
349.671
347.906
350.614
351.019
342.775
348.110
347.830
359.842
359.434
352.594
362.406
367.826
365.811
363.899
356.326
364.642
368.825
369.260
362.423
371.069
379.941
377.426
378.724
371.341
384.948
372.688
380.534
380.374
391.257
382.136
389.475
388.312
381.716
386.500
392.640
396.592
393.295
396.954
397.147
404.645
397.364
408.087
395.044
401.701
398.490
407.074
410.968
405.211
414.049
414.039
408.691
417.215
415.262
410.606
418.325
417.215
428.428
426.388
428.386
425.567
429.171
434.898
431.181
431.808
434.749
429.493
428.554
429.407
442.683
439.924
446.353
441.992
443.968
444.461
442.376
442.713
446.096
444.582
453.966
458.968
452.208
462.180
461.607
462.567
465.316
456.506
463.000
459.646
468.130
466.397
468.288
477.842
473.745
473.479
475.701
474.429
474.248
473.345
481.574
487.202
487.485
490.191
484.452
479.168
487.604
494.796
483.808
492.063
495.767
488.164
503.797
493.598
501.406
494.922
503.429
511.348
515.753
512.129
506.476
515.256
514.367
521.713
512.268
517.695
518.196
532.032
529.517
528.119
534.749
527.306
534.653
540.981
534.321
532.140
538.267
543.874
542.967
544.693
554.323
557.746
557.788
553.690
559.526
560.575
556.034
559.989
571.618
567.493
570.130
577.256
577.762
574.457
567.819
569.640
577.774
578.361
581.828
578.740
581.029
588.496
583.123
587.468
588.707
589.122
603.391
591.298
595.224
602.244
605.355
612.632
612.619
606.560
612.684
614.380
616.571
611.318
614.716
621.385
624.775
619.124
630.912
633.421
630.830
633.609
641.139
634.385
644.204
642.052
636.948
636.100
646.806
650.262
643.716
647.633
645.684
651.122
657.589
653.883
657.477
657.302
669.859
669.010
660.621
668.055
678.462
670.469
682.525
675.046
684.189
688.135
685.378
690.502
684.571
688.789
685.967
685.177
687.864
702.769
691.592
698.180
696.734
711.324
707.184
712.708
713.867
709.020
710.450
707.529
715.966
715.834
713.630
730.408
723.743
730.140
735.857
733.009
728.142
733.092
728.899
741.083
744.300
748.507
739.604
746.814
744.490
754.538
752.039
750.657
748.924
760.238
757.827
764.114
765.040
760.675
763.135
761.068
773.779
774.733
766.021
775.088
781.784
775.440
780.295
777.195
781.423
789.946
791.526
790.915
798.061
788.996
799.871
791.517
799.937
801.902
798.839
796.877
814.350
815.816
817.056
807.221
809.971
819.946
824.931
822.590
822.227
820.907
828.447
819.491
826.129
838.265
836.812
835.231
842.549
834.750
837.610
840.847
848.608
846.627
848.783
856.013
851.656
850.452
860.773
856.636
862.973
867.224
865.517
856.715
866.411
872.709
875.131
875.864
871.781
873.940
864.004
877.788
873.528
869.057
873.315
875.223
863.648
865.604
868.331
871.050
864.307
866.867
865.006
877.188
874.898
867.804
872.860
864.990
874.017
879.431
878.828
867.882
868.343
880.069
881.238
880.448
871.031
876.106
873.111
868.339
873.688
876.705
876.612
877.383
872.524
881.343
880.110
872.474
883.190
877.846
883.028
879.044
884.178
873.790
873.266
880.172
880.102
883.589
876.009
883.434
872.172
883.546
881.742
875.925
882.288
881.927
876.698
871.965
880.069
884.944
871.243
884.250
882.551
873.989
879.981
876.403
878.007
877.753
886.766
879.921
877.486
886.220
882.956
880.302
883.457
876.553
880.327
877.208
888.559
878.530
887.575
886.585
875.424
874.441
886.167
876.634
879.489
876.472
876.734
877.599
886.190
877.763
878.220
890.302
886.853
880.054
875.706
881.282
878.592
884.543
882.393
881.700
879.691
891.559
884.550
880.211
885.134
889.218
878.879
889.094
888.637
878.922
883.443
885.049
880.957
888.692
878.510
884.420
892.870
881.023
890.301
889.561
886.716
887.514
881.086
886.308
895.016
881.081
888.688
890.361
895.449
881.697
885.473
882.874
883.441
891.308
894.472
881.828
888.754
888.664
882.600
882.805
882.850
887.588
887.779
884.874
883.503
894.495
888.167
895.389
884.304
891.877
889.850
891.514
896.163
893.033
899.485
885.115
895.741
889.377
885.832
890.503
885.452
898.130
898.124
890.729
885.402
890.956
900.537
889.526
890.067
898.476
892.173
895.015
888.933
895.317
894.077
896.624
891.211
890.962
895.078
891.482
888.888
893.398
896.032
888.439
901.819
902.862
899.224
894.044
896.718
897.083
890.912
889.000
895.655
899.088
896.921
892.804
890.325
897.092
888.434
896.327
889.631
893.885
885.823
885.346
878.646
880.754
875.336
887.683
878.301
883.792
881.427
882.712
868.100
867.957
873.724
873.904
865.078
861.751
870.210
870.303
866.097
855.919
866.920
856.476
855.818
859.927
855.779
859.421
854.042
856.145
852.724
851.266
851.898
848.951
840.214
846.246
846.741
850.152
837.229
835.722
841.866
846.409
843.781
834.235
840.293
835.765
831.918
834.200
829.144
832.042
831.548
822.835
818.130
830.426
827.678
816.373
822.766
816.451
815.723
822.168
813.806
821.402
815.651
812.076
807.874
816.059
805.523
806.604
803.841
803.633
803.662
806.725
805.034
802.737
795.701
799.472
792.523
794.723
793.449
790.248
784.454
789.874
786.616
782.343
790.849
777.634
785.978
773.294
785.419
782.912
771.896
769.348
767.202
770.969
770.385
778.543
775.075
771.310
763.437
765.227
767.461
767.142
761.199
761.257
757.320
755.431
762.807
759.701
762.568
756.016
751.967
751.932
757.094
755.521
753.173
744.733
738.058
749.547
745.970
748.328
746.205
745.544
740.309
728.060
732.682
731.634
739.696
737.569
734.261
720.553
731.020
723.314
730.977
722.011
725.617
720.483
720.028
716.921
719.144
713.991
716.119
710.857
707.256
704.496
703.964
703.871
705.694
698.784
711.704
707.967
709.488
694.666
700.580
694.872
697.651
701.124
686.745
699.868
698.900
684.837
695.412
688.769
685.363
680.045
677.060
688.918
677.446
680.907
672.826
684.571
669.389
669.706
673.749
679.861
678.952
663.868
665.050
667.646
659.826
668.974
658.234
657.377
668.978
665.248
667.023
658.848
663.175
649.189
651.445
648.696
649.097
655.836
650.961
641.445
652.094
653.957
653.420
655.429
659.843
651.403
652.971
653.812
659.632
659.613
658.392
659.476
673.950
666.099
666.405
678.604
675.147
681.016
680.144
684.510
683.428
676.091
684.139
678.182
679.147
684.095
680.968
690.559
698.963
697.075
701.629
694.415
701.505
705.018
698.292
706.788
712.021
710.879
708.376
710.759
707.359
709.265
706.760
721.658
710.694
726.468
718.866
721.027
725.507
732.858
734.675
730.119
725.669
725.397
729.930
741.806
731.822
731.878
735.059
736.354
743.867
748.846
738.557
753.061
748.145
743.861
746.951
752.353
749.400
763.279
755.710
768.225
759.937
764.787
769.641
772.868
764.200
776.257
769.505
767.174
781.914
778.671
779.049
776.017
780.925
785.366
787.802
794.057
786.221
786.616
793.931
799.019
789.794
800.342
803.593
800.870
799.396
799.284
800.373
806.346
801.278
811.387
810.416
808.851
817.194
816.418
812.807
815.885
816.627
817.072
819.998
826.194
828.417
833.261
827.849
834.143
838.646
827.298
842.114
830.657
837.264
848.844
844.957
851.265
841.518
847.642
842.960
853.421
857.086
849.664
854.200
849.200
851.291
861.071
864.354
856.129
872.370
867.973
873.601
870.507
869.848
867.320
878.175
878.846
884.085
887.037
878.100
882.863
889.675
888.013
887.741
889.753
897.364
888.593
891.718
889.325
900.297
899.725
903.409
909.203
895.894
910.296
905.492
907.780
907.093
910.339
906.953
921.325
918.243
911.210
917.241
914.524
916.421
925.849
927.996
935.086
923.753
924.046
939.843
941.003
937.451
934.582
931.476
935.417
939.136
949.494
937.368
951.970
949.660
944.168
950.494
950.624
953.886
958.224
964.611
961.897
965.413
960.146
971.845
968.096
975.270
963.514
969.122
962.217
967.699
963.023
961.565
953.129
960.566
966.645
965.787
954.778
958.090
953.244
954.963
945.697
954.143
953.963
948.744
949.780
940.174
945.571
938.603
938.620
939.475
936.050
946.018
944.275
935.985
939.430
935.941
930.480
937.719
937.243
932.151
941.003
924.739
930.119
937.593
934.993
925.614
920.588
919.288
919.299
921.485
918.464
925.256
928.361
926.083
918.812
910.640
921.324
918.458
911.225
918.893
918.946
906.341
903.486
910.477
905.272
903.822
906.852
909.321
905.346
897.709
899.163
902.116
907.038
900.560
901.089
906.639
894.688
897.261
891.686
895.332
898.635
892.624
891.139
892.535
894.093
891.103
891.805
893.407
891.916
879.031
885.890
878.367
876.246
884.031
879.190
879.186
880.649
876.483
870.821
881.419
867.660
880.510
873.987
867.698
866.315
869.460
875.495
859.312
868.353
857.218
857.384
864.032
860.633
867.276
862.079
861.046
851.221
852.442
851.703
857.172
858.419
851.573
857.310
847.497
851.090
852.254
845.518
854.650
844.579
845.313
839.470
836.526
835.793
841.091
834.681
845.980
834.410
832.785
834.245
834.727
839.939
832.704
833.017
824.042
823.607
823.108
828.051
819.932
821.250
821.075
828.626
822.259
829.074
828.931
821.132
819.461
823.148
810.840
823.366
820.849
814.107
821.632
806.413
817.697
818.641
808.589
803.575
804.733
801.218
809.845
799.478
806.113
804.444
808.656
797.257
792.330
793.057
792.845
800.758
800.909
788.628
793.593
785.250
799.008
783.888
793.771
782.498
790.469
790.730
786.545
790.478
782.207
790.076
776.527
777.960
783.263
783.183
782.332
781.002
784.006
779.755
782.013
778.730
775.652
778.606
773.110
773.888
766.225
764.184
768.506
767.960
766.658
770.346
761.741
762.808
769.669
767.247
771.275
762.578
766.594
766.998
755.075
768.844
758.386
766.985
756.220
752.862
761.750
759.754
757.328
761.930
752.999
757.014
754.228
750.415
754.769
758.457
756.636
752.013
754.653
751.704
746.133
759.085
745.150
750.942
758.733
744.381
754.168
751.897
747.720
746.669
754.530
750.774
745.273
754.275
743.233
749.964
742.175
746.293
739.918
744.374
743.198
747.684
745.882
747.107
735.997
740.037
747.238
733.827
735.010
732.145
733.096
745.971
737.246
732.851
730.219
744.856
737.062
732.826
739.649
735.469
726.663
733.216
741.325
738.206
736.228
727.892
736.811
725.408
737.634
734.387
727.943
734.559
731.727
722.752
722.422
720.653
721.918
731.101
720.605
732.127
725.609
718.309
725.646
726.471
726.106
720.858
721.779
724.898
722.956
715.608
715.030
727.253
726.800
719.834
716.856
714.243
718.047
713.597
714.130
711.331
717.540
718.503
719.814
709.510
710.140
715.164
717.421
718.183
708.436
708.470
704.913
718.122
708.772
703.482
705.529
710.082
713.455
706.175
702.802
710.146
713.398
706.149
698.959
697.677
704.203
711.048
703.828
708.192
707.929
697.184
696.375
700.415
698.672
692.835
698.622
691.742
706.237
696.456
701.155
695.199
696.337
704.194
690.572
700.880
694.483
688.455
699.760
690.897
689.695
690.633
693.979
699.876
685.826
687.931
682.599
686.449
688.756
684.213
690.684
687.920
688.101
681.985
686.038
687.549
693.195
686.515
685.214
680.277
683.092
678.232
675.049
678.305
675.039
688.952
678.906
687.165
684.845
683.181
671.573
678.427
673.096
673.413
674.439
673.594
681.737
680.651
681.905
670.518
663.695
671.691
662.356
664.064
672.172
669.303
671.472
656.703
655.296
654.277
666.579
659.105
656.632
648.377
654.838
649.140
649.863
648.654
654.247
645.042
650.099
649.919
639.126
637.067
648.626
641.437
633.116
645.200
636.321
636.223
628.554
635.243
634.871
633.704
633.715
634.671
629.120
624.280
626.277
616.174
625.161
623.695
619.237
620.237
621.173
623.763
615.849
613.758
615.764
608.507
607.002
610.126
608.848
612.558
608.054
611.051
603.118
595.041
603.338
597.235
595.234
603.284
600.892
592.390
597.944
595.202
585.900
594.097
585.791
591.180
593.995
583.313
581.139
574.997
579.257
585.635
574.925
582.927
579.040
579.413
573.234
579.016
567.922
569.145
562.072
564.184
560.206
572.285
569.382
557.548
558.011
560.732
554.651
554.218
558.382
548.267
557.074
556.091
547.996
551.378
554.098
545.120
542.816
544.271
541.073
541.322
541.653
535.158
541.206
545.418
538.330
539.332
541.789
529.749
529.230
530.579
533.311
534.971
520.489
521.642
524.788
518.722
518.568
513.445
519.930
513.677
522.788
519.057
512.707
506.564
517.826
513.886
505.422
510.172
514.589
512.183
497.693
505.652
507.414
506.253
507.778
492.932
499.445
494.547
492.775
494.697
495.217
484.980
490.845
491.709
485.646
491.223
483.978
478.430
477.910
478.916
475.189
483.592
478.781
479.929
471.894
467.647
466.256
468.374
463.342
477.059
471.291
472.778
468.118
457.959
468.370
456.022
456.856
456.018
464.890
453.390
456.872
452.808
451.673
449.847
454.365
456.554
445.777
440.526
442.781
439.138
450.310
449.316
440.113
448.496
442.841
438.281
443.457
439.212
428.509
430.750
438.292
431.131
430.556
435.149
444.918
444.864
434.282
435.109
446.700
447.666
450.611
447.797
446.631
448.759
450.409
449.148
449.699
453.282
457.494
450.599
455.146
458.225
464.754
460.554
473.050
468.388
463.625
476.442
476.039
473.639
478.442
468.975
477.970
471.987
479.356
488.095
477.666
480.038
484.043
487.377
479.890
488.251
491.666
485.317
495.654
488.135
502.471
492.192
491.436
502.593
500.097
504.402
503.035
504.551
511.504
503.675
516.729
503.401
508.488
521.197
521.735
515.478
525.021
517.793
513.451
517.919
528.687
522.966
518.610
528.252
523.152
525.677
526.475
533.772
534.165
540.525
531.230
546.227
546.255
533.748
538.525
552.467
552.786
549.769
548.412
555.090
553.856
559.256
559.073
550.274
564.954
560.275
557.366
556.803
558.608
571.776
564.072
567.584
573.174
575.575
566.881
565.812
572.580
568.313
578.844
572.574
573.657
577.711
577.251
586.951
583.695
593.191
593.618
582.101
590.971
586.908
588.324
600.411
591.941
600.144
595.049
601.671
601.001
609.632
609.179
599.895
602.635
610.351
609.884
615.316
606.379
616.809
620.986
617.627
625.838
625.792
627.364
626.420
626.550
619.927
623.527
620.173
631.071
636.893
635.730
635.343
636.413
638.719
637.666
646.416
635.065
638.452
647.082
640.092
651.515
647.459
650.238
647.237
655.963
656.052
654.217
654.600
659.067
653.612
659.597
660.163
669.836
661.273
663.139
666.673
662.403
667.957
668.430
666.689
670.083
672.354
668.396
679.405
677.850
675.787
682.962
687.714
682.545
692.793
694.072
683.687
687.028
697.321
688.316
690.430
699.265
704.652
696.905
693.786
694.821
697.013
698.374
711.301
707.282
713.988
704.680
701.884
710.414
694.199
692.336
691.147
692.843
684.468
679.831
684.778
675.481
681.122
673.343
674.021
665.782
669.012
670.516
662.017
652.153
650.918
655.732
655.723
652.098
643.591
645.424
638.471
644.542
637.300
635.062
627.571
631.493
630.643
626.852
617.437
621.792
605.749
613.419
612.719
601.523
595.204
593.985
599.942
592.414
587.258
584.248
586.623
586.327
587.541
576.555
573.221
568.321
569.333
573.967
558.123
563.330
564.289
559.051
551.429
545.428
551.724
542.834
537.288
541.163
533.118
539.615
527.772
531.369
523.461
527.411
515.936
514.905
521.956
518.238
502.168
504.533
504.172
498.734
489.879
491.458
490.110
496.138
486.473
483.731
477.780
473.372
481.005
465.096
468.791
471.566
461.709
460.095
457.418
448.612
446.869
456.947
445.200
452.354
437.690
431.840
436.859
434.912
434.405
426.379
422.219
426.322
418.119
413.412
420.117
410.435
403.263
409.505
411.308
404.989
396.085
399.495
392.266
391.724
380.071
388.213
389.627
383.767
378.275
368.193
373.140
368.054
370.922
362.812
351.819
364.146
360.649
350.034
350.902
348.609
341.375
335.133
345.032
334.118
329.225
327.166
327.292
321.836
316.790
313.480
314.376
318.308
302.734
312.756
301.436
306.969
303.315
292.078
287.617
288.487
285.694
291.073
288.323
277.144
275.450
276.577
273.888
264.837
265.784
263.489
265.181
254.571
256.736
255.592
243.154
251.802
248.290
248.910
231.437
237.479
232.160
234.759
228.061
225.194
222.745
222.441
209.759
215.661
209.972
209.209
198.526
196.886
201.580
204.348
197.967
183.783
186.209
183.884
177.800
179.412
178.320
174.294
177.221
176.700
160.741
170.658
164.731
