191.694
195.014
204.677
196.378
196.968
208.065
213.203
204.414
206.129
208.974
214.793
223.924
213.769
222.171
222.071
223.394
229.873
229.478
234.479
236.410
234.372
240.944
243.075
243.804
243.805
244.404
254.562
250.679
243.740
245.837
252.875
264.418
259.568
253.615
269.075
262.067
271.200
271.174
266.074
275.012
276.735
277.156
284.541
275.683
275.059
278.557
289.225
295.281
292.649
297.463
289.515
293.595
302.316
292.798
294.321
309.457
311.134
307.340
309.429
317.362
310.692
313.511
313.585
326.852
322.361
319.629
317.328
332.923
324.335
327.737
328.314
331.538
329.330
341.570
339.762
346.650
352.391
344.504
355.844
349.391
355.643
358.231
363.234
358.144
364.757
366.216
369.805
373.135
360.981
371.749
374.605
368.823
376.181
372.375
375.154
382.593
376.371
379.141
392.028
382.212
391.662
400.040
399.095
404.603
399.186
400.249
397.972
411.017
414.111
410.112
409.660
413.311
417.325
423.472
417.684
418.200
427.832
424.484
433.326
429.385
425.495
431.657
429.206
429.699
445.440
439.379
448.483
445.214
452.319
450.991
456.624
451.163
451.857
462.505
458.010
459.804
458.025
467.287
472.110
475.922
465.721
467.424
468.807
479.229
471.686
482.378
482.546
481.790
491.552
496.144
486.618
499.651
489.340
496.606
495.404
495.279
501.165
498.642
508.278
500.447
510.471
519.291
520.609
515.596
517.143
521.584
526.317
528.508
525.366
520.538
524.685
539.319
541.137
538.655
529.714
546.087
543.363
548.747
540.057
555.103
555.009
557.337
545.845
559.154
560.281
553.450
561.402
569.781
560.065
559.435
565.278
578.444
579.447
581.217
573.685
572.995
573.675
579.849
588.885
580.169
585.989
586.168
590.008
588.461
586.451
586.096
588.582
597.090
601.302
590.537
592.042
595.147
601.215
609.028
607.016
604.363
612.068
604.494
602.628
605.924
604.749
604.026
606.991
610.450
608.701
610.924
618.858
621.382
622.661
611.823
621.203
615.167
623.885
613.323
626.497
627.633
619.563
632.883
620.601
627.129
626.923
623.889
622.534
635.369
636.011
640.006
628.004
634.623
638.947
639.562
639.803
640.215
643.450
635.586
648.887
647.258
647.753
649.579
641.787
639.493
654.581
647.942
656.843
647.211
646.686
646.766
646.955
654.001
648.230
656.521
652.614
654.989
655.800
666.010
664.787
656.612
669.009
667.131
659.824
674.325
674.708
668.314
670.045
673.797
667.761
668.880
676.134
669.842
683.110
681.599
684.046
681.402
677.211
674.692
679.934
675.580
681.560
676.960
681.787
683.743
681.339
686.188
692.970
695.000
694.032
692.394
694.405
698.601
690.438
693.639
703.995
692.834
704.522
700.739
700.847
698.675
709.914
708.165
708.403
713.645
709.619
714.458
711.271
716.756
711.100
709.801
718.733
714.326
720.437
708.044
719.908
715.172
724.299
718.216
726.475
723.022
714.767
727.306
728.016
721.818
729.879
722.627
730.983
736.219
723.233
737.704
730.778
728.604
729.894
729.233
736.727
735.904
732.247
744.766
741.667
743.554
739.519
736.451
736.904
747.249
746.698
739.822
749.829
747.190
755.943
757.684
755.235
756.171
752.403
759.553
753.195
761.454
750.423
755.371
759.105
768.796
763.341
762.573
760.907
763.062
761.119
767.770
763.993
772.185
769.604
770.434
771.707
768.690
777.523
771.966
772.239
772.486
778.877
776.128
787.742
779.248
778.427
775.876
781.987
787.299
789.473
778.560
783.954
778.602
792.776
789.819
786.233
786.548
780.138
783.950
784.604
779.838
780.167
784.729
778.107
787.459
790.306
780.019
788.611
789.824
775.250
776.314
783.028
788.799
781.970
787.114
783.139
786.488
774.775
782.586
785.296
773.437
784.879
781.628
776.928
780.498
775.131
775.556
774.286
777.621
780.888
783.237
775.616
782.766
780.121
777.486
783.250
777.268
771.311
779.627
776.408
777.615
778.382
773.479
769.985
773.533
777.244
784.098
773.135
768.183
774.815
780.018
780.505
776.467
779.836
773.547
773.740
781.870
774.302
768.800
767.470
781.968
771.761
774.477
770.056
776.487
768.993
767.614
772.537
772.887
773.524
776.825
772.530
773.406
770.498
765.253
779.407
773.133
763.751
776.034
775.366
774.912
767.565
769.688
770.128
762.141
770.784
763.554
771.579
767.365
766.792
773.895
767.625
764.802
762.163
768.233
761.017
767.619
770.255
763.818
775.506
762.436
774.517
768.842
766.102
759.080
767.660
774.410
760.943
773.139
771.616
759.597
773.095
765.582
762.413
769.309
769.614
760.475
761.482
758.458
764.651
767.295
756.785
771.795
770.620
762.930
763.215
762.156
756.228
757.147
755.946
759.209
757.366
765.376
758.780
759.722
759.325
763.353
765.442
753.499
766.894
759.330
763.574
755.906
755.562
766.287
759.821
765.054
759.347
759.870
761.078
766.863
755.478
758.815
751.608
758.189
750.672
760.741
761.775
755.860
760.984
757.777
760.191
758.562
753.498
762.121
754.163
757.205
751.720
751.643
748.792
756.612
756.166
751.209
753.369
757.604
754.768
757.286
747.115
753.393
749.111
747.056
761.576
747.535
748.375
750.322
750.797
750.122
758.276
750.648
745.601
755.692
754.430
753.045
752.493
758.581
757.341
767.026
766.362
768.493
771.729
766.626
781.152
783.316
776.477
778.423
778.865
784.625
790.632
779.595
789.863
788.286
792.262
790.408
799.608
803.991
802.459
806.641
796.711
802.444
812.066
816.276
816.200
808.775
810.472
813.441
816.819
812.057
828.324
816.826
818.368
829.725
821.802
832.499
836.995
830.802
840.187
836.333
843.980
838.022
836.086
844.147
845.603
846.133
848.441
855.307
846.922
859.450
859.715
862.635
858.949
857.857
857.632
873.126
861.630
865.717
874.885
876.437
879.903
883.915
873.361
879.006
880.475
878.452
890.909
895.126
881.957
898.569
891.582
892.895
893.313
897.914
897.374
899.201
898.935
901.847
910.068
903.308
912.023
908.628
917.280
908.962
922.898
921.525
919.476
926.121
927.013
931.255
927.482
924.505
935.292
926.763
936.559
937.584
940.297
947.375
943.495
942.145
951.818
953.843
957.652
959.808
960.129
956.013
965.067
956.845
958.473
968.165
970.548
973.754
973.262
975.757
970.492
970.684
980.992
973.299
978.824
983.087
979.869
977.533
983.237
995.454
988.859
999.334
994.455
992.572
990.244
993.144
1002.591
1000.819
1004.211
1004.871
1011.739
1009.844
1005.849
1006.966
1015.906
1012.043
1023.169
1024.651
1028.210
1031.968
1032.876
1030.791
1036.774
1031.755
1030.082
1029.750
1043.164
1039.814
1036.825
1046.339
1036.846
1040.930
1041.099
1047.052
1045.883
1056.426
1057.142
1062.417
1054.607
1052.676
1058.449
1060.672
1060.025
1060.895
1077.164
1075.198
1073.786
1071.393
1080.916
1078.340
1077.008
1087.727
1078.887
1080.922
1092.142
1086.249
1088.146
1088.850
1093.103
1101.656
1102.563
1098.943
1096.454
1104.864
1110.775
1110.330
1107.179
1104.723
1111.781
1106.173
1106.503
1112.578
1099.422
1095.240
1109.017
1102.571
1092.156
1100.881
1089.787
1088.293
1083.761
1085.264
1085.099
1078.984
1084.652
1075.503
1083.619
1082.849
1074.152
1075.523
1079.125
1067.173
1065.347
1073.891
1066.418
1061.580
1053.673
1060.455
1059.965
1059.823
1048.550
1048.289
1048.606
1054.214
1040.429
1046.786
1034.315
1042.164
1045.123
1033.970
1028.832
1038.069
1024.644
1035.396
1024.782
1019.373
1027.321
1028.947
1015.255
1013.934
1008.444
1013.657
1008.062
1003.999
1004.566
999.337
1012.402
1006.832
996.687
995.074
992.221
990.617
991.077
997.037
983.007
982.507
982.843
988.938
982.937
987.340
975.532
975.975
974.072
970.720
971.057
972.189
975.071
964.106
961.045
964.067
965.262
962.003
963.986
949.188
946.937
954.765
948.500
939.235
950.562
940.985
942.708
946.445
943.812
933.634
926.937
933.603
925.082
935.643
932.924
925.033
927.074
916.682
926.833
915.138
920.770
912.765
908.920
911.149
907.814
901.531
897.478
909.785
902.315
898.911
897.957
901.697
885.497
883.572
886.688
891.917
886.411
891.884
880.136
873.145
880.677
878.788
881.333
871.332
863.027
862.348
866.788
867.920
861.118
859.294
853.226
865.150
856.503
849.401
851.330
843.812
849.752
850.852
843.717
846.255
836.253
842.011
833.336
829.852
831.752
833.233
835.304
825.119
818.600
817.028
830.274
822.451
815.485
811.504
814.977
809.765
805.808
814.936
813.447
803.387
810.167
806.568
802.294
792.801
791.204
791.908
799.696
798.512
784.490
789.104
779.618
778.726
784.335
777.033
776.817
782.022
779.943
775.435
774.209
773.203
761.335
769.032
762.575
755.167
763.875
760.277
758.949
751.272
749.374
745.994
751.506
743.180
750.881
739.202
745.619
741.213
736.877
749.377
748.468
751.554
747.679
748.192
747.355
751.394
753.035
757.504
750.415
745.477
755.342
755.786
760.942
758.794
758.817
756.763
753.754
763.318
765.652
757.495
765.711
758.237
759.555
772.693
763.819
772.947
775.408
762.797
763.513
764.656
766.525
766.790
782.388
780.354
782.067
777.305
775.026
782.322
778.606
773.080
774.987
783.632
785.298
791.043
778.154
788.188
783.049
789.105
794.453
794.824
787.857
788.936
796.796
798.423
801.602
799.323
796.589
801.359
792.531
805.333
792.942
795.762
806.734
806.876
804.477
801.802
811.045
808.783
807.349
804.402
810.915
810.912
803.798
806.709
808.590
812.387
807.491
815.777
815.066
815.790
815.894
827.164
825.910
828.091
817.262
815.884
829.595
818.625
830.787
826.596
835.104
826.792
835.373
836.593
835.730
837.426
826.941
831.786
831.664
836.346
832.584
842.774
845.855
841.411
841.583
838.579
850.787
849.380
842.157
844.528
845.658
844.398
854.204
857.159
847.219
856.853
854.432
850.890
858.183
858.797
854.985
864.173
865.669
866.002
866.159
862.841
866.443
855.209
861.489
865.141
864.629
868.881
866.036
872.487
872.135
872.664
872.138
876.910
869.626
877.572
879.684
883.093
871.777
880.448
871.386
879.717
880.852
879.095
879.619
882.949
882.843
881.830
890.917
890.308
893.644
884.407
890.893
893.096
892.758
896.893
895.761
900.855
898.079
896.959
900.970
894.168
904.247
893.895
905.320
896.382
905.899
907.435
902.549
906.093
905.486
904.381
900.435
912.092
905.383
909.483
904.416
914.367
909.694
914.983
923.364
913.043
916.207
913.793
923.806
926.330
920.185
927.007
922.870
925.424
924.547
929.472
927.963
932.222
919.429
930.882
930.681
925.491
928.442
927.614
925.754
927.740
921.325
918.304
925.767
919.550
927.984
923.195
930.015
932.896
932.044
927.706
919.528
924.040
920.360
923.850
933.339
930.164
918.489
929.440
923.608
926.835
932.513
920.954
929.510
930.507
921.461
927.728
929.373
926.210
928.809
924.935
931.259
917.913
922.703
924.605
917.564
924.648
921.075
924.931
925.770
930.367
921.403
919.813
924.839
921.371
922.969
922.740
922.582
929.857
929.204
925.444
926.966
921.133
927.232
926.497
922.948
918.317
924.706
920.081
931.964
919.093
922.537
918.409
919.306
920.478
925.313
921.651
918.523
929.930
929.935
918.913
922.740
930.523
918.289
926.024
915.787
924.345
915.937
918.801
916.679
927.292
919.652
915.189
919.383
917.536
930.851
924.966
920.298
929.323
915.560
918.836
926.327
919.721
923.856
927.532
930.198
915.038
923.446
918.009
919.776
924.517
920.297
927.606
915.430
926.879
916.181
923.999
926.070
927.599
928.150
918.931
925.041
920.697
915.972
918.417
929.193
926.659
913.838
915.510
916.478
922.083
923.856
928.310
925.677
928.607
927.856
920.062
918.567
918.896
914.188
925.822
924.234
927.974
927.930
923.407
922.205
922.839
914.739
926.758
915.350
913.040
919.275
924.976
915.410
923.600
925.318
921.744
923.807
927.651
920.767
917.899
926.765
920.125
927.147
926.956
926.185
924.221
921.241
913.895
927.238
919.027
918.977
913.773
924.063
918.229
915.458
915.324
914.766
915.323
926.237
924.563
922.705
914.762
926.524
925.539
916.326
914.872
914.544
913.328
913.474
915.646
912.113
912.607
915.019
924.702
916.700
919.016
925.708
920.081
925.764
923.750
925.042
920.956
921.082
918.087
909.549
909.899
915.151
907.344
905.330
910.183
910.019
896.941
897.935
898.854
895.027
904.451
891.453
892.631
899.950
896.376
890.884
890.379
881.836
888.629
885.900
877.782
881.015
872.351
874.559
880.067
882.023
880.487
865.492
868.979
871.660
867.575
866.418
864.629
861.993
858.063
854.545
859.223
853.947
852.432
852.775
851.134
853.988
849.287
847.787
851.038
842.026
848.343
851.930
836.631
846.903
844.610
840.059
830.792
840.880
839.514
835.889
837.201
825.329
828.431
825.909
820.467
820.023
817.416
822.308
820.672
816.880
823.688
817.161
806.846
817.633
817.936
815.690
804.295
804.122
799.856
807.417
810.177
800.500
791.632
796.334
793.614
799.708
796.983
788.076
786.886
791.060
782.070
786.269
787.665
779.953
779.035
778.681
772.713
774.109
775.743
773.335
775.908
774.388
763.435
763.112
764.046
766.744
769.842
766.136
760.515
753.596
767.140
762.427
763.250
748.463
755.340
752.212
747.228
743.275
744.383
739.744
744.272
740.767
737.610
745.954
734.593
742.925
739.484
736.603
732.575
727.945
732.760
727.205
729.925
718.883
719.835
729.579
726.667
719.930
713.761
715.498
708.511
708.265
712.458
717.635
713.108
709.117
710.455
713.483
711.283
711.241
706.657
702.637
692.711
696.986
692.800
694.069
686.247
697.945
685.426
696.361
679.929
692.318
685.204
688.668
684.223
686.309
682.943
671.120
678.896
673.943
674.347
666.985
663.550
663.962
667.961
663.469
672.486
661.002
659.001
667.067
653.582
662.638
654.213
649.328
651.263
644.620
643.455
656.489
652.321
644.864
638.206
637.037
634.220
641.636
638.206
630.007
628.456
628.602
633.365
636.141
630.714
633.063
625.646
637.580
635.052
632.967
632.122
642.812
631.661
631.256
633.255
637.153
637.290
635.681
648.007
646.694
647.162
639.528
639.039
640.182
649.915
652.488
640.975
651.941
653.219
645.003
651.176
643.219
653.046
653.324
646.127
659.170
659.494
648.502
648.767
657.171
657.397
659.835
664.826
665.646
666.828
658.194
662.942
665.529
661.789
669.611
659.400
671.146
663.994
661.463
663.244
665.957
670.188
669.795
672.201
674.236
676.102
679.462
679.093
675.101
679.213
673.834
678.902
684.223
684.670
678.054
672.215
683.907
687.203
685.282
676.676
678.563
687.495
691.043
688.842
680.619
684.167
683.828
684.504
695.036
692.056
686.237
689.714
686.704
693.765
697.315
699.271
685.886
700.548
692.935
688.228
703.979
702.717
700.599
695.156
697.859
707.683
702.207
696.844
694.586
697.204
705.258
696.439
705.821
703.613
710.457
706.205
710.966
713.082
715.887
709.605
712.396
703.194
715.693
707.906
709.342
711.146
706.702
719.368
720.700
716.941
713.588
725.659
725.357
724.513
713.675
728.836
718.843
720.253
721.161
718.714
718.388
718.919
722.643
727.586
722.746
732.376
730.443
730.753
734.573
736.402
731.619
737.553
729.007
741.392
738.428
742.711
739.558
733.295
736.506
736.904
739.494
741.510
734.944
747.827
735.070
744.691
743.340
751.284
745.175
750.009
737.666
746.856
739.933
749.971
749.828
755.737
745.327
742.764
754.416
756.969
750.724
758.971
758.141
746.988
760.926
753.107
760.063
749.989
765.280
755.863
765.244
753.266
760.172
756.074
762.981
758.504
759.751
765.891
769.371
769.289
770.481
763.927
766.861
763.192
771.512
769.904
763.509
770.017
764.916
775.513
777.279
768.195
763.775
768.361
767.260
756.454
763.880
764.232
760.609
749.696
755.925
752.800
749.070
757.463
755.667
748.980
740.012
741.810
740.173
746.705
741.643
734.787
746.266
743.212
734.383
736.511
733.035
736.300
726.942
721.609
722.256
729.854
720.835
725.206
717.154
715.432
713.044
725.002
715.959
711.312
707.454
706.297
710.128
708.473
709.232
709.892
702.431
710.374
701.784
697.693
695.838
701.284
697.665
697.979
687.679
696.287
684.079
691.416
688.688
693.126
679.713
683.832
684.685
685.962
680.052
684.534
682.327
682.775
680.116
667.864
674.507
673.115
663.223
663.081
662.937
656.652
655.961
654.884
660.371
652.913
649.531
652.329
655.611
648.218
646.768
655.725
640.912
651.386
637.711
639.922
637.861
643.827
638.116
634.176
636.075
637.914
633.527
629.114
636.558
625.393
623.431
628.858
629.880
623.400
619.519
622.833
616.859
612.168
623.691
614.808
620.754
608.472
614.742
604.517
612.206
599.995
613.868
597.816
610.714
597.612
597.319
603.938
605.679
591.256
590.045
585.832
594.428
590.525
581.487
593.737
589.943
589.828
590.507
577.169
575.278
579.342
578.367
579.797
568.841
570.759
570.374
577.184
571.157
569.435
571.817
564.713
558.013
564.816
553.513
560.356
559.867
559.837
554.959
552.398
544.847
550.808
549.448
550.043
545.269
547.273
551.236
544.329
545.203
533.983
538.505
535.027
543.706
538.324
531.716
525.003
523.217
536.644
527.144
518.563
521.418
521.016
527.419
520.873
512.126
509.935
512.428
516.958
518.657
509.928
517.788
511.224
499.690
508.885
498.030
510.013
508.871
503.143
502.959
505.311
490.261
499.293
500.221
492.595
