568.922
577.303
574.430
575.634
578.320
575.387
573.139
583.186
572.287
577.914
582.314
578.834
584.363
576.268
591.572
580.569
591.620
590.691
594.342
593.532
582.430
588.937
592.292
596.472
600.203
596.474
595.013
592.749
600.998
604.051
597.368
597.391
596.889
603.838
593.615
607.293
609.052
605.818
605.008
611.026
603.198
605.953
611.880
613.936
610.821
609.538
605.219
620.209
607.667
610.521
614.048
615.336
620.161
619.410
625.153
621.246
616.207
614.383
618.385
620.426
628.182
619.692
629.271
625.342
627.076
635.276
620.754
631.835
628.339
634.907
630.518
639.891
636.938
639.300
639.323
632.082
640.789
634.936
638.863
633.278
634.473
646.028
649.023
639.168
642.797
642.427
641.143
653.120
652.316
653.744
655.791
644.220
655.923
645.243
651.234
651.331
654.207
660.438
659.089
651.393
661.396
653.200
658.837
656.735
656.883
657.635
659.032
657.118
662.381
670.703
658.621
663.032
663.222
661.183
666.926
661.820
673.821
666.726
670.505
674.007
676.092
668.962
670.227
683.409
684.417
676.654
676.323
685.236
686.612
679.578
675.148
687.988
684.894
684.498
681.506
687.362
692.677
681.510
690.878
685.538
687.683
698.716
692.999
694.793
691.759
699.232
696.510
689.609
704.329
697.543
703.100
699.688
698.972
699.730
703.380
697.113
706.009
708.031
703.931
703.444
704.686
702.147
704.173
716.652
714.118
704.908
719.524
711.789
708.551
719.837
718.092
715.356
715.962
721.988
717.530
722.163
728.619
726.809
728.265
725.482
731.342
723.791
731.579
730.612
734.311
722.383
721.308
727.544
726.740
724.255
733.882
740.564
736.779
729.602
739.704
740.318
738.177
745.494
738.002
743.610
735.823
739.424
738.994
738.775
754.270
755.687
744.573
759.229
753.600
751.091
758.720
760.026
767.333
760.982
756.193
771.934
771.669
766.737
766.957
763.157
772.156
776.018
782.466
778.967
782.436
772.635
785.901
784.256
778.155
792.042
795.319
789.808
789.177
796.348
789.384
804.221
800.366
806.917
796.889
801.378
806.500
812.074
810.401
813.878
813.662
818.844
815.698
812.594
823.344
825.744
813.096
819.588
824.679
832.076
830.916
820.917
826.050
833.420
827.802
831.385
838.676
841.232
844.842
845.500
838.961
844.976
851.120
850.313
851.685
850.153
859.395
849.615
854.903
860.428
858.377
858.080
858.329
860.856
861.783
871.009
865.270
871.567
873.661
868.104
872.146
881.650
877.355
884.954
883.155
886.564
884.221
889.351
890.601
883.328
896.024
891.934
890.766
893.347
902.300
901.325
901.234
908.140
898.620
904.996
907.885
905.475
914.329
914.985
905.209
906.370
914.171
914.681
912.399
927.742
914.537
924.389
930.324
927.423
925.484
935.225
927.727
936.276
934.068
940.398
940.878
945.007
947.202
937.218
941.361
947.186
952.203
949.969
945.425
943.933
948.658
956.325
962.853
962.634
962.135
961.473
958.757
967.984
971.975
963.029
965.954
967.690
979.994
975.059
970.430
968.980
972.366
985.051
985.396
975.354
981.693
979.793
982.693
997.576
985.337
989.462
989.491
992.147
1001.822
1004.324
1003.546
999.995
1001.406
1005.265
1003.350
1003.070
1007.868
1007.937
1009.361
1017.105
1019.946
1016.254
1022.897
1015.591
1024.464
1027.780
1026.604
1024.553
1035.229
1027.805
1026.788
1037.157
1041.217
1040.917
1037.976
1037.937
1048.227
1045.297
1049.085
1047.699
1046.156
1048.054
1044.712
1058.417
1058.883
1057.273
1058.348
1053.217
1051.516
1063.659
1050.202
1053.527
1061.542
1058.950
1060.186
1061.627
1055.116
1058.881
1056.204
1063.874
1052.779
1063.060
1054.881
1055.307
1056.822
1058.782
1065.919
1053.137
1056.834
1064.826
1053.005
1065.286
1066.096
1066.809
1055.319
1066.228
1067.372
1054.122
1052.692
1055.115
1057.574
1061.073
1064.895
1053.453
1065.370
1055.474
1064.697
1062.028
1054.633
1054.195
1064.413
1059.172
1056.404
1062.361
1062.690
1067.872
1054.314
1063.345
1052.782
1063.133
1056.775
1064.481
1065.358
1066.635
1057.084
1068.226
1053.610
1065.873
1065.573
1063.025
1063.698
1064.456
1058.777
1054.848
1069.011
1065.105
1061.774
1057.213
1056.928
1068.142
1064.917
1056.518
1067.918
1066.425
1059.942
1054.460
1062.985
1069.936
1068.919
1057.246
1068.550
1060.415
1057.910
1058.264
1060.468
1069.843
1062.744
1064.106
1058.744
1069.710
1065.893
1055.607
1057.596
1057.530
1066.474
1069.090
1068.337
1061.717
1070.313
1061.268
1059.144
1058.910
1066.586
1064.644
1056.203
1057.167
1063.402
1056.922
1057.290
1068.906
1071.687
1066.683
1069.417
1066.889
1068.123
1062.528
1067.394
1068.343
1064.790
1069.387
1056.960
1059.926
1059.397
1065.838
1069.072
1071.328
1059.105
1059.951
1066.888
1072.965
1059.215
1073.225
1073.520
1067.364
1065.106
1065.996
1061.805
1068.179
1073.853
1071.800
1066.537
1072.115
1066.263
1058.370
1068.736
1070.041
1070.487
1061.091
1065.990
1059.777
1064.589
1067.298
1072.306
1066.569
1062.836
1071.327
1066.133
1064.057
1074.919
1072.258
1068.275
1075.143
1073.777
1074.968
1072.686
1066.300
1062.906
1063.784
1071.470
1071.826
1073.876
1075.537
1068.781
1070.175
1071.283
1069.973
1068.172
1076.271
1062.798
1067.977
1065.021
1061.890
1071.028
1073.956
1069.222
1064.015
1070.890
1067.000
1075.706
1064.437
1062.980
1067.991
1066.289
1069.821
1075.370
1077.147
1070.686
1069.828
1075.139
1059.771
1061.156
1067.764
1055.440
1056.041
1058.426
1061.611
1059.917
1062.788
1048.496
1053.861
1052.222
1051.735
1057.641
1057.791
1042.659
1053.053
1046.881
1046.791
1043.688
1045.314
1040.267
1037.287
1039.257
1045.539
1037.991
1038.185
1044.475
1041.991
1034.829
1037.309
1031.554
1038.689
1023.556
1036.347
1028.469
1020.377
1019.588
1020.781
1016.272
1022.347
1029.009
1023.000
1016.529
1012.477
1021.492
1019.401
1021.649
1008.760
1014.455
1013.478
1016.444
1005.420
1012.731
1005.985
1000.286
1012.882
1005.053
1006.014
1008.888
1006.855
1003.429
999.682
999.385
997.944
1001.330
1001.580
995.818
994.486
991.629
987.644
993.612
990.226
992.059
985.758
981.498
991.146
988.054
986.211
988.179
975.079
982.350
976.562
975.541
970.836
968.684
970.833
965.555
978.658
976.541
971.971
965.788
958.355
958.789
965.156
961.388
966.682
957.935
964.867
958.918
957.906
953.013
961.822
948.469
960.552
954.520
957.101
946.792
952.765
950.799
943.734
944.407
941.499
941.523
946.313
945.693
944.920
940.578
931.034
931.797
936.010
936.409
925.928
935.578
929.835
932.997
932.461
935.187
930.175
918.501
924.875
923.624
928.426
918.529
927.088
922.752
925.932
921.287
922.885
911.168
906.397
909.392
909.236
910.999
904.638
903.283
903.708
900.487
913.338
897.241
906.401
900.856
905.550
900.278
891.699
898.926
903.041
890.308
893.961
889.648
900.084
891.031
891.021
893.025
891.921
892.481
886.499
886.248
884.172
890.031
887.757
888.592
875.595
881.577
870.504
879.787
872.436
881.808
880.639
873.081
878.810
861.846
864.961
859.962
867.400
861.972
858.855
856.180
864.612
866.882
857.879
856.350
853.361
859.398
856.278
849.569
851.200
849.915
858.981
856.421
859.383
848.625
858.419
854.988
855.432
848.154
857.346
856.520
860.282
849.812
852.092
856.611
853.833
858.505
851.879
854.135
857.668
853.158
859.600
859.126
856.045
867.963
857.648
857.142
855.416
863.199
870.636
864.726
869.617
867.657
870.833
858.679
857.106
868.121
870.561
868.035
863.757
867.870
859.246
870.245
864.545
865.802
875.542
870.193
874.665
870.392
876.172
876.452
876.593
876.285
875.236
867.837
874.436
875.215
871.639
873.948
878.407
868.733
872.786
872.875
877.207
881.574
875.121
879.999
880.150
873.408
877.386
874.154
875.634
880.801
882.538
886.811
886.934
886.958
874.168
877.361
885.826
885.817
885.748
874.054
877.192
879.006
889.516
883.934
882.698
885.879
891.603
887.988
881.910
886.336
881.071
881.175
882.103
881.878
889.223
890.791
891.253
889.946
889.806
897.081
889.464
885.436
890.425
891.669
894.198
899.108
889.577
897.939
888.442
900.806
890.966
889.066
900.784
900.392
887.093
894.542
899.372
892.903
895.231
891.257
899.923
892.055
905.538
902.729
893.885
898.502
905.337
904.536
904.444
903.129
902.253
905.081
900.938
897.708
900.932
895.226
895.807
908.877
901.875
905.124
896.362
905.308
903.543
904.277
907.610
913.398
907.182
899.082
909.534
902.256
915.084
909.805
910.633
912.078
916.635
916.944
917.214
911.045
913.344
903.986
917.457
912.629
905.151
913.618
916.210
916.346
905.982
911.203
916.635
921.526
909.974
918.569
910.709
920.877
915.439
912.885
913.347
916.498
912.154
911.152
918.847
919.912
917.206
916.123
926.029
926.439
915.012
915.085
914.006
918.091
923.626
921.142
927.321
918.413
917.648
931.811
931.204
926.389
916.501
922.932
922.487
928.987
914.654
916.584
925.648
926.958
921.874
918.847
925.548
926.456
922.444
919.428
916.399
918.585
922.186
919.193
920.197
908.395
915.683
913.115
920.074
906.058
914.933
906.625
904.018
905.296
907.296
914.350
916.715
912.380
911.521
911.720
901.937
901.070
902.080
899.044
905.917
911.940
901.825
902.028
905.675
895.345
900.168
907.003
896.648
906.280
903.294
897.708
898.780
892.537
895.686
899.241
895.920
899.895
904.669
892.431
900.685
888.749
896.282
900.018
886.985
898.879
897.460
887.956
898.879
885.228
898.374
885.013
893.329
881.973
894.615
894.917
891.967
880.505
888.093
890.070
887.596
890.727
881.565
889.441
885.081
888.616
890.486
887.784
879.938
876.386
883.971
872.926
883.293
880.610
881.146
878.934
877.275
880.884
871.435
870.044
868.670
881.194
882.138
869.905
878.628
868.019
867.863
877.765
864.721
866.079
871.843
874.272
869.318
863.072
862.582
873.640
861.395
861.636
867.100
865.873
862.958
873.360
863.759
871.619
863.470
872.001
859.243
862.215
866.821
869.097
862.122
865.003
855.478
855.752
855.874
859.515
862.172
859.889
863.289
859.971
857.822
849.767
853.216
861.560
861.082
853.729
856.199
845.741
852.374
847.180
855.357
854.966
849.185
846.318
844.980
845.345
845.318
840.904
854.191
845.735
853.289
839.517
841.275
850.547
849.600
844.226
839.189
841.057
840.898
844.013
845.434
841.208
845.419
843.456
840.770
844.198
835.788
839.542
841.180
833.039
838.458
838.921
836.402
829.164
829.642
828.505
840.095
836.728
830.653
839.922
831.478
838.676
827.814
826.320
832.687
833.819
825.334
824.090
835.304
832.916
822.720
830.589
823.271
828.809
832.728
827.191
829.333
823.826
836.332
822.436
835.880
826.006
825.825
835.301
823.323
831.135
825.387
829.770
823.898
837.326
824.694
836.903
839.486
830.946
839.096
829.630
830.593
827.333
827.139
839.647
834.005
836.455
831.620
827.904
830.389
836.148
841.067
831.773
842.923
843.248
840.397
838.231
836.390
844.050
839.468
842.925
837.256
844.302
841.241
845.428
838.639
837.332
844.751
834.986
844.586
842.859
847.788
849.756
840.989
848.984
847.888
842.892
842.971
848.051
844.381
842.566
847.939
837.790
846.491
847.993
844.015
852.131
849.693
851.129
843.498
842.715
846.984
850.528
844.701
853.816
848.472
850.811
855.198
850.757
844.376
846.866
851.145
852.642
845.924
849.905
849.056
849.828
852.005
844.240
847.723
854.025
858.741
857.139
852.146
861.654
852.051
859.975
846.796
852.660
858.681
859.207
862.995
855.629
858.282
863.833
858.200
857.943
851.571
860.286
857.441
853.977
854.375
857.505
861.420
857.538
852.290
854.267
856.877
857.238
864.465
862.603
858.725
855.471
863.239
864.160
865.929
858.025
862.312
858.602
868.102
860.830
864.880
857.833
858.870
868.434
863.411
863.265
870.047
868.957
861.720
868.607
869.636
872.051
861.426
867.138
874.220
875.497
872.123
866.701
873.203
869.142
866.368
874.659
863.233
874.227
863.306
871.093
878.418
873.060
864.714
865.015
870.563
868.778
878.533
869.304
877.395
869.755
875.804
880.137
871.782
872.149
882.647
878.378
873.334
876.608
877.545
882.602
881.162
876.605
880.169
884.510
879.430
879.752
870.617
872.828
871.945
872.238
881.361
883.726
873.829
877.651
876.563
875.574
887.008
877.532
877.912
887.781
889.060
881.276
884.741
878.020
887.872
878.645
878.881
884.864
893.023
886.895
884.880
893.107
892.404
896.637
888.424
891.115
892.379
886.172
891.461
898.433
890.001
887.979
894.508
900.377
900.496
892.391
889.211
896.382
891.541
901.399
895.056
893.081
895.739
906.113
896.700
907.412
892.834
900.008
903.660
894.220
909.320
896.604
900.366
899.418
912.445
907.482
899.658
911.103
902.673
906.225
912.542
914.852
909.771
903.685
917.416
904.739
904.085
904.845
907.218
913.436
919.367
915.186
913.696
914.834
921.969
920.443
910.853
916.321
921.306
925.076
919.451
912.256
912.471
926.544
912.342
919.625
913.661
913.461
922.383
929.170
923.496
921.920
929.042
922.083
917.514
924.432
919.538
925.627
926.039
927.193
927.618
933.917
928.978
929.378
933.701
937.041
924.355
932.322
938.427
934.181
941.067
929.432
928.310
939.732
935.885
943.417
940.556
931.053
932.285
930.189
932.077
936.871
935.587
947.457
933.044
946.962
940.804
946.383
938.465
943.381
943.704
951.024
939.762
941.364
947.755
943.252
953.711
950.289
950.278
944.487
954.514
947.472
944.737
954.093
950.480
947.972
951.132
953.003
953.083
958.190
960.978
961.565
957.924
953.383
960.992
959.241
963.544
962.385
958.205
953.362
960.125
954.054
958.250
964.447
952.765
956.625
964.571
954.739
960.262
957.895
963.202
964.119
962.262
961.439
958.336
961.470
967.235
963.956
966.724
972.605
971.618
975.556
968.867
964.102
966.387
977.819
968.574
964.244
975.426
975.781
968.312
971.404
973.261
978.965
977.864
974.774
983.660
976.615
973.356
985.157
985.309
984.189
980.803
978.937
986.509
988.021
978.961
974.826
982.431
977.909
987.581
980.137
977.117
987.080
988.767
974.622
986.633
985.821
977.596
987.350
983.511
978.404
986.394
984.785
979.582
976.191
971.067
973.017
973.804
973.764
981.760
972.163
973.859
982.599
977.772
978.302
979.916
973.528
967.092
982.059
972.891
973.487
966.416
969.202
970.494
980.062
976.771
972.986
971.235
966.243
971.421
963.826
978.440
965.858
977.270
971.712
970.088
970.176
967.615
975.640
974.273
973.433
964.728
960.247
964.545
970.631
971.084
970.865
968.127
964.355
969.147
968.828
959.626
968.777
961.397
970.667
956.049
961.638
956.384
960.836
956.995
968.156
958.274
959.433
957.509
966.456
955.251
954.675
963.544
960.748
952.150
963.570
965.774
958.084
964.231
964.077
955.008
960.641
964.247
949.006
951.717
951.532
949.103
961.963
949.869
955.764
958.804
952.263
955.680
948.677
951.529
956.634
952.651
947.846
950.313
954.641
948.439
954.398
945.916
947.962
950.737
955.273
952.544
943.211
951.531
952.034
943.137
952.300
943.681
956.173
950.974
943.775
945.132
952.957
944.499
943.843
943.655
940.851
949.924
946.568
946.395
938.716
948.487
950.951
938.002
939.720
949.873
950.299
943.913
945.793
943.434
939.353
947.047
934.259
936.537
942.354
938.991
932.080
941.007
940.443
941.287
936.251
938.981
945.843
944.879
932.355
937.120
937.910
932.193
929.467
928.785
928.198
929.248
928.421
934.061
939.707
926.741
938.951
936.802
928.183
936.816
934.712
930.087
925.587
926.943
925.901
934.067
937.128
936.419
937.698
928.394
933.399
933.200
926.851
931.814
936.161
933.345
931.503
929.685
926.236
925.749
923.391
933.501
920.720
922.804
918.678
924.934
920.948
926.295
924.017
917.975
922.170
925.912
920.205
926.658
909.893
920.479
922.622
908.916
917.133
910.840
904.014
909.665
903.471
899.138
902.282
908.303
898.936
908.968
894.860
895.765
901.429
891.292
898.357
902.776
893.269
898.005
890.976
889.210
882.189
888.861
892.373
878.504
886.857
883.326
885.938
887.616
884.676
879.462
883.924
878.616
876.776
881.316
879.498
875.793
869.155
871.028
868.399
860.049
859.039
869.636
861.891
861.686
853.900
861.086
864.687
863.459
858.171
854.771
857.645
857.403
849.479
857.208
852.039
843.466
852.834
848.230
841.449
835.966
848.428
842.883
847.241
841.908
838.573
843.299
839.194
827.166
838.944
825.612
836.938
825.801
832.974
820.919
826.388
822.313
817.458
818.222
814.591
824.895
825.630
810.547
815.613
816.993
814.003
813.311
804.336
810.943
804.438
810.352
813.007
810.898
797.878
796.356
798.239
799.288
802.389
794.234
801.250
800.167
794.854
794.872
795.846
798.632
796.684
792.033
787.244
793.529
788.122
786.581
788.929
779.965
784.588
773.543
785.604
778.540
778.489
778.404
774.562
768.684
776.227
772.691
774.735
767.168
769.325
761.628
762.347
766.292
764.538
766.638
758.338
763.108
754.005
756.221
753.729
747.615
756.487
757.564
751.728
745.952
751.433
747.525
738.006
740.034
737.046
748.491
747.136
739.591
740.375
744.034
735.627
734.770
732.197
724.842
726.971
729.078
732.525
720.724
725.261
726.142
717.702
719.359
716.095
721.915
712.931
712.622
720.138
710.371
721.900
710.708
705.926
706.656
703.139
708.365
704.237
711.364
701.812
701.970
698.019
693.761
706.879
695.629
705.078
703.174
693.433
692.762
686.177
692.283
688.693
683.014
