140.473
149.063
145.220
146.440
152.109
155.134
161.508
163.165
152.490
156.892
165.856
170.558
163.970
165.957
166.398
179.473
174.825
176.858
173.059
181.790
189.963
193.253
194.313
191.480
197.252
201.983
195.086
204.842
204.347
206.945
207.913
213.290
214.584
205.962
213.633
216.933
212.042
221.887
223.783
229.003
221.875
222.005
225.765
240.157
236.279
235.109
237.778
235.393
248.100
238.842
253.532
253.690
250.710
251.919
254.444
255.801
261.912
263.464
268.906
265.528
273.002
278.175
267.264
279.498
280.043
287.731
282.667
288.445
294.765
294.866
299.828
291.276
297.811
297.176
305.393
309.356
297.894
305.057
303.638
318.679
305.739
321.938
316.463
320.164
325.130
331.787
325.703
323.657
323.095
337.603
330.158
343.294
343.659
340.986
342.383
345.684
348.149
352.094
348.319
350.059
361.231
365.193
357.463
359.532
363.682
372.911
369.904
376.678
373.847
381.749
378.694
388.347
389.437
381.257
381.019
396.499
393.876
389.691
391.130
393.995
403.897
400.930
399.321
413.878
408.459
409.354
405.328
417.906
411.631
424.898
421.761
422.666
431.012
432.585
437.895
436.806
427.410
442.052
435.434
440.317
437.808
439.724
450.132
450.363
452.044
455.891
453.207
453.432
459.526
463.889
463.399
460.888
471.751
464.683
477.738
479.212
481.023
472.013
486.711
488.530
491.595
481.447
485.983
500.016
491.561
503.562
501.658
507.839
495.753
513.806
502.701
511.069
517.396
519.595
520.593
513.357
522.253
526.422
529.314
532.837
528.979
526.603
535.415
542.213
535.879
546.946
540.099
545.338
542.170
546.642
553.111
557.953
555.204
558.535
564.961
567.102
563.766
564.274
567.865
568.087
569.278
579.372
571.961
573.861
583.180
581.682
576.265
577.164
577.147
574.345
579.431
583.494
578.695
585.479
586.822
583.052
592.666
583.758
587.726
590.622
586.858
588.172
591.746
589.204
600.794
585.912
596.183
597.331
600.507
601.698
596.225
605.383
605.447
601.714
602.783
594.724
604.249
607.160
607.181
604.592
608.368
610.787
607.614
608.110
616.715
610.260
609.317
616.668
614.086
609.261
610.545
622.798
621.419
621.965
610.685
614.196
627.023
625.034
625.024
619.320
630.029
631.986
632.123
627.162
622.737
633.840
633.265
624.948
631.391
628.948
623.995
637.702
628.499
640.397
635.941
633.478
641.958
636.228
644.913
635.650
634.040
645.540
637.468
635.778
645.193
637.066
640.048
649.636
645.678
645.809
642.581
655.232
653.780
651.001
655.025
660.101
654.351
659.098
657.720
655.737
659.836
660.588
653.571
664.853
660.262
664.059
665.297
662.246
663.736
666.227
658.973
671.566
662.231
673.334
673.545
666.081
671.520
674.860
673.120
672.773
675.807
667.237
679.809
674.922
676.390
680.426
674.679
682.287
683.382
687.481
685.689
683.482
680.038
685.379
689.189
681.385
681.600
687.019
682.798
684.992
685.646
694.940
693.352
694.586
693.518
693.390
687.797
689.195
700.606
690.406
705.482
701.763
700.403
697.554
695.009
699.050
711.578
704.213
709.905
710.780
711.602
704.702
710.572
703.497
704.218
714.750
713.611
711.096
711.489
709.745
719.724
716.601
724.158
722.002
723.987
713.687
716.573
725.791
728.427
725.297
719.353
717.281
732.570
728.259
721.952
735.506
735.143
729.096
733.903
738.352
726.505
727.891
738.090
737.820
742.806
736.671
733.755
741.954
746.072
735.185
745.196
746.190
741.605
746.242
750.953
749.737
749.807
753.525
753.430
756.039
750.298
765.555
756.554
757.881
757.202
766.445
762.027
767.337
777.397
768.680
774.889
771.475
772.095
779.772
777.170
773.453
780.571
783.504
791.617
794.412
784.231
792.147
785.242
788.235
800.454
788.734
799.165
792.852
797.814
798.815
798.223
806.284
802.037
802.708
815.582
809.464
811.102
818.470
817.207
814.938
812.310
820.596
827.762
829.637
823.587
833.940
835.761
827.715
827.447
832.106
835.547
843.086
836.679
842.132
837.954
842.816
852.797
845.002
841.519
858.050
853.463
847.305
849.876
860.246
850.317
860.695
862.018
859.612
864.174
863.581
873.483
875.095
875.157
872.902
877.377
881.232
875.398
884.910
880.752
876.734
886.240
890.732
893.516
891.293
884.277
891.108
897.027
888.734
892.739
904.248
903.857
905.447
896.752
907.116
912.276
899.477
913.591
911.517
918.961
921.044
908.849
916.365
924.626
913.552
929.486
916.603
928.498
923.732
923.256
934.753
931.160
925.515
936.610
930.111
937.726
939.866
945.728
945.415
941.978
937.387
939.091
942.361
953.184
947.301
960.333
957.572
957.092
953.811
966.508
957.852
964.705
966.675
962.922
961.244
973.984
963.281
973.722
981.412
981.899
983.138
983.343
980.016
985.324
981.763
977.662
994.387
984.329
989.013
985.603
985.578
996.940
992.445
1004.377
1001.518
1000.815
998.280
1003.747
1000.660
1002.946
1009.759
1013.477
1007.014
1009.763
1022.557
1020.339
1024.836
1025.910
1028.917
1019.438
1019.514
1026.717
1034.819
1021.675
1034.512
1024.648
1027.174
1031.658
1034.775
1045.706
1034.638
1049.515
1037.663
1051.689
1052.564
1051.675
1042.232
1058.455
1052.448
1049.745
1053.960
1053.969
1055.682
1065.771
1064.072
1051.384
1063.926
1064.418
1061.227
1062.727
1052.584
1052.927
1062.659
1054.690
1057.074
1055.129
1053.470
1054.903
1063.696
1053.552
1065.011
1052.125
1052.743
1052.762
1065.090
1051.242
1066.706
1062.782
1064.164
1057.213
1054.746
1064.233
1060.686
1060.083
1055.840
1066.829
1060.549
1057.459
1062.272
1067.556
1067.059
1060.142
1060.610
1067.778
1061.177
1062.001
1056.223
1059.138
1061.944
1056.882
1065.340
1061.606
1053.428
1054.362
1057.171
1063.349
1054.080
1060.092
1061.866
1056.624
1068.148
1064.620
1065.930
1056.919
1064.518
1057.247
1066.015
1054.298
1063.930
1066.509
1065.609
1066.017
1063.237
1061.722
1065.873
1066.003
1062.329
1059.120
1070.055
1064.511
1057.120
1055.412
1064.627
1056.052
1055.217
1062.953
1059.199
1070.476
1069.663
1062.640
1069.316
1057.546
1060.421
1068.705
1060.326
1060.932
1060.823
1069.455
1067.100
1071.263
1060.755
1064.030
1068.457
1063.344
1060.751
1065.280
1066.307
1064.683
1058.321
1064.791
1064.879
1060.781
1066.020
1067.216
1065.771
1072.020
1068.993
1066.946
1069.744
1067.699
1059.932
1061.703
1069.552
1072.631
1067.352
1064.217
1060.307
1068.860
1069.959
1059.677
1065.751
1063.430
1057.891
1071.820
1064.615
1066.755
1058.789
1059.576
1062.006
1060.994
1060.103
1066.632
1068.473
1061.348
1060.244
1067.213
1066.716
1071.298
1073.770
1062.172
1070.730
1061.694
1067.613
1064.672
1061.885
1073.904
1061.927
1064.035
1061.823
1074.316
1064.896
1067.412
1069.215
1067.964
1061.064
1068.460
1068.744
1072.683
1061.632
1062.586
1073.963
1059.693
1065.542
1071.970
1068.282
1070.111
1074.889
1065.355
1070.627
1074.348
1074.706
1074.720
1061.152
1064.223
1071.892
1073.795
1064.633
1060.960
1066.189
1075.452
1072.564
1064.809
1076.376
1068.414
1066.568
1068.949
1071.105
1075.639
1070.714
1067.392
1076.324
1070.870
1068.363
1072.177
1065.139
1070.453
1061.486
1055.423
1063.300
1067.581
1064.070
1065.177
1055.250
1060.960
1051.388
1049.240
1059.793
1045.043
1055.409
1057.632
1044.056
1051.539
1044.615
1040.160
1049.069
1038.356
1048.477
1047.493
1037.670
1046.129
1034.780
1029.172
1032.591
1040.523
1029.005
1029.650
1027.451
1026.349
1032.652
1029.519
1028.914
1023.950
1021.623
1030.286
1027.660
1017.113
1018.735
1026.486
1024.989
1019.682
1009.057
1015.562
1016.229
1008.224
1011.998
1012.478
1012.138
1007.130
1009.529
1009.125
999.056
1004.327
1002.585
1001.749
997.218
1001.257
1006.338
990.570
993.891
995.798
991.411
990.263
995.960
994.048
991.521
993.969
985.436
979.396
992.337
987.836
976.380
980.167
975.725
980.747
986.240
985.682
982.045
969.373
970.101
971.162
965.979
976.041
970.466
963.051
969.804
962.717
972.758
959.184
966.756
955.373
968.265
960.158
955.658
962.302
958.421
949.675
955.101
956.925
952.559
946.280
952.737
947.900
954.665
941.521
945.625
939.029
941.872
949.094
944.611
945.058
944.305
943.225
933.502
941.678
937.574
927.499
940.978
936.177
923.741
937.526
934.197
926.232
934.566
923.704
931.737
929.500
916.405
925.494
928.620
917.751
925.109
921.950
922.669
921.187
912.465
915.031
907.414
912.840
912.405
907.611
913.707
914.270
909.905
911.491
898.776
896.505
907.705
905.078
904.206
903.325
902.136
893.134
902.567
892.714
896.894
899.344
884.249
894.849
892.865
884.873
885.853
886.587
889.570
887.951
879.208
883.581
883.851
879.744
871.644
880.717
883.167
868.607
879.994
875.910
871.656
869.617
867.169
861.694
871.994
858.609
856.350
861.955
857.272
860.487
855.101
860.699
851.368
853.527
859.467
853.883
854.442
858.056
845.760
847.184
856.872
853.479
851.503
859.098
850.280
847.589
848.525
851.747
859.976
849.197
849.161
859.713
857.292
852.641
855.784
863.310
855.665
859.819
857.230
868.154
861.044
864.036
867.333
865.698
857.262
855.162
859.225
868.747
857.238
864.148
868.280
861.533
863.078
861.004
865.612
871.860
864.195
874.424
860.718
875.569
873.851
875.848
873.233
865.007
874.034
866.717
868.492
862.917
871.986
865.904
875.140
878.398
874.904
865.653
877.690
880.081
873.196
870.313
866.681
879.952
876.702
872.915
882.635
868.278
873.171
875.341
878.751
884.917
885.912
884.044
877.020
876.043
884.306
881.284
887.328
883.591
877.782
878.400
874.466
884.551
884.302
882.609
888.308
876.418
882.744
888.235
889.617
889.858
887.213
883.875
881.079
880.685
879.910
894.112
886.811
884.859
880.620
885.209
890.798
889.909
894.266
889.503
895.028
882.990
892.647
886.213
894.291
884.378
885.993
896.151
898.422
895.117
897.021
890.971
901.110
893.703
891.682
899.604
899.483
901.741
890.561
891.228
896.348
891.426
900.826
901.813
900.885
901.072
896.542
898.772
896.793
905.585
902.106
896.321
894.350
898.414
905.812
896.746
897.313
900.413
902.484
906.308
909.911
902.563
907.305
907.114
899.827
914.134
901.778
900.446
915.134
904.926
915.344
916.330
905.752
914.625
908.598
909.499
916.383
908.253
916.799
911.896
914.681
908.813
913.262
911.640
920.785
914.484
918.674
913.820
915.855
922.772
923.034
919.737
916.450
910.337
916.780
922.242
916.669
915.480
917.487
921.234
922.473
919.161
922.183
914.846
916.220
915.356
923.371
914.836
916.547
915.631
926.634
916.821
924.073
922.587
925.323
916.788
926.555
930.831
922.730
927.631
924.355
919.231
919.512
915.980
919.774
917.085
925.630
915.307
921.518
922.066
917.496
916.124
923.629
917.425
912.951
913.678
913.625
919.375
906.273
906.535
915.213
912.454
907.017
913.107
910.805
906.466
902.694
903.461
908.791
905.634
914.891
914.894
907.240
899.494
911.565
906.091
902.672
900.963
904.317
909.599
903.866
894.472
904.025
904.168
908.370
900.753
892.185
900.987
896.337
903.449
905.717
891.363
892.931
890.500
897.782
898.000
902.409
893.247
887.234
888.085
885.967
896.037
887.485
888.141
884.746
893.262
890.591
895.974
887.533
891.583
885.801
890.669
884.612
885.403
880.244
891.480
885.730
884.350
889.848
885.317
887.040
878.320
886.115
889.325
883.681
883.323
883.233
885.267
876.297
873.567
882.238
882.810
872.462
879.406
877.076
877.463
877.246
877.064
871.584
877.579
867.969
868.845
873.849
879.084
864.955
863.791
865.936
868.774
877.206
873.456
875.385
865.067
859.601
868.652
871.264
866.872
861.472
862.864
857.165
871.356
858.787
865.481
868.727
866.676
859.325
861.369
859.708
857.488
861.653
856.966
857.307
856.944
852.045
861.392
853.234
850.483
849.464
862.098
855.880
853.116
860.742
847.415
857.820
851.053
844.637
858.006
848.200
853.047
845.778
845.503
856.700
850.997
850.242
851.449
854.323
842.270
850.492
841.272
837.555
850.950
847.047
836.559
841.214
844.413
847.519
841.321
838.891
845.084
838.877
838.665
847.026
833.362
842.598
841.625
844.473
843.024
841.141
835.863
832.227
842.764
834.278
831.344
836.432
826.363
836.728
828.194
828.683
828.297
835.180
827.080
827.086
833.748
832.114
827.990
823.706
820.116
824.707
832.314
832.618
829.422
830.905
835.938
821.034
827.504
827.329
834.416
825.455
837.593
834.678
837.769
834.714
823.860
830.042
825.070
829.393
836.543
828.463
827.400
828.592
825.837
840.814
831.351
826.972
833.704
832.934
831.281
834.270
842.392
834.823
830.482
834.980
844.631
840.363
829.970
833.918
841.686
830.519
834.302
831.072
843.309
837.774
835.205
842.706
836.646
842.066
846.893
834.377
837.854
845.649
844.239
835.255
837.053
841.441
836.658
847.776
835.988
836.833
851.207
848.679
839.594
846.475
843.316
851.783
841.578
845.865
849.752
840.601
843.956
841.049
845.213
850.203
854.518
841.881
853.841
854.949
841.481
849.623
853.891
848.068
856.396
857.052
847.016
844.546
843.156
852.549
849.005
857.709
853.582
851.960
851.943
860.650
859.019
858.978
855.262
848.063
853.408
861.334
862.761
860.866
855.449
858.008
859.832
856.754
857.850
849.500
855.182
860.030
858.353
857.870
862.996
857.517
857.957
860.773
853.018
859.960
864.758
863.146
852.506
865.047
858.943
855.840
856.033
867.732
868.737
855.306
866.971
861.804
858.697
863.662
860.329
864.747
867.376
864.515
859.615
860.841
868.932
870.678
869.388
861.735
860.855
869.445
863.838
874.119
869.992
874.989
869.118
867.524
872.837
863.130
869.890
872.981
869.274
871.630
863.964
867.822
866.755
865.656
864.322
878.323
866.676
874.712
870.189
879.194
879.903
870.405
875.642
871.317
874.516
875.384
880.322
868.568
875.691
872.415
873.677
880.285
875.838
874.564
871.196
879.519
871.568
884.783
870.061
877.810
879.242
871.769
882.035
885.178
876.750
873.293
877.552
888.139
875.519
879.119
888.230
877.196
884.249
890.063
887.902
881.997
882.919
891.581
880.786
877.886
889.450
892.173
886.530
889.805
888.668
889.248
881.426
890.919
888.874
894.923
890.262
895.525
887.510
899.595
897.655
886.579
891.919
889.924
895.386
895.413
896.793
896.144
889.758
900.925
892.860
898.898
902.748
898.804
903.135
906.968
908.833
909.005
903.308
906.249
896.380
898.879
896.968
905.769
907.975
912.803
904.062
903.596
899.634
912.418
907.649
902.278
915.530
915.582
906.014
917.676
912.577
909.641
918.721
911.992
905.498
917.613
911.654
912.462
914.648
918.648
908.546
911.715
913.064
919.639
925.977
925.167
922.723
917.334
921.942
922.185
920.149
921.799
929.893
928.808
923.209
922.903
916.468
918.784
931.858
920.504
923.647
927.616
928.672
935.129
930.405
932.410
926.751
933.565
936.424
927.267
926.114
934.216
939.133
933.890
936.640
933.291
937.983
936.662
940.953
938.667
934.714
934.356
934.405
945.981
941.701
940.944
938.356
939.753
936.682
942.974
945.248
937.972
948.117
946.483
945.772
938.124
938.180
943.357
940.668
950.506
942.686
943.255
951.476
954.814
945.180
949.463
952.401
942.471
945.522
948.986
951.598
948.816
955.675
955.898
952.667
948.605
948.279
960.495
960.802
952.737
952.560
961.438
959.630
965.660
952.783
955.372
960.304
962.624
958.315
964.054
955.627
955.334
970.236
963.116
966.924
969.129
963.724
970.203
960.629
969.849
969.802
971.779
967.030
962.857
966.575
976.016
969.038
974.890
970.319
967.284
979.267
967.754
968.285
968.503
974.396
979.671
973.561
974.697
981.879
982.954
974.237
979.196
972.143
978.626
976.636
972.486
982.783
975.414
982.523
985.950
981.466
978.101
990.614
976.828
980.438
983.318
985.298
977.635
981.508
982.977
978.476
987.207
983.722
983.150
985.473
981.028
982.113
982.515
986.177
980.342
973.987
979.984
973.057
974.366
980.118
972.475
984.229
969.142
981.366
968.290
979.635
974.430
973.946
982.180
973.713
967.680
979.303
974.515
973.616
966.749
965.394
978.730
978.671
978.861
972.667
977.870
964.249
966.286
962.330
972.822
963.471
965.467
972.599
964.406
970.674
970.379
961.445
964.222
966.722
973.479
968.533
963.871
962.491
960.656
959.345
969.377
962.012
962.860
958.794
966.348
968.977
957.524
961.542
962.356
965.102
955.253
955.365
965.914
968.712
966.338
965.485
964.146
964.853
955.483
959.211
962.726
952.890
963.766
961.523
950.058
953.518
964.131
964.243
963.176
958.599
948.837
961.121
959.376
957.030
962.148
947.436
961.272
959.961
954.052
954.802
953.518
952.338
958.540
946.202
953.200
950.288
958.199
952.960
953.010
945.897
955.818
954.038
948.345
955.769
949.166
941.204
955.349
953.282
952.865
944.958
952.336
952.258
948.790
948.203
943.104
943.043
947.003
942.751
947.373
941.001
943.601
943.933
944.860
948.391
950.405
940.518
936.443
943.619
946.974
937.124
946.007
945.163
938.456
944.634
935.521
940.937
939.389
934.721
945.101
941.938
943.838
941.181
932.110
941.023
942.947
933.655
933.397
929.020
939.381
934.399
941.930
932.163
929.258
931.124
938.680
940.130
933.090
930.241
930.882
931.698
930.979
936.818
926.804
929.149
939.047
938.216
925.888
935.744
936.165
930.382
930.064
936.462
933.600
930.016
934.683
931.079
919.950
926.425
931.751
919.251
922.842
926.560
930.827
924.641
925.084
923.770
926.723
