102.433
110.870
112.592
109.092
122.622
120.785
126.691
120.018
126.057
124.602
130.655
140.647
133.869
148.141
141.613
153.177
146.953
149.910
160.757
164.388
157.335
158.044
169.042
169.959
167.872
167.995
174.629
179.449
191.074
192.084
188.510
199.388
196.879
191.945
205.044
200.126
209.445
202.688
216.207
214.483
220.763
223.510
224.495
221.487
230.782
238.397
241.037
240.083
237.735
249.839
250.085
241.662
251.286
262.109
257.973
263.481
270.056
272.016
266.492
268.101
267.019
278.262
283.359
275.913
293.563
285.442
289.668
300.511
299.654
306.922
301.080
300.166
303.024
305.672
313.690
317.058
318.763
319.357
321.406
328.245
331.261
333.752
332.380
336.840
349.594
342.389
352.076
349.544
349.539
350.367
366.368
365.164
372.325
363.672
375.879
369.151
379.053
384.847
385.264
392.056
380.403
396.304
399.850
389.356
399.282
399.005
409.168
410.903
413.334
418.995
418.363
424.452
420.840
425.002
431.865
423.162
430.837
442.021
446.186
437.276
448.389
451.121
444.367
461.139
452.149
459.338
465.571
461.233
469.933
477.180
470.835
477.528
486.489
478.577
482.272
487.239
487.743
496.107
492.124
496.123
498.279
502.285
508.804
505.104
509.662
517.146
524.808
516.281
531.515
532.551
525.264
529.296
533.205
543.059
545.861
536.542
548.492
550.341
560.608
555.208
565.022
563.389
566.102
571.261
565.955
567.913
574.839
580.148
588.262
584.205
590.269
587.969
587.336
595.329
606.417
599.779
607.642
610.021
607.110
618.842
612.180
615.711
616.128
631.726
624.304
632.890
636.299
629.288
633.920
635.449
643.484
649.731
642.139
658.259
651.886
650.445
665.603
667.024
667.921
672.812
667.937
669.567
677.308
685.095
674.756
691.553
693.489
683.890
699.174
691.255
688.802
705.508
697.878
707.536
712.520
710.484
708.908
712.598
707.050
722.202
726.013
715.524
720.026
720.483
725.511
725.567
736.998
740.772
738.448
744.539
746.454
739.064
747.384
756.266
755.153
747.437
758.765
763.266
760.746
763.905
766.443
773.375
775.382
774.981
780.188
777.547
783.495
778.034
783.432
782.096
795.803
783.914
797.382
799.552
796.299
801.943
806.239
805.136
812.011
804.590
813.105
812.587
819.884
815.178
818.798
826.636
829.339
825.783
831.424
834.574
835.812
834.544
844.702
837.651
848.717
847.778
855.460
850.739
858.902
858.908
866.031
869.458
861.681
866.717
863.946
867.932
875.614
878.895
874.078
880.284
882.664
883.714
892.194
887.702
893.626
891.270
891.445
894.732
907.190
901.930
900.235
914.319
909.417
908.996
922.753
923.059
925.360
926.960
931.019
930.222
929.017
937.081
939.695
938.342
933.236
936.734
947.822
939.794
953.384
958.212
953.455
955.463
960.249
962.940
967.666
960.629
968.762
967.164
968.811
967.382
977.425
971.388
981.117
984.895
988.395
984.503
988.705
989.049
1000.088
1004.725
991.886
1007.301
999.603
1013.621
1001.898
1005.837
1015.164
1023.093
1012.047
1027.934
1024.040
1032.035
1032.351
1025.810
1039.817
1027.503
1042.889
1032.618
1040.089
1051.615
1043.178
1043.427
1046.902
1059.599
1051.352
1057.257
1059.030
1068.282
1065.828
1072.685
1067.356
1073.352
1081.202
1073.231
1075.389
1077.436
1090.598
1093.171
1089.716
1097.338
1087.137
1092.946
1095.452
1103.416
1103.237
1098.827
1106.154
1116.409
1111.992
1119.736
1117.474
1123.076
1123.927
1123.296
1121.059
1125.853
1123.632
1127.284
1137.201
1136.936
1146.283
1143.134
1136.116
1136.743
1132.478
1137.492
1144.226
1143.593
1131.877
1140.756
1143.640
1137.403
1130.500
1142.354
1139.423
1142.204
1136.210
1131.091
1127.447
1140.577
1137.779
1130.948
1137.874
1126.483
1134.510
1134.133
1135.387
1124.603
1130.611
1124.058
1131.487
1128.223
1131.180
1134.496
1133.602
1130.946
1129.991
1122.806
1119.980
1126.750
1123.946
1126.688
1119.640
1127.210
1126.166
1124.701
1122.377
1118.854
1116.899
1130.707
1116.826
1126.523
1122.758
1114.184
1129.086
1127.025
1113.690
1124.011
1127.375
1120.002
1114.442
1114.168
1117.525
1116.830
1119.747
1111.205
1120.413
1113.625
1110.087
1116.917
1116.540
1113.919
1110.452
1107.759
1117.557
1111.068
1112.330
1113.122
1107.569
1118.472
1109.284
1119.481
1106.244
1106.529
1116.340
1104.328
1111.325
1104.679
1117.174
1114.811
1107.288
1113.875
1107.287
1102.904
1113.889
1107.208
1109.061
1107.102
1103.786
1106.459
1103.442
1102.894
1113.036
1097.827
1103.355
1097.961
1111.995
1100.187
1095.944
1100.882
1103.888
1108.620
1104.322
1101.394
1098.801
1102.126
1094.670
1101.598
1093.222
1104.281
1097.908
1101.942
1105.690
1105.794
1093.716
1099.075
1097.363
1095.667
1093.729
1090.577
1103.252
1093.566
1092.908
1098.117
1090.518
1087.023
1093.915
1090.093
1087.002
1086.724
1085.476
1095.121
1090.525
1094.110
1085.707
1089.281
1087.672
1093.642
1098.093
1090.941
1093.966
1088.423
1086.028
1095.677
1082.829
1084.167
1092.383
1086.930
1084.597
1084.346
1091.439
1086.382
1090.987
1079.626
1083.443
1089.005
1076.922
1087.197
1081.787
1076.404
1086.408
1085.423
1078.438
1084.332
1083.034
1076.354
1085.708
1077.285
1083.954
1075.222
1086.463
1077.286
1085.775
1082.821
1074.897
1082.058
1077.964
1072.493
1071.350
1080.545
1082.934
1075.480
1075.790
1078.214
1069.934
1082.767
1072.012
1079.039
1071.699
1077.877
1072.892
1072.094
1074.236
1072.811
1071.857
1068.237
1063.122
1052.365
1059.130
1049.083
1054.974
1054.466
1039.935
1048.576
1046.080
1041.338
1039.257
1027.901
1033.758
1033.700
1027.528
1029.909
1028.762
1024.714
1013.035
1023.673
1015.186
1017.815
1016.675
1001.562
1004.322
999.108
992.097
996.221
988.017
1000.513
988.165
982.521
978.187
978.874
986.334
986.087
980.018
982.447
969.727
961.952
960.386
966.117
963.188
968.408
955.219
961.330
955.068
950.787
950.456
945.764
950.540
934.952
936.631
944.245
941.664
935.231
936.039
935.679
933.838
918.805
920.661
920.660
924.819
921.280
904.961
910.253
904.944
901.146
898.249
908.290
891.300
891.892
887.973
889.632
882.404
887.112
881.186
877.441
879.258
870.580
883.442
878.052
869.805
865.901
863.667
867.665
860.658
865.504
857.074
850.963
858.731
851.297
849.348
853.742
846.076
835.721
839.152
833.111
831.348
837.453
834.075
822.764
828.835
820.841
814.716
811.796
822.502
817.403
818.102
814.528
812.639
808.369
808.040
803.631
793.286
796.075
785.423
797.315
790.944
791.504
788.061
781.020
784.330
784.082
768.038
771.862
777.328
763.412
758.525
767.969
762.135
762.188
764.017
760.653
756.590
748.857
750.515
746.349
738.728
733.200
743.394
729.362
728.758
729.219
729.887
721.336
722.341
721.785
713.087
716.800
710.297
713.685
712.755
710.468
712.720
708.403
693.977
701.789
689.062
689.291
687.434
685.202
686.108
691.624
679.534
688.141
673.382
676.309
678.180
665.521
671.645
658.881
671.334
665.453
657.660
655.623
654.487
656.515
653.039
647.839
642.049
640.608
643.455
642.462
635.736
638.709
633.721
628.937
629.059
625.577
630.489
622.811
626.280
618.110
619.880
615.541
622.670
613.817
620.566
611.130
618.184
614.190
615.648
625.759
617.258
630.642
629.352
626.913
624.621
631.491
626.131
639.549
627.702
630.881
632.165
633.372
639.041
630.470
633.984
640.947
640.867
637.333
639.369
647.491
637.914
640.545
653.405
649.493
652.871
649.459
655.144
648.563
659.207
650.510
662.357
664.513
655.014
655.270
652.354
659.185
669.687
667.767
667.136
671.110
664.177
673.113
666.434
664.101
667.556
671.962
673.385
666.980
671.947
679.891
671.719
675.152
673.879
686.619
685.100
675.135
676.818
679.007
689.155
692.357
681.242
683.932
684.877
687.240
697.624
696.027
694.132
693.528
695.571
697.215
701.199
699.960
705.108
706.853
703.544
698.607
708.459
712.122
704.083
711.157
701.569
703.356
716.721
711.093
715.660
717.340
710.712
714.610
713.095
711.029
721.084
719.794
723.492
720.031
730.408
720.797
732.098
725.677
720.579
728.536
728.777
737.250
735.628
736.646
728.312
727.810
738.219
734.630
736.263
731.111
742.612
741.057
735.473
735.029
748.445
740.457
746.701
749.549
748.417
744.552
745.798
756.310
759.356
757.966
755.566
762.336
752.968
752.407
759.196
765.717
766.267
759.249
763.893
765.134
760.863
772.385
765.285
773.373
775.933
774.366
767.776
773.457
779.128
771.405
778.422
778.358
776.700
785.232
776.250
778.868
777.851
788.676
779.209
786.925
788.249
782.836
792.272
781.716
788.230
797.288
789.462
790.756
789.040
796.650
792.208
804.235
802.579
795.258
799.385
807.740
807.839
803.026
796.274
810.932
798.780
799.499
807.499
803.164
818.352
804.985
814.163
816.395
815.846
821.629
809.054
820.222
819.179
819.624
826.694
828.148
821.773
824.868
826.593
822.826
829.532
833.163
819.045
831.517
830.799
824.104
828.465
833.023
837.751
829.995
831.600
839.183
836.953
834.062
826.749
829.484
832.334
833.256
831.400
830.372
836.318
844.134
845.943
843.793
838.504
842.915
835.718
845.299
841.415
837.977
842.604
841.542
849.362
839.976
844.107
850.851
854.503
850.637
842.240
854.110
849.512
846.251
858.392
851.698
855.274
856.799
858.634
855.940
848.857
861.322
864.329
851.217
856.490
863.698
866.751
858.053
868.845
863.636
856.230
856.999
869.597
859.544
868.730
867.300
866.140
871.720
875.500
862.198
876.808
875.618
868.457
863.396
873.553
872.099
866.104
876.785
870.525
882.141
871.904
876.446
883.157
878.439
877.126
885.816
879.857
886.803
876.006
877.981
874.714
884.907
882.512
876.681
879.412
878.839
880.842
882.844
890.253
885.566
882.140
885.469
881.531
891.748
883.991
898.676
897.217
895.434
899.703
889.577
896.739
899.543
900.424
890.736
889.208
891.986
903.035
892.983
898.419
904.695
900.672
905.328
903.593
905.802
897.630
898.060
906.940
905.853
902.959
909.860
906.615
905.593
911.752
902.499
903.350
907.646
903.022
904.719
914.344
920.465
917.419
911.939
917.919
910.315
909.909
914.660
919.500
917.206
925.643
921.252
923.070
921.483
919.136
920.123
918.726
927.315
928.493
929.461
921.891
921.695
920.759
925.961
919.305
929.290
931.076
937.007
922.251
933.083
923.581
936.410
936.014
936.095
928.493
928.193
931.693
939.609
932.547
938.802
943.048
940.212
931.374
939.117
941.490
945.351
944.280
945.789
943.068
945.985
945.336
947.724
944.569
951.882
941.568
951.650
949.793
941.369
952.247
956.649
943.249
949.510
954.097
953.589
948.288
948.295
947.286
940.188
949.711
942.233
942.913
935.086
944.137
934.620
941.063
935.569
942.312
946.344
934.955
932.051
932.878
938.462
940.900
935.465
937.398
931.378
930.922
924.232
934.478
924.148
935.609
933.813
925.785
922.582
928.616
919.605
933.145
919.173
922.780
921.394
918.235
919.330
928.827
921.651
926.061
919.430
914.682
917.633
923.313
911.832
920.731
908.119
907.547
910.234
908.069
911.010
916.262
915.852
909.377
914.949
914.198
907.461
906.102
907.393
906.617
897.710
907.291
911.354
901.066
904.116
901.400
901.112
904.313
904.421
892.544
895.457
900.098
902.860
898.576
893.614
889.888
889.629
893.143
884.619
894.546
896.152
889.088
893.636
883.762
881.602
894.021
889.097
892.505
884.311
880.482
876.963
891.467
880.017
878.096
883.706
887.006
876.162
881.362
884.524
871.293
881.481
873.364
879.764
869.579
871.612
866.953
865.205
879.910
878.564
867.457
877.351
868.861
874.606
861.423
869.255
872.236
866.999
869.481
868.374
860.275
858.078
858.849
864.322
866.418
853.313
864.014
855.600
863.397
852.484
858.217
862.768
863.526
852.943
855.306
851.561
852.582
846.400
856.043
853.094
849.149
845.774
844.860
852.497
844.978
853.876
840.758
849.294
838.862
842.257
847.136
846.318
835.000
846.964
840.646
837.514
832.600
846.326
831.790
838.674
835.476
834.295
836.783
829.749
827.297
832.556
837.864
826.998
823.696
828.179
834.921
827.746
832.589
829.736
825.474
828.752
819.349
824.279
816.097
819.961
827.579
828.257
828.101
825.939
812.733
826.892
811.365
824.980
819.160
823.404
819.754
809.550
810.284
814.304
810.608
806.969
815.340
812.071
813.993
818.492
822.019
813.233
825.647
821.801
823.101
828.416
827.267
831.214
834.161
825.956
833.050
830.388
840.893
840.665
842.778
844.452
839.061
843.211
843.215
841.716
843.243
852.652
848.162
861.058
850.509
851.581
864.747
861.373
858.642
868.263
865.521
860.057
866.353
875.990
871.538
874.835
870.858
876.793
878.341
874.373
886.583
881.703
879.904
887.148
888.066
891.947
885.607
891.966
897.724
898.703
899.558
896.107
897.233
905.477
898.858
897.722
907.800
903.324
915.235
915.620
917.977
913.347
906.454
914.104
918.686
921.894
914.242
928.960
915.665
918.941
929.789
935.268
936.699
927.302
936.777
938.283
932.178
934.027
944.730
939.643
945.659
938.522
941.806
942.784
945.109
948.756
945.244
945.830
947.544
947.911
958.235
959.551
961.830
967.571
956.137
963.088
972.462
971.487
975.932
970.619
978.856
969.527
971.182
970.613
981.513
981.036
981.775
980.992
993.175
983.869
995.070
994.920
994.603
986.993
987.570
996.491
994.518
995.428
1007.354
1001.160
1005.004
1003.347
1008.300
1007.270
1017.406
1016.037
1011.477
1007.555
1019.590
1022.018
1015.105
1023.733
1019.225
1023.634
1029.428
1033.308
1028.053
1036.828
1025.620
1029.257
1035.411
1037.199
1037.565
1041.668
1044.577
1048.266
1043.280
1052.642
1049.566
1054.462
1053.711
1046.150
1055.443
1060.190
1054.364
1056.241
1067.320
1064.004
1056.922
1068.061
1070.147
1060.396
1071.287
1071.892
1066.091
1076.989
1068.557
1079.407
1086.097
1085.927
1083.279
1085.195
1080.894
1090.598
1089.290
1085.885
1096.034
1099.473
1091.172
1091.971
1094.292
1098.090
1104.842
1105.684
1104.298
1110.584
1100.775
1112.489
1117.658
1112.906
1107.113
1120.708
1123.134
1123.121
1126.883
1115.185
1128.748
1115.575
1119.813
1118.072
1114.124
1114.429
1110.744
1111.281
1117.331
1119.388
1114.648
1114.368
1119.276
1111.971
1116.329
1106.202
1119.469
1115.272
1105.306
1115.171
1111.858
1110.354
1103.969
1108.859
1109.175
1112.961
1113.322
1113.906
1101.733
1109.052
1107.575
1105.522
1110.159
1102.016
1109.783
1104.978
1108.431
1100.647
1101.800
1093.480
1098.406
1094.495
1091.559
1095.760
1091.556
1092.736
1092.994
1097.273
1085.602
1088.277
1093.347
1085.283
1092.177
1097.493
1089.789
1087.929
1083.138
1082.915
1083.567
1080.784
1090.181
1086.754
1087.181
1090.133
1082.297
1082.010
1083.871
1079.513
1076.766
1076.307
1080.056
1078.939
1080.915
1072.642
1082.529
1070.407
1082.709
1074.874
1069.629
1081.124
1081.213
1067.832
1073.542
1073.985
1065.017
1078.296
1070.020
1073.733
1068.330
1069.310
1064.803
1061.892
1068.125
1061.234
1072.804
1070.754
1067.061
1067.012
1064.553
1066.140
1068.842
1068.550
1064.569
1056.969
1053.178
1064.785
1055.737
1063.806
1053.375
1060.028
1059.245
1058.796
1061.303
1052.508
1049.727
1052.376
1051.576
1050.097
1054.314
1058.624
1048.007
1045.441
1041.859
1040.916
1049.739
1053.834
1046.212
1043.887
1046.858
1053.155
1049.484
1041.289
1041.890
1044.899
1034.517
1040.907
1044.103
1035.910
1044.789
1037.678
1041.217
1041.545
1042.998
1033.798
1041.135
1029.797
1037.037
1034.592
1039.801
1033.005
1026.498
1026.674
1023.942
1027.619
1036.475
1023.522
1032.455
1026.283
1034.011
1032.174
1034.605
1026.207
1023.632
1019.889
1022.585
1021.666
1030.087
1018.201
1022.425
1028.890
1019.863
1026.226
1025.383
1018.019
1013.370
1017.851
1010.655
1020.613
1012.382
1008.219
1019.267
1019.924
1007.080
1013.734
1012.167
1018.586
1011.324
1012.286
1002.547
1009.925
1015.521
1012.485
999.696
1003.616
1012.888
1002.669
999.475
997.361
1004.042
1003.072
1004.633
1004.427
998.911
1002.178
1004.057
1002.106
1003.714
997.360
986.853
990.432
998.557
987.308
992.852
995.649
987.625
985.028
990.933
985.581
977.620
977.588
976.727
975.290
976.272
983.352
974.864
972.053
968.220
977.718
972.479
976.014
964.239
962.121
960.830
960.977
970.920
959.004
963.798
954.446
959.280
966.445
957.204
949.490
951.177
955.094
951.999
950.658
949.005
947.121
945.706
945.837
943.996
941.525
938.123
941.427
937.384
936.225
932.786
938.564
943.169
930.676
943.378
934.779
939.059
934.467
923.521
931.946
921.613
920.732
926.726
932.227
928.327
925.464
920.656
916.126
925.717
910.876
921.002
920.723
918.113
917.092
919.006
908.086
905.671
903.228
906.657
912.752
906.169
907.525
908.167
899.920
906.466
898.256
906.599
897.342
896.876
902.780
891.921
895.393
885.250
897.481
889.786
884.155
881.581
879.310
883.519
884.299
876.408
875.575
883.775
882.579
879.338
878.872
878.557
871.638
879.444
877.949
874.012
876.657
873.909
873.180
863.201
872.277
862.954
866.472
871.245
863.262
865.849
867.400
863.350
854.156
853.002
851.931
859.252
855.018
846.755
848.582
844.902
852.170
844.847
841.982
851.151
839.127
849.965
839.768
848.472
834.925
843.407
833.932
834.774
827.614
834.002
833.198
827.894
834.293
832.246
827.133
825.714
832.756
825.170
817.955
820.258
820.372
827.070
827.675
810.826
821.156
812.284
815.910
806.186
813.862
809.066
803.437
812.006
806.979
803.591
798.318
811.918
798.281
799.089
796.554
806.767
803.303
797.377
797.591
800.227
789.331
790.533
794.669
789.910
782.923
785.659
796.213
780.005
788.547
787.173
776.639
788.583
782.403
782.865
778.292
