369.161
363.480
395.248
399.581
393.768
361.384
412.168
418.887
371.901
420.779
414.067
391.669
398.488
405.948
421.270
426.205
445.624
440.115
412.699
440.611
422.086
428.568
443.978
132.535
142.901
144.718
133.420
145.593
138.462
145.782
150.690
141.154
139.962
153.623
156.155
146.144
159.615
152.967
155.420
156.863
149.546
157.853
155.512
159.431
158.267
160.610
156.250
161.269
165.001
158.804
168.217
167.676
161.775
172.230
169.794
179.879
176.367
171.713
178.827
178.749
185.809
175.844
174.435
188.391
183.705
177.154
182.900
184.233
191.026
190.367
187.148
193.351
193.968
187.794
192.591
189.025
187.832
189.286
197.781
201.847
200.780
207.080
207.011
196.912
205.233
198.072
209.021
200.894
204.079
213.949
211.230
210.793
217.799
207.969
212.525
214.655
211.070
210.602
212.943
213.580
214.761
227.813
216.432
216.609
222.112
228.378
223.050
225.504
227.680
226.154
227.571
232.685
228.746
242.059
239.906
235.591
241.186
237.016
246.160
246.427
236.356
248.252
247.323
245.850
245.907
248.719
242.952
242.916
255.780
251.587
245.741
258.954
247.923
250.367
251.768
258.139
254.701
260.416
254.873
267.325
271.681
272.090
268.286
268.496
271.622
263.390
271.988
278.284
271.467
269.788
269.224
268.605
270.185
283.436
278.850
283.875
282.395
285.101
275.333
283.520
288.832
278.944
284.029
291.708
283.113
288.697
285.498
291.621
293.783
299.589
299.530
297.096
305.107
295.991
298.779
299.413
299.146
295.939
303.129
299.206
300.647
312.892
315.310
308.488
307.460
305.740
319.349
314.064
322.280
317.826
319.841
319.637
327.336
322.002
329.264
317.882
323.553
325.630
330.842
325.938
322.646
331.912
325.922
335.887
336.106
339.331
340.913
334.414
330.429
345.267
332.775
334.614
341.499
349.090
335.441
346.202
340.028
351.738
354.019
344.569
350.955
347.684
357.960
351.613
352.179
359.420
353.690
351.544
352.622
352.117
365.249
354.394
355.693
365.548
364.117
362.601
363.922
366.984
366.993
371.634
375.776
367.242
378.141
373.996
366.860
368.937
379.236
369.849
385.477
386.548
379.219
379.476
378.746
388.294
388.730
377.140
393.798
390.934
395.474
383.988
388.335
391.615
399.235
391.529
395.599
392.597
392.743
399.805
404.460
397.083
395.601
397.978
402.058
398.744
404.946
411.692
405.501
403.473
403.918
412.129
409.952
409.310
414.885
417.880
409.011
419.594
420.920
422.118
417.793
425.667
417.568
422.010
420.551
419.004
421.981
424.183
427.998
424.060
432.163
434.820
436.005
430.704
433.477
437.994
428.278
440.681
441.814
436.283
438.467
435.825
444.517
445.443
447.374
443.774
439.830
440.743
453.788
442.557
455.171
447.233
445.222
447.331
451.441
457.896
448.148
464.319
451.066
454.225
464.784
463.727
464.871
468.842
467.339
462.257
458.757
460.406
472.353
472.365
471.749
473.301
464.614
468.318
481.380
471.466
482.503
476.450
476.218
475.130
478.660
485.134
483.614
483.586
491.991
493.089
488.443
494.569
485.844
486.649
492.479
496.284
491.012
491.038
502.115
490.361
492.148
498.519
503.158
507.385
493.176
505.883
509.916
505.140
505.516
501.566
504.587
515.809
501.599
504.623
507.825
508.605
514.019
520.465
518.625
515.882
516.549
523.990
513.411
527.066
520.592
522.907
531.002
518.150
532.468
518.761
523.997
529.092
523.633
535.487
535.266
529.367
536.228
540.821
531.276
530.879
533.443
540.480
545.490
547.917
541.058
549.521
549.002
542.292
549.675
538.879
546.591
553.722
544.833
557.924
546.117
544.589
553.026
557.651
550.946
554.596
555.952
550.394
551.939
567.453
564.732
554.960
567.946
559.506
558.579
561.584
561.653
573.150
567.593
571.265
577.794
575.143
564.691
568.914
578.461
568.781
578.583
575.279
585.155
586.649
573.983
586.051
575.350
583.089
578.279
586.004
580.743
587.728
585.291
593.203
584.284
592.217
599.197
588.672
592.100
599.670
594.585
603.596
593.567
601.172
599.126
602.180
595.378
600.176
601.138
606.916
606.271
612.037
609.748
611.429
603.368
616.144
604.772
614.823
619.903
610.626
621.866
621.939
614.275
619.873
624.608
622.547
628.624
617.117
621.956
617.273
618.854
618.053
626.910
622.744
627.087
627.418
630.917
634.543
635.785
632.696
637.323
639.557
643.473
637.577
633.676
638.241
641.793
648.010
638.642
650.614
642.007
641.328
644.785
650.857
650.006
644.959
649.696
645.501
646.423
650.066
660.744
653.171
657.394
662.402
661.890
651.243
663.588
665.201
659.939
669.992
670.513
670.126
658.503
665.631
661.958
671.635
668.196
663.959
663.488
672.395
670.466
674.974
669.328
672.998
669.070
671.623
680.623
684.460
682.107
679.387
675.489
678.759
688.925
692.859
686.099
681.492
688.418
693.747
684.560
695.594
689.522
696.792
695.216
697.299
700.807
703.777
691.870
704.732
700.605
698.533
702.313
699.085
700.915
698.419
707.049
707.167
709.295
701.837
712.452
706.065
704.645
716.408
714.489
714.112
711.707
719.792
716.602
715.908
717.803
721.049
727.179
718.051
721.924
719.324
733.165
722.525
725.879
719.707
723.980
729.290
732.437
721.115
728.817
731.070
731.658
726.662
727.523
731.593
733.644
723.633
725.352
728.250
728.434
736.869
736.131
729.997
739.260
727.955
730.757
729.765
735.821
741.529
737.949
732.077
737.704
729.398
742.336
734.489
742.322
729.983
736.103
740.353
732.722
745.715
740.604
740.664
745.067
736.406
742.468
733.529
740.970
748.904
741.146
746.761
742.210
751.063
743.117
745.613
745.493
739.352
744.779
747.049
739.314
752.076
738.785
749.894
740.160
741.939
747.373
740.607
740.258
747.431
750.603
746.160
754.766
754.543
747.587
751.831
758.330
744.683
748.504
755.617
750.598
757.749
758.149
757.963
756.874
761.004
747.171
754.129
750.390
752.167
760.502
753.396
751.654
756.382
755.449
764.501
764.605
763.314
765.246
750.854
757.445
762.584
751.381
766.868
758.750
759.678
767.068
762.425
762.503
761.682
753.497
767.000
764.666
756.476
766.147
761.552
768.406
761.640
756.166
771.776
765.415
766.154
769.861
770.926
772.312
762.283
769.308
763.701
769.152
773.859
763.693
767.424
769.026
764.622
774.825
769.185
769.309
763.048
773.296
777.696
769.942
774.754
778.822
771.007
770.157
775.815
770.796
774.295
769.395
778.897
778.993
780.260
773.798
780.433
773.789
781.811
773.187
777.952
770.872
784.698
773.091
777.991
783.923
782.884
776.603
779.691
772.311
779.037
786.623
784.240
785.617
779.307
785.215
776.310
778.746
782.909
789.465
776.010
783.347
791.441
779.883
791.447
780.226
780.137
791.217
792.998
790.019
785.487
791.801
779.100
788.235
789.867
790.151
789.541
780.687
785.180
781.423
784.805
793.503
783.800
797.191
790.324
790.892
788.468
796.911
792.260
800.462
793.401
793.590
792.053
795.119
799.715
799.360
802.952
792.666
798.815
804.779
792.861
802.712
804.405
800.567
794.116
793.608
797.279
802.219
804.204
802.156
800.765
804.185
804.742
796.891
795.445
799.999
808.099
807.838
803.601
807.517
804.911
811.531
811.998
812.885
802.901
804.972
801.285
816.773
812.564
816.952
805.991
804.041
816.160
818.014
818.684
813.836
817.698
807.557
818.186
819.300
809.743
810.686
814.163
815.971
808.994
820.480
822.128
825.552
811.257
824.044
815.598
826.073
825.518
827.023
816.928
827.680
827.345
816.615
821.028
816.964
827.203
830.833
821.595
827.630
827.770
830.027
832.271
820.813
822.042
828.961
831.716
820.463
828.411
829.371
827.660
825.635
824.586
823.238
835.834
830.999
828.090
826.565
833.705
827.727
830.996
832.841
842.304
839.882
837.046
828.899
830.202
842.630
843.217
830.563
829.863
836.250
840.975
832.065
837.527
844.502
840.869
847.111
845.309
838.396
838.640
846.106
839.920
843.832
842.491
840.612
849.175
848.697
844.965
843.596
846.115
847.199
848.038
847.488
854.932
845.691
856.438
853.057
846.214
844.474
854.347
858.822
854.475
856.101
855.902
850.180
853.204
846.792
855.205
846.582
852.311
852.370
857.845
850.329
861.530
856.786
863.021
863.611
863.613
856.643
861.482
854.112
858.296
862.955
853.406
853.678
854.383
864.999
862.822
860.677
862.364
866.536
862.818
867.958
870.335
862.527
865.023
873.663
860.461
874.009
870.280
862.782
866.133
865.467
868.094
875.042
863.864
876.016
868.049
872.620
875.833
870.415
879.551
876.066
872.454
871.390
876.169
874.009
881.053
881.921
878.654
882.007
874.161
878.104
880.173
875.876
880.427
884.639
878.987
879.724
876.648
874.060
872.326
874.317
882.601
883.823
880.395
874.025
872.206
872.613
882.324
871.988
879.762
870.384
869.262
872.168
876.771
881.895
878.515
878.626
865.928
873.692
869.586
873.036
868.779
868.781
877.182
865.631
878.515
864.721
870.534
877.780
876.198
873.704
874.622
867.426
866.370
878.610
874.974
862.759
870.296
877.067
863.047
869.326
871.182
874.457
862.694
875.435
868.077
873.043
866.460
873.748
873.045
868.527
875.910
875.022
867.296
865.265
871.566
862.556
872.538
862.437
863.601
868.922
871.136
865.706
864.179
872.231
866.103
860.560
864.444
859.955
859.368
867.636
865.612
860.411
870.667
860.824
871.527
861.446
869.962
864.835
858.989
862.263
859.896
868.952
866.380
864.906
868.845
859.629
869.621
855.977
865.270
867.207
859.211
858.648
863.085
864.896
859.113
867.698
855.867
861.299
861.853
852.758
853.761
858.628
861.630
863.875
859.658
864.494
853.165
853.109
865.369
863.321
864.791
852.606
857.286
856.867
861.430
851.327
852.987
855.818
858.094
856.122
856.699
853.830
860.048
856.929
850.143
856.345
856.868
855.060
860.886
852.401
856.052
858.628
860.224
850.478
861.933
856.380
858.584
856.522
849.496
856.931
853.475
846.871
853.440
860.528
848.700
850.260
855.863
856.977
849.218
849.364
844.978
854.513
844.410
855.937
846.849
853.507
844.789
849.652
849.455
846.003
858.905
852.708
850.104
849.942
854.633
855.720
843.766
856.001
844.911
857.371
843.394
851.717
847.015
854.591
844.307
846.450
853.504
843.636
847.741
840.639
846.007
843.741
843.194
844.774
841.517
853.376
840.327
843.277
842.111
840.463
838.694
852.655
842.642
843.024
849.717
843.303
838.892
848.014
849.915
844.530
847.431
835.088
843.791
834.921
842.862
849.211
841.924
846.730
835.908
834.683
846.908
839.372
843.592
832.627
832.634
837.951
845.661
845.311
838.159
839.867
836.375
840.216
830.977
842.584
837.291
843.089
833.984
843.031
832.694
838.273
840.948
836.274
833.833
827.211
832.625
834.466
832.074
827.235
837.582
836.079
827.599
838.171
838.143
824.059
830.401
833.637
823.438
829.564
832.494
820.940
834.674
822.650
828.153
835.742
819.819
831.455
822.902
824.727
828.115
822.881
830.385
829.913
830.204
822.016
821.951
827.145
817.162
828.311
824.636
822.806
815.614
819.616
821.759
822.177
826.702
823.752
824.620
823.806
825.058
823.688
815.228
815.133
815.849
822.370
813.709
823.192
825.538
821.868
812.160
814.217
821.180
820.250
810.672
812.856
816.692
818.917
809.009
822.439
807.612
807.767
810.489
817.977
812.017
812.633
820.024
820.334
807.040
814.656
811.935
818.486
811.172
809.423
816.106
809.827
805.594
810.740
802.699
812.115
814.097
814.600
810.895
812.581
799.613
812.620
804.495
812.529
806.726
799.180
810.757
805.210
806.708
800.128
804.240
796.625
810.027
797.872
799.896
809.849
807.571
809.167
797.851
805.659
799.195
807.537
794.900
793.678
806.441
805.344
792.595
792.447
806.585
806.752
798.541
790.566
799.798
799.681
790.537
796.170
800.885
801.939
797.777
802.146
801.059
801.781
789.891
787.317
795.101
787.122
799.299
792.083
793.365
797.534
786.141
789.136
787.309
796.809
784.076
785.549
796.687
798.706
793.427
789.850
788.807
786.447
787.783
793.558
788.193
795.032
789.374
788.127
783.904
780.785
790.185
782.820
780.887
784.644
783.869
780.402
784.519
787.240
786.626
776.739
785.788
773.669
778.451
782.306
779.562
769.267
778.071
771.805
775.327
778.370
774.315
774.930
773.473
763.872
761.193
774.389
759.732
765.072
764.916
767.795
766.669
762.175
754.379
758.211
757.472
759.833
765.782
754.271
748.785
762.701
758.572
748.074
758.729
753.284
756.668
757.344
751.764
745.096
749.513
749.881
743.409
748.855
745.587
743.629
739.016
741.213
735.123
739.238
746.145
741.755
737.464
742.429
735.712
742.526
744.708
739.811
736.549
736.461
736.908
733.279
738.780
725.332
724.470
723.181
735.573
722.148
726.130
722.618
733.075
731.082
717.733
716.710
725.045
729.184
720.000
721.395
722.370
713.254
721.830
713.264
712.875
719.610
710.083
720.196
712.218
711.776
705.529
710.749
713.955
708.249
708.014
700.845
711.259
705.096
713.459
706.776
702.880
705.978
700.293
702.538
696.477
700.250
705.948
702.535
703.468
703.474
705.029
689.468
697.966
688.100
689.335
688.134
696.900
688.188
688.627
685.646
684.146
687.173
688.706
692.732
684.854
688.779
680.775
688.300
679.116
675.408
679.093
677.820
680.879
680.408
673.489
675.848
678.071
669.031
673.607
667.180
679.927
670.969
670.712
669.516
667.089
668.946
673.028
667.239
666.244
659.459
660.718
664.340
664.269
659.802
661.523
669.586
657.985
666.423
663.798
663.144
661.044
661.655
652.704
651.531
661.980
662.517
656.112
649.472
652.385
656.043
647.487
648.813
646.067
655.727
650.263
646.328
649.469
642.962
651.176
645.873
643.532
647.160
634.916
636.116
647.302
644.557
634.326
644.896
643.159
632.743
637.962
628.306
635.100
634.331
632.388
628.908
634.053
632.173
639.721
629.689
636.908
631.861
636.546
632.367
635.738
634.108
634.055
626.238
630.495
641.235
627.390
629.500
634.567
637.493
633.746
638.777
630.721
629.900
630.286
630.856
634.332
632.080
627.608
627.792
632.651
635.651
636.666
633.643
633.903
630.195
626.503
627.728
631.795
628.683
634.849
639.087
632.817
636.569
626.590
637.440
630.943
628.844
629.195
633.981
626.982
625.213
635.763
636.846
637.497
625.761
622.835
632.257
623.657
623.559
636.131
628.717
631.637
629.590
631.059
636.616
627.185
625.695
626.260
629.031
623.653
624.429
629.435
624.659
623.434
628.564
628.481
626.361
625.026
622.547
630.531
621.822
621.293
635.761
621.074
626.564
620.941
624.344
633.107
630.334
631.786
625.951
623.464
621.715
632.495
628.367
630.700
624.868
628.394
623.033
629.459
629.836
624.257
618.671
629.029
618.820
631.228
626.331
622.519
625.970
621.174
625.336
629.541
626.158
631.994
625.073
623.161
632.365
626.882
626.827
631.136
618.026
617.439
630.352
619.988
620.654
618.887
628.287
629.516
620.909
630.589
627.204
631.047
617.238
621.517
630.947
620.227
627.072
622.095
621.335
629.708
625.532
614.707
627.186
625.438
629.963
628.955
622.556
619.608
622.664
629.225
625.874
620.491
623.898
614.691
622.259
627.536
627.538
621.618
615.765
628.499
616.253
615.404
615.474
625.429
616.436
621.609
624.837
626.001
627.315
623.448
613.673
627.609
621.108
614.182
614.112
615.459
613.869
623.866
613.127
612.590
617.865
620.435
615.491
620.600
618.466
624.027
618.794
617.018
614.165
612.536
619.929
626.214
614.765
620.645
611.405
611.308
620.275
619.534
622.267
621.968
625.822
632.003
621.812
621.152
633.552
633.071
627.871
633.453
636.850
631.907
635.817
634.604
638.535
640.453
639.254
647.698
650.647
644.642
638.842
645.367
644.683
647.102
644.244
658.550
649.182
662.270
657.342
660.594
654.121
660.326
660.774
661.908
665.826
662.053
673.089
671.158
664.015
677.890
671.254
679.526
670.532
674.685
675.754
681.972
686.091
679.706
682.153
688.812
680.069
681.751
681.244
685.388
686.928
685.084
689.406
692.614
700.371
691.201
693.234
693.727
694.423
699.151
706.094
701.860
707.453
705.573
713.760
718.168
714.945
713.436
708.296
718.177
719.853
725.763
712.418
727.205
727.008
718.747
722.833
731.453
733.861
731.052
736.528
732.846
725.084
732.948
729.738
742.995
741.604
732.863
734.605
747.348
736.754
739.708
740.115
744.129
746.561
747.430
745.794
753.064
750.617
753.686
759.632
751.326
751.661
756.621
765.326
768.481
769.305
763.250
767.026
771.416
762.830
773.785
773.865
766.884
770.099
779.951
771.875
783.412
788.067
779.239
775.280
787.055
781.575
786.012
787.503
791.510
791.087
787.232
785.765
793.437
796.155
800.690
799.437
801.061
805.691
801.583
803.974
802.721
809.852
809.237
815.264
806.382
814.964
819.278
821.824
819.829
821.177
812.818
825.632
828.206
818.818
830.213
830.595
825.987
825.373
835.663
834.306
830.165
826.679
829.424
833.755
842.611
830.745
835.218
837.612
849.584
849.351
841.907
852.094
852.966
846.815
848.454
843.826
846.931
854.480
849.404
853.807
850.182
852.459
857.716
862.978
858.175
857.295
866.914
867.120
874.049
872.636
873.342
877.081
869.103
872.765
881.572
875.879
884.549
