380.453
346.274
392.465
377.687
387.792
407.585
395.805
385.465
395.190
376.320
388.437
412.308
431.554
430.003
394.697
417.848
401.818
414.422
449.919
426.153
425.743
416.315
430.921
137.926
136.237
140.503
136.056
140.583
149.228
141.172
147.315
139.980
151.190
145.642
148.640
157.705
153.292
149.302
146.632
160.390
151.325
162.776
165.968
160.160
154.023
162.435
161.851
162.957
168.690
171.332
168.563
175.248
162.691
175.451
170.584
165.578
174.184
175.507
170.680
183.127
176.262
184.640
181.185
175.166
185.687
188.209
183.849
187.742
183.549
187.210
186.819
188.621
186.970
191.377
194.072
195.272
202.197
200.316
201.053
197.256
198.816
193.082
203.655
198.075
200.977
208.654
201.674
214.040
209.613
215.081
218.015
204.208
209.360
215.045
215.436
214.069
220.813
223.619
214.576
217.320
225.383
226.341
221.801
230.122
219.035
218.413
233.115
235.912
229.323
230.064
237.313
228.411
235.930
232.551
239.715
240.456
241.638
232.023
233.884
234.840
245.699
247.481
247.175
241.415
249.535
246.770
246.873
249.127
255.505
250.822
245.706
255.108
250.288
250.237
259.367
258.193
259.240
264.642
266.450
267.163
256.264
258.696
265.574
263.602
264.192
274.547
266.009
276.618
278.866
273.099
276.490
269.547
269.035
270.308
282.183
284.077
283.337
283.337
281.442
280.415
278.844
281.727
283.727
287.221
288.777
294.087
289.825
298.024
287.380
302.921
301.457
302.549
296.046
296.025
297.364
294.141
305.405
306.253
308.409
301.853
302.667
313.132
315.170
306.244
308.280
317.163
319.808
308.570
316.800
311.242
320.378
326.505
315.102
314.230
319.046
325.359
323.039
326.248
324.047
321.383
328.371
332.543
333.239
328.204
333.637
332.280
332.778
329.788
341.621
340.179
343.528
343.652
343.602
346.145
349.806
350.854
340.414
353.375
349.645
355.700
345.265
356.684
357.827
345.416
360.968
351.573
351.326
353.485
358.691
364.774
358.776
358.059
364.502
354.414
361.774
370.135
362.693
372.205
361.976
367.975
375.426
364.570
367.992
368.065
365.754
369.071
380.223
383.643
371.539
374.537
375.451
374.377
387.986
386.204
387.845
379.811
383.655
388.983
394.867
386.905
384.389
386.255
394.792
394.300
401.451
397.789
395.203
395.964
393.937
400.676
407.722
395.166
401.108
403.961
406.604
407.057
403.576
405.639
403.634
404.860
402.760
409.481
419.686
410.629
421.667
412.989
410.499
410.834
422.354
423.189
414.107
417.288
430.165
422.357
430.851
419.794
426.596
425.745
427.839
427.596
437.374
429.035
437.984
434.566
436.961
437.636
437.397
441.884
433.226
432.791
446.590
437.868
450.298
440.755
450.927
442.343
449.189
442.148
443.555
455.017
444.051
448.455
451.846
457.924
452.756
449.602
453.788
455.830
461.067
463.111
455.839
466.885
463.913
460.822
473.277
465.893
466.602
465.466
474.036
468.568
469.573
475.227
476.768
471.723
474.230
475.546
473.718
474.167
486.608
481.921
478.971
481.156
489.207
477.665
494.103
491.158
491.170
483.031
493.142
490.970
496.629
491.185
486.803
489.010
502.553
496.984
495.585
501.583
494.548
506.289
495.081
500.125
512.762
504.934
511.217
500.293
507.357
503.600
512.040
509.541
515.793
515.077
520.531
508.950
516.449
520.974
524.429
525.250
527.764
529.784
521.898
518.865
526.477
525.452
532.602
522.786
526.649
538.101
528.638
534.432
539.506
542.307
537.440
537.466
536.711
534.712
542.400
542.254
539.363
543.293
536.982
549.521
537.846
544.524
550.685
542.246
552.318
544.070
555.772
554.671
547.012
556.037
553.298
557.545
556.753
565.443
566.452
567.682
559.824
560.837
561.982
564.152
558.430
561.732
563.092
566.313
576.243
572.247
569.263
565.512
578.452
569.636
579.113
575.870
583.339
584.374
573.797
571.523
580.639
583.387
585.877
576.981
587.684
581.833
585.348
592.910
581.848
589.257
589.376
585.490
597.666
595.376
588.777
602.292
595.025
595.770
589.861
592.632
607.076
604.937
603.769
600.929
608.223
604.629
597.882
603.700
609.469
603.664
606.676
612.013
611.808
615.557
607.691
616.244
621.773
621.273
622.096
621.940
626.691
615.541
619.015
614.396
615.000
628.312
619.659
629.998
625.689
627.838
622.878
637.307
628.256
627.581
626.873
626.533
636.348
634.001
634.379
632.784
636.660
645.922
632.804
648.425
648.458
639.189
639.318
648.905
650.551
641.234
642.892
643.903
647.466
653.205
658.544
648.595
648.246
652.548
656.515
655.570
652.582
665.937
666.681
655.243
663.945
656.277
663.307
663.501
659.766
668.315
664.274
665.465
671.631
671.955
668.449
667.850
672.706
679.050
670.053
672.365
682.549
677.277
672.187
672.506
686.198
680.870
688.761
683.788
688.308
693.278
687.414
695.586
688.563
684.280
688.150
697.701
684.970
689.733
691.527
695.171
701.474
695.786
702.600
705.047
697.029
707.977
700.031
708.676
696.664
701.249
699.157
712.874
711.648
711.315
716.710
711.986
711.831
705.941
718.586
720.714
713.592
716.928
713.221
713.562
724.159
726.334
724.852
721.794
727.566
728.941
724.890
720.445
730.233
727.770
722.358
734.019
732.342
724.678
725.065
722.156
722.068
723.412
733.332
726.162
738.461
731.566
733.482
736.742
735.313
732.957
736.920
727.050
740.108
736.329
739.555
726.832
727.758
730.710
737.387
738.783
731.363
732.758
737.170
738.008
736.310
733.703
740.104
743.783
743.994
734.809
737.405
744.570
742.997
741.293
748.066
739.962
746.514
734.352
739.046
739.732
744.028
743.966
738.506
742.430
739.223
745.811
739.145
737.087
741.361
744.823
748.501
749.580
751.909
742.283
746.421
750.228
752.381
754.090
752.290
750.087
751.106
755.045
750.131
742.373
748.673
754.952
745.019
745.758
755.986
750.217
750.936
750.892
753.889
753.754
759.700
751.975
761.280
756.561
759.466
760.698
762.599
751.613
762.453
758.730
756.859
761.080
754.874
757.846
756.009
758.781
766.233
760.902
753.515
763.459
765.035
764.676
756.904
766.003
768.640
761.724
766.833
756.403
756.867
756.851
760.942
765.954
770.366
770.334
768.844
763.814
768.928
768.303
762.177
770.287
759.827
765.370
773.847
759.766
762.922
762.171
773.033
767.718
776.384
769.658
776.778
773.167
773.900
776.373
772.216
779.177
768.175
765.543
776.118
767.693
765.413
780.615
773.802
772.689
767.413
774.679
775.570
771.469
769.057
776.915
770.257
781.389
772.628
778.049
771.499
782.773
776.351
774.708
774.798
782.246
787.003
772.052
772.767
786.425
782.287
779.367
776.718
779.277
783.920
779.623
786.598
783.027
788.689
782.603
791.901
789.414
784.467
779.465
787.456
785.633
787.483
783.053
793.457
786.573
781.212
788.818
788.882
788.774
782.996
791.815
786.306
789.398
789.881
796.931
789.308
793.346
795.130
790.009
798.237
785.046
798.008
797.162
786.126
797.273
794.104
802.393
788.137
798.624
791.518
804.003
792.125
790.912
799.657
796.346
796.763
804.153
806.327
798.163
795.926
806.439
805.934
802.187
804.194
798.163
799.917
803.593
796.855
807.614
797.375
801.436
799.403
813.125
799.372
801.636
804.329
808.076
804.108
805.379
805.113
810.064
812.977
803.535
808.941
803.956
816.920
809.500
810.296
819.330
805.432
807.445
814.002
817.472
811.219
808.528
810.766
822.722
821.242
817.239
814.652
822.352
821.847
819.152
811.809
818.822
821.632
819.078
827.806
816.925
827.737
828.682
827.553
826.185
816.739
824.131
829.442
821.467
818.308
832.068
833.047
826.549
826.149
827.695
829.924
825.790
834.228
835.280
825.201
831.937
824.989
837.493
838.177
835.882
828.863
833.293
838.361
837.397
835.370
839.353
836.307
839.851
828.776
842.364
833.695
829.872
834.138
835.270
831.989
840.206
831.288
838.854
840.001
834.755
846.633
844.524
838.177
835.489
843.029
835.943
848.509
844.810
845.269
849.730
838.621
850.360
842.449
853.938
851.845
840.168
845.556
847.610
846.097
855.187
853.540
852.142
852.811
856.145
854.836
855.318
855.746
852.948
857.776
860.542
851.736
861.197
860.605
858.225
859.279
848.421
850.672
860.221
855.002
854.871
864.007
864.475
861.217
853.627
858.989
867.383
865.527
866.655
854.585
864.735
869.387
860.438
861.451
858.864
859.422
870.302
858.062
869.873
866.577
864.560
861.903
867.310
872.948
870.514
862.515
874.868
862.620
877.575
863.020
864.067
863.959
866.557
875.923
874.632
877.775
869.958
873.684
878.273
874.515
867.034
876.269
878.397
869.589
877.151
881.983
872.731
873.610
872.280
881.750
880.343
869.667
872.564
884.539
883.577
871.802
876.712
878.744
880.436
883.594
876.339
879.015
881.232
868.925
868.937
867.349
872.090
871.371
868.496
879.168
871.057
877.505
866.296
878.565
865.812
869.561
879.726
880.913
869.311
879.898
865.096
876.516
874.997
865.902
874.767
869.328
867.074
873.075
874.351
876.581
873.549
865.402
876.073
877.412
864.120
864.774
864.026
866.317
864.172
868.619
863.442
861.567
876.013
862.012
863.281
864.187
872.821
864.043
872.475
868.384
871.318
867.534
861.833
867.453
871.051
867.897
866.638
865.940
864.585
873.760
866.373
866.102
873.727
858.447
860.279
864.283
867.563
869.913
867.064
868.069
856.988
871.798
871.027
864.881
857.730
870.224
861.175
865.155
859.968
868.415
859.499
866.398
858.726
857.155
861.271
869.024
867.156
857.607
857.272
856.502
856.686
868.832
853.680
857.208
861.570
859.279
864.728
859.776
868.411
853.170
855.051
854.385
866.476
865.641
862.919
862.856
864.690
853.714
855.073
857.344
854.876
852.553
864.732
851.534
857.834
864.630
860.706
856.415
852.467
854.691
854.018
860.497
851.323
850.067
856.204
848.906
851.258
856.487
849.931
858.011
860.094
852.655
853.676
848.277
861.240
857.349
850.377
853.141
859.183
858.616
854.172
845.836
857.748
850.204
856.105
845.477
857.519
855.528
859.090
855.062
845.255
845.179
854.038
855.535
853.749
856.546
850.032
850.348
850.439
844.635
855.460
847.384
842.469
857.396
854.055
850.784
856.355
854.979
851.329
849.621
849.460
841.786
845.089
846.911
853.465
854.465
842.117
843.384
849.059
853.752
847.722
840.384
851.418
841.942
846.293
841.479
850.558
847.812
850.975
843.556
846.924
843.336
839.443
840.080
849.630
845.697
843.376
837.254
839.960
841.116
850.065
837.172
849.051
842.741
838.257
846.379
835.881
835.782
834.169
834.217
844.604
846.507
839.821
844.228
842.371
845.661
844.151
838.826
830.840
835.714
837.356
833.516
840.074
829.050
843.557
839.918
830.633
840.319
835.648
832.132
828.803
840.780
832.417
837.323
835.144
838.483
835.182
830.632
832.269
836.760
835.121
838.582
822.521
834.932
825.872
822.435
823.269
830.043
823.940
824.719
831.675
834.550
829.484
819.614
830.576
821.915
818.734
823.011
828.511
822.837
826.151
831.786
829.596
831.118
824.924
816.424
830.670
817.527
820.428
820.526
825.927
814.964
826.623
822.826
813.984
816.107
819.505
813.146
812.590
823.790
817.852
815.547
813.588
824.933
823.494
814.649
813.061
810.930
821.151
814.385
818.499
822.397
812.061
812.432
814.301
819.031
813.780
810.585
812.744
821.216
815.809
818.572
807.914
812.117
815.497
814.138
818.856
808.626
809.771
803.417
804.034
808.115
816.138
814.717
809.852
809.436
805.781
804.509
806.583
815.460
805.312
805.391
814.576
806.012
801.096
803.859
804.290
809.023
812.987
809.409
803.513
803.469
804.844
799.358
810.478
802.510
808.497
802.482
794.650
803.583
796.159
803.689
807.173
801.658
795.353
804.450
797.673
793.187
798.085
794.791
804.698
797.418
790.826
798.027
792.304
801.999
793.115
794.486
794.519
795.444
789.353
797.237
792.287
792.201
792.404
792.954
788.889
794.590
795.271
795.519
791.870
785.877
798.616
796.162
783.720
795.619
792.488
787.258
792.283
786.079
793.897
795.701
783.000
788.277
782.430
791.799
796.110
782.302
791.967
784.794
780.279
782.854
783.175
778.326
776.745
774.805
783.590
786.907
771.971
778.082
777.141
781.250
783.792
783.571
773.037
766.290
773.800
780.365
767.074
769.321
772.743
765.451
771.561
775.642
773.972
773.088
762.986
757.509
771.718
765.804
758.104
762.769
768.722
763.638
762.099
754.610
754.470
751.259
751.146
749.226
751.337
750.560
752.563
760.780
756.310
747.397
747.701
745.415
742.325
755.648
745.929
754.565
746.542
741.533
749.827
740.356
748.404
741.518
738.239
747.741
733.042
746.179
735.514
741.117
733.314
741.523
732.481
742.431
737.832
738.807
726.577
732.634
733.637
736.323
726.158
723.485
726.111
722.682
727.091
729.033
728.702
730.309
730.719
729.125
718.917
718.781
720.218
726.501
725.042
724.961
720.198
716.840
717.228
708.467
720.396
709.177
719.006
704.160
704.948
714.014
712.826
705.912
714.701
705.603
707.994
702.432
711.804
708.834
699.185
700.628
695.791
708.399
699.565
696.315
697.235
700.420
702.982
693.136
690.941
687.719
687.294
698.270
700.006
686.514
690.274
695.097
683.091
695.844
681.997
683.344
683.196
678.915
686.358
685.814
687.805
679.975
683.966
681.485
679.041
683.058
681.064
674.353
672.866
681.851
683.345
676.276
666.830
675.910
668.243
678.036
675.172
668.538
676.551
670.245
672.141
666.747
666.432
668.132
672.901
658.503
669.986
669.503
661.993
656.653
662.115
652.221
655.628
659.921
652.146
652.090
656.453
653.061
656.720
645.869
658.938
649.749
653.366
644.893
644.733
648.382
648.286
646.680
640.850
651.795
648.144
641.453
649.094
641.786
643.005
649.408
641.467
640.755
635.681
638.042
640.851
640.122
634.584
634.038
638.546
635.327
633.956
631.381
632.423
631.200
638.487
637.441
640.599
627.252
629.194
639.926
632.557
640.951
639.826
640.568
629.194
630.158
629.572
635.479
632.365
628.160
627.344
625.962
628.572
634.508
640.912
637.829
633.669
625.850
626.812
640.288
638.755
627.555
637.562
636.209
626.899
629.985
627.233
638.650
630.797
632.614
629.286
626.346
639.361
625.346
625.039
628.791
629.262
630.122
631.564
626.298
623.109
634.504
632.882
628.914
630.252
626.341
632.807
628.524
632.601
637.881
625.613
633.275
637.152
623.709
625.079
624.105
632.980
634.070
628.615
634.244
625.665
631.511
635.544
628.637
632.333
624.000
629.641
622.719
622.987
625.005
621.145
634.328
624.787
632.551
632.239
625.075
621.550
622.928
626.901
624.016
619.948
628.938
621.698
630.666
623.607
629.750
628.049
628.655
619.362
630.143
631.486
620.336
620.535
626.437
628.799
621.709
629.735
621.565
619.203
632.863
619.978
629.397
632.838
622.528
630.786
617.883
621.658
626.412
632.237
623.377
622.108
630.353
626.598
624.308
628.040
631.746
623.182
622.718
616.981
630.318
616.920
625.175
626.791
628.616
629.316
620.793
615.675
615.567
618.605
628.879
629.111
619.015
621.433
618.890
615.490
623.449
617.370
628.079
625.012
616.938
625.491
624.297
624.759
619.049
614.047
615.139
613.979
621.748
622.342
613.542
621.147
620.847
616.989
620.796
626.796
624.497
622.183
626.045
622.275
622.703
623.881
622.759
613.885
612.114
615.358
612.104
619.223
612.260
622.891
613.336
623.266
623.597
614.080
624.960
620.080
626.294
617.476
614.446
615.896
621.282
615.006
618.495
611.231
624.706
624.987
616.585
615.171
613.767
625.097
617.551
625.742
622.339
624.834
632.620
631.214
634.395
629.372
634.311
633.711
634.442
627.654
643.989
642.030
636.244
632.775
644.579
640.584
644.798
652.042
639.233
655.691
653.042
649.481
648.990
656.198
659.499
655.480
649.313
666.382
657.347
653.481
667.162
663.092
663.014
671.387
672.178
663.629
671.581
679.174
668.550
670.984
676.502
674.370
682.920
683.388
681.871
675.470
683.647
682.597
683.650
683.972
682.285
691.612
698.759
690.102
696.208
692.838
696.953
696.511
699.981
705.416
708.540
697.346
706.670
698.372
712.558
707.716
712.898
702.879
717.454
720.822
715.776
712.713
711.581
715.001
720.221
719.017
729.180
727.453
720.885
726.124
719.857
722.736
736.613
739.604
728.296
734.245
737.333
729.719
731.981
731.796
736.524
735.346
749.871
744.946
744.745
747.561
755.919
757.270
745.629
760.700
760.129
755.963
757.596
753.189
753.099
755.451
755.905
769.997
764.137
769.080
760.849
760.580
774.858
767.464
767.900
778.397
780.273
771.158
778.731
772.727
776.108
780.888
775.501
787.146
779.489
783.104
789.454
794.517
788.056
798.654
789.085
802.386
792.164
794.648
791.512
798.767
807.482
805.419
807.702
807.338
808.765
810.113
802.309
804.391
818.160
811.461
810.501
813.644
813.367
824.144
814.730
815.700
816.705
827.077
821.954
821.309
833.990
834.850
836.256
831.543
835.782
841.578
840.032
841.094
841.426
840.366
836.161
849.422
843.401
851.801
837.865
841.015
847.907
841.909
852.467
847.996
850.456
857.403
859.901
851.762
859.146
857.223
863.267
863.692
866.620
863.612
867.031
872.837
868.374
868.044
877.502
871.554
875.741
871.503
873.703
875.004
