603.816
607.650
601.266
613.364
613.775
614.399
618.242
606.639
609.368
612.282
611.741
615.890
621.517
624.426
618.514
625.689
623.882
619.668
628.177
625.657
621.749
628.424
621.124
619.426
620.773
627.419
634.739
621.113
627.943
629.682
624.217
631.213
629.887
633.245
632.490
634.326
637.108
638.330
632.662
640.358
641.307
632.692
642.139
639.773
637.153
635.100
644.242
644.279
643.650
650.570
647.568
649.547
646.569
651.643
647.351
657.862
658.830
645.023
660.826
654.913
649.651
658.523
654.047
654.822
657.128
663.927
662.291
658.465
660.167
663.491
661.628
662.845
667.571
664.904
669.419
665.479
673.466
667.329
670.007
674.513
673.748
666.975
664.798
665.838
676.327
667.286
678.712
677.445
681.660
673.808
673.124
687.095
676.239
689.075
679.531
685.767
691.163
687.668
689.193
679.298
682.791
680.432
687.962
686.160
684.984
691.934
684.589
692.442
690.491
692.882
696.925
696.270
694.439
704.156
697.225
694.269
692.782
697.334
704.534
705.800
697.497
705.516
707.350
713.707
699.463
702.216
709.097
712.127
706.739
705.614
712.461
719.472
715.294
707.916
712.065
713.903
714.713
722.251
722.634
711.861
722.073
720.825
716.069
726.143
730.715
729.361
720.175
731.000
721.508
726.471
727.182
727.911
736.509
727.986
733.969
726.265
728.067
732.688
734.970
731.853
739.586
744.319
737.063
744.348
739.821
732.297
739.966
747.793
735.852
735.468
746.851
738.842
745.270
753.641
754.307
741.312
748.476
748.558
748.521
748.166
760.047
758.154
756.294
753.942
757.303
750.142
755.867
758.186
751.504
762.868
764.220
768.276
768.815
757.651
757.914
761.001
772.137
761.099
765.432
764.178
774.403
766.194
773.568
773.694
772.477
769.994
762.371
772.011
766.240
765.616
774.118
775.795
767.951
760.558
774.573
766.531
763.251
762.400
769.088
771.001
776.153
767.227
763.221
773.471
761.324
767.779
769.960
772.642
774.701
775.331
769.104
776.556
775.664
763.931
769.879
761.998
773.616
775.606
766.117
770.039
766.755
770.813
773.631
763.845
764.844
772.291
770.063
769.741
766.249
769.025
766.452
765.216
772.610
773.997
761.273
767.576
769.231
762.518
775.864
772.854
766.751
771.318
772.123
763.086
776.403
765.024
763.494
761.249
765.591
767.569
762.309
766.337
776.827
774.989
769.616
763.102
773.582
771.905
765.634
769.844
771.661
761.955
762.186
764.056
775.904
765.177
763.807
763.143
767.752
763.457
777.184
766.854
761.867
763.615
772.364
776.770
763.166
761.933
774.239
765.578
774.919
762.539
768.724
775.898
763.965
774.816
771.399
770.593
776.419
775.134
771.880
766.386
768.042
775.885
769.661
772.064
763.761
761.495
777.427
765.546
768.605
764.206
764.269
771.507
774.344
768.906
769.222
764.636
773.797
774.767
763.493
775.948
774.013
773.968
766.325
762.540
762.893
775.850
775.150
762.553
777.212
767.590
772.085
765.402
767.305
776.563
777.705
770.722
776.144
777.309
764.385
770.570
775.263
773.279
776.686
761.912
776.460
776.162
770.015
764.282
768.901
774.529
768.147
775.445
773.407
762.661
773.300
774.277
775.611
763.678
773.057
764.635
766.861
775.771
774.346
767.615
766.424
769.762
773.338
767.462
770.894
764.078
769.774
770.828
767.733
775.223
763.299
764.023
774.932
766.079
774.913
774.754
775.371
771.733
774.201
767.009
776.601
765.404
769.919
764.899
773.792
762.926
767.315
778.818
766.399
766.453
769.013
767.368
777.402
778.977
773.525
781.735
773.893
773.363
775.503
783.832
785.440
772.728
781.932
780.016
788.548
788.077
780.637
784.170
786.577
789.273
788.479
783.642
781.086
784.516
794.785
788.298
791.348
786.522
787.384
787.785
790.643
799.459
791.713
791.576
798.437
798.855
788.137
790.449
799.841
796.068
796.672
802.587
795.803
796.235
793.300
805.684
797.437
803.754
807.673
798.075
805.266
796.595
799.744
805.709
810.123
812.939
806.316
803.033
804.259
803.218
804.555
812.863
817.362
809.124
816.396
811.380
817.043
810.905
813.039
806.438
813.262
812.184
814.354
812.557
822.302
818.659
813.983
820.884
818.756
818.378
825.878
827.215
813.972
822.271
824.887
826.164
822.230
819.098
828.216
832.348
826.157
821.179
824.366
822.642
825.681
829.272
825.273
824.988
832.629
833.347
826.510
840.079
840.677
833.659
838.439
836.643
841.167
842.392
831.665
842.095
843.104
844.127
842.626
835.502
836.647
842.702
845.454
835.717
838.900
839.422
851.584
844.643
846.839
851.976
845.230
854.234
844.932
845.291
848.098
845.648
854.122
843.326
845.916
855.795
853.011
853.901
861.256
855.288
848.726
851.751
861.962
853.146
852.818
857.899
859.576
863.167
865.463
862.799
862.130
856.003
861.398
866.337
863.706
864.604
872.029
867.068
864.772
867.007
868.691
873.782
870.784
860.883
875.306
872.928
862.804
870.349
870.375
876.602
865.029
877.840
870.916
869.521
882.579
867.817
881.185
881.207
883.272
883.472
872.149
881.764
873.403
878.537
876.225
879.793
875.160
887.886
879.701
887.769
879.937
885.227
886.402
892.815
883.943
888.891
892.047
895.558
888.454
884.035
891.319
890.192
884.261
886.267
881.456
895.621
887.102
886.639
887.962
880.681
889.544
891.104
888.245
880.209
886.895
889.544
882.809
893.397
886.370
880.463
882.796
893.776
889.444
881.387
881.446
891.483
885.631
891.344
889.660
883.369
886.868
889.528
881.003
894.857
886.654
893.305
883.701
883.126
888.639
886.433
881.732
882.133
890.447
883.469
880.619
882.181
894.248
883.023
893.359
886.457
892.110
882.767
883.617
895.060
886.823
887.340
896.332
886.473
889.925
891.549
895.642
892.237
895.070
885.375
885.346
891.906
891.338
894.252
891.723
885.662
891.697
894.348
886.235
889.770
893.470
883.185
882.630
894.449
882.082
892.405
882.198
893.241
896.008
897.057
886.666
885.964
885.435
892.005
884.320
896.895
887.038
895.964
894.966
889.493
890.981
887.819
888.735
891.312
887.967
887.941
895.318
882.320
893.871
884.539
882.886
885.950
890.299
896.631
886.155
885.937
889.159
895.467
882.741
890.691
895.785
885.100
897.512
892.186
888.362
884.515
884.691
891.854
893.867
896.525
884.781
886.268
894.653
895.075
892.096
893.907
890.358
892.883
887.277
891.812
889.935
892.439
882.459
895.323
889.645
887.465
892.665
887.433
894.789
893.451
889.260
886.572
893.172
896.239
895.983
892.237
893.494
887.230
890.470
884.213
894.014
889.903
885.021
889.747
893.479
895.040
884.508
886.458
884.942
890.794
883.057
883.220
889.068
898.746
894.330
891.410
895.384
889.261
893.906
886.423
887.391
893.823
889.903
896.757
884.160
893.624
898.938
896.116
884.049
888.144
890.229
890.184
885.953
898.134
885.766
884.695
885.199
897.018
886.824
896.693
883.690
898.140
889.649
894.644
883.847
885.282
889.784
896.343
890.427
894.847
895.752
889.664
892.916
889.178
886.443
885.647
885.308
894.411
886.370
886.018
898.476
897.679
890.024
886.493
892.608
896.153
892.274
891.495
891.331
885.652
890.978
897.859
899.021
892.035
889.627
898.203
889.816
897.863
895.090
885.878
895.495
891.675
891.596
892.949
895.882
894.973
885.334
888.456
886.646
890.403
891.303
893.217
889.071
896.328
889.286
883.024
886.019
883.289
896.168
885.522
887.868
890.213
887.996
890.934
893.809
898.173
895.514
891.885
884.920
892.888
891.322
887.088
891.314
883.394
896.472
888.688
892.087
896.644
888.025
890.119
885.141
890.938
895.348
884.385
897.173
888.034
890.255
895.427
893.735
895.529
885.821
888.476
887.594
897.684
893.232
885.282
892.343
892.993
883.314
888.946
891.392
887.978
882.712
885.659
893.087
898.215
882.981
897.192
892.511
888.961
896.691
888.963
893.301
892.354
893.444
894.279
893.658
889.523
891.132
894.874
898.332
893.094
897.266
885.839
883.892
887.375
890.880
883.519
893.897
888.443
890.595
890.871
885.818
895.666
884.972
896.320
882.684
895.726
889.105
885.382
891.918
893.147
891.401
886.375
897.980
897.560
889.343
882.393
886.100
895.209
891.752
885.799
895.492
892.724
896.503
893.777
895.859
887.036
894.598
886.744
897.054
891.042
883.648
893.320
882.946
885.687
893.144
888.418
895.954
895.454
897.353
882.623
886.429
890.445
890.648
891.489
881.975
884.556
889.071
890.390
882.574
891.810
896.803
890.338
885.375
891.520
884.486
888.001
891.952
895.688
894.377
891.856
888.299
894.485
893.769
882.557
892.071
891.672
896.429
885.130
884.633
883.711
890.202
895.368
895.800
894.802
895.676
897.162
891.459
886.627
886.837
896.674
896.844
888.886
894.123
892.740
887.188
900.286
886.722
886.990
898.027
895.443
898.969
896.283
893.784
898.608
903.133
903.651
903.789
894.652
902.614
901.206
890.301
899.924
903.718
890.696
905.054
900.668
903.810
897.078
905.043
896.752
896.708
898.459
900.024
898.435
903.120
905.371
894.927
904.301
902.831
897.416
910.227
903.971
905.082
898.942
899.745
902.696
911.170
900.775
909.190
909.044
910.389
910.047
908.696
901.360
911.255
905.809
907.640
910.672
909.836
903.824
904.739
908.119
902.667
914.856
914.385
902.271
907.148
913.887
908.737
913.036
908.680
912.979
911.129
918.155
916.291
916.993
908.609
908.642
908.759
907.696
917.682
911.766
921.897
917.100
915.995
908.169
912.026
914.736
920.855
922.037
915.378
910.399
920.899
916.662
921.646
921.932
911.874
916.834
926.355
926.478
921.238
926.247
914.607
920.494
918.143
914.132
916.229
923.571
920.639
926.129
918.489
915.842
925.839
931.076
919.526
922.539
921.589
925.804
922.981
923.142
926.375
922.237
918.700
931.064
930.339
920.186
932.779
919.328
922.223
924.094
923.633
927.908
927.780
933.976
927.914
927.824
924.464
928.017
932.944
932.512
930.609
934.495
931.220
936.782
927.601
933.743
930.597
938.798
925.675
926.504
938.939
930.559
933.577
937.923
937.507
940.283
935.135
938.654
933.127
941.232
936.824
930.382
942.177
942.993
941.417
933.186
932.018
940.220
943.897
934.328
942.541
944.208
946.597
947.246
935.873
947.785
940.723
933.541
941.219
935.168
945.647
943.894
937.487
938.312
945.925
945.183
939.100
938.559
947.643
948.850
936.946
948.995
936.672
946.068
943.890
940.178
936.235
945.557
939.276
944.550
934.132
935.942
939.052
944.339
928.849
931.126
941.819
941.014
927.862
934.096
935.290
925.666
934.677
933.037
936.349
923.784
929.517
929.967
926.702
934.118
928.058
926.456
929.996
927.532
923.103
932.180
922.312
926.580
916.074
927.627
915.872
913.584
923.050
915.433
917.790
920.190
919.845
923.749
915.507
914.300
910.791
922.568
914.965
908.022
912.164
912.114
905.639
908.118
919.779
916.291
916.092
905.288
902.139
910.053
910.099
905.172
909.043
914.869
907.159
913.107
905.122
911.158
899.876
905.224
909.626
907.590
905.566
904.676
898.614
893.420
894.733
892.515
899.947
894.906
897.710
892.732
901.921
901.242
893.247
898.340
890.254
900.034
892.418
898.932
895.241
894.020
891.593
883.572
891.839
887.663
890.533
882.863
883.617
894.701
890.023
890.780
880.122
887.521
877.111
886.282
876.327
878.729
878.279
885.643
877.445
886.864
885.365
886.405
874.097
884.349
874.297
875.143
870.052
870.832
880.295
869.556
868.462
878.157
875.574
868.561
869.464
876.740
863.984
869.886
871.548
866.538
863.644
873.165
861.030
861.582
867.105
872.958
859.505
861.590
864.126
870.929
867.641
859.921
858.962
868.881
864.481
863.533
864.066
865.568
852.569
863.717
857.422
849.892
862.774
860.543
852.289
852.226
852.024
849.417
854.678
859.486
856.159
854.385
855.325
854.682
856.410
849.234
844.307
852.419
849.634
840.622
838.770
852.709
838.080
845.357
847.975
838.119
835.846
850.096
846.083
837.046
846.766
847.153
843.410
846.915
840.002
833.353
838.766
843.549
836.964
830.642
835.817
837.680
827.578
829.904
827.109
835.875
829.363
840.282
826.334
835.069
836.692
832.488
824.565
836.309
833.380
828.104
834.382
831.574
836.275
826.309
837.145
823.774
832.973
836.771
825.531
836.288
825.251
834.264
823.522
830.248
833.361
824.132
827.179
825.176
821.902
832.454
824.000
823.885
821.125
829.552
826.675
828.462
827.172
836.199
835.929
834.399
835.363
829.778
829.389
835.468
820.508
834.604
819.254
825.138
824.217
822.126
820.402
832.381
824.453
821.232
819.225
827.937
827.956
822.646
829.001
827.039
818.910
824.405
821.897
823.040
817.766
832.259
828.179
818.088
827.805
819.189
818.886
830.074
820.754
830.961
822.965
827.007
825.890
822.472
829.134
826.536
825.422
829.598
829.412
822.738
816.728
821.027
822.757
825.847
829.427
817.636
824.286
817.099
818.353
823.992
822.613
823.495
818.850
821.250
828.876
815.000
828.352
821.622
820.856
821.115
817.398
824.755
826.783
812.594
821.240
825.215
824.504
824.974
824.814
819.073
824.356
825.618
815.021
819.477
817.708
819.610
810.939
818.865
810.905
810.353
821.920
812.664
818.027
810.826
813.115
821.216
812.874
810.618
817.042
818.644
814.827
812.814
811.999
810.039
816.742
819.950
819.618
811.420
811.068
817.270
809.657
817.786
814.691
817.119
814.933
817.553
814.673
822.453
811.923
811.427
808.749
813.775
821.533
813.480
811.851
818.636
810.101
806.911
819.675
814.103
820.691
806.865
812.056
820.081
814.640
819.258
806.507
805.504
809.623
817.814
805.942
817.933
805.422
816.560
815.164
811.501
807.087
814.930
812.883
811.739
809.320
808.341
817.072
817.086
803.871
818.003
814.432
816.879
814.231
814.310
809.183
810.698
803.448
811.229
803.725
807.465
800.598
802.793
793.386
787.983
786.643
782.382
781.039
777.258
780.219
781.774
764.675
771.214
760.878
755.842
763.199
752.809
759.111
755.280
754.061
745.851
737.948
736.968
733.872
732.017
722.439
731.361
719.939
713.452
711.819
717.865
717.286
714.918
710.334
700.876
704.484
694.136
699.887
689.212
688.572
676.302
684.132
685.331
680.010
678.042
660.423
663.737
668.733
665.450
657.168
656.144
652.698
645.281
641.083
634.848
636.754
629.241
636.724
626.984
620.380
630.084
623.038
612.285
606.327
616.223
614.126
609.964
603.290
598.223
589.153
591.940
587.934
590.428
582.875
574.078
580.301
573.590
577.533
566.583
565.645
553.213
552.342
555.385
543.925
546.790
540.227
542.980
541.133
536.678
536.352
527.876
522.437
521.160
513.595
523.507
518.086
510.310
501.712
503.737
496.199
496.050
494.194
492.576
494.656
493.527
484.448
480.474
470.598
481.755
472.226
465.323
469.426
458.497
465.663
464.368
451.319
453.029
450.267
450.943
443.117
436.651
438.466
431.677
434.150
424.824
423.954
417.022
422.300
413.858
404.239
401.076
410.012
399.313
402.041
399.279
395.094
386.271
385.839
381.393
373.252
368.623
380.933
370.379
373.545
360.924
367.282
354.749
362.236
349.543
343.591
346.477
350.492
332.681
330.755
326.602
329.873
334.871
323.517
320.359
314.505
313.153
318.313
313.445
310.161
307.030
296.886
300.256
292.628
297.295
280.235
286.881
286.947
282.097
268.760
272.264
268.104
262.050
265.550
259.634
251.126
256.268
244.258
241.973
239.785
246.065
243.414
231.537
226.358
225.278
226.207
219.042
215.101
216.241
209.716
207.809
201.747
202.649
198.343
194.784
191.158
189.004
195.886
195.472
186.147
198.010
197.214
200.121
194.005
187.960
195.852
192.629
185.794
186.755
189.574
187.798
183.183
188.133
189.996
180.168
180.589
187.178
192.885
180.855
186.202
180.944
185.580
190.314
188.054
184.895
182.558
174.440
175.028
176.904
186.435
178.305
185.847
179.254
175.708
170.596
182.644
177.413
169.472
175.062
182.709
174.213
172.653
175.565
175.897
168.584
175.862
170.089
178.383
177.407
173.027
173.447
176.001
173.823
170.397
171.584
160.120
161.361
174.487
165.919
169.495
165.371
171.856
164.915
167.874
161.687
171.341
168.328
167.230
154.128
159.735
160.788
157.460
157.600
162.455
166.736
156.464
164.362
159.716
157.236
164.717
149.072
163.710
162.020
155.734
160.150
148.803
161.104
145.420
159.406
144.588
151.719
143.749
154.988
148.473
145.663
152.224
155.147
155.066
146.844
141.781
153.855
154.429
150.128
138.924
149.560
137.514
152.467
136.492
146.217
138.558
140.109
142.926
135.469
135.146
147.124
146.549
136.424
146.217
142.169
458.130
461.865
432.063
428.558
430.848
418.348
421.032
447.248
439.742
458.818
448.838
417.285
412.769
423.955
438.035
414.367
438.624
413.714
430.304
443.457
410.576
420.354
435.204
420.230
437.350
438.132
392.737
405.209
410.133
421.075
398.640
420.518
398.026
395.107
375.221
391.217
402.489
402.617
401.809
394.351
400.622
407.848
407.222
391.264
397.750
380.329
387.753
361.398
383.871
356.690
359.365
361.219
386.336
361.111
368.833
346.364
371.422
355.234
375.163
377.069
342.231
336.996
333.937
380.412
369.354
363.944
348.440
354.263
346.568
366.270
358.380
343.234
347.459
316.155
323.296
327.661
