366.862
359.879
358.034
363.343
366.246
364.512
360.818
362.503
369.195
366.402
375.361
368.264
365.563
380.785
381.424
379.082
383.192
379.431
371.409
373.474
371.478
383.244
382.706
385.585
381.634
381.283
384.290
379.721
387.908
392.209
390.383
388.922
381.780
395.784
395.538
395.087
389.920
396.887
387.034
390.912
397.898
392.447
402.054
395.109
400.334
391.348
397.113
404.860
404.297
399.628
396.141
396.069
405.285
402.608
400.250
408.488
409.745
401.788
399.023
411.632
404.682
408.890
404.636
413.910
413.482
414.883
406.835
412.681
417.864
415.149
411.976
409.372
416.046
422.565
412.178
423.466
424.750
426.410
425.274
424.741
418.685
429.561
419.644
431.076
423.793
420.883
421.934
432.294
422.392
422.034
430.117
434.521
432.161
425.050
426.301
431.287
441.796
429.177
436.443
440.428
431.479
436.561
444.954
442.786
446.996
435.522
436.660
440.575
438.593
437.921
452.132
445.754
440.251
450.308
445.218
448.746
441.900
445.636
446.587
457.262
458.695
457.796
452.890
452.735
461.448
447.708
462.734
463.476
456.961
455.369
461.495
461.830
455.099
461.712
468.654
463.436
463.554
465.473
460.704
464.085
468.663
460.716
474.225
461.802
475.344
467.812
477.664
463.685
469.074
468.513
468.696
467.742
478.364
471.695
483.916
471.631
471.005
478.388
476.432
475.724
476.084
485.213
486.410
475.453
488.241
480.482
483.363
481.275
487.915
493.937
481.898
494.234
494.507
483.720
490.276
487.517
500.343
487.471
500.827
500.261
499.745
490.299
499.160
504.831
503.667
494.309
492.386
500.847
503.693
500.636
500.696
500.924
509.587
499.043
512.049
500.049
506.920
513.376
516.212
505.711
514.322
512.322
517.459
516.091
516.509
523.100
521.803
533.515
534.232
533.390
535.274
539.212
538.168
547.922
544.580
551.580
539.818
554.948
554.834
560.439
558.373
560.058
553.823
563.129
563.871
562.719
567.840
564.918
569.912
577.146
585.154
583.428
586.118
587.233
588.735
595.065
590.895
594.377
591.675
603.791
594.682
607.743
605.881
605.002
604.284
610.348
617.893
614.971
617.418
628.781
626.911
623.868
621.500
631.681
632.017
635.690
633.559
642.551
644.168
637.262
641.423
649.631
650.796
647.158
650.309
653.387
667.802
656.842
658.523
662.739
673.220
678.163
669.706
672.229
677.261
681.280
687.005
679.180
687.975
689.471
688.358
689.745
703.668
706.325
707.805
701.448
699.115
716.436
713.761
715.042
718.450
723.067
727.008
729.630
724.316
730.936
733.686
739.275
738.185
736.397
739.102
740.123
743.680
746.608
744.234
750.605
748.338
760.978
759.201
753.955
765.648
769.324
764.361
772.846
777.392
776.806
768.197
777.152
775.184
782.489
784.996
790.981
784.363
797.191
798.307
798.594
792.919
797.630
806.053
799.303
813.377
816.033
817.940
816.279
812.206
825.853
825.687
828.349
827.105
826.596
833.242
827.468
829.830
844.186
841.677
836.944
851.760
854.084
854.397
851.788
852.764
849.938
858.711
866.574
864.539
860.513
868.705
863.078
874.071
869.445
884.219
882.090
884.899
878.138
879.858
892.719
896.607
897.430
891.833
903.455
891.367
905.113
904.717
906.559
913.245
915.752
905.677
912.073
921.159
922.253
926.552
918.005
933.075
922.734
934.408
927.885
935.717
937.639
934.317
940.651
951.181
944.554
950.836
949.203
948.389
957.766
956.666
959.777
967.199
966.098
966.216
961.863
957.763
967.539
968.269
963.731
965.930
960.481
949.670
957.342
958.575
944.926
952.321
941.054
954.657
952.512
951.759
941.764
936.638
939.384
943.280
930.135
937.265
927.367
927.660
927.593
932.182
924.409
923.708
919.786
918.780
919.124
916.666
920.610
915.857
923.308
908.716
909.494
905.288
913.798
910.047
905.236
910.537
908.559
898.858
909.574
907.351
904.064
897.875
901.479
901.226
900.881
897.318
883.069
892.060
879.172
878.901
885.945
881.264
884.466
882.004
880.820
882.317
867.453
867.454
877.412
870.364
873.119
860.061
870.671
857.444
861.690
861.401
859.866
859.764
863.227
854.771
851.770
861.053
858.382
853.940
855.677
851.340
844.518
850.346
844.385
833.711
847.575
836.139
843.125
835.695
828.902
829.270
838.877
833.083
825.792
833.455
829.775
816.757
828.465
816.453
811.708
810.512
818.759
810.858
818.340
812.618
812.978
801.932
814.586
807.753
809.335
798.416
801.360
804.986
793.639
796.281
803.244
799.160
796.242
799.282
786.844
783.148
779.953
786.194
789.071
787.775
784.086
780.350
775.095
769.231
775.198
770.765
768.404
766.464
765.284
769.122
773.194
766.974
768.291
764.095
765.386
755.618
752.912
763.241
762.777
746.821
757.357
752.308
753.704
740.203
748.560
743.801
745.934
747.023
739.080
735.343
730.524
728.326
732.148
740.205
725.718
722.701
722.446
733.058
719.007
721.081
722.175
726.942
716.959
722.345
723.836
711.944
716.096
706.083
709.289
711.946
701.406
712.753
704.305
696.376
697.692
693.040
698.815
691.783
699.959
693.909
698.353
697.120
683.496
682.421
690.542
687.395
688.521
686.513
673.852
672.453
677.349
681.319
671.560
666.606
671.323
681.247
672.548
683.754
678.902
675.116
682.552
681.616
676.377
679.250
690.499
687.332
686.265
685.092
685.988
687.014
696.199
694.047
695.772
685.220
693.448
691.242
690.319
698.090
691.757
695.888
694.841
701.234
700.301
706.099
701.255
700.181
695.810
699.386
707.236
708.914
703.497
697.795
707.995
711.304
707.646
712.977
702.057
717.641
717.732
709.243
717.704
717.253
707.990
720.328
713.399
719.560
722.724
714.515
717.265
725.856
721.800
717.993
726.369
716.709
720.017
723.405
732.654
719.004
732.266
723.605
724.733
729.061
736.804
724.412
736.608
735.454
733.841
735.278
737.375
729.606
735.784
745.071
732.359
745.002
734.462
737.662
748.156
739.099
748.313
743.903
750.178
750.347
741.670
742.504
748.317
756.156
754.515
747.222
747.755
755.826
760.536
746.805
759.066
753.602
757.795
752.917
761.672
766.467
766.008
763.251
757.651
766.411
762.249
756.540
766.934
767.323
759.757
762.427
769.752
760.816
776.636
768.849
771.026
777.066
771.114
774.146
771.718
773.402
770.636
775.905
770.245
779.372
784.014
774.424
788.435
789.415
781.262
790.635
785.194
780.589
779.263
784.792
780.188
786.780
782.073
790.870
790.843
790.206
799.167
795.365
794.236
800.925
799.701
789.693
789.359
802.510
793.782
807.408
796.481
801.477
794.885
806.862
803.320
804.630
811.203
808.483
806.074
810.840
806.508
814.666
815.946
808.397
810.861
806.942
820.138
812.234
806.862
821.184
808.896
814.540
810.785
818.503
825.970
814.907
819.324
821.051
824.785
817.452
830.027
820.202
820.714
832.535
828.590
829.235
829.119
828.459
833.802
834.959
828.466
832.723
831.700
832.357
829.302
830.067
844.717
831.847
835.093
832.715
838.627
831.686
846.014
832.744
840.906
834.167
848.723
843.842
846.777
840.859
845.583
846.276
841.544
840.179
845.872
843.828
851.685
849.907
846.230
840.011
848.994
847.957
854.952
852.192
853.358
852.565
851.417
845.463
857.341
854.962
851.558
848.334
847.295
855.926
858.725
849.802
857.788
861.432
860.759
853.028
853.838
858.742
862.910
860.354
859.117
859.392
861.775
858.090
853.275
853.114
852.910
858.209
863.171
863.872
863.041
865.310
859.030
859.087
870.990
861.572
860.150
865.506
860.279
859.559
863.556
868.492
866.799
865.045
872.163
871.422
863.728
873.302
870.385
869.099
869.730
870.076
867.630
872.427
875.039
872.481
874.995
873.612
866.825
876.808
869.598
881.932
877.844
874.942
869.453
876.732
880.567
873.548
880.466
881.459
887.207
876.231
882.593
872.907
884.325
888.473
879.150
889.751
886.600
883.815
885.246
881.129
888.887
879.558
878.116
891.896
883.566
894.360
888.295
894.244
895.542
892.253
885.713
894.652
896.559
884.897
884.401
890.397
886.031
890.372
896.970
893.003
886.098
886.350
891.081
901.743
895.793
893.032
897.030
889.320
891.908
902.211
898.320
900.437
894.187
892.394
905.793
898.154
898.368
901.414
898.224
903.932
906.481
906.272
899.848
904.008
899.065
909.246
896.896
912.343
899.633
903.207
903.441
906.375
914.583
903.270
908.958
912.495
910.900
908.251
911.602
913.962
907.806
916.918
916.386
908.705
908.607
916.811
917.811
917.080
914.686
909.239
914.641
917.313
910.819
920.544
914.943
918.697
909.631
920.689
915.777
915.642
913.893
917.028
912.049
912.658
913.098
918.196
917.393
915.838
925.324
929.726
920.602
924.126
924.017
931.602
921.527
923.487
921.051
930.887
930.832
928.559
925.337
937.368
930.932
935.177
929.340
935.786
941.868
939.547
938.001
938.063
940.098
942.173
946.845
936.549
945.740
943.429
948.529
950.299
936.191
940.292
943.727
938.570
945.153
944.880
948.284
950.618
950.501
942.073
952.354
946.420
959.148
959.367
959.068
953.532
959.808
955.713
954.503
953.772
961.402
951.671
960.619
965.742
957.363
961.088
965.521
958.309
961.812
956.996
962.420
959.851
972.870
963.628
963.026
974.894
974.954
965.999
972.620
974.415
964.123
970.375
975.164
975.736
971.879
978.062
971.716
971.127
979.978
977.880
978.740
983.292
981.806
986.275
979.842
974.743
984.432
988.515
985.986
984.112
989.390
985.733
993.220
988.025
995.299
986.787
993.404
996.589
985.549
994.703
989.380
987.566
1001.234
995.802
1001.458
1002.479
999.501
993.191
990.527
995.797
1000.486
996.035
997.505
998.138
1006.522
1002.681
1004.518
1007.373
1000.637
1013.335
1005.829
1008.122
1014.651
1001.184
1015.123
1003.912
1015.111
1009.589
1007.336
1011.143
1016.760
1018.828
1021.111
1023.651
1022.746
1015.862
1017.456
1024.715
1023.761
1014.680
1026.077
1021.767
1020.453
1021.205
1018.404
1027.230
1018.599
1028.164
1019.876
1030.604
1030.879
1034.762
1022.804
1022.219
1033.473
1030.518
1037.988
1032.314
1033.763
1040.100
1032.085
1042.969
1038.867
1040.704
1031.774
1033.529
1039.202
1044.699
1038.403
1048.251
1035.301
1042.913
1040.831
1038.233
1039.342
1047.350
1038.868
1039.729
1051.705
1049.194
1050.914
1048.843
1043.402
1047.150
1058.686
1051.449
1056.614
1045.922
1047.266
1057.462
1061.110
1057.131
1052.577
1050.696
1055.386
1060.591
1065.378
1059.223
1061.134
1069.145
1056.884
1057.361
1058.508
1052.823
1059.471
1065.304
1057.449
1062.486
1048.298
1048.539
1057.227
1049.487
1044.516
1037.805
1038.711
1049.572
1047.161
1031.537
1037.344
1033.095
1029.796
1032.950
1034.065
1028.084
1022.677
1022.336
1033.789
1016.394
1015.781
1013.723
1023.761
1020.261
1021.605
1009.147
1013.332
1018.857
1016.193
1013.471
1003.925
1007.174
997.401
995.760
996.306
1002.031
997.983
1001.938
1003.725
992.839
994.289
997.487
991.204
991.949
992.573
990.364
985.241
980.259
980.935
979.829
974.186
982.644
979.591
975.231
970.372
974.833
972.936
971.860
963.811
966.278
968.581
960.096
964.456
953.102
957.572
955.915
948.528
945.613
953.888
957.001
943.102
949.240
952.428
947.345
944.070
938.690
934.343
941.880
936.313
940.051
938.027
938.145
931.717
928.678
918.744
928.384
927.922
917.156
921.490
913.589
916.820
920.092
910.519
914.629
906.105
909.278
909.507
905.101
909.950
911.920
901.652
901.529
904.718
893.871
896.734
893.185
893.898
898.125
882.812
893.625
884.423
884.033
879.286
884.920
886.322
887.803
871.729
875.329
883.312
876.608
868.532
867.115
861.601
869.662
863.045
870.058
863.630
861.920
864.028
859.158
859.146
853.518
859.906
852.191
847.525
852.815
844.826
851.015
851.230
839.481
849.772
837.021
844.327
844.458
841.371
837.422
832.676
826.227
836.332
829.213
829.690
831.900
818.635
825.836
820.489
822.384
820.060
820.831
820.212
821.189
815.522
811.811
814.195
804.951
800.389
801.885
797.313
795.822
797.087
800.970
801.859
792.778
789.669
797.913
787.436
794.385
794.380
788.711
783.287
786.608
786.102
773.233
772.980
776.914
778.931
770.265
770.059
771.834
771.270
763.029
770.114
758.366
767.028
766.399
757.381
756.022
766.767
761.835
766.861
763.561
760.220
760.827
752.743
760.060
762.016
749.934
745.751
759.071
757.799
748.383
749.734
742.234
756.642
752.254
746.368
751.701
741.786
742.082
740.948
740.942
748.596
746.693
738.297
735.231
745.221
740.154
735.538
741.544
736.292
743.898
729.963
733.751
736.160
737.353
731.403
730.504
739.168
739.106
734.064
725.990
723.046
735.660
722.687
730.117
728.101
727.630
724.077
727.061
722.203
728.628
721.954
715.084
725.554
725.699
712.396
718.009
718.138
713.976
710.888
716.409
716.646
716.222
712.598
720.550
720.130
716.760
714.656
711.593
706.464
711.174
714.445
704.324
706.155
708.050
710.106
710.432
699.946
708.247
701.278
710.092
703.270
697.785
703.282
705.493
703.934
703.632
699.796
703.933
701.398
697.593
694.457
690.908
690.089
700.070
690.062
692.790
698.492
690.695
697.515
695.291
684.745
684.504
685.987
685.395
690.725
684.719
691.217
690.752
687.023
679.347
674.872
683.302
684.326
671.217
684.923
683.505
680.855
675.598
679.337
675.152
668.591
674.178
669.823
665.007
670.819
667.959
664.751
675.796
663.542
663.945
675.023
670.305
659.473
657.455
663.131
661.809
669.744
666.036
654.150
657.725
662.899
652.468
658.692
658.983
660.973
652.963
657.028
655.253
658.383
655.273
646.841
658.664
648.746
656.072
656.903
649.064
653.599
647.507
651.680
643.831
650.815
644.234
641.212
651.546
643.738
649.883
647.848
649.565
639.967
634.657
634.270
645.191
636.525
635.607
638.001
631.950
630.259
641.434
635.044
640.921
639.184
625.735
626.454
627.768
636.287
621.662
628.079
628.710
627.041
629.129
625.115
625.713
628.772
625.555
628.978
626.133
621.468
635.773
622.497
623.113
624.043
637.836
629.642
640.827
634.548
635.867
631.620
641.321
632.776
648.983
636.941
636.119
643.752
643.743
646.079
642.202
654.385
649.995
649.561
649.986
647.044
657.956
653.890
663.155
657.163
664.758
661.055
655.994
663.471
662.451
658.295
668.415
663.382
669.360
662.091
667.610
673.906
667.154
676.126
670.642
668.815
670.967
671.595
681.708
679.473
677.006
687.236
685.166
683.659
691.832
681.663
683.674
684.426
690.422
686.176
696.353
694.984
690.533
693.289
699.272
689.151
701.593
691.912
699.177
695.660
707.975
706.155
702.236
713.583
699.040
713.563
710.625
711.261
706.373
713.884
717.905
710.585
711.248
713.126
714.855
715.696
715.321
719.706
715.656
717.780
720.427
727.477
721.917
724.310
727.733
731.733
725.744
739.922
738.632
740.763
731.779
741.764
736.689
740.832
747.624
733.652
749.217
736.235
740.450
751.053
743.966
743.624
746.512
756.734
752.834
744.111
749.975
755.714
762.742
763.327
749.465
761.950
764.502
765.062
754.217
769.290
771.506
772.433
765.837
761.243
762.437
774.122
771.140
772.454
779.692
773.527
777.910
776.973
779.346
771.710
775.334
782.883
779.154
784.896
782.112
783.679
782.080
789.753
786.968
783.753
794.802
792.041
785.432
794.878
797.938
799.432
804.173
799.982
805.818
807.592
804.839
801.751
807.105
803.742
813.018
801.709
810.397
816.381
812.336
805.279
809.899
812.123
807.429
822.871
808.674
825.014
811.448
818.441
819.473
815.574
824.588
822.355
820.562
826.817
826.571
835.293
834.956
825.882
832.102
829.202
834.625
833.446
840.582
829.557
836.677
838.022
836.931
839.746
837.441
837.791
844.235
847.139
852.013
842.016
846.744
854.002
850.582
858.060
860.051
847.796
856.948
860.875
853.655
864.243
865.026
864.196
858.447
859.593
866.081
870.397
868.382
872.961
864.516
861.302
876.938
869.251
876.040
868.611
874.545
869.171
874.529
882.873
872.407
872.221
876.775
886.529
883.595
888.708
877.509
887.202
878.934
880.250
883.566
886.620
884.450
892.867
893.964
886.880
894.809
890.262
897.038
899.943
893.549
894.492
895.160
902.881
897.324
903.981
900.948
899.322
906.760
911.198
903.997
909.598
909.151
914.202
907.049
913.684
919.877
909.868
910.675
917.583
915.455
924.582
914.311
924.059
923.238
920.286
918.590
926.496
924.079
923.238
932.551
926.119
933.977
939.024
938.025
933.012
931.762
941.428
934.138
932.481
940.334
944.013
936.320
948.421
940.280
946.397
945.082
945.916
941.619
942.994
957.757
957.274
950.265
953.269
954.903
949.179
958.922
963.086
960.320
966.340
954.783
956.155
967.399
966.350
973.317
968.020
972.015
964.267
967.805
963.937
980.086
980.829
973.618
969.619
975.022
974.357
974.269
974.243
976.577
980.268
982.998
984.655
992.259
993.146
987.189
994.072
994.446
994.256
987.259
996.905
992.619
988.857
999.856
996.796
992.961
992.323
998.661
992.678
1009.142
997.489
1009.617
1000.044
1012.257
1003.538
1008.215
1011.230
1013.229
1013.005
1011.242
1015.819
1018.850
1015.286
1013.297
1016.396
1016.672
1025.029
1028.376
1023.133
1019.735
1029.076
1022.801
1022.479
1024.594
1034.071
1029.566
1034.893
1024.529
1030.831
1040.312
1041.994
1041.082
1042.249
1038.920
1034.996
1040.365
1036.850
1033.428
1040.711
1035.973
1046.490
1052.647
1053.786
1053.976
1055.681
1050.407
1056.763
