362.451
358.791
368.806
365.521
360.468
360.092
362.941
365.621
364.835
363.915
363.021
372.608
374.069
373.708
374.154
372.038
381.388
377.307
376.148
375.386
378.674
384.342
383.927
380.876
382.770
384.274
379.048
376.128
386.535
381.888
390.409
392.666
384.315
391.251
389.720
391.642
397.072
395.633
394.684
399.052
398.489
395.676
391.567
391.285
394.253
397.746
402.300
399.491
404.230
407.254
404.895
398.393
400.448
404.293
403.432
407.756
402.360
412.998
405.145
413.719
411.318
410.949
413.517
415.399
414.190
407.086
407.157
418.343
417.109
409.326
409.157
414.808
420.183
424.143
413.244
424.876
414.560
419.809
412.842
420.470
429.821
418.287
420.705
418.254
430.038
427.879
418.936
430.261
421.771
426.321
434.877
423.883
437.546
431.302
430.342
432.838
427.842
441.485
429.222
434.948
444.699
438.778
444.379
441.969
443.549
447.676
446.680
434.276
438.019
442.717
441.800
448.738
453.660
438.508
448.872
440.112
451.443
448.439
454.496
448.615
459.325
454.988
452.169
450.372
449.834
451.928
463.468
451.101
455.941
452.840
460.876
454.342
452.994
456.416
460.327
468.115
457.430
462.035
471.585
470.102
471.950
467.534
475.055
475.259
475.836
477.877
472.756
470.091
478.149
474.739
473.991
472.267
478.471
478.163
470.779
483.843
481.176
484.133
485.357
485.877
480.507
486.917
481.957
484.850
483.638
488.282
489.763
488.082
490.748
488.209
493.619
485.056
497.488
491.684
490.446
487.588
489.298
494.414
491.297
495.254
492.401
492.502
500.460
502.775
491.417
505.380
500.359
502.625
501.049
495.662
510.271
495.772
506.027
509.265
501.611
507.569
501.454
507.779
502.007
517.070
506.426
520.058
518.516
509.209
518.877
516.031
516.116
519.598
520.751
525.873
525.434
541.026
530.527
536.295
543.090
544.545
541.943
552.295
556.155
550.925
561.854
550.456
560.969
555.362
564.331
572.451
566.365
579.880
581.353
576.896
572.477
587.013
583.955
584.813
584.047
591.034
594.663
593.303
603.402
605.270
596.678
606.714
612.362
611.666
615.380
614.567
619.757
622.189
623.259
623.231
623.988
620.431
622.104
631.838
637.851
640.054
632.672
647.771
635.892
652.860
654.785
649.981
646.778
646.996
648.817
657.494
661.855
667.056
672.990
662.311
669.222
668.254
671.884
680.476
674.970
689.426
685.307
680.906
689.333
687.993
689.793
691.867
700.616
707.369
704.902
701.320
701.293
717.118
711.671
709.845
709.272
720.508
712.982
722.816
731.244
730.509
735.265
737.817
732.941
732.211
738.809
738.524
746.300
752.033
747.949
757.056
754.047
748.107
764.218
762.637
762.060
761.294
771.873
774.213
764.492
775.260
781.495
771.757
781.269
786.368
781.378
794.279
783.854
794.375
799.598
790.339
799.932
800.314
798.133
802.150
800.977
805.704
812.513
811.427
808.903
815.899
827.297
827.928
824.766
826.122
829.576
837.658
834.672
832.496
847.131
844.022
839.461
844.436
849.447
846.764
846.555
854.796
858.543
866.503
858.556
857.326
866.675
866.633
864.465
871.144
872.389
871.079
876.367
876.619
892.402
887.358
897.609
897.198
894.440
896.722
902.446
907.220
900.676
913.876
914.790
917.347
905.201
922.384
915.254
924.141
926.538
919.864
922.220
923.430
933.301
934.153
935.896
930.214
947.750
939.465
941.816
939.367
950.091
948.410
952.015
957.821
961.789
955.784
963.094
971.265
973.975
961.660
957.272
967.053
968.723
961.290
959.010
954.060
953.799
953.336
958.452
952.051
952.272
946.067
945.639
942.147
942.099
950.381
942.067
934.771
940.884
929.134
937.119
931.263
933.898
927.629
925.042
926.237
920.945
933.038
928.360
918.680
925.545
920.301
912.606
918.611
912.961
914.017
913.499
918.037
916.188
904.352
910.662
902.622
900.408
902.358
893.948
892.482
889.690
895.369
886.800
899.883
897.406
898.016
891.163
893.002
882.935
876.926
876.114
887.501
883.740
878.132
873.375
868.915
878.672
867.180
864.792
867.117
874.256
872.275
863.181
867.658
860.894
859.747
866.579
851.024
852.135
851.266
846.861
857.481
853.183
845.046
843.513
849.982
852.335
849.739
836.326
842.223
836.219
837.719
832.318
828.143
831.380
838.076
833.838
826.809
824.897
823.083
826.066
819.956
816.590
815.199
819.215
819.710
814.537
807.077
816.605
803.571
816.649
812.331
807.492
800.447
797.957
798.693
797.922
791.746
800.170
798.639
787.775
790.170
793.691
790.966
788.945
781.037
788.056
780.074
776.498
782.631
780.827
781.477
773.506
775.129
774.704
772.571
772.186
769.175
766.189
774.847
768.762
765.606
764.805
754.585
758.080
753.623
758.955
751.564
760.640
755.288
747.673
753.755
746.634
750.181
752.665
739.561
748.231
745.652
735.027
739.792
735.572
732.340
727.493
734.146
738.041
727.057
720.286
733.004
730.069
727.948
723.462
727.513
712.062
713.127
723.069
707.959
708.548
714.921
711.527
705.853
700.876
711.469
700.753
703.377
700.542
692.447
693.921
692.948
701.532
693.703
693.977
694.744
696.550
691.797
684.733
692.575
678.637
688.482
687.367
676.917
681.697
677.365
669.550
673.589
669.091
669.834
684.669
681.601
676.987
684.429
678.393
683.031
687.653
684.217
679.317
688.308
689.282
693.136
684.047
683.747
683.332
694.768
698.293
689.556
691.289
697.293
692.447
700.734
696.230
698.824
692.013
698.061
699.608
691.699
698.796
696.579
708.293
709.758
702.705
703.057
709.734
699.725
705.413
715.200
708.911
703.105
702.941
717.449
708.764
713.872
710.475
714.504
720.278
708.265
718.278
719.395
721.555
711.777
724.452
728.705
717.310
728.026
717.759
722.824
727.840
729.717
733.848
722.759
734.956
723.174
724.558
727.690
736.975
727.572
732.464
733.424
738.547
734.076
733.864
735.488
733.201
734.010
738.322
747.306
733.585
735.920
749.663
746.680
745.677
752.822
749.477
743.542
751.587
752.433
741.876
743.200
749.676
745.524
750.178
759.530
746.368
751.843
751.977
763.763
762.768
753.425
761.258
757.790
755.144
759.563
763.673
760.506
764.528
770.879
772.909
760.848
768.051
759.927
762.079
770.370
764.386
775.948
768.625
774.477
780.770
780.204
767.691
771.635
780.329
773.665
776.075
772.471
783.866
774.107
779.481
777.166
781.739
780.855
782.734
789.139
787.693
784.738
780.713
783.125
792.414
783.634
786.316
800.019
791.057
796.503
799.511
794.212
803.736
791.609
793.691
800.039
791.651
806.857
801.572
797.290
808.947
808.164
805.446
800.353
812.563
800.486
801.352
804.170
803.794
813.528
807.512
809.647
818.648
809.756
811.222
821.732
819.226
815.253
809.918
819.826
819.763
823.404
816.172
819.003
815.797
822.765
822.538
828.229
822.735
821.202
823.121
832.625
831.817
822.150
836.011
831.410
836.068
837.299
835.670
840.890
834.050
829.043
838.095
833.301
841.589
830.793
838.632
844.401
833.535
841.415
839.542
839.027
835.378
846.223
848.755
835.567
844.239
847.615
848.262
846.812
839.924
842.917
850.919
844.851
843.240
851.765
850.119
849.704
843.274
856.097
845.544
846.015
854.566
844.839
851.427
843.473
851.973
858.138
847.620
854.964
853.015
850.051
857.158
847.096
855.831
848.665
854.526
854.520
854.862
853.822
864.516
864.725
851.483
863.711
852.821
859.126
861.832
853.550
866.382
854.634
868.865
859.119
858.973
859.527
866.356
856.085
857.601
859.700
865.081
859.925
859.774
864.202
862.893
859.843
863.509
861.003
872.568
868.929
875.601
877.487
866.335
871.086
877.021
872.881
877.371
871.339
878.424
869.285
869.074
866.829
881.958
878.482
871.779
875.844
880.205
873.117
870.631
883.715
880.151
872.684
883.749
886.160
874.104
880.562
880.125
885.528
889.081
875.763
876.006
883.780
886.051
882.171
878.875
891.253
882.846
877.453
889.713
882.682
891.771
888.313
891.947
888.252
887.384
893.972
883.292
881.915
891.543
884.627
891.312
893.041
887.184
889.484
896.068
893.532
887.294
891.256
890.518
892.056
888.538
900.308
888.773
900.089
889.151
890.187
903.328
892.635
900.784
892.070
902.137
896.759
902.492
903.437
907.270
907.815
900.495
906.090
899.594
905.533
911.676
901.196
908.302
900.133
907.977
903.615
910.512
903.741
914.133
914.844
911.943
906.297
915.435
910.718
902.385
908.924
904.311
911.789
905.338
913.058
906.042
919.649
915.778
910.731
915.210
921.783
908.856
919.159
912.576
914.507
912.953
910.566
919.376
912.265
923.799
918.106
924.661
921.377
913.945
916.520
923.620
917.252
928.341
917.959
918.883
929.855
928.703
928.798
928.821
919.802
925.356
933.160
921.016
929.774
935.920
931.996
934.874
927.133
926.269
931.392
937.111
940.170
935.815
943.515
929.171
945.258
938.783
944.066
933.234
946.457
944.137
941.250
939.719
939.451
945.973
948.681
951.392
950.328
953.228
953.503
949.586
944.306
944.709
951.088
954.321
945.112
951.580
948.387
952.238
955.440
957.840
951.928
948.659
958.590
955.138
959.048
956.268
960.781
957.649
954.058
965.744
961.778
955.626
958.176
958.987
961.919
960.624
962.493
963.579
969.039
969.664
977.606
976.828
973.946
969.596
972.710
980.841
972.141
981.489
976.660
982.371
973.927
972.778
983.698
977.269
982.970
986.455
977.775
985.334
976.135
983.135
983.898
979.920
988.605
993.220
979.218
991.623
991.132
994.664
987.108
990.912
995.560
995.188
999.022
996.882
988.752
988.380
1001.697
988.114
989.332
1004.441
998.064
998.710
993.979
994.363
1005.397
1006.521
1007.733
1000.162
995.871
1011.376
998.085
1005.028
1013.822
1014.693
1002.598
1005.457
1017.323
1015.193
1013.403
1006.800
1009.399
1018.503
1016.383
1006.272
1017.081
1008.029
1023.017
1011.097
1019.999
1011.498
1019.892
1015.372
1014.497
1020.400
1028.486
1016.702
1023.045
1018.423
1028.787
1022.124
1021.034
1023.279
1026.625
1033.500
1026.091
1024.713
1029.350
1036.463
1031.512
1025.253
1040.445
1033.818
1028.883
1037.662
1039.819
1029.344
1042.697
1044.719
1045.195
1040.406
1042.646
1033.422
1043.545
1040.213
1047.905
1039.927
1043.187
1042.308
1049.014
1049.625
1040.808
1046.574
1050.995
1049.433
1045.080
1044.215
1052.610
1055.587
1049.963
1047.017
1053.374
1048.817
1061.297
1051.786
1059.881
1058.255
1057.885
1053.445
1054.332
1055.661
1061.620
1060.065
1060.526
1064.640
1066.227
1068.059
1053.841
1052.743
1062.087
1051.362
1047.941
1056.655
1057.907
1050.004
1041.016
1041.340
1036.836
1048.213
1042.877
1041.391
1031.030
1039.452
1036.786
1032.179
1038.543
1025.869
1036.076
1031.741
1023.395
1021.900
1016.754
1026.726
1024.307
1017.602
1024.141
1010.559
1015.142
1018.273
1009.060
1004.615
1004.852
1011.342
998.433
1010.502
997.936
999.588
1003.458
999.433
989.451
996.519
994.006
990.287
991.793
991.436
979.941
979.713
987.998
987.793
979.113
974.309
984.697
979.348
972.299
971.367
975.679
962.276
972.627
968.875
961.438
966.343
963.270
959.798
954.457
963.080
956.238
961.966
953.874
952.389
957.459
956.486
947.757
940.534
944.688
945.898
941.551
933.026
938.895
944.398
932.832
940.079
938.018
932.775
929.527
930.943
921.619
920.940
920.704
919.177
919.801
919.991
917.450
915.751
910.860
912.769
904.247
915.405
913.527
914.281
913.265
902.808
900.815
903.877
894.984
894.725
898.352
894.695
890.896
887.563
889.268
894.091
890.296
890.069
879.252
882.205
876.132
881.594
877.217
878.599
876.522
870.403
874.062
867.902
864.171
863.579
863.033
870.655
868.369
868.654
858.080
860.408
853.904
854.234
852.337
851.707
857.766
847.783
850.182
846.690
838.829
845.241
844.972
843.786
839.746
843.182
832.972
827.763
837.248
830.888
822.636
822.569
826.840
833.426
830.936
830.653
815.848
815.369
821.165
810.500
821.325
806.181
811.183
804.388
802.375
812.097
811.422
802.084
802.495
794.545
803.055
806.275
791.931
789.260
794.271
798.255
785.518
794.866
795.454
784.454
790.518
784.660
786.792
776.995
785.099
773.522
782.481
782.416
774.794
778.657
776.142
774.547
771.925
759.353
759.231
755.835
761.913
765.215
754.384
761.440
755.672
765.946
759.168
751.860
763.070
748.003
748.478
750.122
746.342
759.233
744.454
754.849
746.547
749.135
750.040
751.136
751.774
740.096
753.940
751.574
752.745
741.480
750.484
750.215
747.853
734.579
742.371
741.760
745.071
732.095
730.406
736.213
730.126
737.457
736.878
735.274
734.287
731.810
736.736
734.567
738.549
723.356
727.326
727.997
726.726
726.153
729.264
719.046
726.226
718.715
727.121
728.082
715.982
730.185
723.889
723.773
716.063
725.871
719.032
713.263
723.573
716.545
722.501
722.110
709.659
713.453
716.323
711.252
710.805
716.173
715.689
710.390
702.424
701.410
714.181
706.357
712.701
712.509
700.247
711.008
709.415
699.515
709.179
697.867
705.387
700.265
705.633
692.316
703.219
698.856
690.104
689.481
698.284
695.722
689.894
685.879
687.649
689.376
685.750
697.539
685.931
683.908
680.823
694.463
687.073
692.648
684.129
676.898
687.151
688.003
686.300
678.115
683.397
684.868
678.532
673.626
680.817
671.632
677.297
675.336
668.417
678.191
679.512
681.249
672.221
679.425
678.603
672.973
677.135
665.004
668.403
661.523
670.356
673.238
664.869
671.426
665.379
658.795
670.285
670.289
657.902
658.843
665.633
661.640
653.903
662.412
655.695
661.965
658.273
648.832
647.659
656.110
656.857
650.723
658.635
657.513
655.760
649.121
652.092
642.880
654.888
644.004
643.810
650.107
650.904
645.346
646.902
648.007
635.543
643.197
643.472
644.694
642.296
640.823
633.231
629.662
642.423
637.640
634.835
633.995
641.528
629.135
634.247
637.608
626.639
637.506
627.639
633.016
622.346
634.200
627.657
631.594
620.789
626.950
623.706
625.365
626.842
626.679
626.914
627.426
625.055
637.355
631.303
631.685
635.855
631.384
636.914
632.873
637.570
646.329
645.713
646.435
637.094
650.572
646.094
645.549
641.456
652.153
641.051
649.800
655.452
646.492
656.155
651.454
661.058
652.601
665.395
658.683
652.110
659.817
656.158
656.350
656.914
669.155
668.869
664.598
676.392
673.587
672.042
673.560
668.034
671.788
682.163
675.030
677.168
680.144
685.765
688.383
679.346
685.770
678.583
678.192
692.247
691.616
691.159
692.113
697.900
685.493
687.505
687.354
691.333
703.388
694.342
694.037
696.367
701.565
709.142
702.646
700.356
710.284
706.187
709.204
713.606
714.586
709.511
714.636
713.754
716.567
713.139
722.563
723.952
712.487
724.908
720.581
716.486
718.558
722.531
725.944
733.328
721.828
725.327
734.925
726.815
726.822
736.431
732.070
741.116
734.291
731.116
735.177
734.110
740.444
740.656
746.937
744.458
739.056
752.009
752.552
747.816
748.637
741.674
747.573
755.769
749.308
759.179
747.631
759.508
752.364
762.330
760.496
767.507
759.788
766.437
757.701
761.561
759.062
763.537
768.846
771.539
773.339
779.065
768.142
772.518
771.365
783.627
782.436
777.579
777.604
785.525
778.945
790.083
781.413
777.065
780.931
791.389
792.645
787.828
782.749
796.721
798.466
789.234
787.482
800.222
801.704
793.541
793.116
807.836
802.054
800.905
796.820
808.581
808.989
807.403
813.329
813.775
802.565
818.602
805.457
813.260
813.267
808.166
815.022
822.311
810.805
825.901
814.664
821.030
818.899
820.891
819.133
819.291
832.402
823.018
833.149
828.122
832.944
830.547
833.041
841.454
842.503
842.656
831.356
840.971
833.939
834.248
846.710
848.669
848.151
853.087
847.453
855.120
847.480
851.947
850.639
846.174
850.175
850.579
862.511
856.404
864.614
861.115
854.498
853.744
854.627
868.089
858.603
860.223
866.205
866.929
860.585
865.722
873.513
871.602
876.798
879.336
870.369
868.751
881.372
870.616
875.289
874.424
876.043
877.877
888.463
887.623
879.323
886.457
888.278
881.289
896.165
882.178
888.343
884.072
893.121
895.753
890.793
901.076
900.926
894.485
898.484
903.466
897.814
897.510
897.521
910.625
905.212
913.476
910.211
910.267
911.041
903.040
910.333
909.867
906.963
915.960
916.185
921.469
920.139
921.618
917.708
926.940
916.306
926.582
930.349
924.171
918.531
934.474
924.862
933.837
937.510
925.654
925.914
938.303
931.888
927.850
944.129
931.824
942.909
946.971
943.822
946.189
948.785
936.636
945.175
953.913
945.445
950.575
943.476
946.876
951.015
951.288
955.339
959.813
959.856
963.253
954.819
960.944
956.867
956.039
968.623
970.388
968.314
963.420
964.582
968.954
963.840
970.327
973.823
972.658
968.638
971.329
981.990
982.791
983.499
979.331
978.933
981.654
981.366
978.435
977.676
976.591
982.556
991.464
987.153
981.972
989.310
989.181
989.172
989.247
988.784
1000.186
993.680
992.855
994.034
1005.983
995.958
998.839
996.652
1003.786
1000.086
999.975
1003.816
1009.982
1003.963
1013.591
1013.676
1013.466
1012.492
1014.149
1014.748
1018.117
1023.331
1014.511
1016.837
1024.087
1017.133
1028.264
1018.556
1018.139
1030.725
1030.988
1032.216
1024.551
1035.535
1024.456
1027.260
1037.433
1040.115
1032.666
1035.593
1028.700
1040.798
1046.114
1041.099
1041.965
1035.063
1042.391
1044.831
1043.034
1052.601
1041.108
1040.425
1053.116
1056.896
1051.754
