579.795
578.892
568.267
569.325
569.961
571.187
580.504
586.263
587.559
582.967
582.968
580.674
584.648
577.723
579.695
590.285
588.777
594.281
582.085
596.372
588.394
586.957
585.015
585.033
588.390
598.627
591.437
601.257
600.236
597.491
605.273
602.804
592.279
604.641
601.905
606.245
607.806
597.638
609.417
600.410
614.346
604.419
610.705
603.180
610.698
613.349
605.351
617.262
617.470
613.868
621.056
615.202
622.783
614.878
617.320
620.883
627.120
618.334
621.002
628.930
625.522
622.656
628.635
630.464
623.685
624.091
632.530
635.309
625.087
632.989
624.542
633.692
636.581
629.732
627.723
628.383
637.585
642.062
639.150
642.615
643.321
643.162
643.147
641.985
643.268
636.756
638.729
653.005
641.857
646.795
654.985
641.416
646.208
647.194
652.448
648.979
653.215
649.285
651.030
651.339
654.636
657.988
656.528
664.313
659.870
658.496
660.246
661.259
657.472
671.830
673.109
672.788
666.888
666.346
670.147
675.650
667.008
664.179
676.446
679.840
671.520
680.581
681.009
675.889
675.262
681.638
681.862
677.009
681.881
683.354
689.986
677.949
679.553
682.123
689.141
693.986
682.264
686.812
683.891
682.054
698.229
694.883
698.001
686.358
688.160
694.025
695.424
688.482
697.816
693.636
705.472
692.579
696.913
706.215
697.871
710.766
707.239
710.167
709.390
710.883
714.435
702.691
708.344
710.485
708.126
718.786
717.198
713.571
715.813
714.928
713.081
715.941
710.292
720.376
711.240
716.904
727.828
729.238
725.043
725.401
730.444
724.501
719.073
732.854
720.574
727.234
731.998
725.718
731.210
728.518
728.717
741.291
730.802
727.824
739.892
744.440
743.244
740.766
731.282
747.251
748.059
742.159
736.604
752.547
742.562
756.397
758.446
747.229
750.804
752.196
760.121
756.917
765.117
755.050
768.349
758.727
765.254
766.955
771.403
763.278
776.909
773.058
780.311
779.598
782.411
773.090
788.987
791.216
784.241
789.805
793.200
785.137
795.305
788.105
793.847
799.170
803.000
802.136
804.521
805.792
804.663
809.947
812.491
808.524
807.182
806.234
815.215
811.373
816.798
823.455
826.084
814.967
824.723
818.315
821.140
832.396
836.500
826.169
837.689
836.901
833.152
844.068
835.156
846.048
839.958
840.357
844.386
839.695
843.277
843.621
843.920
856.187
849.905
851.200
856.022
863.381
866.629
862.000
869.346
873.514
861.970
868.829
876.960
867.216
872.801
879.960
880.603
870.956
879.743
887.534
882.401
879.060
891.584
895.243
889.412
888.251
900.104
895.003
889.892
900.628
906.781
894.500
900.788
905.782
911.731
912.069
901.580
910.571
914.452
907.597
921.878
912.172
923.053
924.394
927.901
920.176
932.022
919.504
928.859
932.458
926.984
932.959
939.152
931.492
943.384
934.900
939.116
943.491
949.119
945.727
953.373
941.930
950.090
955.422
960.409
960.508
948.814
957.679
964.774
968.260
965.630
964.788
960.203
973.738
971.348
972.748
970.952
967.154
971.385
974.067
981.617
979.167
987.853
976.579
989.018
986.669
984.071
994.115
988.438
988.084
997.374
1002.367
993.081
993.586
994.743
999.966
1005.916
1000.976
1002.147
1015.310
1013.432
1007.926
1006.437
1019.862
1016.426
1013.126
1025.524
1018.290
1028.422
1021.589
1033.913
1024.426
1034.277
1027.686
1036.714
1041.767
1038.548
1029.399
1041.058
1040.398
1041.144
1049.108
1049.938
1049.238
1052.653
1057.440
1046.640
1052.913
1051.201
1055.941
1056.403
1056.746
1064.303
1050.597
1058.763
1050.164
1058.343
1057.688
1065.120
1050.586
1057.720
1064.026
1064.595
1064.363
1056.406
1053.897
1060.921
1066.167
1058.635
1057.448
1051.752
1065.877
1066.316
1058.837
1058.275
1060.123
1058.535
1053.805
1053.553
1054.044
1061.298
1063.936
1057.314
1058.740
1059.790
1056.958
1054.990
1058.833
1064.436
1058.238
1066.798
1059.062
1059.293
1067.804
1064.258
1053.976
1061.373
1056.051
1065.762
1054.158
1067.874
1056.773
1058.383
1067.257
1065.040
1053.365
1065.055
1062.002
1057.854
1064.018
1056.916
1061.376
1061.812
1065.722
1065.400
1060.266
1055.911
1056.859
1059.481
1064.390
1064.905
1057.996
1056.732
1060.861
1067.959
1067.965
1056.538
1062.521
1056.337
1068.705
1055.205
1056.434
1059.797
1070.122
1061.303
1060.002
1061.099
1061.221
1064.043
1070.483
1058.148
1063.727
1065.926
1057.819
1060.525
1065.685
1057.967
1070.154
1060.941
1062.149
1066.244
1060.117
1070.724
1061.432
1067.509
1066.292
1061.869
1064.755
1060.562
1062.961
1066.277
1070.823
1061.309
1058.779
1065.893
1062.717
1071.308
1069.160
1066.159
1056.764
1064.367
1070.414
1061.187
1062.996
1059.488
1063.888
1057.569
1064.738
1061.080
1066.155
1072.424
1072.672
1061.068
1072.978
1062.429
1067.749
1064.426
1066.874
1060.154
1069.211
1058.403
1066.756
1063.517
1071.666
1070.094
1059.776
1069.436
1062.673
1063.013
1067.574
1072.772
1062.167
1067.067
1070.401
1064.247
1061.288
1072.392
1066.927
1063.756
1068.298
1060.774
1070.291
1059.445
1067.120
1060.380
1065.957
1070.276
1069.253
1060.917
1064.362
1068.927
1061.474
1073.309
1075.218
1061.965
1070.119
1063.344
1065.702
1072.874
1062.784
1068.487
1075.661
1074.060
1064.624
1061.772
1062.700
1072.318
1061.766
1060.884
1074.009
1068.340
1073.046
1076.605
1074.105
1075.004
1066.357
1069.624
1072.291
1068.721
1061.525
1077.032
1075.647
1065.031
1058.165
1064.796
1064.977
1062.550
1069.563
1058.014
1053.900
1056.716
1056.407
1056.363
1051.136
1053.304
1059.707
1046.439
1045.949
1056.575
1044.655
1052.263
1046.524
1052.210
1037.759
1048.681
1048.966
1043.525
1043.107
1043.559
1045.082
1038.073
1043.076
1031.062
1031.673
1025.092
1034.254
1033.844
1028.812
1023.361
1032.703
1033.265
1019.008
1018.518
1016.849
1027.497
1019.116
1017.189
1023.347
1015.082
1020.106
1014.229
1018.148
1008.607
1019.688
1006.239
1016.979
1014.816
1005.274
998.563
1009.201
1002.371
995.845
1001.629
997.182
1000.243
1000.385
999.482
999.341
996.228
992.687
990.139
988.546
983.494
997.781
988.729
995.405
979.651
992.714
983.653
988.498
974.797
977.005
978.688
980.352
971.280
982.704
977.604
967.882
968.356
969.336
975.622
963.067
976.592
965.960
975.355
961.731
972.658
965.176
957.348
956.976
962.911
953.011
951.605
956.054
950.086
956.669
962.169
945.508
951.167
953.366
944.976
942.392
942.359
945.132
948.871
938.885
938.899
935.741
940.202
939.948
931.625
931.109
931.499
943.276
926.904
930.866
937.946
927.052
923.939
925.246
927.030
928.415
919.509
921.387
916.363
918.785
925.800
918.611
927.280
914.214
913.357
909.143
916.192
908.973
915.456
915.007
908.158
916.327
905.933
905.762
906.881
900.976
906.676
902.706
907.660
907.802
904.758
906.634
891.453
896.714
890.652
898.824
895.992
885.618
895.409
883.828
885.060
882.133
891.104
893.454
888.076
891.747
874.787
881.435
874.663
884.866
875.419
883.862
881.833
882.045
874.098
876.810
869.296
872.580
874.031
866.728
863.147
869.471
867.261
861.266
865.744
866.024
857.775
866.731
852.298
851.473
856.382
861.225
850.550
859.999
854.166
855.024
854.880
847.572
860.782
856.996
849.297
855.837
863.078
858.264
858.444
854.198
852.446
854.110
861.631
859.716
866.051
852.689
857.721
856.621
866.334
854.794
859.554
866.822
860.928
868.815
864.144
859.480
854.843
856.700
867.136
865.134
864.987
868.549
867.356
868.499
859.200
857.822
873.210
871.923
866.208
866.571
865.890
870.445
871.838
861.595
864.861
869.693
869.826
873.966
872.737
865.467
865.658
876.089
868.987
875.182
872.451
871.805
876.935
865.748
875.153
869.253
870.716
870.646
882.596
880.411
875.981
869.592
871.704
870.266
871.968
872.860
872.747
881.143
872.758
884.646
883.646
883.638
884.144
888.099
886.833
888.534
879.364
877.698
882.497
884.203
876.769
882.953
877.338
887.455
879.746
884.894
891.582
885.524
887.620
894.457
880.275
887.992
893.439
892.324
889.354
894.317
887.573
883.051
883.241
892.477
887.067
889.843
891.615
888.548
899.306
898.562
898.192
885.887
893.257
894.348
892.288
892.585
899.902
901.803
892.669
888.989
903.332
902.172
899.085
902.276
892.755
891.737
901.473
903.682
897.591
905.163
894.786
895.938
901.219
905.271
906.966
905.163
909.927
904.470
895.315
901.066
909.893
907.701
909.138
910.910
904.510
904.370
910.781
898.886
903.333
910.391
910.782
911.613
911.120
902.069
908.308
914.832
903.109
910.711
908.210
912.900
916.829
918.353
906.512
904.719
916.372
905.042
920.345
912.330
918.663
908.630
917.275
916.751
908.557
915.330
909.713
919.930
917.331
923.835
911.178
924.035
920.513
915.934
914.651
923.330
923.499
925.130
922.210
926.124
928.288
929.236
918.016
916.435
918.780
925.792
915.623
918.666
917.546
931.364
924.305
926.225
925.618
917.917
917.203
922.384
915.903
927.387
924.720
923.889
915.787
920.919
913.566
910.895
925.491
913.918
915.787
919.400
919.540
917.820
909.096
913.318
907.224
909.367
916.623
906.697
915.531
904.809
914.384
910.970
902.399
909.885
903.377
902.976
907.863
915.597
902.489
903.510
906.548
904.901
905.084
898.171
907.255
899.435
900.260
909.448
899.224
902.102
904.985
898.630
898.056
898.293
904.912
906.185
890.360
902.774
896.033
903.135
901.927
890.338
898.517
889.548
897.416
894.883
900.048
898.862
897.191
897.496
889.569
885.364
882.987
897.897
882.090
896.954
895.901
885.339
882.503
882.585
894.324
878.138
880.211
884.761
878.726
891.623
891.494
875.610
889.946
889.735
887.022
887.612
880.237
872.317
871.875
872.611
871.864
880.323
877.859
879.741
880.496
874.485
869.074
872.180
870.778
866.431
876.035
869.283
874.683
875.815
874.061
873.564
863.520
876.226
874.217
874.557
862.327
867.958
871.424
865.702
864.679
872.208
863.690
872.449
863.360
858.093
861.938
860.647
863.674
860.734
858.073
865.438
863.014
859.190
862.208
851.756
866.631
858.453
861.854
864.671
852.008
850.578
863.272
850.613
848.666
860.311
848.377
858.133
859.725
856.042
856.903
851.445
848.047
850.001
855.169
849.212
843.285
846.911
852.570
849.331
850.831
848.689
838.955
852.012
848.307
842.789
840.593
842.875
840.184
843.151
847.640
843.962
843.144
836.447
836.832
841.702
831.865
846.020
833.295
835.857
842.730
836.232
835.249
842.220
842.645
835.736
828.706
836.267
836.176
837.278
837.307
837.648
825.931
834.223
831.343
832.708
834.654
829.523
821.295
823.299
834.787
822.802
830.676
820.851
822.916
831.852
821.677
825.322
826.986
824.008
829.025
825.504
832.021
837.650
833.558
822.925
827.264
838.986
825.833
832.470
835.465
834.121
834.350
834.935
832.306
826.193
841.451
834.407
836.303
839.011
828.189
837.561
837.508
841.645
830.562
835.690
836.682
841.480
836.591
838.715
835.676
844.314
834.695
835.464
843.598
846.458
832.207
839.850
838.220
845.592
841.671
845.427
847.899
835.685
842.556
841.266
840.075
841.220
838.279
843.962
840.107
842.450
841.094
846.335
845.278
839.956
842.100
846.936
845.519
846.298
850.801
844.546
851.655
839.355
844.502
854.390
845.191
848.408
848.273
855.595
850.505
852.540
850.034
849.519
842.593
854.296
857.304
844.572
851.669
855.071
852.615
856.488
845.464
852.394
847.638
854.482
845.560
858.982
850.530
848.855
859.034
849.150
855.419
851.111
850.880
849.276
857.829
858.684
857.832
862.638
858.227
850.055
862.413
863.118
865.514
864.820
863.933
859.738
859.315
858.681
858.325
855.375
862.823
861.554
860.074
857.769
868.649
860.336
855.675
856.835
861.162
870.011
864.743
869.752
867.810
858.503
869.149
863.451
860.993
866.317
858.843
866.639
857.969
871.946
865.162
861.967
869.708
871.119
863.584
867.736
873.780
861.212
874.806
870.621
870.902
876.239
871.822
876.768
873.201
870.598
866.518
866.463
878.404
867.073
872.830
869.935
872.670
878.433
874.717
869.378
872.959
865.371
868.418
874.894
871.356
871.453
872.622
874.166
878.175
877.518
869.156
873.779
883.874
871.062
880.328
875.871
874.946
879.059
876.243
876.592
884.044
876.404
877.105
875.391
877.483
876.205
882.572
877.042
875.369
875.023
886.248
883.362
875.302
879.549
883.212
884.341
887.221
890.317
882.429
879.244
889.011
885.649
893.839
890.149
888.765
889.408
882.135
887.369
888.737
895.618
887.881
885.945
896.764
899.190
887.075
886.871
898.303
893.379
893.486
894.694
901.178
889.210
901.296
890.831
897.941
900.345
903.819
899.406
905.304
893.650
895.912
898.044
901.268
905.083
903.666
895.763
910.187
908.335
907.410
906.044
899.547
914.549
910.581
900.651
907.508
902.808
910.027
906.340
906.134
910.981
918.582
907.551
913.501
920.271
912.832
907.907
921.026
919.489
911.909
908.895
921.021
923.983
919.694
925.734
914.037
923.760
926.637
913.911
914.014
921.294
913.960
922.071
918.399
920.650
921.649
922.306
921.072
921.810
925.407
924.834
933.888
930.670
931.014
923.395
922.570
930.688
924.108
932.270
930.774
936.091
927.714
938.296
925.379
939.973
937.252
941.555
930.433
933.174
932.084
941.127
936.536
939.977
939.012
942.201
933.144
944.058
939.885
935.863
939.688
935.449
941.713
936.289
946.817
937.736
936.640
949.662
945.266
941.041
953.026
947.067
942.165
940.474
949.702
941.347
946.306
942.090
955.925
954.246
944.116
951.266
955.827
959.452
950.115
960.510
947.890
961.985
960.473
955.867
963.579
957.532
956.416
953.154
960.489
955.653
954.527
953.751
957.133
967.519
962.277
968.884
968.351
969.249
959.636
961.250
956.332
970.841
969.656
957.912
973.761
963.510
969.800
971.261
975.539
967.719
970.940
973.504
969.645
966.804
974.980
969.518
972.146
978.505
977.333
966.244
970.611
976.436
972.433
973.623
979.651
974.254
975.307
972.961
972.853
986.493
982.692
975.541
977.984
973.355
973.730
983.757
975.713
983.880
981.115
979.440
976.540
976.313
977.854
983.124
979.442
978.666
974.296
985.209
973.430
980.905
972.192
971.892
973.973
986.242
980.288
973.350
977.291
980.799
981.828
975.255
974.615
978.802
982.026
975.557
970.799
983.304
978.002
979.915
969.325
982.047
970.267
979.119
980.181
966.886
970.307
976.611
973.428
964.858
970.724
975.093
973.597
977.867
976.276
975.985
963.993
965.986
961.528
975.723
972.272
966.666
970.056
963.005
973.681
972.911
958.987
973.987
964.478
963.485
963.255
961.617
958.244
967.377
962.022
959.404
970.589
963.632
960.370
960.634
960.531
968.777
957.314
956.183
962.475
964.103
963.670
962.519
962.970
952.396
957.679
961.686
954.820
966.484
955.546
960.075
954.537
953.853
959.613
963.329
955.339
951.171
955.926
956.463
957.959
953.475
953.953
949.406
960.971
959.496
960.326
950.838
960.976
951.562
950.973
945.598
957.734
955.725
959.022
950.996
956.733
946.085
946.226
946.082
951.685
942.506
943.120
943.695
948.991
946.118
951.230
952.336
947.711
944.173
947.449
954.536
949.298
951.642
940.408
951.192
952.199
938.185
943.747
938.743
949.469
937.505
949.083
947.945
943.662
947.752
948.943
947.870
937.642
946.763
935.797
944.782
934.465
939.334
946.414
934.204
933.772
945.655
942.974
933.042
943.675
933.165
945.313
933.853
929.600
933.516
942.440
936.718
936.643
929.653
929.245
931.134
932.789
939.589
932.209
930.207
938.735
940.541
926.233
931.097
930.841
938.174
938.361
933.142
923.232
922.882
937.350
934.527
935.843
937.009
933.598
931.286
922.754
929.805
933.503
933.060
924.006
924.970
920.547
932.303
919.634
932.793
928.647
921.095
926.099
929.559
920.236
928.953
920.841
918.478
927.476
917.540
912.301
918.098
908.034
916.526
909.728
916.347
909.827
911.364
912.434
912.541
908.242
902.897
910.218
905.420
893.219
904.608
901.485
902.751
900.987
897.955
901.749
886.421
893.387
886.710
896.184
890.787
882.479
886.912
882.020
883.820
879.551
874.660
880.123
882.350
877.448
880.671
879.262
871.684
880.525
870.871
877.360
873.984
873.577
863.096
867.180
856.815
868.476
857.163
859.399
853.132
865.506
862.990
849.969
848.785
856.295
849.865
858.516
849.548
855.952
851.033
839.357
840.550
851.902
843.640
839.196
844.112
845.965
835.872
833.599
837.855
840.011
834.213
825.340
838.077
837.753
832.373
823.311
824.203
817.546
822.893
817.196
817.822
824.691
820.634
816.647
816.825
819.625
811.271
817.518
820.211
813.591
808.108
810.643
810.924
806.811
800.435
811.370
799.757
799.549
795.299
801.751
795.892
790.989
792.707
791.705
799.465
796.567
784.143
784.982
796.095
795.330
784.144
782.305
791.475
784.964
787.572
780.223
778.198
771.686
771.363
772.801
777.213
770.421
777.758
763.822
772.790
769.240
773.523
766.824
764.294
761.509
756.197
763.266
759.878
763.961
750.295
752.415
760.820
749.405
760.130
746.046
755.815
742.585
741.084
743.925
746.332
747.591
746.606
749.978
740.392
742.795
743.511
731.730
737.059
742.876
727.715
726.214
725.892
731.596
726.353
735.686
731.415
727.298
726.745
722.002
729.377
717.642
727.640
724.643
717.283
709.897
720.633
714.278
718.959
712.160
713.158
705.631
704.157
704.761
704.097
700.560
698.466
695.730
696.952
695.173
698.715
703.320
693.191
701.002
695.260
687.833
687.600
686.403
692.985
