784.225
787.565
779.518
785.426
781.467
783.147
784.185
789.999
790.550
787.895
783.297
785.195
777.053
785.485
789.578
784.664
787.244
783.524
781.946
785.295
776.940
779.184
777.987
780.920
786.826
783.984
779.731
781.501
773.395
780.395
782.287
779.403
784.485
776.035
782.252
772.350
781.258
786.603
774.456
777.756
772.768
784.375
774.497
780.866
774.117
772.602
783.525
773.017
777.892
777.558
776.760
777.565
775.344
780.577
772.132
772.240
784.351
773.863
771.711
776.188
773.616
773.788
782.805
778.830
773.405
778.097
782.854
775.921
769.986
777.864
771.228
779.866
780.856
778.554
767.381
774.953
778.733
775.068
779.777
765.778
775.219
772.627
766.308
776.370
774.372
774.303
770.219
764.068
776.439
772.924
777.283
765.718
771.823
765.523
766.066
765.451
777.623
762.624
762.457
772.490
763.810
763.834
766.357
766.112
774.245
765.796
776.180
763.481
770.297
764.538
765.356
770.043
770.441
761.422
768.666
764.453
770.489
773.722
771.338
765.033
773.834
772.358
757.671
769.184
763.896
771.367
761.445
766.509
766.446
768.786
770.478
761.106
768.278
767.171
767.711
771.399
767.006
769.057
758.418
762.169
761.025
769.872
760.838
768.320
764.748
757.949
763.844
765.051
754.460
754.108
756.583
764.467
753.564
767.572
762.590
766.119
760.311
765.036
761.281
764.967
763.353
752.128
765.767
759.549
760.042
763.540
760.527
761.596
759.523
754.044
759.306
753.765
763.815
763.160
763.170
750.658
753.007
749.551
763.845
761.469
751.760
748.427
758.247
754.825
749.127
755.142
751.954
761.708
756.446
746.534
752.074
750.411
746.012
760.798
746.817
754.317
761.055
757.225
747.923
753.884
758.288
758.743
758.696
764.178
754.149
767.398
757.824
759.526
761.674
760.988
764.646
774.385
776.601
778.194
782.912
780.213
789.347
777.152
780.168
787.067
782.866
790.437
789.833
800.540
790.016
797.046
798.253
804.141
808.187
797.102
806.013
809.569
803.204
807.585
807.357
817.201
817.994
823.027
816.655
822.664
823.031
821.300
824.645
826.090
832.888
832.540
829.921
841.829
839.656
839.199
840.569
839.343
852.677
851.578
852.121
850.474
858.301
857.815
850.122
860.266
856.908
860.583
859.544
868.439
861.018
872.402
866.467
876.607
878.143
877.957
880.131
874.465
889.075
891.146
885.375
887.433
892.540
898.196
895.957
896.782
904.075
890.903
901.286
908.323
898.998
902.842
907.529
908.240
915.954
919.547
913.438
916.652
910.789
915.812
928.283
919.939
921.311
919.414
936.349
932.069
937.436
934.455
942.746
938.814
946.750
943.040
937.123
940.038
948.105
947.459
956.585
954.144
959.822
960.710
952.635
955.605
969.030
960.672
969.413
966.556
970.305
975.024
971.272
976.092
979.641
971.394
975.291
984.947
987.463
978.967
993.609
994.899
987.984
995.077
999.061
1000.149
996.167
996.706
1005.686
1000.538
1003.013
1010.168
1008.312
1002.726
1018.218
1007.608
1010.002
1018.736
1026.362
1014.434
1028.971
1024.338
1022.202
1030.840
1034.473
1025.669
1040.135
1032.070
1035.059
1033.892
1038.366
1041.837
1043.698
1037.994
1041.302
1055.497
1049.636
1056.291
1048.201
1050.808
1061.268
1062.203
1065.420
1067.022
1073.494
1067.763
1075.039
1063.773
1077.921
1078.788
1075.885
1073.476
1085.025
1074.127
1087.707
1090.408
1090.132
1081.559
1094.120
1092.326
1089.718
1102.794
1102.400
1106.176
1100.194
1102.107
1097.463
1099.357
1105.445
1107.920
1115.296
1112.485
1112.989
1103.560
1098.551
1109.658
1098.315
1097.918
1095.201
1091.148
1086.069
1093.719
1088.964
1082.372
1089.910
1080.075
1081.249
1077.492
1079.384
1083.993
1081.796
1078.582
1065.679
1075.980
1075.440
1067.274
1066.164
1055.162
1065.844
1064.234
1049.508
1058.759
1046.724
1058.899
1049.519
1049.356
1046.321
1036.828
1037.652
1036.233
1039.598
1029.959
1031.727
1029.255
1026.234
1032.472
1019.805
1028.013
1029.589
1020.886
1018.432
1015.469
1016.997
1017.423
1011.155
1008.858
1011.951
1012.646
1009.965
1009.926
1003.761
997.478
994.633
988.492
997.165
985.153
982.415
987.639
984.160
976.835
981.036
984.148
979.601
977.862
969.820
975.366
966.178
973.815
963.794
960.070
958.879
965.383
952.694
955.346
951.994
951.497
950.826
948.158
952.177
947.171
945.697
937.338
941.766
946.069
942.401
932.924
927.668
938.961
927.531
926.059
934.055
918.882
916.842
923.641
914.177
925.055
916.442
921.154
910.826
907.549
901.596
904.666
907.480
908.287
895.978
900.519
896.142
890.696
901.170
886.451
883.908
886.312
882.115
879.809
878.110
876.017
875.425
869.880
874.650
879.867
868.395
871.011
861.333
859.869
859.018
855.117
866.948
852.677
857.968
854.207
846.651
851.446
852.503
843.603
842.972
845.406
844.330
843.313
833.395
836.010
831.422
828.200
822.229
820.552
832.063
822.857
818.103
818.878
815.196
816.449
815.915
819.407
811.591
806.894
803.264
808.903
810.227
809.628
798.108
799.709
793.118
791.530
789.007
792.982
786.458
789.409
785.447
780.106
785.736
782.284
774.551
774.158
774.063
765.981
776.892
770.567
761.561
763.785
761.094
761.107
752.688
765.103
754.124
748.855
756.029
748.887
747.802
745.629
738.518
748.582
738.325
744.401
750.462
751.518
750.368
739.745
749.509
755.397
742.744
752.665
755.471
748.687
750.876
756.490
748.108
749.655
759.275
751.130
755.889
752.043
756.220
763.530
765.674
767.932
764.165
758.547
772.440
768.261
769.932
770.832
768.496
765.018
774.917
766.481
779.181
769.354
771.540
779.744
784.175
782.809
785.816
774.834
773.475
777.929
782.570
780.704
788.078
782.238
782.793
780.634
789.222
788.800
790.695
785.446
789.658
791.862
799.459
798.662
793.649
791.922
800.066
798.764
792.695
804.597
805.533
794.794
801.671
805.579
796.650
803.811
798.826
811.826
804.588
808.551
814.808
813.691
816.181
817.705
807.648
808.098
819.128
816.681
821.850
811.074
820.498
820.216
826.465
818.923
818.270
831.023
828.724
830.482
827.679
819.339
828.065
833.458
828.742
833.333
825.209
838.174
833.527
829.449
831.350
840.587
845.351
832.430
833.221
844.373
835.271
844.432
843.376
846.254
851.633
839.765
845.908
850.129
855.557
851.759
855.148
846.961
858.796
860.566
856.746
854.385
857.633
854.641
863.020
860.391
867.231
865.774
857.079
860.892
869.841
865.530
862.878
863.283
859.924
871.291
866.908
870.837
868.379
865.436
875.830
867.499
880.372
870.283
874.169
870.987
875.683
881.343
872.591
874.909
888.136
886.637
888.405
892.496
881.895
887.333
881.701
885.346
883.979
891.825
895.618
885.787
895.952
891.136
895.370
895.044
898.170
899.134
893.950
904.396
906.225
894.593
895.052
908.775
899.724
906.899
900.416
912.830
909.225
907.562
917.341
914.722
911.626
913.043
908.713
912.997
914.229
912.201
914.841
922.004
921.132
912.785
923.394
914.224
928.442
927.602
923.001
919.781
934.008
931.798
923.985
932.413
926.203
924.949
918.883
931.862
924.356
934.236
920.740
929.065
921.481
929.269
924.104
920.335
926.746
926.295
926.510
918.761
922.874
920.814
930.536
920.529
921.215
928.398
933.300
924.509
927.188
922.714
920.152
924.326
925.740
922.593
933.147
920.734
918.804
917.896
932.984
925.299
921.069
919.092
922.718
930.396
922.025
927.836
922.660
921.547
923.768
921.640
916.783
929.726
918.722
929.944
926.578
921.009
918.797
922.685
922.295
928.839
918.158
922.071
928.598
926.618
924.830
928.978
931.214
925.014
918.958
923.285
923.714
918.567
926.364
923.205
931.299
928.686
920.664
915.844
915.687
915.828
921.527
925.920
930.172
922.226
923.604
919.925
924.489
929.865
926.261
925.723
928.215
930.952
922.192
917.225
915.405
930.395
914.964
915.964
922.523
925.305
917.565
921.467
915.616
923.700
923.177
916.313
924.517
928.989
929.804
928.677
917.964
917.401
917.485
928.953
922.098
916.944
916.294
914.474
924.081
925.149
919.113
921.107
923.016
927.358
920.520
926.128
914.097
927.910
926.956
924.262
929.299
915.260
925.362
928.502
925.898
924.097
921.874
918.356
929.193
916.728
923.078
925.599
924.734
926.728
920.812
913.260
918.905
925.666
921.703
926.720
925.989
915.881
923.646
921.253
917.121
922.000
922.271
918.888
918.563
923.806
927.800
918.777
921.302
918.699
924.787
915.331
927.615
917.657
913.824
912.808
923.410
919.142
926.304
924.115
915.967
923.347
919.408
922.296
927.593
911.902
918.359
915.343
915.013
926.919
926.115
921.079
923.670
920.903
915.202
919.528
915.637
920.438
913.439
918.668
921.911
925.891
923.054
911.626
915.550
920.481
923.602
919.503
913.604
908.957
911.798
919.403
906.638
914.312
905.980
909.919
903.961
898.973
901.087
899.312
901.315
893.277
899.723
894.266
898.280
897.905
892.651
895.547
883.350
893.591
879.329
889.854
889.419
875.134
885.096
881.356
871.199
866.662
880.396
879.304
865.737
865.520
861.068
866.702
870.589
855.566
854.086
857.623
852.179
863.846
857.427
856.483
858.597
851.297
847.347
850.198
852.962
847.033
836.651
843.217
847.822
840.269
836.091
835.977
830.682
835.096
825.255
836.742
829.427
824.869
823.609
820.287
830.673
822.554
814.184
824.709
812.357
815.407
822.053
810.396
810.471
809.293
804.383
809.816
808.381
809.600
801.686
808.089
802.078
801.696
793.420
804.565
797.268
792.304
793.054
790.728
785.250
787.028
790.673
781.303
789.951
783.899
787.122
785.401
772.974
783.497
773.531
765.934
769.418
770.524
764.193
765.992
774.362
764.661
766.262
765.910
767.515
763.413
751.936
753.896
757.505
757.266
752.840
749.261
756.398
750.148
742.224
743.845
745.937
749.776
736.627
745.850
740.751
735.501
742.938
736.329
739.718
730.724
733.745
721.300
725.745
732.841
728.711
719.696
717.912
717.827
722.541
722.325
708.696
709.233
704.458
706.030
712.055
707.081
699.407
705.543
696.302
695.304
706.053
698.665
693.352
704.008
693.573
698.383
698.658
691.422
689.077
692.879
680.989
684.575
680.380
689.736
678.556
672.811
672.311
680.135
676.883
670.867
671.377
669.373
665.544
663.356
660.607
658.808
660.833
654.499
667.370
657.205
657.111
656.598
649.972
653.312
647.977
643.873
650.571
650.719
640.734
643.306
647.308
638.839
645.768
635.478
634.995
630.337
635.219
634.408
635.284
633.132
631.338
630.673
641.196
633.298
642.159
643.526
634.421
630.607
630.642
632.571
647.371
643.914
637.821
644.281
644.284
647.955
649.629
640.954
645.657
647.184
652.025
645.447
653.684
654.541
642.114
653.738
643.988
650.338
651.109
655.091
661.296
656.080
653.364
662.024
652.761
661.065
662.730
654.219
657.011
663.845
663.849
655.274
668.784
668.154
657.083
658.901
669.809
673.447
664.774
661.745
663.067
666.411
670.596
676.384
674.033
679.274
665.881
670.097
669.817
677.887
679.629
672.415
682.441
679.283
684.968
678.244
683.690
679.894
688.044
686.975
680.068
686.274
682.080
684.507
680.751
690.759
681.602
693.500
684.282
696.220
696.940
687.084
689.683
684.702
694.250
685.874
700.740
696.805
701.550
692.549
688.697
691.535
693.431
696.914
704.519
699.972
704.918
696.766
706.879
694.764
700.804
698.675
705.028
705.721
705.673
708.650
712.041
709.266
715.574
716.754
705.378
717.374
716.186
705.731
706.791
708.971
714.404
718.316
713.112
723.836
714.412
712.143
725.601
727.277
722.748
726.463
721.244
722.790
725.511
731.229
725.280
725.802
723.616
720.677
726.636
721.470
732.805
725.154
734.933
726.801
725.042
735.561
736.931
737.326
736.857
739.817
742.467
742.083
732.093
740.119
738.885
745.187
742.673
747.937
738.258
736.677
737.393
737.150
741.206
741.214
741.696
742.313
742.636
755.413
741.876
745.786
754.071
747.505
756.774
755.554
759.449
749.964
747.169
756.957
749.764
758.182
750.228
750.024
760.841
761.377
758.977
758.213
759.844
764.434
763.150
757.689
770.678
759.332
758.405
759.220
771.550
767.296
771.303
769.752
774.130
762.926
776.648
766.714
772.446
773.017
775.792
775.299
767.339
768.750
764.221
757.350
754.493
755.592
758.959
761.822
749.805
749.473
755.012
754.358
752.335
744.135
749.002
750.019
745.700
748.027
747.281
740.195
744.539
735.909
731.174
735.854
729.708
737.894
723.815
724.765
731.183
719.059
731.708
717.024
715.028
719.632
717.197
710.413
723.862
718.841
710.140
712.464
703.173
708.860
715.032
699.614
698.715
708.969
709.846
701.876
701.471
697.717
702.085
687.561
692.789
699.533
696.314
695.976
686.241
693.272
678.742
688.676
685.046
677.037
682.779
671.206
680.527
676.225
673.439
667.957
666.452
671.597
665.971
667.350
663.790
658.598
667.882
663.645
663.802
658.747
654.096
652.139
648.338
659.756
655.887
652.665
641.637
642.460
638.057
642.206
635.128
637.600
645.282
638.768
639.156
633.359
629.884
631.103
626.905
630.847
624.238
620.955
628.506
626.678
627.909
619.317
616.874
620.259
623.494
609.582
619.089
621.118
617.800
604.247
610.004
613.018
605.992
601.913
605.219
604.277
606.502
605.759
592.461
593.963
602.878
593.571
584.985
595.810
586.946
592.063
579.729
591.193
588.159
586.879
585.611
581.900
579.325
573.909
574.652
581.632
571.477
565.260
571.528
563.479
564.971
569.297
557.042
563.802
566.789
558.860
554.536
562.391
550.384
559.829
560.026
552.333
542.946
556.270
547.547
540.856
548.311
538.934
542.283
539.936
541.865
529.726
537.724
531.757
530.460
525.564
523.827
522.040
533.321
528.984
527.756
520.821
520.360
512.822
512.529
521.488
522.584
517.294
519.466
512.910
517.735
512.225
502.184
499.997
498.548
504.827
501.001
508.229
504.266
490.770
503.576
496.736
488.200
488.373
483.877
486.755
481.309
482.750
479.960
485.874
472.256
477.930
468.027
474.058
467.528
474.100
469.648
464.117
457.223
453.733
453.201
452.711
459.538
448.215
448.244
451.026
447.620
452.992
451.502
443.902
442.529
432.474
435.091
429.955
432.944
429.408
425.071
423.197
428.316
423.599
419.857
425.586
420.345
421.604
407.360
411.046
402.886
411.699
401.654
411.478
394.543
391.936
401.491
401.762
387.976
393.418
394.693
385.803
380.517
383.438
382.084
382.260
381.443
377.852
367.133
368.135
371.491
365.155
361.028
371.890
365.485
361.010
353.146
350.245
350.573
350.608
343.458
354.964
347.211
339.748
338.439
348.979
333.153
343.995
341.655
341.805
337.329
336.775
324.450
333.571
330.064
324.585
320.951
321.840
309.884
313.513
315.742
314.555
310.285
313.038
303.139
296.584
307.904
302.204
293.249
299.340
288.637
298.661
282.792
292.352
282.988
289.428
273.962
276.166
278.561
281.041
280.027
273.105
263.175
261.527
268.602
260.554
260.526
265.652
257.608
262.377
252.903
254.831
245.204
241.708
239.124
243.303
247.826
247.380
235.548
229.282
232.291
227.368
235.506
235.865
225.971
219.417
228.760
217.509
219.797
217.993
219.973
218.781
216.300
206.487
204.607
198.448
201.330
208.759
194.305
200.431
200.587
199.118
187.829
192.454
195.522
183.233
186.967
175.406
179.926
186.038
183.152
175.866
177.526
168.408
176.538
169.227
160.094
160.455
163.158
166.843
160.523
160.290
149.998
156.235
145.929
152.078
140.044
458.580
441.786
458.943
465.247
443.263
430.905
432.979
405.212
431.171
423.525
416.225
382.541
416.970
378.476
397.805
364.784
366.975
385.880
374.208
360.423
359.896
356.493
331.222
347.686
330.998
312.001
321.553
349.336
310.253
358.829
344.684
322.394
339.996
318.644
336.349
331.884
347.400
309.364
350.919
309.322
309.785
333.921
336.772
313.615
326.054
346.767
331.654
309.414
322.274
307.855
323.448
333.826
338.970
325.208
301.911
311.731
334.000
328.784
332.797
336.927
314.823
342.799
314.761
304.336
320.422
331.267
336.464
308.729
319.739
305.448
314.668
309.859
327.555
294.372
305.143
313.182
333.053
299.350
335.231
306.227
324.162
286.418
329.894
290.019
331.079
307.486
315.039
318.037
318.172
324.542
317.064
319.445
285.486
306.515
280.166
292.417
298.379
287.964
286.796
290.479
301.908
286.514
283.148
307.983
278.251
298.399
281.042
312.115
288.193
317.717
288.656
302.458
285.448
268.554
280.090
277.618
309.873
284.238
294.546
289.092
267.656
298.737
266.966
310.609
281.209
304.101
303.405
275.609
293.888
296.256
277.111
302.794
290.824
263.211
307.331
274.177
263.929
292.793
258.221
298.529
260.913
262.490
269.001
285.383
260.566
283.433
288.594
287.262
279.579
299.602
261.521
250.538
277.139
293.683
253.611
282.561
290.446
258.257
285.087
252.980
275.668
276.611
279.441
294.232
273.855
255.922
250.571
291.523
250.911
290.824
252.292
258.572
256.150
246.974
281.815
264.977
245.568
269.282
274.363
267.344
249.785
236.456
267.452
272.570
279.073
240.184
275.601
233.734
263.511
251.184
246.540
244.208
272.160
251.949
278.788
256.161
267.338
247.472
265.760
258.026
272.424
242.551
250.554
240.430
248.795
227.009
257.365
265.907
241.951
224.310
244.224
255.632
266.843
232.978
244.712
261.157
223.170
245.753
217.394
227.583
220.434
