200.375
198.164
201.209
208.863
205.416
200.750
204.935
204.456
206.330
205.250
207.749
218.035
226.464
227.168
222.565
226.653
230.210
234.464
227.206
232.237
235.889
236.768
234.274
237.488
241.781
252.252
254.595
254.979
255.274
247.585
259.200
250.196
260.608
257.425
255.872
259.810
271.321
269.600
270.783
265.549
277.540
276.252
278.973
279.494
288.155
288.931
283.406
292.836
297.766
297.341
300.670
292.773
298.466
296.690
305.796
297.646
306.548
314.798
306.821
304.620
318.547
323.365
318.150
326.181
314.366
330.420
328.784
329.264
328.667
323.427
332.422
338.564
334.096
346.828
338.089
335.820
352.449
351.977
342.410
355.105
357.675
353.585
364.056
353.227
359.848
363.610
361.929
365.498
361.600
377.050
373.376
377.029
376.864
370.334
375.652
388.513
379.445
390.589
394.456
382.498
392.419
392.211
388.440
396.306
396.233
394.095
402.967
405.454
414.042
404.376
409.370
417.534
416.070
422.769
411.937
418.108
419.765
427.939
434.380
423.983
426.461
440.702
433.518
444.126
441.098
444.443
447.780
450.795
452.152
444.719
456.057
446.931
461.220
450.185
456.811
465.206
464.556
457.858
474.230
470.693
472.721
469.158
476.000
470.869
473.188
479.952
482.852
481.248
485.910
483.098
492.249
488.727
491.189
494.004
502.434
502.628
509.053
511.844
500.068
512.364
502.251
513.115
520.076
519.639
511.663
512.000
525.868
521.665
529.122
520.622
530.900
527.280
529.795
540.788
542.842
536.026
540.517
547.538
549.612
542.023
542.665
543.908
550.758
556.030
554.320
558.269
564.799
565.638
562.712
560.834
569.445
566.012
570.041
573.226
577.797
577.986
577.596
579.656
582.013
588.171
585.708
582.913
587.555
593.757
598.651
586.960
589.840
589.716
594.116
601.430
603.872
603.991
597.685
608.340
602.466
607.120
596.706
600.129
613.875
608.816
606.303
611.906
609.454
615.641
608.306
613.755
618.960
621.897
613.136
617.344
611.297
620.373
626.214
620.670
627.606
629.270
622.526
618.978
622.507
622.520
630.063
633.728
636.922
638.425
634.442
630.270
630.095
631.153
639.424
636.790
630.093
639.405
639.001
643.503
641.249
635.900
646.252
645.036
650.984
641.979
648.901
650.343
642.784
649.285
646.031
654.921
649.816
661.747
648.074
652.061
655.751
652.438
666.414
654.923
655.983
660.052
661.726
667.057
664.145
659.272
663.298
671.093
666.754
666.805
674.683
674.644
676.220
667.880
676.973
674.404
675.429
671.613
676.359
687.241
677.168
681.449
688.980
688.381
684.665
678.518
680.534
683.943
686.011
682.221
692.270
687.393
698.954
699.689
688.812
700.214
700.241
700.928
706.317
699.463
701.531
708.960
703.188
705.304
711.996
699.682
707.759
701.033
709.102
714.826
712.683
719.595
719.247
709.178
715.085
713.220
710.394
720.133
711.393
723.511
719.577
727.610
725.090
719.742
720.904
733.275
734.586
726.418
721.585
732.056
726.955
729.897
740.008
731.676
738.084
732.513
743.143
742.724
741.376
745.298
746.087
733.668
736.474
742.924
750.897
751.987
740.448
740.084
753.746
745.658
747.423
744.476
756.037
758.886
752.927
753.091
762.044
757.521
756.499
756.430
761.932
765.450
758.737
760.932
771.465
771.709
771.916
762.195
760.498
767.881
764.802
772.823
769.076
775.799
775.654
778.242
781.338
775.027
781.267
773.603
777.085
773.767
787.739
787.658
784.612
792.875
782.270
793.307
790.509
789.596
788.061
787.533
790.377
783.812
780.080
778.809
777.693
787.492
781.643
790.513
786.124
783.298
788.923
781.358
787.674
788.921
785.817
778.894
782.553
788.655
781.868
776.055
779.761
787.761
775.147
776.290
785.419
774.187
778.045
782.739
785.590
780.510
778.089
776.270
787.353
786.350
772.973
785.091
785.196
776.328
780.263
771.191
772.824
771.261
773.392
778.431
775.942
769.477
784.078
771.879
784.883
769.218
774.591
778.008
773.682
783.933
778.968
781.245
770.580
773.836
782.290
775.294
774.444
782.586
768.457
782.116
778.370
767.424
773.843
781.111
778.951
777.108
767.388
777.119
778.366
767.817
771.736
776.265
778.318
765.026
779.761
773.050
767.379
774.356
770.345
770.911
764.425
769.539
774.170
771.462
772.498
768.904
763.540
768.694
768.628
767.862
763.959
768.416
762.954
770.291
771.204
772.910
761.060
770.988
768.352
765.137
766.108
763.927
774.929
761.319
761.514
770.688
759.759
773.773
761.233
765.792
761.377
765.998
772.420
758.280
771.741
773.038
766.356
757.769
759.202
763.899
768.004
769.284
766.221
767.814
762.381
764.778
761.059
766.738
755.788
764.877
767.035
766.294
757.544
755.501
763.057
756.187
757.699
759.678
756.904
767.854
755.698
759.504
764.809
757.636
764.492
767.801
759.512
765.970
760.182
759.144
754.261
761.037
765.039
763.168
760.122
764.383
755.717
753.566
757.769
760.817
758.224
762.129
761.964
759.490
752.114
761.936
760.636
754.872
749.725
753.191
754.018
752.041
752.775
763.486
752.748
749.613
751.929
752.502
751.462
761.925
753.477
753.273
759.439
751.721
746.391
751.066
755.873
748.148
758.727
753.344
748.228
759.246
752.212
762.751
752.751
754.452
768.082
762.277
765.485
762.037
767.210
770.902
769.628
770.991
785.459
785.263
784.322
780.420
791.366
788.114
794.178
792.084
799.575
795.706
789.006
795.179
803.315
805.571
805.382
798.230
805.240
814.774
814.050
805.497
820.551
822.750
824.630
814.300
826.460
820.591
819.049
822.868
821.942
825.257
835.143
831.924
828.391
839.687
845.696
833.005
835.490
846.543
851.115
846.471
847.731
845.231
860.575
858.863
852.157
858.039
863.176
868.661
862.658
867.203
860.943
876.179
871.134
867.684
873.611
878.605
880.121
885.265
886.987
882.246
893.281
893.778
889.895
886.563
897.518
900.381
890.022
895.779
898.566
908.607
904.900
909.705
908.337
911.657
905.544
910.364
917.624
916.731
924.729
915.888
916.138
916.485
920.154
932.547
923.742
926.224
940.052
927.724
935.009
931.052
935.682
938.986
942.193
940.014
948.090
955.333
951.384
945.164
961.273
959.472
952.835
957.975
958.384
966.253
957.625
959.731
962.220
976.020
974.981
970.174
970.605
969.822
978.832
979.375
979.439
991.602
983.712
994.197
984.088
987.635
1000.486
990.291
993.336
992.672
1008.359
1008.394
999.488
1003.745
1015.591
1007.098
1019.082
1017.883
1007.789
1023.925
1023.331
1023.756
1030.280
1030.835
1030.698
1030.433
1033.993
1032.713
1029.942
1038.444
1037.553
1037.409
1034.399
1045.873
1038.547
1048.699
1049.213
1049.290
1046.336
1056.393
1049.735
1053.224
1054.890
1055.106
1064.037
1063.058
1063.149
1063.728
1067.561
1066.843
1065.703
1078.986
1076.706
1070.962
1083.171
1080.399
1076.425
1093.331
1081.690
1083.491
1088.006
1092.282
1087.292
1100.309
1096.322
1101.660
1101.315
1111.272
1108.633
1107.494
1102.729
1110.771
1110.722
1104.896
1108.537
1099.039
1103.924
1099.417
1098.882
1101.764
1091.724
1099.361
1101.656
1084.757
1085.104
1091.844
1091.089
1085.550
1081.158
1087.788
1076.455
1077.383
1072.332
1066.393
1064.619
1069.054
1062.734
1071.851
1069.806
1060.631
1054.282
1062.309
1063.636
1053.515
1049.648
1056.204
1044.751
1053.264
1050.156
1045.300
1049.075
1041.185
1032.346
1042.291
1033.686
1031.083
1030.066
1027.627
1025.074
1017.856
1025.455
1013.792
1027.466
1015.297
1021.717
1017.900
1006.797
1014.255
1004.674
1002.520
1010.999
1004.265
997.512
993.779
993.943
999.076
988.320
988.459
984.107
989.995
990.376
984.258
977.972
982.919
983.229
978.572
968.287
969.006
978.553
969.628
973.216
965.903
971.298
957.249
961.950
959.846
949.632
954.124
947.174
944.710
946.595
945.848
938.044
940.950
940.384
940.499
938.135
932.298
927.190
940.044
935.131
929.403
920.182
930.464
917.012
920.551
923.483
911.776
915.217
906.054
918.439
916.647
912.458
903.176
900.933
901.805
900.771
895.755
893.648
892.878
899.126
893.659
887.235
892.661
879.393
885.887
889.065
875.710
877.813
883.470
878.011
871.832
867.476
863.663
872.165
857.667
858.022
859.694
856.859
863.789
851.044
850.711
846.414
848.936
845.806
852.303
839.283
846.265
843.461
845.855
840.628
832.234
836.137
828.709
824.110
835.786
822.869
821.359
822.051
817.523
821.730
820.373
815.662
808.388
805.733
811.085
809.856
807.844
811.477
803.030
797.244
791.971
796.810
790.459
792.980
797.026
794.375
785.782
778.772
780.982
775.923
787.749
783.390
768.843
782.237
766.334
774.322
761.731
763.450
758.526
762.446
759.639
757.633
749.827
762.689
755.702
748.394
751.408
740.764
752.202
737.531
745.355
736.483
746.509
749.138
748.759
738.837
741.204
750.579
751.333
753.746
752.936
744.620
748.032
749.387
750.711
757.105
757.835
762.411
762.925
754.925
763.388
757.730
757.552
763.543
765.296
760.915
763.528
760.595
773.430
764.145
763.245
767.294
766.687
762.715
770.396
777.738
770.604
770.759
773.631
779.423
781.449
784.993
773.980
775.194
781.367
785.340
780.553
779.604
782.075
789.381
793.179
792.749
780.511
796.347
792.024
788.632
789.925
790.102
799.654
787.272
790.337
791.055
797.950
800.032
803.908
801.471
794.393
799.211
803.278
796.166
798.426
802.328
814.062
808.616
815.784
815.179
809.943
809.448
817.735
815.738
821.780
810.316
815.351
815.547
818.151
811.752
819.719
821.890
829.191
815.813
827.757
822.735
827.716
825.984
832.161
823.991
826.107
836.971
825.178
828.571
828.059
826.241
839.856
835.161
844.140
838.284
842.702
838.556
836.889
848.803
847.023
835.340
850.480
848.979
846.491
844.271
851.654
849.821
843.229
845.370
852.303
846.884
849.806
856.553
849.079
859.476
856.976
853.588
859.513
863.743
866.667
863.426
856.013
860.231
868.569
872.114
860.082
872.385
865.924
874.849
864.259
878.835
875.890
871.359
876.187
882.482
871.891
873.130
881.290
878.107
886.513
882.886
880.394
879.586
886.861
884.821
881.020
887.322
892.002
880.956
883.297
892.490
891.632
896.604
887.151
894.601
888.305
896.002
901.897
889.204
894.231
895.540
906.422
897.943
907.275
904.415
908.887
900.507
897.624
905.682
901.408
904.472
910.872
906.927
918.641
911.372
916.732
906.663
911.680
916.569
920.723
914.798
925.173
921.554
920.203
927.357
916.161
925.903
918.071
919.627
929.203
925.215
923.753
930.862
926.562
933.767
924.864
931.844
923.633
919.682
930.879
924.628
927.842
933.752
922.687
918.720
927.728
928.218
920.950
926.355
928.692
926.894
929.522
918.947
920.642
931.609
932.017
918.779
932.414
925.198
917.956
933.237
917.732
919.070
924.622
928.430
923.769
918.661
929.577
923.851
931.493
921.845
931.387
932.669
918.270
927.299
918.458
927.484
918.727
918.592
927.152
924.553
924.420
932.518
931.152
917.881
922.425
920.079
920.866
923.538
917.597
927.482
925.520
927.963
922.387
931.886
917.270
927.803
928.836
921.564
928.222
929.749
931.569
921.695
925.371
920.461
916.860
916.271
929.224
928.785
927.424
917.895
920.950
923.687
924.685
923.463
926.137
916.410
915.798
924.559
916.872
923.854
921.002
929.833
927.130
916.143
915.011
918.773
929.863
929.252
919.268
924.073
926.858
923.110
917.467
927.210
914.871
921.727
917.206
919.988
927.415
917.268
923.757
921.991
914.462
921.645
929.049
921.373
923.128
914.485
928.044
917.127
921.677
915.586
918.813
918.491
925.759
915.848
916.559
921.804
918.638
918.903
926.817
924.948
920.939
924.227
916.003
916.914
921.991
917.331
920.587
924.383
928.248
918.087
919.323
928.960
926.078
913.118
914.647
922.042
915.144
917.444
912.840
913.736
923.091
926.084
920.416
919.957
915.893
922.621
926.947
921.947
915.024
921.956
922.918
922.142
917.129
918.343
916.622
914.689
916.160
918.006
921.681
924.042
919.454
920.189
912.701
922.974
926.143
915.057
920.526
911.808
921.344
913.613
918.474
912.303
913.671
921.158
923.816
918.999
925.956
920.521
913.569
911.388
911.162
911.933
924.495
924.865
912.031
924.911
921.921
912.519
915.349
913.271
908.959
920.488
919.320
913.251
914.841
901.339
908.083
908.735
908.716
898.435
901.847
895.109
904.447
892.760
897.696
898.294
895.538
890.616
891.542
881.350
883.893
881.581
881.960
889.457
874.956
880.834
874.151
870.412
878.463
869.649
869.059
863.200
868.707
861.620
865.838
860.140
863.880
854.276
861.752
865.890
861.990
861.553
854.445
854.993
855.134
845.494
854.801
849.459
850.334
850.252
847.306
844.539
833.603
845.551
835.362
828.646
839.915
832.610
837.034
829.753
829.071
831.958
819.817
818.567
830.306
814.653
819.094
812.652
812.750
819.169
811.632
813.117
809.363
805.613
812.767
812.067
809.088
801.214
807.834
806.897
797.168
805.200
790.313
792.905
790.611
793.397
785.920
796.195
781.878
793.884
790.491
788.867
789.904
785.469
781.297
770.866
769.064
768.914
766.650
765.154
767.323
774.684
762.911
761.212
762.314
768.496
768.218
761.320
752.259
755.239
762.236
762.496
746.296
760.109
753.937
753.384
752.549
746.054
750.848
742.847
739.370
747.629
736.200
742.350
730.192
727.204
732.104
733.062
734.642
733.085
728.671
727.029
722.131
715.623
729.746
720.441
716.933
723.821
708.706
721.259
714.116
719.614
707.215
710.049
701.565
698.615
708.149
702.868
694.987
695.148
699.363
697.902
698.321
694.727
691.920
695.795
698.146
688.511
689.087
685.603
692.510
683.183
676.477
676.673
671.160
677.050
673.160
668.130
668.711
670.312
668.948
664.597
666.451
660.492
669.785
667.136
669.101
658.714
661.946
653.046
649.334
651.660
653.771
646.901
647.176
648.333
648.765
643.277
652.271
644.335
644.585
641.691
634.782
640.277
628.867
627.200
634.833
635.582
639.149
627.920
628.623
627.714
627.660
642.519
634.657
642.387
631.069
634.084
631.745
636.407
636.002
641.379
644.287
636.677
648.170
650.929
651.562
649.668
647.386
644.324
646.075
643.794
641.813
644.209
644.942
658.635
654.883
647.484
658.095
649.584
655.951
650.231
663.749
652.449
660.434
652.075
656.771
652.060
658.774
668.133
662.698
655.707
660.292
667.985
665.727
657.861
665.302
673.344
665.317
671.446
663.244
668.244
667.071
678.878
667.659
672.586
672.973
672.204
679.850
673.041
679.366
668.889
679.598
673.641
675.202
672.553
676.121
680.031
684.329
682.985
683.411
688.333
687.018
679.131
683.361
692.220
683.063
688.164
685.434
694.894
691.852
685.765
685.167
699.847
700.676
687.375
693.540
701.124
691.207
694.249
694.496
696.488
692.573
692.354
706.567
705.292
693.427
702.137
707.535
702.174
699.129
699.777
704.065
706.156
703.893
708.026
702.888
710.222
717.197
708.488
711.981
716.428
718.261
712.542
706.601
709.935
713.003
717.469
721.977
710.723
711.674
720.813
721.686
721.352
723.729
722.009
717.589
720.815
721.555
730.754
725.740
721.809
726.341
721.240
722.101
729.621
735.363
737.160
734.424
730.416
739.797
735.329
736.578
730.875
735.255
732.135
730.008
744.575
729.910
738.013
745.346
737.607
742.512
735.278
748.847
740.751
738.777
749.078
751.676
753.100
743.277
749.833
747.957
753.861
752.402
744.329
749.154
750.153
754.458
754.907
750.789
753.488
754.134
753.011
753.871
752.919
763.836
763.076
762.209
754.902
756.282
766.281
763.319
764.674
756.768
760.474
772.322
758.024
763.578
764.514
763.074
773.084
763.572
772.844
765.547
764.041
775.195
767.809
764.220
763.022
765.202
760.884
767.508
769.402
758.454
764.577
761.027
765.740
762.985
754.858
757.265
753.303
744.724
744.167
754.112
748.994
748.933
745.152
738.073
743.211
744.314
742.847
735.848
733.957
733.087
726.879
737.718
724.643
736.458
722.645
731.541
721.005
722.340
721.955
722.393
726.725
721.036
717.834
719.918
711.213
711.642
702.932
704.460
711.799
706.102
708.791
702.653
700.138
702.230
692.810
690.690
702.066
701.261
699.107
687.194
691.867
696.806
695.596
681.745
678.552
690.906
689.663
683.135
674.444
679.262
673.586
668.090
666.942
679.582
666.393
675.102
665.345
669.187
661.753
667.786
655.481
658.635
663.137
654.940
650.641
658.383
648.950
648.782
646.196
651.598
642.331
650.230
650.270
644.318
636.626
638.681
637.827
637.389
630.339
638.495
641.609
634.082
628.424
630.580
629.048
633.927
619.672
623.980
628.341
624.596
620.813
617.592
621.913
622.996
620.757
615.183
608.111
604.402
616.023
611.978
603.053
608.506
600.459
606.199
607.768
594.936
598.625
594.453
600.933
599.098
584.819
597.080
591.245
584.690
579.914
587.570
585.777
579.968
575.625
578.303
576.096
582.109
580.590
567.461
575.455
577.426
569.687
575.763
574.046
559.261
570.212
563.918
562.076
559.869
557.101
552.795
548.924
554.029
552.861
557.496
547.091
551.432
542.517
553.288
538.968
545.597
542.576
539.890
536.125
543.366
540.063
538.372
537.639
524.496
529.615
535.118
534.079
526.247
529.000
521.593
523.303
523.305
512.432
511.540
510.515
507.480
509.633
514.259
508.085
514.340
503.424
503.122
510.191
506.574
495.522
502.729
505.160
502.763
494.850
487.297
495.217
485.914
