357.909
361.402
358.261
359.681
367.126
364.124
362.158
369.197
374.293
368.300
367.837
369.254
379.354
377.886
374.284
371.574
368.972
383.797
383.149
373.491
384.190
383.461
385.724
374.704
375.822
377.971
389.710
377.419
380.697
388.614
393.550
381.426
392.312
381.720
385.962
383.605
395.333
398.027
389.843
395.626
398.659
389.829
388.076
401.861
389.454
404.321
390.889
394.467
397.752
398.444
397.110
401.557
404.247
397.785
404.595
397.625
403.697
403.342
408.542
403.469
408.388
407.474
401.876
412.534
408.436
416.890
407.909
412.495
418.728
408.716
409.865
410.939
413.992
409.412
414.974
423.679
426.719
418.842
415.318
421.625
425.508
430.970
430.640
423.200
428.078
424.731
426.394
433.733
420.741
433.923
422.916
424.436
424.296
425.024
432.931
426.223
440.601
436.785
428.816
437.516
429.142
430.262
430.723
443.715
436.393
440.423
443.603
438.571
448.411
436.836
447.019
438.942
443.781
454.051
443.642
444.091
444.166
452.323
449.301
450.515
455.084
453.873
447.473
459.158
458.764
454.665
462.522
460.345
457.608
459.584
452.211
467.272
462.698
468.465
467.819
462.095
462.897
471.280
469.394
467.252
473.328
463.151
469.227
464.120
472.177
467.397
475.512
473.185
477.104
470.450
476.580
476.790
469.192
483.811
475.412
477.642
480.216
481.861
487.451
476.974
474.041
482.924
490.258
476.858
491.475
482.253
485.564
482.823
493.344
493.762
483.518
481.106
486.706
489.040
483.788
486.798
489.691
487.807
501.487
490.727
499.337
503.206
496.848
491.504
493.544
497.195
498.219
505.075
504.055
504.011
508.343
498.102
502.855
497.498
509.089
512.442
510.210
515.801
507.361
507.760
516.293
506.052
510.176
515.980
522.423
528.410
531.470
520.057
526.340
537.570
532.197
540.327
542.019
539.868
542.001
543.468
553.511
549.242
552.064
557.885
563.272
557.480
565.258
566.375
570.755
568.785
562.686
579.737
566.758
578.701
578.849
578.514
580.494
586.869
580.702
584.813
592.548
599.752
602.017
598.101
600.944
597.865
613.906
603.985
605.951
615.382
609.483
617.339
624.687
624.029
619.384
633.664
636.808
635.025
633.169
634.617
632.064
647.789
635.392
650.940
640.239
642.496
647.417
652.062
660.472
653.533
653.681
662.808
666.720
673.595
676.443
679.711
669.490
680.576
686.779
674.445
678.553
689.186
687.750
698.753
687.135
698.161
696.294
703.435
709.256
704.920
709.195
708.697
708.474
708.779
713.752
720.576
722.318
719.951
725.598
727.916
731.362
732.214
738.194
739.671
735.211
748.698
746.172
740.101
753.522
754.851
751.228
752.489
762.439
760.481
769.675
765.307
772.954
764.893
769.190
776.734
773.490
774.139
781.282
778.295
790.153
793.437
783.456
798.152
797.009
799.805
805.453
794.328
798.128
800.740
811.887
804.345
812.983
821.558
815.266
818.307
827.921
818.870
823.643
823.401
822.726
835.116
831.651
845.203
843.393
846.833
844.708
849.478
844.101
843.954
856.937
849.235
861.368
852.894
868.538
865.802
870.863
873.229
865.277
872.777
872.314
881.885
878.441
882.911
888.803
894.239
895.605
887.557
889.356
890.557
901.324
901.174
907.368
903.896
904.179
914.270
908.015
911.839
921.241
922.404
914.491
922.156
922.086
931.727
934.311
937.948
929.310
945.014
933.959
938.836
944.835
942.471
951.375
956.993
946.328
950.041
961.681
955.119
967.564
961.521
965.224
967.206
972.549
966.175
964.431
960.877
965.132
960.920
955.658
953.381
952.403
959.245
945.482
954.461
947.935
952.611
936.314
943.158
934.042
936.997
941.501
942.902
930.067
929.171
932.213
930.379
931.491
921.015
929.562
922.827
928.797
915.891
927.382
923.042
920.899
911.816
919.252
911.588
910.945
905.351
906.812
910.740
909.656
906.548
902.404
906.428
899.481
895.165
902.333
897.351
890.578
899.385
891.501
885.854
890.375
883.106
888.557
877.052
877.287
876.515
886.131
885.644
882.654
869.183
869.695
866.726
869.284
871.718
871.288
860.839
864.278
860.615
863.538
860.737
861.759
851.599
852.246
849.837
859.820
856.964
848.551
845.208
851.654
841.541
849.612
849.502
842.007
832.671
835.191
832.989
837.843
830.786
830.061
823.467
826.232
831.906
828.502
831.815
818.180
822.376
821.552
813.110
818.707
823.882
814.734
812.999
816.957
805.020
805.385
801.297
803.401
808.301
802.748
809.722
808.528
792.137
798.257
794.984
790.696
796.477
787.855
789.701
784.927
790.898
779.508
786.396
786.943
780.213
773.524
783.726
784.924
774.425
774.620
772.764
774.562
777.631
772.507
764.566
767.829
763.362
767.590
765.261
766.393
766.009
749.345
755.204
758.047
750.790
754.561
753.472
742.029
745.138
741.450
745.032
742.469
745.329
746.340
730.886
737.460
729.522
731.160
729.008
726.294
722.340
722.602
721.187
720.458
723.062
720.407
716.723
717.313
715.433
718.810
717.307
713.178
704.790
716.990
715.287
710.869
707.523
698.097
706.743
706.102
695.996
699.059
702.974
693.562
691.387
688.804
682.829
687.424
685.865
686.304
689.806
677.736
679.636
684.909
683.124
675.970
673.654
677.817
671.751
671.747
677.394
680.565
672.597
681.113
682.572
684.673
677.887
675.357
684.952
685.776
690.113
680.680
679.502
684.779
690.646
688.376
690.645
698.455
691.997
690.551
692.989
698.513
697.671
703.412
691.694
691.071
700.602
693.298
702.272
702.751
706.843
699.545
700.939
701.595
703.877
705.281
698.987
708.791
704.904
702.561
704.840
705.438
715.176
706.762
718.829
707.958
715.958
722.195
716.988
718.579
723.531
720.108
719.094
719.288
724.758
719.173
728.729
721.509
716.404
717.001
730.071
725.108
720.267
731.675
723.160
729.122
732.725
735.694
724.741
731.321
739.287
732.135
735.320
741.739
732.914
730.562
735.352
736.577
742.504
745.329
744.067
741.132
743.343
740.946
746.883
749.418
744.609
743.490
748.142
753.227
753.698
757.605
758.691
753.109
753.075
753.631
754.911
758.945
762.955
752.307
765.516
755.641
765.793
764.721
753.463
757.078
755.129
756.154
765.400
766.185
758.991
765.229
769.627
776.058
762.134
772.617
778.423
764.454
772.708
773.590
771.483
768.953
776.281
775.942
773.095
773.889
782.375
778.118
781.608
784.004
775.705
784.048
781.631
784.814
785.810
782.701
792.889
788.492
795.329
787.609
786.082
787.935
797.532
792.569
795.596
794.600
793.786
795.580
789.879
800.095
793.302
803.234
808.067
808.814
799.089
804.619
795.771
798.989
809.778
803.583
798.765
807.376
805.273
810.720
812.411
806.314
804.263
807.229
806.765
813.400
815.696
807.880
822.110
810.574
825.309
811.120
825.440
827.946
823.145
820.094
829.729
817.522
828.007
818.001
821.909
833.432
821.248
823.667
836.445
824.498
828.808
836.916
826.066
828.294
833.020
834.583
838.953
842.801
844.496
836.629
842.695
831.223
831.118
837.171
841.666
839.900
847.020
846.403
837.881
835.702
834.648
849.488
849.176
851.029
837.112
842.605
841.911
851.024
845.436
844.330
842.810
851.411
849.038
848.065
852.579
850.640
845.144
844.914
848.354
849.159
858.316
848.760
859.100
856.227
857.737
849.311
846.558
851.146
848.101
855.507
852.416
849.839
848.465
864.050
857.821
849.473
861.943
854.203
863.538
859.011
855.372
860.922
859.699
855.418
857.675
864.654
855.620
861.597
857.917
857.850
856.649
869.241
866.169
864.817
863.862
871.115
860.759
868.078
873.252
867.406
874.948
870.473
861.676
876.205
867.092
866.022
868.674
875.846
868.865
872.447
876.615
875.491
869.095
870.645
867.947
875.969
873.315
876.196
869.967
879.281
880.769
869.994
877.917
878.187
878.083
882.582
876.329
878.537
874.892
888.180
874.922
883.543
889.154
885.031
878.510
875.448
877.962
890.651
880.820
884.918
892.775
885.139
885.158
885.197
883.011
881.113
883.280
882.894
889.648
896.233
896.431
886.406
889.209
896.740
898.690
890.968
892.727
892.005
896.641
897.107
901.496
900.068
889.344
891.892
888.150
893.579
903.899
903.604
902.449
892.700
893.007
898.342
907.004
893.300
903.786
903.385
906.799
899.413
902.390
907.228
907.280
908.506
899.899
909.077
903.702
908.034
901.170
910.258
907.831
907.239
912.559
902.588
903.847
904.110
909.647
901.650
914.847
910.466
914.543
917.240
916.438
916.406
906.499
918.880
910.304
908.800
908.774
915.471
920.978
919.861
916.337
915.664
912.241
914.756
915.781
918.516
911.219
910.646
915.359
913.735
923.750
923.896
926.184
927.461
922.337
916.990
921.833
922.330
923.514
917.995
917.050
924.360
923.756
925.133
927.451
921.493
923.203
927.535
934.546
925.241
938.616
928.237
940.012
934.733
931.680
935.337
944.089
940.593
939.744
933.240
941.113
932.619
938.332
939.426
941.427
943.027
945.788
948.887
948.862
942.383
940.189
947.858
940.911
948.251
949.057
942.511
952.803
952.142
956.673
946.294
952.529
947.404
949.922
955.029
954.365
949.711
955.221
959.998
958.203
962.090
963.496
962.106
956.922
968.290
969.023
965.865
971.733
961.309
970.636
959.761
968.882
971.714
966.505
965.800
966.246
976.025
978.052
975.022
966.330
970.465
974.981
975.050
976.550
971.722
979.670
981.701
985.839
979.506
977.497
983.649
976.183
978.240
978.108
977.788
990.786
980.547
978.385
985.152
984.673
987.498
986.554
996.634
983.001
987.934
990.453
987.283
990.723
992.996
992.465
991.712
990.499
993.491
994.285
992.751
991.093
994.273
994.444
1000.755
1000.249
1009.568
1004.747
997.211
1011.383
1009.403
1007.716
1009.400
1007.626
1008.267
1013.226
1016.369
1017.165
1013.619
1017.898
1015.012
1017.590
1005.488
1005.608
1011.283
1011.499
1014.029
1016.534
1014.635
1019.772
1026.444
1024.506
1013.933
1013.164
1029.036
1017.954
1027.926
1018.527
1026.223
1016.872
1018.280
1025.272
1021.235
1022.853
1032.767
1031.576
1034.383
1030.041
1028.932
1039.072
1030.265
1035.499
1026.113
1027.314
1027.785
1031.701
1039.027
1032.331
1032.521
1035.536
1047.298
1047.251
1047.198
1049.272
1049.907
1042.977
1041.007
1047.338
1040.049
1040.946
1052.822
1044.092
1045.272
1055.953
1051.954
1056.751
1048.569
1056.088
1044.668
1046.101
1053.546
1053.677
1054.534
1062.511
1056.994
1057.190
1065.679
1063.643
1062.078
1066.556
1063.953
1061.815
1057.121
1065.914
1066.694
1057.307
1068.281
1058.724
1058.049
1051.786
1049.178
1053.556
1054.235
1043.189
1050.148
1047.000
1046.509
1051.394
1047.746
1038.702
1037.420
1043.082
1040.456
1033.476
1034.226
1029.422
1032.936
1022.586
1025.138
1019.111
1018.005
1025.956
1025.103
1016.397
1018.894
1021.048
1013.918
1008.248
1012.417
1012.657
1011.040
1010.868
1006.996
1003.624
1003.037
998.055
1004.300
999.175
1001.170
997.920
996.321
986.484
998.242
983.060
989.856
988.473
978.320
991.349
983.940
986.842
973.491
975.359
970.553
981.178
974.511
975.735
973.138
976.532
966.039
973.014
959.158
965.077
960.766
967.020
964.033
963.239
952.393
960.286
953.438
948.017
948.177
949.005
950.996
950.448
949.328
935.089
937.313
938.014
929.496
930.264
933.434
934.412
928.802
927.392
928.157
921.731
930.211
918.034
928.747
928.092
925.561
912.525
914.645
914.671
908.353
912.317
907.231
911.463
910.722
900.895
898.493
907.668
900.171
900.033
894.977
903.824
902.108
885.655
895.048
897.491
887.690
886.927
882.771
878.203
886.747
875.923
878.544
880.274
881.139
877.048
866.377
878.636
869.427
870.220
872.626
874.256
858.185
861.653
856.375
867.667
860.774
854.564
851.646
861.027
855.282
851.200
857.029
853.514
851.025
840.456
841.655
840.322
840.257
831.425
841.876
832.094
834.541
828.343
827.776
833.536
835.332
823.995
828.370
819.694
815.984
825.353
813.962
812.384
816.831
807.390
806.935
806.959
818.465
802.475
814.521
812.629
805.939
809.173
808.361
806.297
796.103
796.194
801.619
795.614
798.356
795.424
785.560
781.509
784.205
783.618
780.988
776.155
773.454
775.266
770.182
775.221
772.691
772.711
773.736
765.598
770.171
770.282
758.171
770.551
756.395
768.907
761.757
758.044
763.749
765.472
761.726
755.316
750.101
748.918
757.428
750.612
748.163
751.689
757.851
745.580
752.208
750.132
745.571
753.377
752.744
745.590
745.195
753.138
745.895
745.017
739.820
737.917
738.505
747.630
738.918
741.203
733.945
746.333
739.599
734.947
741.918
741.051
731.776
734.502
739.024
740.273
729.091
732.246
735.099
735.579
730.429
722.749
735.361
726.896
721.322
720.567
726.211
730.575
720.471
730.288
730.147
719.517
722.892
727.036
725.476
719.479
725.195
713.079
712.444
720.264
719.243
717.028
722.166
715.373
711.807
717.251
715.201
714.414
710.914
713.092
717.191
713.011
703.091
702.374
705.781
699.011
713.090
706.238
708.621
707.243
695.085
696.968
695.170
696.476
695.394
706.262
698.443
696.660
693.700
695.159
699.786
692.452
694.116
687.208
697.492
684.510
691.361
687.840
689.372
689.879
684.012
681.272
695.120
685.228
694.085
686.781
688.088
689.954
685.388
679.653
677.654
683.294
675.571
686.932
686.281
682.966
685.167
680.857
669.090
680.060
679.627
671.866
671.596
670.025
669.004
674.447
675.971
664.697
661.856
668.996
676.059
663.067
664.592
666.252
659.447
657.108
658.752
661.511
657.769
656.698
667.578
666.839
664.836
660.089
654.201
656.113
653.136
662.776
648.264
652.876
660.825
659.596
658.598
657.397
648.774
643.634
657.467
655.292
650.432
655.016
643.927
645.485
646.685
649.007
649.707
642.170
647.408
643.862
644.921
633.955
647.492
645.046
639.701
633.912
642.625
632.661
640.208
637.732
628.610
634.555
635.660
637.853
632.250
629.956
637.276
633.869
631.252
631.165
621.008
620.548
632.348
622.831
630.313
623.440
627.328
632.571
621.564
626.101
626.050
626.302
623.386
630.827
631.329
640.822
639.788
635.148
635.263
636.772
637.247
639.311
644.463
635.148
639.279
644.328
644.646
641.240
652.026
645.216
653.691
652.848
645.903
651.459
662.283
654.262
649.616
659.182
658.440
652.807
664.825
663.262
663.277
661.072
657.713
666.105
664.929
661.187
667.028
675.272
675.990
678.441
677.908
670.593
680.196
678.971
682.512
684.823
682.010
688.755
686.099
676.287
685.458
681.136
688.799
682.862
690.323
694.740
685.153
691.528
700.301
702.452
688.852
690.020
704.991
697.103
697.562
708.658
700.229
710.714
710.716
707.893
706.793
707.158
709.444
717.040
705.673
716.450
705.948
716.207
720.400
712.613
714.897
712.230
725.550
727.361
719.523
728.619
727.252
731.788
721.083
722.633
724.642
736.025
728.133
727.979
740.606
741.031
727.755
739.286
736.676
744.768
736.579
739.242
735.816
747.383
739.827
750.582
738.660
745.577
742.237
751.466
743.262
755.184
749.916
749.720
755.894
755.717
758.597
755.682
763.693
765.095
764.158
768.009
758.057
771.455
772.660
768.014
771.743
767.024
777.372
776.726
772.364
770.449
769.757
769.088
779.925
772.517
785.650
772.511
776.683
785.687
790.409
782.708
782.473
787.349
782.079
781.179
783.450
798.514
792.781
799.411
787.448
791.068
802.559
793.253
793.090
804.771
808.088
801.387
807.576
801.574
806.861
806.606
802.505
813.356
809.087
812.947
812.948
808.365
820.212
818.396
824.129
818.615
811.631
816.783
824.505
817.898
827.790
823.248
822.728
829.882
832.564
823.674
836.459
824.743
825.537
836.512
841.276
829.139
835.163
841.651
845.496
834.181
838.469
842.025
837.048
848.802
842.895
848.343
842.412
852.641
853.648
844.053
851.144
851.154
851.899
857.629
851.582
853.250
860.567
862.888
863.103
865.745
860.894
866.823
863.140
857.156
872.943
874.392
859.729
861.053
875.268
868.065
867.239
878.415
869.929
874.587
878.559
878.995
871.451
874.891
874.753
877.804
890.162
888.917
883.084
886.968
887.389
893.704
894.979
895.954
887.564
898.728
885.840
893.976
890.461
894.872
889.411
894.642
900.990
901.063
901.440
896.469
895.750
899.485
911.309
911.732
904.433
902.951
902.500
914.072
904.542
914.145
913.852
912.003
918.424
914.267
910.612
926.314
923.959
921.957
924.792
920.368
931.077
931.707
923.401
932.698
922.046
932.683
925.233
932.394
936.300
929.357
931.963
942.133
939.675
943.394
942.039
942.427
943.806
949.600
943.130
942.427
948.063
949.766
946.960
943.076
945.922
948.290
956.573
958.184
955.622
957.463
954.572
953.380
964.791
961.958
953.520
964.366
967.142
963.127
966.019
968.467
973.617
972.344
973.662
972.039
970.506
977.780
968.926
979.809
968.216
978.643
982.051
974.414
979.289
986.539
981.577
984.955
989.284
987.216
977.410
983.548
980.029
995.785
987.641
989.576
987.178
989.563
997.746
1001.701
994.542
994.995
994.567
999.643
1001.808
1001.523
999.927
1010.193
1004.593
998.951
1007.985
1003.482
1001.229
1007.989
1013.238
1003.574
1008.948
1021.011
1021.366
1016.484
1012.207
1010.915
1013.470
1014.552
1024.753
1026.853
1024.719
1022.748
1030.439
1023.528
1033.740
1021.128
1027.197
1032.099
1034.343
1032.853
1040.241
1037.440
1042.269
1043.037
1040.359
1037.483
1034.365
1043.472
1033.648
1047.125
1049.061
1043.705
1040.670
1053.496
1041.714
1048.909
1047.516
1048.023
