452.447
446.217
444.924
446.117
457.086
457.442
453.944
452.205
460.885
459.915
459.762
461.060
451.833
450.854
456.544
464.040
458.491
457.780
456.984
458.508
458.605
470.306
469.239
466.791
466.989
468.739
470.964
468.719
479.848
473.644
479.813
470.132
471.300
472.611
479.333
486.187
473.553
479.494
479.220
476.886
483.826
483.149
483.084
487.156
496.285
494.153
493.325
486.324
488.935
488.067
495.732
492.540
499.271
493.698
499.214
492.038
495.799
494.286
494.815
504.537
500.741
508.604
512.234
507.723
508.294
516.711
518.266
511.754
510.755
507.320
508.754
520.462
512.707
514.216
520.040
523.146
518.158
523.357
515.589
516.982
529.453
520.339
518.304
531.046
523.829
529.557
523.596
536.305
538.602
530.544
530.194
527.809
531.735
533.678
539.487
538.038
534.214
544.091
547.179
538.340
549.048
539.627
537.480
543.949
544.646
553.128
544.539
556.596
546.867
547.513
556.324
559.946
548.960
563.499
562.582
553.308
556.544
559.935
558.376
559.060
559.834
556.575
564.271
564.902
561.829
563.956
571.041
566.401
573.967
574.562
573.107
580.071
579.424
575.325
569.692
580.806
582.158
579.923
587.999
573.708
574.804
588.161
581.561
589.026
581.544
590.992
588.228
584.603
594.967
590.229
584.896
589.714
595.388
591.957
599.925
604.987
597.310
603.871
603.337
596.804
602.856
609.315
598.786
604.733
612.817
608.101
601.415
606.779
603.244
612.025
606.198
612.122
611.170
614.266
621.344
610.430
623.686
619.785
615.589
626.387
616.971
621.281
629.799
628.579
618.245
625.498
630.252
625.385
630.033
628.537
633.443
630.366
625.553
641.699
641.853
639.807
634.167
644.399
641.697
642.181
638.634
643.997
639.716
645.931
641.277
642.946
643.208
644.300
645.365
655.836
644.847
644.253
652.841
652.505
660.906
649.485
650.446
653.439
655.394
651.142
661.555
655.524
659.056
663.646
653.870
655.231
655.520
658.210
658.065
665.498
664.975
666.493
667.635
673.599
662.480
671.758
665.892
666.696
679.431
679.623
679.933
678.764
676.499
672.006
682.544
679.233
687.207
678.437
686.583
690.373
688.667
680.671
678.823
687.439
693.154
680.016
695.934
683.599
687.148
697.402
699.538
688.199
687.062
690.575
692.185
692.621
700.017
694.278
691.687
696.952
701.125
697.984
694.565
700.770
696.303
699.368
699.220
703.547
711.162
706.758
704.061
706.284
705.272
705.307
715.324
717.188
707.918
713.210
717.793
714.501
721.874
721.696
713.716
726.566
725.491
720.181
728.293
725.950
723.730
729.225
731.022
725.782
724.026
722.848
722.044
734.242
737.966
735.648
738.625
730.903
738.342
740.605
734.656
736.676
740.820
742.432
734.712
736.596
748.406
734.378
744.754
750.754
737.876
742.081
741.104
741.391
745.066
742.450
742.306
748.431
751.790
751.768
754.178
752.752
758.812
750.578
759.319
749.753
761.793
759.741
752.265
759.037
762.469
769.239
762.474
758.677
762.536
771.987
759.977
763.122
764.183
770.287
769.490
774.241
763.535
764.006
770.204
766.165
772.765
767.755
769.166
775.975
784.764
774.602
772.362
780.713
781.375
778.857
788.929
779.037
786.515
790.642
786.173
784.427
787.020
785.567
785.560
796.378
794.162
799.026
796.522
787.928
790.719
790.098
793.055
790.031
793.814
803.667
798.863
799.842
798.797
803.764
798.080
796.592
797.543
811.251
798.579
805.769
806.253
814.198
809.436
804.177
805.656
803.126
803.684
803.663
803.885
817.024
807.608
819.033
816.956
812.245
807.184
809.609
815.114
808.202
815.940
816.553
816.812
806.693
816.397
818.418
807.087
807.188
815.227
812.941
812.917
810.542
818.551
820.964
812.043
812.752
823.220
823.392
821.976
816.975
811.448
810.942
821.131
816.937
820.130
812.059
816.646
825.330
822.203
823.473
811.769
824.747
819.694
813.691
821.292
819.159
826.296
818.790
827.402
825.760
815.153
823.491
817.745
814.804
829.688
826.885
827.847
821.092
829.588
823.933
816.149
823.070
825.485
823.252
824.226
819.752
827.404
826.898
831.199
830.480
820.396
827.357
817.455
824.281
827.048
830.314
822.308
818.587
830.625
827.648
830.300
820.486
827.281
825.235
828.179
826.137
829.638
835.066
835.252
834.960
833.212
836.675
830.490
825.372
823.104
833.578
835.300
825.590
827.218
835.663
828.055
829.451
837.600
839.371
830.210
835.359
830.293
833.041
825.332
831.019
827.571
835.935
833.925
837.895
835.528
836.991
831.147
841.096
836.820
841.368
833.570
838.898
836.565
835.018
828.103
829.319
834.602
833.605
838.656
835.205
840.540
834.452
836.431
843.443
832.349
842.369
837.152
832.119
837.449
833.130
841.088
846.703
844.300
837.478
847.290
840.681
844.683
848.232
842.550
842.409
849.071
843.041
845.325
843.828
837.172
840.772
838.434
839.943
847.243
841.320
840.418
851.580
841.436
841.572
850.136
847.111
840.338
846.716
837.792
848.433
847.141
848.603
852.233
850.407
853.632
839.057
845.683
841.797
853.969
848.685
852.988
841.666
847.085
846.719
845.185
849.824
848.056
844.564
845.048
854.676
846.664
845.629
857.833
847.168
854.079
851.708
849.048
841.832
846.891
843.274
849.869
849.577
841.933
845.932
841.178
844.230
842.844
847.285
847.197
844.060
846.065
832.785
840.646
846.295
839.681
834.339
841.124
829.302
843.075
830.424
834.434
842.047
828.777
835.013
836.351
825.520
827.430
830.363
834.438
825.634
830.882
827.831
834.876
833.942
835.337
824.358
818.556
827.234
819.154
827.861
828.287
825.872
818.064
816.022
826.981
826.663
823.479
826.783
815.140
825.239
813.646
815.264
820.760
810.024
814.439
819.349
811.713
816.637
815.551
809.527
813.330
815.763
809.882
813.343
804.536
813.986
813.208
807.279
803.104
808.827
804.399
810.698
805.527
812.241
796.882
807.469
805.155
805.297
794.915
794.201
806.522
804.136
794.704
800.099
804.843
795.923
799.510
804.172
803.882
800.607
799.225
792.867
801.899
796.894
797.453
785.775
797.053
791.470
795.376
786.075
788.636
781.887
789.713
792.602
787.797
792.650
781.690
792.954
779.786
784.136
789.748
785.520
783.316
782.976
786.046
788.155
780.108
776.346
776.086
778.963
777.727
776.086
779.801
775.035
780.172
780.924
779.984
777.720
776.811
775.921
768.658
771.301
766.333
774.810
772.399
775.768
772.460
765.628
762.823
772.490
769.983
770.186
764.505
758.912
767.163
767.631
757.145
766.198
754.047
766.510
762.665
754.812
755.825
755.525
750.460
762.646
753.125
755.168
759.882
753.934
751.396
761.000
753.209
758.914
756.113
759.740
745.603
744.639
755.123
745.366
751.296
753.248
751.896
741.524
752.832
749.701
743.267
743.076
738.842
741.270
743.234
739.544
748.746
735.854
736.463
735.454
739.204
741.858
735.641
736.453
739.146
732.263
732.754
734.817
736.434
730.160
731.527
738.634
732.392
732.921
736.646
734.633
742.666
736.436
748.054
737.725
751.959
750.864
745.857
752.497
755.762
756.878
753.166
746.863
751.292
762.275
756.946
761.579
751.623
761.307
757.820
761.391
757.814
758.121
771.247
759.313
759.833
765.601
767.935
762.742
771.472
764.134
775.156
777.225
766.079
775.691
776.695
772.547
784.488
773.746
777.632
781.450
788.050
774.124
786.022
784.381
786.242
784.412
783.074
793.658
783.423
781.792
793.260
793.658
789.717
784.998
801.838
794.936
803.225
794.117
804.505
797.289
801.398
796.480
800.340
802.168
810.851
799.019
805.944
812.969
814.149
803.404
810.231
811.679
818.789
813.480
816.237
817.061
821.661
810.357
810.223
822.394
814.586
817.898
815.357
822.097
829.717
815.334
823.204
827.121
831.626
822.616
820.956
824.035
826.208
837.091
835.713
830.722
831.206
830.769
833.350
834.174
832.055
835.962
834.132
833.261
843.786
840.100
836.340
838.397
845.221
850.505
839.148
845.818
851.030
852.110
844.489
849.637
845.510
853.411
858.915
852.629
857.980
849.953
858.818
864.312
855.167
866.179
861.686
863.987
863.566
863.018
869.240
865.345
863.933
872.091
867.919
868.287
872.068
865.232
868.012
867.647
869.883
880.617
880.335
871.569
878.642
882.441
879.491
887.031
875.460
886.587
888.877
881.034
890.309
883.596
882.155
887.991
888.847
898.580
891.421
886.317
900.999
902.625
892.703
893.063
891.635
899.077
896.306
908.336
897.960
898.108
905.495
903.478
912.315
902.380
905.799
909.382
905.246
904.793
909.651
920.359
919.633
908.669
912.383
912.850
921.433
911.374
921.475
912.458
914.167
926.711
928.584
924.928
921.950
923.274
918.212
925.890
925.767
919.828
914.860
917.729
915.810
918.524
928.276
913.123
914.571
913.354
924.437
915.386
927.235
911.361
924.471
924.021
913.192
924.859
918.553
917.992
923.228
911.637
922.533
908.155
914.043
908.616
921.025
907.309
917.674
920.596
914.185
906.330
907.262
919.397
913.939
916.300
909.687
916.447
917.634
904.268
912.592
902.816
916.656
911.345
902.063
907.112
903.623
903.263
914.660
904.429
906.254
906.019
906.042
906.846
908.132
901.110
905.913
900.058
911.210
907.165
908.051
904.638
905.977
902.456
900.562
901.409
894.110
906.813
907.509
902.834
897.444
895.551
898.738
898.818
900.366
894.664
900.333
904.692
891.225
896.667
890.357
890.206
900.561
902.225
892.143
888.035
893.273
898.797
896.626
891.280
886.455
893.950
894.610
892.039
894.925
894.687
887.741
892.653
895.297
896.727
890.468
887.069
893.126
889.572
894.273
888.305
891.339
887.940
893.364
892.076
882.632
881.333
885.813
876.895
885.326
883.885
888.323
887.333
877.657
888.869
880.291
882.483
882.897
885.367
875.944
873.781
875.357
872.125
880.171
878.887
884.720
881.810
879.776
882.131
881.505
883.549
880.862
877.089
874.229
879.593
873.348
872.924
872.723
866.869
870.526
869.888
876.440
879.302
872.726
875.529
870.271
869.800
874.915
878.578
871.559
877.725
862.073
872.165
875.728
861.601
872.985
872.840
866.067
862.706
870.075
866.953
869.787
859.041
872.481
872.206
857.440
861.721
871.503
860.153
857.249
861.327
869.764
855.427
855.537
857.536
868.653
863.273
865.243
866.989
859.822
857.593
867.214
865.025
854.342
858.157
851.550
864.263
857.917
860.796
852.935
863.727
853.600
851.540
861.005
860.404
853.211
855.628
848.804
845.658
849.942
856.097
852.337
852.841
838.386
838.619
839.653
843.457
837.406
841.140
840.606
835.219
842.280
830.896
832.102
832.543
841.781
828.061
836.762
834.566
827.697
836.939
834.808
827.759
820.400
829.163
824.140
822.141
824.593
823.246
825.538
823.386
819.477
814.581
814.818
811.551
809.909
816.215
821.410
807.590
817.276
816.959
808.605
814.451
810.861
815.322
805.905
803.872
809.941
812.172
811.612
802.977
799.467
803.228
800.274
803.707
803.639
799.483
803.084
796.965
800.989
790.705
799.838
789.392
797.434
785.783
797.667
790.750
789.171
792.472
787.293
786.432
780.807
785.356
782.309
777.162
785.624
786.055
772.543
778.215
770.959
780.799
776.154
777.923
773.086
768.335
769.480
774.970
778.595
768.584
773.235
771.303
762.589
774.444
771.787
769.628
760.461
756.804
768.949
767.283
764.631
759.098
763.824
761.936
757.345
755.384
750.056
750.764
754.071
744.459
745.324
751.539
753.254
745.127
751.909
752.015
752.001
737.933
742.965
740.724
740.398
746.655
736.346
745.917
736.316
739.237
733.183
730.066
734.584
727.124
737.746
734.685
731.483
726.652
737.077
736.699
728.232
721.647
732.507
721.658
729.745
729.435
721.149
725.406
717.917
721.856
722.508
717.599
724.454
718.406
723.450
717.255
721.437
720.651
710.323
716.262
712.762
701.798
715.035
707.767
710.851
701.303
703.704
712.101
700.423
705.738
701.278
703.341
695.948
693.512
695.864
703.409
695.307
694.686
697.459
688.112
692.364
687.536
687.503
696.348
682.662
681.860
679.913
688.687
681.663
686.614
677.447
682.252
684.882
677.084
672.863
680.493
677.259
674.704
686.615
686.721
683.890
679.593
685.143
687.332
682.041
692.266
685.512
688.425
693.591
697.233
690.250
693.572
685.879
687.529
698.461
689.329
701.706
698.404
700.892
697.844
704.852
706.287
704.560
707.983
710.088
707.599
709.027
701.399
703.691
714.344
717.601
714.216
712.216
716.593
721.594
712.497
721.355
722.748
723.789
721.301
719.383
716.595
727.998
729.961
723.513
720.167
732.580
723.475
728.061
729.916
727.275
723.181
728.760
726.059
740.206
726.945
739.465
739.749
739.888
740.547
743.887
746.544
742.991
743.904
745.786
743.562
745.408
737.774
740.196
753.449
754.864
754.067
746.522
751.798
747.579
757.785
753.855
752.108
757.343
754.325
759.639
754.579
760.994
754.754
757.173
757.956
758.369
769.518
764.153
762.018
769.640
765.667
773.077
761.436
763.063
773.761
778.892
773.002
766.083
774.499
772.410
777.671
783.256
775.876
782.088
782.674
778.979
773.927
783.899
781.323
782.342
780.402
782.269
779.801
784.128
792.701
796.512
786.444
799.282
790.065
798.483
794.039
796.504
800.812
802.166
798.425
801.825
801.960
804.418
799.276
799.595
803.460
802.464
810.895
805.392
802.041
801.738
815.693
813.815
810.564
810.846
814.944
806.985
816.808
822.609
815.581
822.976
824.203
815.592
813.411
825.402
819.423
815.516
825.955
831.092
830.652
825.445
829.714
835.381
835.244
828.245
830.873
833.195
828.275
834.953
842.431
842.624
842.686
843.637
832.022
845.177
840.174
841.141
842.421
845.920
844.566
845.119
838.861
846.228
849.913
853.514
851.655
856.634
853.748
850.756
850.075
851.120
851.592
851.786
850.829
857.099
854.475
867.618
863.302
854.528
867.988
864.666
863.261
871.454
865.140
862.115
878.403
878.851
873.262
878.627
868.488
880.773
872.571
887.533
884.346
885.786
882.904
878.195
891.541
894.183
892.310
886.975
887.376
892.801
898.878
904.793
896.944
902.215
908.577
909.313
897.276
903.869
907.057
900.929
904.441
906.758
910.492
910.257
915.972
908.541
925.397
912.346
928.074
922.626
928.810
925.725
927.117
926.860
926.730
928.995
936.673
930.463
932.168
939.327
931.904
932.636
942.546
938.130
942.463
949.859
938.635
948.222
955.492
954.793
957.834
952.773
955.895
958.153
962.894
951.187
958.161
956.702
969.286
967.094
956.172
958.340
964.632
968.807
973.769
969.272
975.252
967.418
967.581
980.256
974.449
978.408
979.075
980.333
988.508
983.662
992.712
994.832
990.444
982.090
997.505
993.912
991.126
999.470
1002.394
1004.792
1006.080
1007.774
996.471
1004.856
1008.677
1004.734
1008.521
1013.428
1017.078
1008.827
1006.895
1022.564
1023.812
1011.885
1016.446
1021.736
1021.025
1022.118
1025.812
1022.588
1034.152
1020.972
1036.100
1034.765
1025.875
1027.823
1030.162
1035.636
1036.326
1035.058
1034.388
1048.897
1043.130
1037.612
1053.301
1043.351
1052.073
1046.567
1052.817
1059.658
1051.500
1051.201
1061.075
1051.678
1064.447
1068.253
1066.566
1065.366
1059.756
1074.005
1066.007
1063.961
1068.066
1072.694
1080.948
1071.881
1069.623
1079.617
1078.926
1078.917
1088.346
1079.721
1083.186
1089.067
1082.024
1088.265
1087.501
1092.235
1100.097
1091.747
1096.381
1100.083
1092.020
1105.686
1104.067
1105.978
1098.178
1105.809
1108.740
1100.608
1108.540
1110.671
1109.381
1119.313
1110.945
1122.555
1114.355
1113.478
1121.743
1121.488
1120.400
1129.459
1122.083
1119.393
1122.871
1122.831
1128.634
1126.230
1140.783
1139.977
1140.834
1131.051
1131.349
1139.428
1130.630
1127.111
1124.575
1129.630
1137.699
1126.592
1134.191
1121.604
1123.277
1117.482
1116.851
1126.304
1122.844
1118.646
1118.704
1122.176
1110.959
1118.652
1108.520
1115.653
1117.398
1117.479
1105.395
1114.801
1101.912
1100.116
1108.795
1112.346
1098.139
1110.996
1109.921
1095.569
1102.539
1098.172
1097.763
1090.283
1092.268
1089.272
1087.212
1088.832
1092.303
1094.467
1094.933
1092.626
1082.704
1078.530
1088.220
1076.953
1077.961
1081.392
1085.464
1076.940
1075.454
1075.294
1083.787
1069.220
1068.600
1071.184
1067.013
1074.969
1065.177
1067.890
1070.968
1063.201
1069.371
1070.638
1062.310
1063.431
1062.378
1065.074
1055.868
1058.392
1055.638
1062.733
1048.452
1052.684
1059.636
1052.882
1049.608
1047.861
1052.046
1040.593
1045.643
1045.689
1036.480
1042.280
1040.402
1045.665
1045.781
1036.323
1037.592
1038.727
1039.434
1028.919
1028.633
1037.419
1027.524
1022.283
1033.776
1020.990
1022.182
1028.439
1024.138
1025.705
1023.406
1013.521
1012.966
1021.263
1012.434
1015.421
1014.327
1013.192
1005.273
1005.995
1013.477
1005.425
1005.110
999.854
1000.573
1009.424
1012.360
1001.819
1005.009
996.344
1007.111
1001.169
1001.275
1003.086
996.148
988.935
991.417
989.989
991.602
996.585
987.370
988.550
987.392
985.226
981.600
987.630
980.253
975.282
987.549
985.653
983.927
973.307
983.120
979.538
975.941
969.007
978.323
973.960
970.358
964.927
959.974
970.955
959.419
958.763
967.280
956.345
968.347
967.560
960.347
949.964
952.671
961.673
947.611
960.784
951.679
953.716
943.408
956.473
951.173
941.240
952.120
943.805
941.682
938.061
934.262
936.760
946.723
941.433
936.098
942.016
940.134
932.356
931.840
938.387
929.467
928.900
927.611
930.830
919.625
929.979
927.068
921.154
915.192
