738.278
738.914
738.966
749.066
753.614
753.660
748.845
744.208
755.039
757.410
749.999
764.260
767.438
765.806
755.161
770.753
765.174
770.277
771.052
774.755
766.908
778.314
776.249
772.074
772.501
786.332
775.016
779.819
783.770
792.612
783.690
788.914
798.598
797.198
788.345
800.032
802.411
803.224
801.578
807.289
801.995
806.928
801.740
805.438
807.480
806.424
821.525
822.099
824.094
814.080
816.628
828.465
818.618
829.424
826.155
826.660
822.251
823.913
836.911
841.594
832.722
835.067
833.369
848.161
838.439
837.201
838.024
849.705
854.776
847.301
847.606
859.141
851.039
850.415
861.244
860.541
855.821
869.149
861.396
864.330
869.453
864.865
868.977
873.301
873.704
880.504
874.570
871.368
881.987
885.951
886.030
889.394
888.670
894.623
883.174
889.380
885.596
890.813
897.312
896.840
891.608
897.136
899.111
908.753
904.454
904.573
914.250
902.563
906.721
913.939
915.769
919.963
921.476
917.992
924.714
924.598
921.925
925.693
926.429
929.972
924.504
927.388
929.139
928.180
933.505
939.390
934.465
940.627
935.951
953.090
947.803
949.004
948.446
958.427
956.008
949.418
959.621
951.026
956.579
962.628
968.757
971.512
961.855
974.864
971.324
977.175
964.482
977.856
974.713
979.347
979.571
975.162
984.287
979.426
992.742
987.783
983.984
982.824
995.666
986.470
992.225
990.962
1004.577
996.467
1006.589
999.080
1007.492
1008.971
1013.641
1009.613
1005.395
1013.251
1019.264
1022.262
1015.539
1022.174
1021.393
1014.052
1019.489
1028.295
1025.286
1020.308
1023.817
1029.376
1029.857
1039.973
1035.237
1031.073
1040.838
1039.843
1043.673
1038.065
1045.942
1054.422
1051.943
1053.884
1047.018
1056.225
1054.285
1061.725
1065.405
1052.964
1065.047
1053.708
1065.553
1050.890
1057.705
1065.507
1051.420
1064.596
1054.902
1064.266
1063.965
1052.098
1062.896
1057.827
1054.536
1059.080
1054.248
1050.988
1061.754
1064.183
1058.798
1061.748
1066.377
1061.350
1052.094
1066.236
1066.620
1056.644
1058.813
1051.601
1065.737
1062.946
1065.686
1058.231
1067.323
1062.108
1059.750
1055.471
1062.539
1055.938
1054.511
1056.202
1067.437
1058.830
1058.899
1058.943
1061.631
1057.985
1056.676
1065.562
1058.652
1062.166
1066.182
1058.517
1061.560
1057.791
1065.787
1055.405
1060.824
1057.584
1067.606
1063.078
1055.282
1060.065
1058.055
1063.632
1067.485
1066.578
1055.841
1061.240
1057.757
1058.487
1058.701
1061.784
1068.679
1058.225
1057.725
1068.716
1061.144
1061.609
1058.000
1062.896
1066.682
1061.201
1056.189
1060.584
1056.793
1064.151
1066.438
1058.327
1065.120
1061.081
1062.122
1058.250
1063.101
1062.681
1061.231
1071.414
1064.034
1061.657
1058.211
1069.081
1069.752
1063.899
1071.877
1069.893
1068.650
1070.404
1060.457
1064.520
1058.209
1061.299
1057.614
1066.173
1062.664
1058.449
1068.404
1072.383
1063.208
1065.592
1068.864
1060.545
1069.842
1071.322
1069.238
1065.698
1065.834
1061.187
1066.383
1066.429
1068.591
1057.540
1062.168
1071.690
1066.078
1071.218
1060.128
1065.235
1065.432
1073.662
1061.278
1072.963
1071.855
1058.785
1065.757
1064.206
1058.668
1067.763
1069.696
1073.825
1064.499
1074.539
1065.980
1059.247
1063.163
1073.570
1063.630
1066.736
1065.510
1062.531
1064.842
1065.893
1059.378
1071.529
1064.344
1065.973
1064.650
1067.812
1075.083
1067.036
1061.564
1059.937
1071.187
1069.696
1069.745
1065.055
1061.998
1067.883
1073.526
1065.479
1072.103
1067.718
1064.227
1070.804
1075.882
1065.940
1064.659
1062.763
1071.580
1074.629
1073.828
1065.930
1073.553
1062.054
1076.080
1070.251
1076.984
1061.843
1063.951
1060.694
1059.947
1072.108
1062.555
1062.032
1065.872
1064.816
1057.635
1052.183
1055.145
1064.414
1063.695
1050.711
1061.375
1057.526
1047.306
1042.977
1046.778
1044.045
1053.771
1046.835
1049.237
1045.784
1050.689
1046.476
1045.592
1039.483
1042.492
1040.668
1037.329
1029.442
1037.777
1036.425
1030.685
1038.029
1026.610
1026.413
1027.124
1027.853
1032.146
1028.368
1029.217
1021.816
1014.005
1025.523
1012.700
1024.196
1013.496
1010.945
1008.544
1017.575
1015.587
1013.129
1017.655
1016.992
1015.303
1002.374
1009.699
1011.710
1000.425
1007.557
1003.510
1000.134
995.154
1004.408
1004.048
995.829
989.022
997.428
999.799
990.627
998.868
988.671
982.613
987.197
982.676
979.638
991.543
985.009
989.046
980.300
980.878
981.742
975.824
982.019
968.491
976.963
981.368
978.627
965.245
962.820
970.076
966.625
960.216
961.778
960.798
959.013
968.629
962.226
962.798
955.096
951.639
961.606
959.504
963.438
959.697
956.139
946.393
955.673
955.622
945.187
942.200
952.839
948.056
944.376
944.520
942.179
937.396
943.595
933.371
936.737
939.055
939.855
939.404
939.029
927.653
937.367
938.087
929.189
933.653
924.101
931.543
920.069
926.126
917.800
925.525
918.788
914.183
912.805
921.249
915.117
914.199
911.665
919.014
908.526
915.636
910.820
906.519
904.747
900.080
897.929
896.701
907.456
900.698
908.751
897.425
901.592
890.767
894.922
892.362
890.599
896.869
899.662
887.523
889.391
888.342
895.507
892.802
883.428
876.982
878.556
887.465
888.266
877.141
872.684
874.645
883.154
871.619
879.955
881.545
873.397
867.502
874.536
876.462
868.995
870.477
867.066
868.386
871.457
870.879
860.748
866.805
867.417
856.464
864.116
861.817
863.162
853.259
858.896
855.698
853.179
846.283
853.208
857.722
857.159
856.227
847.520
860.929
856.902
851.257
859.589
856.811
849.648
858.146
861.216
851.119
865.948
854.170
861.401
861.621
858.008
868.313
864.477
858.912
859.524
855.859
867.248
858.386
857.488
855.930
861.593
860.454
867.004
872.341
859.868
866.543
866.926
873.834
874.152
860.894
866.128
867.293
867.545
860.621
861.171
872.276
874.670
876.227
865.578
872.188
868.167
874.750
872.667
877.717
874.103
874.920
879.734
870.139
870.514
881.349
877.338
880.863
874.087
872.314
877.878
882.129
877.737
873.443
878.924
872.706
878.542
884.197
881.179
880.944
883.601
876.321
887.476
881.296
876.107
879.349
881.467
885.260
886.447
884.430
889.220
886.649
889.450
880.839
884.217
888.727
890.728
893.041
888.837
891.016
893.798
894.757
888.370
888.012
884.094
881.742
887.657
890.616
888.863
884.872
886.375
892.367
890.332
883.636
894.749
887.711
889.881
900.290
895.933
888.340
892.829
887.395
889.243
893.371
896.239
901.466
889.394
890.418
895.730
889.723
892.246
894.665
896.169
899.017
891.601
895.780
898.653
904.735
904.637
907.983
894.945
907.376
902.939
900.213
910.221
909.439
908.476
911.633
911.513
908.868
907.003
912.575
906.820
912.616
913.586
909.739
904.361
911.492
909.704
900.461
901.593
902.558
913.957
910.268
917.342
914.152
912.828
910.460
904.249
910.019
914.935
916.381
913.345
917.676
909.036
914.727
918.579
912.170
922.628
920.940
921.379
909.737
921.963
917.320
922.477
911.195
918.262
918.141
913.019
917.460
924.297
914.519
916.066
928.220
913.754
926.753
919.305
921.586
928.968
923.047
926.759
929.789
929.717
928.662
928.247
922.634
927.550
921.682
926.377
921.515
926.869
916.493
928.715
918.280
920.982
927.490
913.788
913.579
922.035
915.984
924.175
911.353
911.690
921.980
907.604
916.451
918.271
915.605
906.783
906.688
907.445
905.711
907.048
912.600
908.601
911.052
903.025
909.074
907.108
904.280
908.869
912.199
908.620
899.678
897.787
908.062
899.235
907.380
906.922
907.463
897.249
900.060
907.113
908.597
898.737
896.957
892.427
906.315
902.378
894.449
901.593
905.023
895.457
890.012
901.490
902.538
887.419
897.521
888.341
900.124
894.971
894.754
886.907
897.800
888.058
891.953
896.698
889.602
888.776
884.460
891.792
882.206
880.588
882.144
893.164
877.727
890.746
877.858
876.858
882.223
878.710
877.211
888.484
879.277
889.087
882.648
887.745
885.774
881.954
883.142
884.854
882.974
870.428
882.431
883.657
868.316
870.645
877.583
878.322
878.514
878.322
865.733
874.892
874.986
876.828
869.268
863.335
864.759
871.842
874.313
868.644
869.454
865.712
865.147
871.244
862.529
868.499
858.820
863.785
864.791
870.931
857.330
858.895
858.450
857.838
861.259
857.281
852.775
863.512
864.517
858.274
860.233
859.312
852.095
849.038
853.498
856.638
862.848
849.697
861.957
857.353
858.257
856.626
847.007
850.575
858.876
843.029
842.732
843.490
845.253
851.321
855.623
851.053
840.578
854.801
844.149
840.911
837.566
838.133
845.866
836.767
847.210
844.326
849.622
847.079
849.374
844.824
846.737
835.513
838.829
840.036
838.089
839.604
842.462
842.470
832.664
829.480
840.778
832.488
842.354
831.021
826.270
836.875
835.390
826.547
838.856
830.923
826.247
828.798
825.990
832.242
823.472
833.725
824.251
822.530
826.196
820.226
825.479
834.718
821.578
833.195
826.871
832.276
830.773
833.291
828.415
829.806
835.284
824.243
836.370
829.269
825.848
837.958
831.026
836.515
826.357
827.945
839.426
832.703
839.593
836.426
832.950
835.492
829.321
830.414
829.775
838.324
838.817
839.942
832.571
831.419
829.436
839.775
840.456
830.091
843.713
834.372
835.723
830.745
840.758
833.632
834.739
833.304
837.605
838.313
840.772
832.957
837.640
835.575
834.597
834.417
849.516
840.174
844.738
837.990
846.786
842.107
835.957
845.740
836.570
847.712
849.818
837.531
843.222
841.382
840.773
841.642
844.189
847.819
844.205
853.940
840.391
840.968
851.498
854.235
846.164
844.243
844.596
855.954
848.901
846.210
851.910
855.813
850.131
854.511
859.315
854.771
854.920
853.839
855.193
849.678
859.160
847.140
849.431
854.782
854.180
848.248
861.418
858.320
855.926
854.081
862.708
854.510
862.415
860.629
855.873
864.694
859.204
864.552
855.920
854.270
863.297
857.434
863.170
854.688
852.482
853.949
858.045
867.632
856.388
858.089
862.011
867.881
860.817
859.147
854.929
857.031
855.241
866.462
856.773
858.046
857.582
861.757
867.271
859.336
865.843
868.690
861.292
861.498
860.326
860.873
869.042
862.475
867.565
875.337
860.147
870.108
861.660
876.598
870.099
870.584
862.603
868.145
871.555
869.424
878.412
863.175
872.529
864.743
868.959
867.536
867.826
876.531
878.587
881.175
866.565
870.436
874.609
870.221
867.895
869.537
867.471
875.806
880.597
881.196
875.025
877.665
873.972
869.888
878.831
872.562
872.185
874.273
884.848
872.405
872.145
875.317
885.477
879.644
879.580
874.321
887.896
876.038
874.287
876.269
884.576
876.439
882.996
889.110
887.620
883.859
891.212
885.094
888.673
880.663
891.690
879.313
884.856
892.661
883.218
892.718
888.185
887.452
885.184
898.354
888.200
886.629
897.925
889.750
900.832
896.542
893.574
891.105
895.236
890.953
889.531
904.554
905.778
892.381
896.198
904.269
899.770
899.581
895.565
899.151
909.981
906.411
909.814
902.624
907.387
911.661
907.101
909.916
914.038
902.689
906.205
902.348
910.362
908.407
906.593
909.335
917.988
903.637
904.744
904.402
912.580
914.108
920.444
907.799
919.071
914.048
908.755
909.809
908.618
914.029
910.750
919.037
919.599
911.082
921.115
924.686
925.942
917.013
921.138
922.686
922.568
928.164
927.680
925.193
932.019
922.506
923.899
919.725
921.576
929.666
931.981
929.669
921.129
935.536
923.921
933.661
937.225
931.032
930.426
936.352
924.973
929.297
927.752
939.846
932.211
936.923
930.737
943.109
934.269
945.080
944.092
938.853
938.338
935.547
942.906
932.234
934.352
939.901
948.084
945.305
941.221
938.554
946.324
945.292
947.869
951.269
944.963
951.501
945.114
954.478
942.155
948.489
944.727
955.616
944.539
947.575
949.451
958.332
943.921
953.724
948.206
957.463
946.422
957.340
952.498
951.401
949.347
961.531
949.809
954.073
961.512
960.560
957.730
965.411
959.338
965.820
967.472
962.111
956.775
968.014
958.355
961.216
969.332
968.163
961.615
972.922
972.661
969.612
962.802
961.390
966.439
976.209
969.699
977.098
964.922
973.464
966.612
977.720
974.640
976.102
976.256
975.708
967.097
981.181
979.547
969.900
980.733
969.748
978.602
979.268
980.682
978.791
981.558
984.479
979.196
985.052
977.569
980.665
977.130
986.559
987.098
989.286
982.189
989.678
987.114
981.100
976.823
976.501
975.283
975.488
985.413
978.050
985.601
986.845
972.039
986.446
981.618
980.999
975.834
978.240
970.144
978.138
975.962
975.774
972.752
972.909
979.511
968.994
981.301
970.596
975.372
967.295
969.337
966.653
965.505
965.197
979.088
967.024
978.816
964.066
968.486
976.724
969.812
978.377
970.158
967.734
963.257
965.961
973.638
975.125
974.736
962.224
961.722
974.073
959.992
967.289
961.560
963.115
968.737
971.270
967.580
968.200
966.338
969.945
971.019
972.138
969.318
958.817
959.848
960.912
960.935
963.226
964.682
968.067
961.468
959.842
963.428
966.370
962.173
956.803
960.616
957.819
956.338
956.865
952.002
963.742
962.258
964.608
957.278
960.488
949.761
949.402
950.777
951.132
963.208
957.405
949.632
960.028
961.709
955.501
955.935
954.996
954.218
946.254
949.733
955.978
951.030
949.147
954.618
948.238
953.853
949.497
943.505
947.348
945.857
952.664
954.547
944.672
954.500
948.255
941.765
947.177
945.061
947.063
941.707
952.932
939.996
941.151
952.679
938.110
939.400
940.816
949.408
947.897
940.531
947.389
941.399
938.260
941.294
943.665
939.958
937.845
943.640
936.675
933.317
946.316
935.987
937.846
942.974
942.990
937.203
943.839
933.637
934.578
940.634
941.846
936.675
938.246
944.279
937.821
940.947
937.858
942.354
930.974
934.531
929.856
934.138
934.640
935.842
935.298
938.080
925.602
935.464
940.572
932.312
929.208
930.227
935.303
924.421
928.580
922.999
937.325
935.910
926.134
928.309
922.300
932.752
935.242
923.620
927.281
933.153
933.960
930.491
927.315
919.006
927.813
925.900
927.303
922.427
927.484
923.205
919.324
914.579
924.169
912.592
916.088
911.672
916.991
917.369
914.767
916.281
918.945
917.689
907.289
905.323
913.584
911.164
900.757
898.930
901.381
905.099
903.169
898.368
896.326
892.602
892.628
897.999
894.869
889.896
897.501
890.306
888.692
888.033
882.487
883.302
881.751
888.363
878.488
876.230
877.114
870.158
877.751
876.550
874.686
874.812
869.657
868.512
869.309
871.882
866.103
861.992
869.613
870.955
859.054
865.000
852.610
863.161
852.626
859.233
856.323
857.333
857.894
846.598
843.440
841.023
847.126
844.585
853.029
843.750
850.297
842.393
833.726
846.367
842.928
829.596
828.065
835.026
830.109
834.853
831.231
834.156
824.239
829.221
830.630
817.441
821.141
817.882
818.922
819.659
817.703
817.846
820.218
808.585
820.763
813.315
813.970
813.517
808.076
813.398
799.789
798.515
802.507
798.829
808.519
795.799
800.741
800.998
793.288
801.492
797.970
794.244
793.777
788.089
792.913
789.649
785.842
795.133
779.987
780.604
776.887
779.240
782.728
781.665
772.261
782.250
774.672
767.914
777.714
768.145
769.760
771.275
768.146
776.187
774.253
763.334
757.939
769.162
767.720
768.342
754.983
763.081
762.823
761.534
761.848
759.310
754.988
757.578
750.851
745.433
755.253
740.008
741.622
751.708
751.409
734.713
745.879
747.397
732.862
743.350
731.469
730.411
729.167
738.094
728.037
726.950
734.389
725.222
732.262
729.123
718.123
718.213
716.093
714.459
722.962
715.879
722.100
717.779
707.699
720.081
716.933
707.131
705.436
705.865
707.502
709.124
698.278
699.319
698.391
708.164
699.185
692.798
691.305
699.679
702.332
694.059
693.703
692.059
688.530
698.165
689.857
681.376
683.986
690.287
684.965
684.677
669.152
668.339
676.841
673.722
665.036
665.203
659.919
665.323
651.784
651.855
657.746
645.059
645.414
643.022
638.545
640.741
638.167
630.026
635.868
631.335
620.332
617.293
624.042
618.122
622.651
615.901
609.407
608.524
603.394
601.471
596.024
602.442
593.803
590.369
584.419
596.801
583.105
591.533
581.170
578.036
572.029
570.165
564.615
571.386
562.867
561.258
560.379
562.544
552.870
561.672
548.573
556.118
541.245
551.419
543.274
543.304
544.250
534.220
532.824
533.614
525.657
520.386
527.251
511.794
521.675
509.481
505.562
505.499
499.727
509.185
502.253
500.396
497.428
502.008
494.448
487.467
490.699
481.177
485.560
477.047
480.964
478.185
473.531
471.361
466.397
460.949
458.467
452.765
457.151
459.948
444.755
448.785
446.075
450.875
434.449
441.767
441.564
439.764
425.800
437.662
429.859
422.724
427.372
416.335
413.928
419.899
405.381
416.595
402.605
407.856
400.480
398.025
397.389
391.984
392.121
392.752
394.864
391.486
387.772
378.275
380.919
382.831
369.549
367.533
363.778
367.655
369.294
368.331
360.320
355.592
349.144
353.868
355.327
347.290
335.634
335.358
338.709
331.173
340.767
334.855
326.788
330.838
315.956
326.229
325.980
319.675
313.197
311.811
311.617
303.568
304.572
299.781
292.264
299.210
289.703
288.915
290.081
286.602
291.071
279.135
271.852
272.791
272.555
265.192
265.731
271.605
256.390
255.475
251.876
260.686
252.346
244.633
251.338
248.867
236.232
248.217
240.803
242.266
228.698
226.389
236.448
232.408
220.722
215.994
214.374
218.975
207.645
218.524
216.596
203.702
206.724
207.279
193.304
195.046
196.384
