324.151
340.527
366.170
371.279
383.937
359.685
380.339
398.607
403.539
424.569
421.198
462.475
440.027
468.689
471.237
475.390
506.989
505.302
147.852
152.899
158.981
167.087
161.278
172.240
169.725
181.247
184.802
180.441
183.585
179.446
196.312
189.037
202.476
202.464
201.910
202.548
212.095
203.173
216.341
210.760
221.874
226.547
216.140
225.827
224.588
234.867
230.571
234.191
246.609
237.579
239.074
247.938
252.972
260.203
261.031
265.540
259.256
260.628
263.334
272.695
271.700
274.803
272.298
285.134
290.765
294.458
294.711
295.181
296.807
302.546
295.202
306.916
302.397
309.303
317.024
321.338
324.454
319.555
327.076
331.472
336.107
333.211
328.928
339.837
340.142
345.086
349.677
358.220
355.721
361.760
363.416
366.675
359.797
362.827
368.449
380.019
380.962
381.258
374.894
380.535
380.447
385.292
400.356
392.313
392.160
396.907
398.371
404.614
414.078
420.674
418.391
414.233
420.222
429.741
422.963
432.379
438.245
429.438
436.176
448.787
444.053
451.241
454.554
451.791
449.311
463.025
469.623
460.335
464.253
465.587
471.543
483.287
473.653
483.523
489.739
490.172
486.246
493.427
499.139
497.445
505.985
506.177
505.750
507.209
512.032
510.150
522.280
522.141
522.821
519.901
537.391
538.005
539.984
542.185
539.453
538.621
552.035
544.259
553.587
560.798
561.427
561.261
569.378
559.443
567.526
569.593
577.824
570.994
582.792
585.519
592.867
587.496
586.651
591.035
604.896
606.436
600.024
609.639
613.396
614.079
615.750
620.067
622.936
618.382
627.061
629.336
637.220
631.484
644.584
643.076
646.988
641.058
656.581
655.874
649.500
657.072
657.613
659.711
663.870
663.138
669.099
673.895
684.272
673.659
675.903
690.774
688.836
694.573
696.450
687.606
699.862
697.455
707.741
701.655
702.774
715.393
706.718
705.861
721.225
720.833
715.586
719.407
727.624
726.382
729.339
738.066
739.086
743.223
737.039
742.272
746.389
740.874
743.931
742.744
748.659
759.423
762.133
757.869
761.062
756.601
764.490
761.503
767.074
768.108
772.239
773.321
773.960
786.373
791.823
790.057
784.253
792.060
801.253
800.159
796.402
797.992
798.934
805.839
805.584
814.954
818.473
816.730
825.364
819.221
823.724
823.467
827.870
821.902
829.038
839.523
837.763
834.427
841.875
850.994
845.759
839.972
853.471
855.860
850.329
856.958
862.122
854.902
863.526
860.715
869.214
874.894
876.149
874.571
882.881
878.165
876.495
883.131
889.804
887.484
896.050
896.888
893.560
903.455
895.286
911.658
908.737
909.870
913.217
916.363
911.121
917.951
916.728
915.872
918.250
920.306
922.136
929.436
937.468
941.288
936.188
941.620
947.965
951.348
952.466
950.566
949.478
947.485
963.429
958.348
970.204
960.494
960.411
974.806
973.516
976.739
983.133
970.639
987.434
989.131
986.110
983.768
997.384
994.203
996.367
1005.075
1005.670
1000.708
1003.229
1011.900
1005.188
1004.670
1009.080
1020.816
1020.923
1018.761
1021.484
1032.597
1028.658
1037.923
1032.645
1033.419
1042.473
1036.325
1039.120
1040.377
1050.272
1055.186
1051.092
1048.045
1060.689
1064.387
1068.162
1068.995
1070.508
1065.312
1075.552
1064.341
1076.699
1072.341
1086.823
1079.957
1090.899
1080.098
1085.445
1098.523
1100.519
1103.039
1100.546
1097.245
1101.697
1103.832
1099.479
1108.145
1109.806
1113.137
1112.238
1117.702
1118.121
1130.529
1121.404
1126.660
1137.482
1137.567
1131.579
1140.471
1136.178
1143.975
1143.904
1132.170
1140.413
1142.495
1136.292
1141.496
1140.133
1129.630
1137.739
1143.641
1141.894
1141.074
1128.316
1141.112
1142.437
1137.490
1127.080
1131.727
1131.604
1125.464
1135.397
1131.343
1133.323
1130.158
1131.403
1122.902
1123.910
1135.827
1122.277
1122.243
1129.628
1135.286
1123.166
1127.694
1126.930
1121.783
1135.122
1122.251
1133.646
1132.868
1130.724
1132.174
1126.844
1128.079
1120.152
1125.721
1128.775
1117.868
1127.448
1115.593
1122.910
1123.855
1118.411
1118.564
1114.208
1121.955
1116.305
1117.003
1126.164
1117.997
1124.551
1124.261
1120.899
1114.449
1120.986
1116.044
1113.436
1112.166
1118.654
1117.563
1116.716
1109.594
1112.386
1114.804
1118.718
1113.470
1113.646
1115.104
1108.029
1112.099
1110.651
1112.912
1116.696
1108.607
1106.828
1107.776
1115.207
1107.275
1104.309
1102.785
1113.070
1104.938
1104.971
1105.746
1108.798
1111.561
1107.766
1112.347
1107.373
1106.172
1106.120
1103.169
1112.722
1102.655
1110.474
1105.181
1107.737
1105.103
1107.919
1098.599
1110.294
1105.326
1100.633
1102.493
1104.203
1099.852
1097.468
1104.152
1099.364
1101.378
1105.579
1099.565
1098.489
1092.404
1096.250
1097.180
1098.334
1098.099
1094.333
1100.681
1095.634
1096.323
1090.270
1098.277
1093.156
1088.552
1100.813
1085.609
1094.007
1090.099
1099.180
1086.058
1084.885
1086.418
1088.559
1097.021
1085.328
1090.495
1093.379
1095.858
1086.339
1091.357
1081.014
1095.806
1095.684
1093.123
1081.276
1079.044
1079.840
1089.775
1090.106
1091.880
1080.510
1084.560
1082.523
1091.724
1081.805
1079.503
1077.258
1087.069
1079.495
1077.786
1076.134
1075.103
1079.747
1086.053
1082.945
1085.053
1080.147
1074.611
1084.848
1085.396
1083.344
1072.005
1085.779
1079.145
1076.714
1082.151
1072.972
1083.937
1069.639
1075.325
1068.971
1082.709
1072.988
1077.909
1072.587
1072.226
1077.228
1066.105
1061.881
1074.350
1060.395
1068.804
1066.406
1053.715
1052.841
1056.604
1048.421
1044.638
1046.465
1051.038
1038.968
1037.175
1031.419
1038.352
1032.076
1030.091
1034.294
1019.707
1029.289
1014.791
1020.880
1018.143
1011.846
1006.882
1001.910
1014.236
1009.562
998.658
1001.735
997.402
987.735
1000.770
998.077
995.758
993.702
983.377
978.583
985.165
984.070
970.507
967.147
966.508
973.756
970.539
967.474
957.791
961.280
957.712
952.201
952.455
952.202
942.232
946.099
943.338
938.896
944.231
935.885
933.494
930.176
925.149
924.175
927.670
920.542
924.043
924.409
909.981
912.562
906.248
901.526
898.980
901.151
894.570
899.945
899.698
892.396
885.710
890.063
885.826
888.935
877.452
880.414
883.165
879.619
874.446
864.250
876.512
871.731
857.148
867.765
857.614
858.977
848.241
847.265
843.735
848.914
848.894
837.376
846.326
840.660
833.716
842.041
835.769
836.056
823.948
827.476
826.606
814.703
820.581
811.810
817.661
815.256
806.628
814.199
800.846
802.565
805.476
802.418
794.814
796.094
787.273
792.678
780.980
783.444
776.327
782.581
781.199
771.148
775.035
770.274
775.394
759.211
757.125
768.155
755.235
753.310
753.941
749.630
755.271
743.436
745.947
743.386
735.531
744.621
740.470
729.037
728.912
724.292
728.231
719.173
720.327
715.975
722.138
718.206
708.574
709.446
713.038
705.863
706.477
703.835
692.819
688.611
701.009
689.421
684.552
689.828
690.692
686.107
688.368
672.824
673.821
678.516
668.798
672.812
673.345
666.673
655.010
653.118
655.060
653.293
653.488
653.880
644.176
638.310
639.874
636.506
642.259
642.529
636.702
635.352
631.495
631.895
632.021
623.286
625.176
619.291
622.655
614.053
614.164
615.524
619.039
622.962
619.224
622.191
627.614
624.944
627.311
623.376
625.552
633.038
626.933
635.446
636.272
634.840
638.481
626.733
628.125
627.993
632.504
629.275
635.460
636.101
633.925
649.041
649.272
641.474
640.799
650.171
641.477
646.690
654.439
649.444
654.490
646.044
655.251
660.142
646.826
657.868
651.625
659.185
663.249
653.028
655.129
665.629
667.405
665.434
663.595
660.584
673.136
670.610
665.241
674.081
677.491
673.108
678.133
681.887
674.844
670.368
670.272
680.422
685.199
686.469
681.458
687.418
680.789
687.951
688.326
685.159
682.783
696.683
682.653
694.199
690.111
694.672
690.223
697.851
696.167
699.591
694.697
695.442
703.149
694.329
709.847
701.596
710.889
698.093
703.108
705.476
714.824
716.586
705.367
707.839
716.371
715.580
716.936
718.094
713.867
724.504
712.856
719.405
717.395
724.786
724.196
729.041
723.630
734.447
730.477
722.066
727.884
738.258
728.165
732.762
741.477
733.202
732.106
734.974
744.908
747.380
740.367
741.461
750.430
740.574
752.221
751.646
754.298
749.932
751.648
752.962
743.172
748.887
752.122
753.181
757.432
761.329
756.948
765.237
762.894
757.678
763.020
761.602
765.088
769.825
758.431
766.633
761.722
768.061
763.309
765.432
772.873
772.609
775.022
779.537
768.166
780.559
771.686
784.697
777.022
775.278
775.563
788.076
785.017
789.950
782.693
780.103
781.405
782.433
783.591
799.528
790.697
789.963
791.489
803.237
789.552
797.004
799.056
795.866
808.265
797.403
799.692
799.524
809.125
801.470
804.290
804.449
810.396
802.827
816.481
814.720
811.196
809.470
808.527
809.089
813.841
811.934
815.501
821.547
821.126
818.757
830.948
824.381
817.594
817.666
821.787
834.399
826.379
820.338
825.169
822.836
823.947
834.760
832.240
824.252
832.363
833.542
835.356
836.840
840.457
830.129
829.493
833.190
845.192
838.285
837.604
836.667
840.212
833.612
849.352
847.529
842.481
842.691
839.977
843.176
838.814
843.098
845.490
849.109
846.904
844.985
854.106
848.250
844.144
849.544
846.611
849.326
860.641
851.162
846.636
846.945
859.935
858.122
863.349
854.432
855.279
864.428
859.796
860.711
864.258
867.861
868.949
861.290
865.533
862.473
858.192
865.495
864.168
860.881
859.693
863.230
867.277
865.373
865.288
869.135
876.255
878.102
878.923
873.802
870.639
868.431
882.401
881.676
882.791
875.025
872.682
870.794
876.504
872.056
872.978
876.219
884.034
874.364
880.667
881.881
885.883
881.631
890.826
881.427
893.442
889.671
890.135
893.817
882.400
893.812
888.577
887.945
895.458
887.534
895.088
899.292
892.776
900.254
892.217
895.005
893.802
895.906
903.367
900.959
904.878
899.418
907.519
895.127
893.282
896.696
905.004
895.276
910.582
909.872
907.088
902.134
902.051
903.446
910.101
901.407
904.957
917.097
910.829
907.000
911.713
908.966
918.980
916.382
908.247
920.607
918.976
912.029
911.481
914.533
912.647
911.823
921.370
924.756
914.624
917.898
927.836
914.509
921.466
928.746
925.666
932.113
929.197
921.512
926.291
931.281
922.998
927.386
923.122
925.851
928.283
926.496
927.154
924.621
929.233
925.747
927.995
930.898
928.414
936.735
929.865
941.907
945.546
937.841
937.313
936.023
933.179
944.419
935.254
939.573
943.309
947.132
949.871
946.825
945.394
951.827
951.685
951.356
955.810
947.458
945.917
948.219
957.413
948.537
946.977
948.529
942.899
942.497
948.512
945.114
937.730
942.217
934.538
939.669
936.116
939.991
939.621
940.439
941.343
930.292
942.179
940.790
939.382
935.090
931.721
929.833
927.546
937.982
923.947
935.966
928.196
929.331
924.808
921.169
919.840
920.525
919.846
923.231
923.765
931.111
921.071
924.143
925.643
917.843
914.880
922.379
924.515
923.976
918.541
918.099
914.743
910.563
914.949
913.649
908.106
916.263
914.883
916.319
912.204
909.054
912.603
911.536
909.505
905.595
903.987
907.138
912.531
909.276
897.712
896.448
899.544
906.523
900.636
893.614
892.733
895.775
894.173
897.175
892.457
896.621
889.073
898.812
890.935
894.709
896.821
886.329
890.642
883.737
887.209
886.472
885.767
885.242
893.603
883.069
889.672
887.059
887.561
882.069
883.551
874.581
886.702
877.622
876.393
879.745
883.746
874.494
882.867
873.963
868.963
876.191
871.228
881.036
868.132
868.999
863.830
878.337
866.953
873.823
863.732
872.335
872.273
860.455
869.986
868.723
858.406
863.680
870.699
854.976
857.372
854.378
852.896
863.096
863.260
861.231
860.372
855.963
864.263
851.338
855.045
851.457
856.813
856.272
860.234
847.731
858.737
842.972
846.436
844.496
849.756
851.055
847.455
845.168
846.118
841.938
840.688
837.096
837.197
849.430
847.679
833.232
833.634
837.264
842.968
838.961
841.333
836.591
837.554
828.341
826.886
838.467
836.551
834.587
835.843
824.356
822.580
836.274
831.448
834.255
821.610
832.088
833.774
820.185
819.193
823.230
826.497
826.493
820.782
818.209
813.353
819.419
816.222
818.741
818.859
814.820
809.156
813.715
819.162
820.280
820.652
807.615
816.341
805.717
813.940
817.102
819.293
814.360
816.096
815.308
828.355
825.108
830.301
826.214
831.624
826.558
831.977
839.834
836.596
837.430
839.823
834.041
848.812
845.121
836.197
842.119
851.903
852.350
851.678
852.603
860.002
850.122
854.157
861.202
857.122
859.309
861.743
863.398
873.295
860.274
865.322
877.578
872.120
878.887
881.049
882.804
870.671
880.520
886.603
878.537
884.785
883.768
892.840
882.036
891.193
897.999
896.248
898.924
890.241
905.450
900.153
896.306
907.369
905.199
906.354
911.038
904.064
905.080
918.167
912.732
914.966
920.140
917.570
925.357
915.761
922.331
929.443
920.874
934.427
927.945
926.320
929.094
938.041
940.193
940.024
936.278
942.384
944.147
942.186
937.795
947.557
949.645
950.468
945.018
945.680
949.824
956.105
952.573
960.189
961.937
961.222
959.319
960.470
970.461
974.326
973.896
977.970
979.901
969.088
972.461
985.226
972.841
988.703
989.500
986.757
980.245
993.097
993.646
996.741
987.730
991.162
993.119
990.791
998.148
1005.318
1005.927
995.768
1002.723
1003.074
1007.832
1008.372
1006.844
1017.412
1013.426
1014.382
1019.191
1022.589
1023.695
1015.867
1024.651
1023.244
1024.428
1019.701
1036.237
1036.704
1024.158
1028.522
1033.102
1032.710
1044.482
1042.176
1048.023
1041.709
1041.711
1049.990
1055.482
1049.923
1051.609
1053.971
1047.514
1050.207
1052.856
1051.797
1066.546
1059.145
1071.024
1063.054
1063.640
1064.555
1076.952
1078.118
1079.032
1076.805
1071.236
1074.739
1071.687
1084.624
1084.700
1090.438
1086.458
1081.215
1089.943
1085.532
1095.285
1090.282
1101.442
1093.228
1091.788
1106.095
1098.411
1107.967
1099.131
1103.654
1102.866
1113.188
1113.473
1106.132
1108.182
1117.000
1108.613
1117.771
1115.690
1126.179
1122.636
1129.104
1118.442
1115.372
1125.642
1117.363
1113.684
1114.574
1123.631
1115.265
1110.643
1110.991
1114.116
1111.984
1110.093
1107.228
1115.749
1110.035
1103.582
1105.126
1116.716
1104.817
1109.823
1104.227
1109.705
1114.639
1111.872
1113.269
1109.073
1106.779
1111.527
1102.426
1097.589
1094.718
1101.510
1105.888
1096.400
1096.963
1106.047
1095.171
1106.243
1102.930
1095.296
1094.695
1102.245
1098.676
1090.728
1093.509
1098.858
1088.474
1086.933
1097.361
1091.116
1091.484
1083.939
1091.844
1093.875
1081.259
1091.711
1089.717
1092.997
1078.195
1080.349
1088.851
1080.015
1087.511
1082.784
1081.900
1076.808
1076.862
1080.944
1086.080
1081.477
1075.524
1076.466
1081.793
1070.656
1081.415
1068.051
1075.684
1072.679
1079.312
1071.818
1070.548
1065.153
1075.658
1063.948
1063.949
1066.004
1066.721
1068.943
1066.399
1070.095
1064.708
1059.546
1073.379
1064.389
1071.432
1061.500
1061.474
1066.176
1060.875
1064.885
1057.811
1053.758
1054.103
1062.900
1063.052
1061.883
1052.046
1049.854
1061.496
1057.167
1051.960
1056.812
1048.990
1060.929
1057.848
1046.091
1053.408
1054.631
1047.684
1044.880
1052.766
1047.174
1041.250
1053.868
1044.733
1046.606
1042.579
1051.433
1048.009
1042.010
1039.186
1044.012
1047.455
1039.702
1047.758
1044.059
1034.105
1031.851
1039.676
1037.575
1038.171
1042.224
1038.281
1042.513
1034.896
1031.886
1032.049
1032.253
1033.708
1031.222
1038.845
1036.969
1032.986
1034.566
1030.605
1026.028
1029.547
1021.149
1031.831
1025.465
1022.972
1017.171
1023.033
1030.139
1016.897
1015.415
1016.661
1022.002
1022.108
1019.261
1024.699
1013.976
1020.095
1021.113
1024.571
1021.152
1010.181
1008.811
1014.675
1007.601
1005.718
1007.446
1013.081
1009.243
1006.268
1006.468
1014.033
1005.620
1005.974
1010.320
1013.819
1007.792
1000.079
997.428
1011.228
1000.465
996.544
1004.210
998.508
997.299
999.868
1000.511
993.987
1003.847
1000.546
997.581
995.315
999.242
982.748
987.985
991.576
986.639
990.916
981.741
977.797
986.361
987.081
983.085
978.731
974.991
976.709
975.258
968.076
971.529
973.056
968.098
976.730
966.777
966.896
973.562
963.713
968.108
955.923
969.690
966.339
954.684
954.667
953.603
952.531
949.754
960.193
947.656
957.030
946.643
942.138
953.349
951.342
943.141
947.283
949.616
944.809
947.230
948.642
936.307
931.222
939.658
941.942
943.269
937.358
936.832
926.106
925.347
932.110
922.092
931.729
930.585
932.129
919.618
915.129
929.076
915.678
927.446
916.858
916.699
919.312
911.243
914.749
906.211
912.085
914.830
914.413
914.449
905.170
908.667
898.728
909.738
908.145
908.121
895.295
893.037
902.519
894.453
899.642
889.704
887.383
892.668
889.966
894.648
881.942
889.825
881.608
885.627
881.828
890.312
879.667
879.283
880.439
874.980
883.153
872.182
872.929
870.848
880.450
875.787
877.206
867.433
874.350
865.006
872.200
868.064
867.622
857.232
863.538
856.189
864.582
858.553
856.134
863.083
848.589
850.271
852.692
852.941
857.657
856.933
851.068
849.529
849.238
853.291
847.726
844.184
850.078
845.921
838.668
841.002
842.174
838.130
831.573
835.296
828.193
839.579
834.959
836.957
826.261
824.018
829.605
818.459
823.623
817.282
820.568
817.423
815.400
820.466
825.102
809.450
817.531
818.077
812.274
815.374
810.776
814.471
805.804
800.941
802.750
800.241
798.333
806.386
796.783
804.764
796.418
793.016
795.945
796.425
793.639
800.556
796.615
798.683
790.673
786.237
792.528
783.977
792.331
786.964
779.342
780.720
781.606
777.146
771.607
