611.912
600.891
605.852
606.089
617.312
613.677
617.576
605.711
613.937
617.088
613.926
613.599
617.981
618.263
623.670
622.782
616.431
612.173
623.639
626.721
622.040
621.684
624.354
618.044
627.945
632.357
621.968
621.912
631.624
632.922
624.522
623.581
633.389
637.285
638.087
633.422
635.381
642.984
628.987
634.938
637.309
640.215
641.717
644.855
642.891
639.148
638.834
637.881
651.517
641.653
646.290
650.164
641.575
641.814
643.927
656.866
646.944
649.987
660.270
658.217
661.076
651.017
663.085
656.932
663.849
661.640
662.517
654.288
667.398
668.773
668.376
659.714
668.233
660.810
664.041
659.074
667.478
668.430
662.927
673.622
671.424
673.198
679.562
669.968
681.187
677.553
669.097
684.446
672.612
671.634
678.893
676.334
676.969
687.773
688.402
678.443
678.612
677.434
682.364
692.086
684.922
686.716
688.468
681.785
690.706
693.826
685.886
693.934
686.653
699.926
697.498
694.027
697.073
690.939
699.294
701.967
700.889
698.553
709.370
705.079
708.025
696.597
706.288
710.895
710.704
708.501
700.324
716.875
707.482
714.278
706.716
708.825
709.025
706.143
714.372
714.554
720.576
722.471
722.426
716.617
724.709
727.379
727.180
715.462
729.933
717.507
720.148
720.714
720.691
732.286
719.793
727.581
732.599
737.644
734.774
738.947
735.329
729.708
736.602
734.494
742.578
734.937
736.347
743.300
746.462
741.203
734.298
744.509
741.704
742.075
736.640
743.003
747.063
742.300
746.038
746.565
748.968
755.570
756.575
743.930
748.938
750.902
752.430
762.225
759.368
761.569
750.093
750.744
765.737
755.066
764.895
764.808
753.996
769.793
769.905
767.381
765.341
769.291
764.632
771.400
770.627
764.689
774.241
772.013
763.503
761.448
770.097
761.130
767.757
767.210
776.080
762.849
764.524
775.374
775.131
773.174
769.331
773.046
765.415
770.920
760.869
772.133
768.291
768.289
762.930
765.355
765.123
769.400
766.205
766.107
769.378
776.517
776.578
764.256
766.471
767.562
768.913
764.265
773.937
771.982
773.920
774.166
768.555
775.911
769.049
770.054
776.600
764.106
776.324
771.287
773.108
763.723
773.292
768.001
774.977
764.318
766.505
776.417
773.624
774.899
763.667
771.147
764.194
769.086
772.465
767.767
764.721
765.395
774.970
767.229
768.956
772.013
761.972
766.208
773.613
776.202
774.733
767.739
775.463
769.317
769.466
776.962
761.570
775.079
774.738
761.418
775.496
765.621
771.559
765.903
772.793
774.589
773.235
765.253
766.482
769.412
766.910
761.664
773.337
767.680
775.795
773.561
774.020
767.280
763.224
776.878
764.068
776.091
767.483
770.745
775.644
767.211
766.559
770.127
771.862
769.456
767.334
762.626
771.219
764.894
766.954
773.068
774.790
767.589
775.263
766.336
774.279
762.513
770.173
769.734
767.687
762.539
765.813
764.185
772.534
761.913
775.150
762.854
764.346
771.081
767.205
765.535
771.477
763.856
769.236
767.520
766.909
763.235
765.846
766.498
774.334
775.986
777.677
763.736
762.763
769.481
769.490
763.075
767.382
768.584
765.063
776.848
773.869
768.802
776.362
763.560
762.433
771.009
776.151
775.832
769.849
767.104
769.435
764.156
774.490
773.974
768.043
762.264
762.350
770.217
773.471
765.428
773.317
775.564
763.133
771.723
771.880
774.554
770.907
770.807
772.573
770.788
775.597
764.721
774.567
762.526
773.874
762.440
771.779
762.383
774.525
771.369
767.348
778.764
772.033
772.037
773.568
781.151
775.970
781.873
775.183
779.077
773.616
785.523
778.051
776.527
773.013
775.891
779.823
780.201
788.332
789.966
777.435
789.319
779.888
789.281
789.600
786.598
781.492
791.522
793.782
796.017
791.595
785.927
787.019
793.326
784.807
789.946
793.803
790.984
794.787
791.747
796.198
790.729
798.438
797.464
800.216
802.552
799.392
798.542
803.393
793.364
803.128
804.140
806.903
800.096
795.601
810.064
801.007
797.417
798.784
809.978
806.309
799.409
800.572
813.572
803.557
812.412
813.485
816.117
813.081
809.946
809.196
807.358
816.086
808.938
821.440
814.857
816.860
821.233
821.223
818.855
823.916
821.593
814.125
816.712
826.140
828.433
818.048
818.356
815.611
821.494
821.350
816.963
823.315
832.331
822.927
825.013
823.451
835.989
830.997
830.057
825.218
832.284
836.669
828.593
825.262
829.585
833.873
827.173
827.480
830.603
842.817
830.310
844.965
832.819
841.035
839.892
835.653
833.029
847.771
834.150
847.044
844.330
840.813
842.370
847.730
850.258
852.456
844.631
841.157
851.289
845.531
845.604
841.124
851.198
849.109
850.164
857.230
854.086
848.933
858.821
855.868
857.372
858.477
859.425
855.789
851.684
858.141
858.680
858.819
854.269
855.609
863.467
857.015
861.881
869.716
858.642
859.998
860.504
864.361
859.008
867.872
868.574
870.405
871.362
867.380
865.964
869.358
868.184
877.611
877.954
872.348
870.397
878.620
880.045
870.262
872.330
881.919
879.354
873.878
883.697
872.065
877.479
872.576
876.609
875.650
882.921
884.684
887.604
883.736
877.078
877.807
875.524
883.437
880.654
889.765
881.701
882.505
883.981
880.404
888.346
891.425
888.717
893.060
895.011
880.568
881.970
881.249
894.214
892.685
884.817
883.497
892.745
891.999
889.548
883.796
887.402
884.278
892.451
882.386
882.947
892.771
881.569
885.994
890.675
893.713
884.041
894.170
882.921
890.568
892.569
892.425
895.770
889.090
891.574
894.819
890.561
884.850
883.982
886.700
889.459
894.927
890.462
880.891
893.983
894.346
882.529
880.659
888.273
895.332
893.520
884.178
881.408
882.118
881.779
895.383
883.329
896.452
892.834
896.021
882.428
884.443
881.079
881.342
883.536
893.790
887.112
893.627
896.198
887.112
882.032
893.841
896.941
882.599
888.665
890.387
892.076
884.558
889.915
892.441
883.581
896.800
890.859
884.389
888.540
890.744
881.493
895.056
895.448
889.440
889.933
894.297
886.277
884.710
895.939
885.663
889.515
889.060
894.688
884.809
892.545
895.881
893.514
883.319
897.476
897.269
891.106
881.839
895.529
883.298
892.788
895.315
888.990
888.472
883.365
890.930
894.352
893.060
894.840
895.766
885.866
893.846
882.777
883.687
887.365
895.122
885.696
887.207
897.567
887.539
895.914
886.290
885.933
884.452
897.947
882.356
897.128
897.964
895.979
885.154
883.680
893.813
894.053
896.014
892.904
894.458
889.994
886.735
887.523
897.246
888.145
894.686
886.888
891.739
892.253
894.086
898.322
897.890
889.780
884.002
895.264
884.384
892.271
896.233
890.612
883.245
892.552
896.312
888.941
898.095
888.926
898.290
889.860
897.688
894.129
883.960
887.698
887.730
894.311
891.847
897.613
883.970
895.647
885.348
888.094
885.040
887.812
896.960
890.764
884.813
893.774
898.371
885.675
898.475
884.239
899.246
887.088
887.079
891.761
888.155
893.862
897.785
894.409
898.552
896.429
891.301
883.773
889.942
889.740
899.071
891.811
899.314
889.766
896.615
895.003
883.776
896.540
895.313
883.934
891.990
890.083
888.219
896.536
889.079
889.560
890.754
894.997
890.036
890.416
884.489
894.987
897.809
895.249
889.673
888.947
894.731
883.261
890.842
893.875
889.445
889.434
890.596
891.710
895.407
894.698
888.094
888.225
891.401
884.511
895.871
896.822
885.964
890.765
885.872
893.255
897.278
889.586
887.620
883.864
895.128
896.941
883.436
893.507
883.498
895.750
887.308
883.054
889.421
891.373
892.363
891.719
890.678
893.549
898.452
887.305
892.091
887.766
888.675
887.950
887.587
885.386
897.241
889.273
889.743
886.137
886.961
893.274
888.620
891.711
893.548
888.180
896.763
884.793
891.738
897.703
889.748
896.207
882.673
898.258
886.191
897.094
888.024
896.243
887.305
886.586
889.866
896.091
883.420
890.257
891.223
893.009
894.980
893.058
885.818
896.572
884.601
892.756
884.929
896.497
889.752
894.314
889.851
887.701
895.928
888.050
892.252
882.624
894.316
893.897
896.120
894.464
895.909
891.866
892.857
886.562
897.507
884.969
896.594
893.229
896.264
887.092
896.526
895.288
890.792
887.382
896.614
883.728
885.829
883.956
891.241
889.206
882.432
882.980
889.735
888.666
895.378
892.133
891.341
895.934
886.479
893.246
882.632
894.728
889.198
894.681
889.672
891.407
885.827
887.895
885.172
883.550
887.619
896.810
886.738
883.766
882.688
890.667
889.314
883.841
882.852
888.111
887.322
892.961
882.428
890.198
894.454
882.662
892.986
894.022
894.597
888.087
889.794
893.095
892.108
890.921
889.945
896.112
894.246
889.900
882.291
887.689
894.833
892.384
896.424
896.394
885.669
889.936
885.217
896.241
887.104
898.105
885.164
889.344
892.988
887.918
893.554
902.090
890.606
890.365
900.765
898.425
889.430
900.516
903.436
902.160
901.314
892.861
904.792
893.508
902.790
903.076
899.073
891.298
898.770
896.530
894.642
893.504
892.913
904.082
903.346
896.048
900.769
900.215
900.922
906.239
907.813
895.471
904.584
903.705
909.161
897.954
910.113
906.425
897.279
901.462
903.784
901.632
902.250
901.468
900.018
906.502
912.930
902.368
907.175
913.434
912.523
904.657
904.685
912.938
911.196
914.909
906.134
911.701
916.895
913.766
914.093
916.036
906.477
917.433
910.988
916.314
904.360
918.686
920.427
911.487
920.099
907.007
910.917
908.112
919.153
918.863
917.931
910.645
914.728
922.456
911.572
921.694
910.194
914.454
914.752
918.906
914.081
921.436
918.582
910.831
917.725
916.542
913.470
914.009
917.765
921.767
919.297
926.005
920.295
913.721
913.808
925.370
928.853
922.518
915.661
927.603
919.814
918.091
922.222
916.347
924.283
927.592
927.951
928.534
924.235
918.595
920.506
930.537
924.633
933.457
929.476
924.884
925.515
927.352
930.211
922.203
923.607
921.506
926.350
926.585
928.081
935.333
923.451
924.626
923.198
930.128
930.520
923.623
934.820
937.569
930.898
925.860
925.777
925.300
938.299
938.914
936.193
930.746
939.976
937.115
935.656
932.302
931.637
938.387
934.421
934.713
938.625
944.216
941.766
936.778
937.121
932.667
934.749
933.212
941.618
946.327
938.391
941.816
946.060
944.563
938.679
940.930
943.813
933.329
938.125
943.305
935.386
942.794
938.548
935.840
935.307
943.174
937.725
936.036
949.829
941.240
949.876
941.623
945.619
941.831
947.161
946.035
937.682
941.425
945.591
932.336
931.417
930.209
942.469
936.000
940.831
929.804
942.135
926.819
939.776
926.601
924.475
927.087
925.828
925.896
933.898
935.819
936.056
926.482
933.222
925.397
929.221
933.666
925.437
920.179
931.642
917.781
920.774
918.046
920.272
919.340
927.763
928.143
916.985
911.538
918.451
915.554
913.265
911.708
919.685
921.293
911.595
916.302
912.102
913.882
907.003
912.712
918.008
908.899
913.033
913.579
906.509
913.225
914.953
909.157
915.405
908.412
902.369
909.321
910.840
910.461
900.474
907.060
903.528
909.301
895.933
907.005
907.521
897.149
899.175
900.914
905.791
896.707
901.082
904.325
890.072
902.582
894.737
888.530
891.825
886.338
888.310
889.749
888.566
894.882
891.559
887.370
895.810
895.456
888.544
891.608
893.847
887.370
887.580
884.762
880.807
877.391
884.652
889.173
887.458
889.939
881.995
875.031
887.196
884.419
875.954
883.395
884.381
885.560
872.119
875.865
868.987
871.449
879.999
882.079
867.814
879.217
871.916
868.918
863.975
875.384
876.882
867.279
864.421
874.121
866.038
861.366
872.357
860.295
862.948
858.948
868.153
858.925
861.845
858.562
866.592
863.771
867.987
856.933
867.283
867.739
852.063
851.670
855.784
858.970
856.446
860.083
860.161
852.136
857.026
849.192
861.511
849.050
846.702
856.236
849.362
857.684
845.280
854.089
853.399
841.709
846.896
849.831
840.832
840.495
843.419
853.222
850.306
846.431
841.331
836.250
839.001
834.424
838.888
834.446
836.451
844.937
837.773
841.234
843.179
840.766
843.147
831.423
829.182
835.556
834.777
833.391
831.304
834.328
839.278
827.416
831.830
825.937
833.160
831.496
838.172
832.661
832.381
837.251
831.159
834.966
827.938
828.314
830.532
833.551
824.961
826.463
836.643
831.075
832.237
827.827
829.319
825.405
834.311
827.512
834.758
835.485
827.169
826.485
834.169
821.633
825.818
825.657
824.872
824.906
834.493
829.791
822.027
830.013
835.590
824.867
830.028
820.930
822.026
826.203
829.481
829.679
829.426
831.338
824.912
826.514
820.173
825.825
832.013
831.417
821.445
820.093
832.487
833.105
829.172
826.378
831.115
826.933
817.388
823.364
832.718
826.016
818.520
819.356
824.812
820.031
827.970
818.159
822.924
817.970
830.362
825.362
827.034
829.667
819.579
825.754
821.399
826.503
830.278
817.545
822.877
820.491
826.987
825.053
820.017
818.573
828.161
817.197
828.146
818.894
824.332
818.684
820.313
817.698
825.315
826.872
815.507
818.912
819.859
824.035
812.580
812.531
823.976
816.592
825.997
815.751
812.321
815.895
822.553
816.174
826.501
814.015
816.770
821.961
823.698
823.632
813.830
816.485
821.086
812.450
810.947
812.702
823.731
814.339
818.504
818.640
819.706
813.370
818.011
818.476
820.058
823.241
819.436
810.034
812.626
808.643
823.892
817.743
823.731
808.372
818.172
816.090
822.751
815.359
810.538
810.946
809.747
822.237
822.689
818.649
811.482
820.389
819.055
818.453
819.655
813.694
815.252
816.584
815.322
806.197
820.107
809.978
818.555
805.379
817.424
818.706
818.643
810.209
812.278
807.110
819.608
806.854
807.889
804.406
811.755
811.013
817.894
814.178
809.167
805.157
805.598
804.351
809.405
810.974
805.523
809.112
804.377
802.226
811.868
813.391
802.667
815.474
804.989
808.958
809.177
814.199
806.834
796.719
799.278
794.666
795.006
789.151
788.907
776.108
777.517
783.128
774.146
770.654
769.982
762.947
756.225
763.939
755.063
750.703
749.265
747.376
737.037
734.527
737.110
731.093
728.283
722.291
723.986
721.049
711.611
717.803
709.011
706.785
705.361
697.939
697.007
702.944
691.677
684.005
693.693
688.951
687.987
681.240
676.750
672.261
660.731
663.055
658.211
653.440
654.487
657.510
653.465
652.313
640.613
633.202
640.934
627.956
632.819
629.125
630.611
615.734
626.247
609.463
609.630
601.895
605.623
605.773
607.318
595.949
601.812
591.250
584.644
581.214
579.204
576.326
570.821
581.012
564.982
561.691
559.187
564.593
550.830
561.644
558.604
544.564
551.428
546.406
545.411
541.935
527.616
525.509
527.033
519.570
521.715
512.419
511.540
515.199
501.562
501.839
496.804
503.331
498.996
496.827
497.263
490.347
488.729
476.022
478.137
468.102
466.261
470.011
469.756
465.760
452.666
453.482
451.114
454.647
447.901
442.242
434.173
432.216
441.644
424.012
430.064
418.733
429.186
419.562
423.402
408.199
413.738
401.955
397.366
403.972
405.256
401.993
397.149
392.225
386.029
387.101
378.088
376.360
377.899
371.284
363.800
365.562
354.505
352.599
357.071
350.471
353.567
347.725
339.919
346.299
333.050
335.044
328.072
324.663
322.748
322.793
314.957
321.339
312.579
308.629
306.467
309.701
300.431
300.270
291.932
295.190
287.066
286.719
287.715
275.279
276.635
270.221
272.786
271.769
261.882
258.672
251.005
260.841
242.920
240.297
243.442
245.645
239.685
242.566
224.693
230.374
226.958
220.458
216.150
209.320
215.853
216.749
209.967
211.984
208.816
204.840
202.077
195.725
190.221
195.023
189.755
186.697
198.459
188.786
186.947
193.829
188.437
183.970
194.131
195.124
195.657
182.846
181.702
189.356
190.596
186.545
185.441
186.925
184.045
180.609
187.457
183.938
185.394
177.284
182.646
177.159
177.791
185.655
186.733
184.739
184.771
184.449
186.463
183.659
182.539
175.205
181.563
173.106
175.692
170.138
176.797
170.788
174.767
173.956
168.189
177.441
176.142
174.818
167.191
171.313
163.716
174.601
168.292
161.887
162.740
169.103
175.218
169.360
164.893
165.149
166.987
157.978
171.281
171.045
161.768
169.773
164.164
160.311
156.818
163.571
156.858
156.272
164.416
161.340
156.762
151.325
156.176
155.108
162.630
154.301
155.207
148.491
152.089
154.550
150.411
158.780
154.241
157.472
154.419
159.249
147.759
153.753
148.336
156.503
155.228
148.180
157.236
151.165
143.856
148.360
149.821
148.869
140.500
141.150
140.924
144.573
150.200
137.776
148.367
138.365
144.799
135.457
141.417
135.896
138.820
146.323
134.572
432.416
467.056
459.372
425.081
473.500
438.285
426.596
461.088
426.236
434.730
454.538
447.288
449.805
425.989
422.076
441.529
406.962
403.852
442.418
415.111
449.719
416.203
429.400
414.385
435.630
428.934
434.382
415.410
395.527
413.578
412.512
426.549
391.983
410.033
420.104
387.132
418.670
414.739
380.461
414.540
379.483
386.004
383.895
370.423
412.412
372.528
384.126
372.750
369.128
365.844
390.925
387.527
381.752
399.574
397.839
360.001
370.383
388.408
368.283
385.562
362.402
376.943
366.181
378.238
356.935
337.363
350.666
367.819
329.560
332.174
363.516
348.543
347.579
321.624
337.037
318.860
329.528
360.046
331.958
