580.218
571.540
579.808
581.479
581.023
580.961
576.297
583.423
584.474
583.901
585.610
579.145
578.644
585.339
589.268
591.031
581.297
587.310
591.633
587.600
587.222
586.596
597.876
589.146
589.506
588.491
601.923
603.494
603.224
601.512
598.665
594.182
605.930
605.303
607.589
595.969
604.686
607.971
596.857
599.847
600.179
614.482
610.340
614.354
603.795
615.742
612.779
610.118
612.892
621.934
613.546
617.691
614.268
613.806
622.576
625.743
626.805
620.275
628.364
628.319
623.945
618.065
618.074
633.333
618.889
629.916
635.906
636.593
629.733
628.903
638.618
636.148
629.951
640.863
633.504
641.715
640.267
632.071
636.776
638.037
647.492
639.704
645.611
639.403
645.735
650.573
649.540
646.781
640.277
650.527
642.793
656.188
656.271
644.185
657.825
646.862
646.762
651.600
660.518
652.125
658.414
665.007
662.876
659.034
660.789
659.660
668.623
656.374
657.146
667.467
663.321
662.870
659.142
670.197
661.399
663.374
672.400
671.172
672.870
671.036
668.742
678.885
682.810
668.743
680.176
674.380
673.527
681.212
682.043
674.252
685.741
679.221
686.193
679.009
691.937
692.663
682.166
680.881
695.125
690.208
685.181
692.151
695.526
690.796
693.843
695.700
694.908
699.893
705.025
694.972
696.016
695.759
704.328
705.868
702.918
697.091
710.808
704.628
710.881
705.174
704.561
702.527
709.747
703.077
704.026
709.636
713.539
720.198
722.040
718.930
723.516
708.904
723.983
716.173
711.376
712.894
713.396
727.556
728.356
715.624
726.038
720.084
729.118
725.007
730.246
734.348
721.715
732.568
733.155
726.594
738.714
735.737
734.008
733.530
738.325
741.583
729.660
746.340
739.473
745.115
746.607
744.822
738.594
752.955
752.941
742.974
754.316
750.954
756.091
760.327
759.915
760.877
764.380
762.400
768.626
767.983
770.850
774.553
772.714
764.667
764.769
766.752
782.509
775.960
785.786
782.509
789.124
785.476
780.419
792.687
781.663
792.483
787.177
799.432
791.419
793.375
796.338
801.536
808.673
804.323
797.121
801.258
815.424
812.532
814.500
811.840
808.265
817.298
814.893
819.301
822.614
820.039
827.074
821.008
818.949
825.971
827.416
838.969
827.076
832.547
843.258
834.309
845.606
837.488
836.286
847.645
849.401
854.779
855.008
851.467
850.673
848.120
858.948
862.021
861.750
861.124
864.396
858.988
871.871
864.985
861.719
871.708
873.166
872.910
879.271
877.638
882.994
885.957
878.330
876.037
886.672
878.257
879.228
890.984
892.736
889.102
888.833
888.941
892.450
894.125
897.765
904.599
909.466
906.801
900.809
907.841
902.797
914.062
916.657
913.470
910.503
910.659
918.345
915.314
924.038
929.757
918.403
922.070
929.430
936.307
931.040
937.093
937.043
932.506
942.610
932.038
933.775
948.814
938.036
943.834
949.451
947.627
950.851
948.013
946.630
954.776
956.651
955.883
966.013
963.777
965.637
971.896
968.139
964.459
971.300
968.975
977.371
976.940
981.626
975.084
982.732
983.526
983.315
981.280
977.102
985.489
993.154
989.683
998.507
990.126
999.816
995.228
1002.941
991.579
998.714
1006.570
1005.830
1009.016
1009.786
1009.313
1015.231
1015.983
1008.371
1016.777
1012.201
1022.186
1018.766
1016.930
1024.209
1022.291
1018.883
1020.036
1032.337
1038.465
1029.993
1026.861
1042.488
1043.557
1037.979
1038.449
1044.869
1035.957
1044.306
1051.642
1041.151
1045.118
1054.159
1049.352
1051.885
1063.029
1059.254
1061.188
1060.289
1054.424
1059.993
1059.370
1065.065
1058.379
1053.419
1052.615
1056.764
1054.646
1054.122
1063.088
1051.179
1059.449
1055.053
1061.109
1062.433
1053.320
1062.755
1064.820
1060.506
1059.040
1053.385
1060.148
1059.026
1062.058
1056.352
1062.056
1057.541
1067.395
1059.816
1063.318
1053.676
1055.717
1054.754
1060.693
1053.486
1065.768
1067.210
1055.677
1058.351
1052.208
1067.985
1052.654
1054.616
1054.434
1063.733
1054.486
1063.472
1055.229
1053.149
1059.299
1064.319
1062.692
1063.931
1056.043
1065.007
1058.974
1067.499
1061.076
1066.538
1065.030
1054.835
1066.511
1066.975
1057.550
1065.183
1067.945
1059.403
1069.742
1066.967
1069.749
1066.106
1064.668
1066.682
1055.887
1069.558
1069.940
1069.287
1064.682
1063.710
1065.686
1070.136
1057.805
1058.047
1067.574
1062.388
1069.034
1067.769
1057.405
1056.611
1055.953
1059.666
1062.839
1056.022
1061.136
1056.604
1062.009
1056.572
1070.977
1062.978
1063.665
1069.525
1061.220
1060.088
1067.616
1059.633
1065.063
1056.427
1060.561
1063.541
1070.896
1062.596
1071.241
1065.855
1063.238
1061.328
1071.978
1068.029
1061.048
1058.693
1058.223
1059.749
1071.352
1059.926
1058.240
1071.563
1069.921
1070.124
1063.364
1059.815
1060.608
1060.274
1065.301
1059.815
1063.856
1070.495
1072.522
1071.224
1067.438
1072.213
1060.699
1064.437
1061.155
1073.898
1062.130
1070.197
1073.599
1072.023
1063.875
1065.241
1073.733
1070.515
1066.015
1059.199
1060.137
1072.163
1068.478
1068.588
1066.298
1071.085
1064.219
1064.675
1067.357
1075.223
1071.116
1071.258
1064.628
1075.008
1065.364
1069.025
1068.270
1061.957
1069.615
1074.855
1061.718
1073.091
1065.587
1067.247
1062.418
1075.675
1063.791
1068.869
1067.444
1063.692
1068.547
1067.364
1061.755
1065.831
1066.053
1064.967
1068.292
1074.732
1061.912
1074.038
1061.512
1070.884
1068.899
1064.195
1075.004
1061.934
1067.312
1059.644
1061.758
1065.005
1055.788
1064.041
1066.420
1059.311
1059.616
1048.813
1062.513
1055.777
1045.488
1056.690
1050.580
1051.440
1054.675
1043.731
1040.246
1042.006
1045.508
1036.486
1047.815
1038.023
1034.149
1042.107
1035.590
1040.999
1041.142
1037.521
1028.895
1029.171
1029.444
1037.741
1032.752
1034.685
1032.705
1033.513
1019.257
1019.265
1022.409
1021.046
1028.384
1015.817
1025.989
1022.028
1012.344
1009.621
1013.094
1018.433
1011.383
1010.933
1012.909
1011.200
1011.054
1002.125
1004.409
1008.456
1003.833
1005.250
1001.767
1003.124
993.645
1004.926
990.504
1002.624
1000.829
998.664
985.950
994.985
988.284
985.708
995.142
991.501
989.544
991.578
978.272
976.051
979.641
982.948
979.626
971.817
981.111
970.554
982.478
976.095
975.877
972.081
972.995
965.117
960.847
965.556
974.093
960.181
972.102
959.288
965.082
966.283
963.748
956.685
959.842
949.240
955.007
951.934
957.145
948.244
956.273
951.571
944.347
941.949
941.713
939.007
942.425
936.410
941.332
945.889
943.037
941.194
943.115
942.941
937.817
930.573
928.902
926.897
934.204
933.350
923.441
922.432
928.875
929.864
921.989
929.056
915.184
924.201
914.902
916.592
917.894
920.046
923.782
921.403
915.588
905.750
910.718
918.252
915.930
915.338
914.666
904.039
905.981
907.605
908.095
907.902
902.658
897.275
904.025
897.805
903.337
898.114
893.669
901.527
885.524
890.638
897.927
884.429
890.010
889.287
879.873
887.817
890.890
883.542
877.607
882.616
873.123
871.040
884.787
874.792
875.598
880.458
869.094
875.449
874.114
864.697
875.256
863.295
868.102
870.382
870.905
855.832
869.592
856.799
858.201
860.362
855.413
861.594
852.920
847.580
847.642
859.115
852.061
854.185
850.961
847.975
852.524
862.128
851.048
860.990
850.209
858.301
861.935
850.935
858.078
860.345
860.344
857.759
860.477
865.713
854.322
853.208
853.582
857.038
858.245
856.345
856.261
866.179
858.998
864.909
860.226
862.425
868.991
864.729
864.114
863.604
871.578
865.591
864.306
858.147
869.430
860.937
867.167
872.594
872.561
873.280
873.649
875.745
869.748
863.094
876.244
868.865
862.880
867.437
869.501
872.180
866.620
869.764
871.257
874.491
871.161
875.641
875.998
878.591
876.110
882.597
873.364
875.787
879.999
879.257
870.308
884.494
874.249
884.563
880.724
878.572
878.761
886.674
887.425
881.729
877.612
884.859
874.530
879.398
880.399
888.100
881.289
878.921
878.101
879.551
887.627
886.398
877.436
891.306
886.967
882.363
889.322
879.243
889.382
885.579
885.086
887.779
886.269
885.235
893.224
886.613
886.256
895.753
898.967
898.367
887.701
894.266
885.302
894.344
891.137
893.864
893.949
896.003
900.830
900.013
899.469
900.356
898.093
903.024
897.159
894.367
892.045
892.706
893.253
904.894
901.506
891.989
896.418
897.158
906.788
894.357
905.602
903.522
906.904
905.087
898.106
904.280
907.725
911.079
903.473
910.193
910.140
907.868
906.400
907.478
911.075
910.157
906.822
911.061
901.652
902.806
908.859
915.096
912.341
907.512
904.006
903.482
903.750
911.289
905.830
905.263
907.815
914.944
912.810
910.691
913.545
910.302
908.270
921.908
908.120
916.077
915.771
922.571
912.381
918.004
917.208
911.032
917.263
912.865
918.613
922.450
913.231
927.052
914.463
925.809
920.096
923.363
915.685
920.779
927.004
917.620
922.412
923.963
921.493
925.626
927.920
926.308
923.329
921.412
922.285
928.837
923.115
928.388
927.600
919.130
917.047
926.349
915.987
926.688
914.308
917.841
914.193
924.191
915.198
918.475
912.637
910.833
921.207
908.132
911.712
914.242
905.834
914.411
907.612
912.717
916.031
903.965
907.131
906.743
910.352
901.666
915.143
901.235
912.580
901.439
907.924
905.238
908.160
907.943
896.567
905.901
909.954
907.491
895.375
896.244
893.360
895.890
905.060
901.919
906.345
905.075
904.381
897.611
896.717
890.999
896.173
888.906
892.112
897.870
889.071
888.138
887.418
898.129
895.185
888.983
884.695
896.907
888.190
895.316
882.323
884.246
891.996
886.696
881.583
886.889
888.293
885.777
880.651
892.595
880.069
885.178
885.527
885.819
882.258
876.458
887.012
887.354
884.588
879.752
876.823
871.174
879.109
879.647
881.943
875.482
869.458
876.053
867.610
867.132
870.532
869.411
876.432
873.234
868.319
870.430
872.595
876.464
876.599
875.337
872.039
873.110
865.067
870.227
865.145
863.846
866.594
863.376
863.486
868.313
862.018
862.005
864.568
870.853
863.910
856.169
864.877
862.544
855.199
865.472
862.918
865.304
863.302
861.884
860.657
859.419
849.273
861.139
857.365
853.699
849.617
861.163
856.165
860.611
854.182
846.545
845.900
845.777
845.670
858.117
853.882
853.656
849.814
855.633
850.466
843.774
845.372
850.269
838.028
845.610
850.646
848.128
837.594
838.429
849.925
840.200
840.534
835.947
847.851
836.808
847.036
842.396
835.846
838.151
846.184
843.086
844.295
843.335
840.991
832.848
841.399
832.058
834.079
834.071
838.287
826.907
831.808
824.441
826.104
837.755
822.948
829.646
832.465
821.702
829.730
834.510
832.366
831.924
825.489
824.841
827.766
835.348
827.859
835.726
830.530
830.349
831.625
833.521
837.219
827.537
831.963
831.317
825.044
831.517
828.631
837.723
834.972
830.620
836.241
840.103
837.193
826.598
830.828
832.136
831.960
840.835
836.111
830.054
838.680
830.926
836.743
843.490
838.569
841.877
838.778
833.800
831.372
833.338
834.441
841.131
841.946
842.762
839.517
846.453
838.475
832.785
847.890
837.753
848.368
842.864
847.613
835.384
839.071
842.509
847.211
842.272
842.932
849.784
847.814
835.994
843.876
851.069
844.371
845.968
849.032
838.629
847.273
849.132
843.166
846.431
842.905
843.277
854.089
846.267
847.260
849.613
848.340
855.464
855.979
848.110
844.553
842.361
857.010
848.222
846.673
843.110
858.686
852.630
853.162
851.808
857.630
848.591
849.240
859.879
860.750
854.104
851.600
861.485
861.290
860.207
862.138
855.267
850.180
856.306
857.584
852.232
850.309
850.098
861.333
860.920
852.307
863.587
852.526
865.856
859.354
865.906
853.993
851.993
867.839
858.005
861.148
862.953
864.037
856.698
868.064
856.076
854.573
863.296
870.280
862.728
856.592
869.746
860.072
857.479
864.262
861.681
869.245
866.011
861.102
860.313
860.409
873.956
861.858
872.358
861.445
865.870
861.631
872.500
862.110
861.428
863.420
861.904
868.697
873.671
876.642
866.143
864.976
864.454
865.374
879.272
872.891
864.910
870.798
865.016
869.212
870.220
880.924
867.590
875.235
870.672
871.732
875.318
880.085
869.060
877.161
868.093
870.515
870.446
882.214
873.820
882.540
877.627
881.058
872.851
878.943
882.631
882.269
882.658
874.258
885.132
875.573
877.042
883.680
882.954
879.053
885.433
881.400
874.646
887.247
884.071
882.576
887.625
879.940
889.055
890.568
887.283
881.713
886.093
880.625
892.302
880.985
889.309
887.422
897.133
888.868
884.538
894.700
890.440
885.761
888.826
888.521
889.538
888.090
891.848
901.667
888.877
896.010
902.529
891.765
897.996
894.034
906.243
900.244
900.001
906.044
893.648
898.937
908.509
906.164
900.695
908.527
909.490
905.462
897.208
904.100
908.211
911.680
907.237
914.918
901.177
902.148
901.591
908.506
914.086
906.480
911.878
912.069
915.133
918.038
920.410
908.701
915.323
916.094
912.527
915.356
909.245
914.754
916.505
914.345
921.496
923.877
923.436
919.904
919.292
913.489
917.146
924.250
925.066
923.515
928.549
927.505
918.438
917.120
930.114
932.017
927.767
920.711
932.168
932.432
932.846
924.066
930.679
926.926
935.805
932.033
924.028
930.294
936.116
925.669
938.149
935.546
930.754
939.720
937.543
930.605
942.622
931.287
935.353
933.346
938.174
944.900
934.943
934.383
943.865
944.446
946.892
936.746
945.833
946.057
941.909
937.142
941.373
943.158
946.906
944.316
939.608
949.979
950.050
951.483
949.203
947.958
948.778
952.662
948.515
948.115
945.111
950.366
944.918
958.596
958.219
955.486
961.352
953.881
952.092
957.128
951.250
951.204
960.304
963.309
956.052
961.468
952.202
960.692
968.396
954.276
969.845
959.433
957.595
958.017
967.941
964.827
962.771
969.722
973.630
969.524
967.127
965.657
974.010
967.522
973.237
973.023
970.002
971.987
976.821
976.427
977.131
973.703
980.186
974.315
980.861
979.937
978.865
982.338
979.040
969.334
970.898
972.934
971.060
972.084
974.088
977.569
986.597
978.292
979.516
984.837
977.914
990.608
976.298
984.612
978.769
987.773
989.670
981.187
982.332
979.140
975.190
981.903
986.538
983.452
983.783
975.792
978.086
972.680
980.268
985.999
970.690
978.640
970.990
974.934
980.875
978.314
974.407
969.357
969.897
972.284
968.129
982.315
979.575
971.894
979.939
970.329
971.541
976.804
974.635
971.270
977.821
978.581
963.671
967.184
968.249
967.873
973.336
975.535
970.173
967.026
961.668
968.099
968.519
961.341
963.940
967.392
959.838
972.726
965.393
969.126
964.639
964.812
962.268
971.434
962.940
964.660
961.682
957.887
971.050
965.740
970.814
967.187
968.306
956.084
968.675
955.835
966.689
961.721
963.366
968.269
955.023
967.911
964.282
957.182
958.466
951.998
962.617
951.537
950.587
956.677
953.796
960.730
959.817
963.140
955.873
953.282
950.427
949.122
961.677
952.032
958.959
960.784
961.886
958.365
946.747
955.361
950.320
956.809
957.761
955.898
954.149
958.958
958.607
951.169
956.105
943.720
948.109
957.339
951.771
950.229
945.173
948.063
942.281
945.887
952.783
950.746
954.736
950.798
948.372
948.916
944.747
942.217
952.664
942.737
949.043
938.145
943.418
937.203
935.697
942.974
939.996
935.383
942.562
944.891
934.833
940.816
944.134
944.911
934.299
932.617
938.403
938.870
934.333
945.923
941.304
944.738
940.521
944.008
939.352
934.403
936.086
944.211
937.166
943.162
931.877
940.494
929.112
934.375
940.465
937.215
928.337
931.745
925.642
937.257
926.814
930.033
926.468
929.332
930.606
929.074
937.825
934.601
938.382
933.601
932.307
933.215
926.970
931.656
925.270
920.558
925.464
931.869
934.661
920.073
920.816
921.476
928.707
934.020
932.205
925.931
923.045
923.442
927.840
920.343
929.609
926.690
917.508
913.125
916.072
919.822
911.265
908.031
912.563
909.619
910.856
916.652
900.817
914.438
913.598
898.897
905.266
896.002
904.093
896.721
903.002
902.506
893.365
898.102
899.476
900.754
885.425
889.128
886.331
884.843
884.379
879.378
878.534
877.634
878.011
879.602
874.833
882.191
882.823
872.602
874.040
879.401
869.906
875.855
863.562
866.983
867.952
865.556
865.950
861.203
864.301
854.288
868.392
859.356
857.373
851.852
863.244
851.730
850.456
851.531
845.177
856.691
852.157
854.290
852.181
846.624
846.750
839.329
843.166
843.028
834.683
846.234
831.961
839.848
836.482
837.246
835.138
826.240
831.973
835.077
826.214
819.731
823.952
828.989
819.854
817.097
819.188
820.276
822.631
810.009
809.662
822.352
805.867
814.282
804.954
804.166
808.010
814.771
800.032
808.107
801.333
802.251
802.162
801.920
803.587
796.232
790.347
798.083
790.248
798.645
793.528
791.155
784.108
785.439
791.097
780.985
777.470
790.771
776.703
780.521
785.525
780.876
771.770
770.908
777.999
768.769
771.422
772.917
772.089
766.172
768.295
764.266
761.778
757.570
763.359
759.025
760.369
760.485
754.578
751.550
748.870
755.757
749.475
747.804
747.584
746.902
745.875
747.767
743.685
748.745
741.164
739.998
746.583
748.362
736.954
739.535
733.641
735.274
739.151
730.821
725.623
734.599
728.214
727.156
730.440
722.574
727.733
730.109
725.368
719.631
723.667
718.367
722.612
720.441
721.342
710.354
706.594
713.189
712.869
705.586
709.694
702.409
711.393
705.082
700.695
700.105
697.144
700.171
700.635
692.408
689.753
695.097
700.824
694.884
686.039
689.068
689.331
693.341
