747.344
739.699
751.292
746.359
749.953
755.481
756.621
751.590
761.257
751.194
752.311
760.832
753.940
768.410
765.818
759.562
761.128
769.775
776.993
767.483
776.238
766.347
779.452
784.617
772.686
776.553
781.015
789.720
784.239
791.116
792.030
783.685
791.589
790.469
795.435
802.318
803.628
794.426
801.872
805.029
798.580
799.873
815.242
808.357
809.405
815.617
820.107
807.945
814.951
825.821
818.092
825.273
820.889
832.006
827.490
824.378
828.623
839.127
833.932
830.159
843.298
830.565
834.576
843.642
834.590
842.808
838.142
841.855
850.444
850.402
855.657
858.083
852.040
855.046
866.072
851.922
862.562
863.799
867.275
868.811
871.199
870.135
871.052
876.887
871.522
872.432
883.412
885.178
880.583
886.917
883.313
885.746
879.023
892.772
885.003
890.503
890.242
902.094
903.535
904.715
891.691
906.406
899.508
899.338
908.611
911.086
916.542
914.204
917.441
915.478
921.874
918.338
916.295
919.812
919.778
916.595
923.701
930.482
928.157
936.569
925.554
937.124
939.576
929.799
941.448
936.978
939.780
937.542
938.329
937.926
951.298
955.120
944.196
954.709
952.003
950.716
961.627
952.954
951.569
954.360
961.634
958.023
972.044
970.138
969.419
964.811
973.131
975.889
967.553
970.692
981.702
972.598
987.703
990.886
978.525
980.765
981.134
987.430
996.010
992.569
994.918
1003.538
1004.360
1002.372
994.704
1009.305
996.981
997.821
1001.966
1003.133
1015.367
1004.566
1017.299
1008.864
1020.881
1011.846
1023.802
1028.027
1025.481
1028.789
1024.468
1029.387
1030.449
1022.763
1036.752
1027.727
1042.178
1044.661
1036.850
1034.485
1038.535
1037.841
1048.776
1044.505
1052.621
1055.181
1050.447
1051.005
1052.434
1055.768
1050.949
1062.350
1052.583
1060.098
1061.107
1065.696
1056.544
1052.149
1058.498
1051.968
1052.344
1058.247
1062.801
1057.258
1060.991
1061.988
1052.386
1057.013
1066.577
1057.603
1064.427
1059.940
1066.140
1064.495
1054.010
1051.523
1058.387
1052.189
1062.410
1066.470
1063.218
1059.706
1052.870
1063.375
1064.803
1056.572
1063.406
1064.789
1061.223
1052.011
1063.662
1052.318
1061.438
1056.979
1059.614
1055.075
1062.266
1064.325
1067.787
1063.763
1058.363
1059.537
1061.872
1055.286
1066.712
1053.063
1067.759
1062.406
1055.558
1061.516
1055.136
1058.720
1056.120
1059.527
1065.708
1057.358
1068.391
1058.699
1069.297
1056.502
1064.565
1060.166
1054.109
1069.717
1060.128
1060.644
1067.549
1066.355
1067.218
1057.376
1060.705
1056.031
1059.163
1062.974
1055.426
1066.826
1061.591
1064.898
1068.633
1063.787
1057.164
1058.090
1063.685
1057.317
1061.983
1059.091
1065.346
1070.397
1068.903
1057.707
1063.384
1068.964
1057.505
1064.693
1070.849
1071.548
1056.022
1067.912
1062.627
1056.870
1065.351
1060.364
1062.738
1071.700
1067.653
1056.804
1060.873
1065.333
1064.048
1064.736
1067.899
1059.531
1059.929
1067.978
1059.090
1069.696
1060.648
1060.536
1072.493
1063.460
1060.037
1058.087
1061.423
1066.909
1063.421
1066.415
1069.404
1071.885
1060.821
1066.876
1060.799
1073.520
1064.204
1064.161
1066.371
1066.255
1063.432
1058.341
1058.384
1063.357
1062.300
1069.439
1071.058
1073.512
1069.268
1067.075
1064.149
1071.796
1066.841
1063.238
1073.001
1069.935
1071.750
1069.119
1064.512
1062.843
1063.456
1074.820
1068.128
1067.591
1069.687
1062.851
1067.036
1061.165
1071.985
1069.775
1063.566
1065.950
1062.808
1066.958
1062.533
1074.986
1070.507
1074.062
1068.715
1075.990
1061.329
1071.081
1071.550
1062.178
1067.955
1067.565
1070.630
1076.474
1075.829
1071.191
1067.686
1066.072
1064.169
1062.817
1068.210
1071.320
1067.055
1061.604
1069.537
1068.650
1063.619
1057.395
1067.424
1056.882
1054.768
1050.792
1060.458
1061.536
1050.006
1060.018
1059.999
1058.002
1048.845
1055.038
1052.061
1052.045
1038.868
1043.497
1040.517
1047.189
1042.539
1040.120
1039.706
1033.293
1036.596
1034.057
1039.649
1030.932
1038.012
1024.381
1023.735
1023.966
1024.551
1019.551
1028.185
1022.271
1023.098
1023.521
1018.338
1019.663
1015.679
1026.147
1018.774
1008.504
1008.022
1013.043
1015.552
1015.140
1013.305
1016.779
1000.972
1015.134
999.950
1010.239
1011.988
996.460
1001.150
1004.990
1003.873
1001.688
1005.641
995.945
999.818
996.958
986.179
996.830
986.973
984.777
991.428
990.221
989.022
991.878
987.580
979.024
986.425
977.100
975.822
973.021
973.352
969.191
978.908
975.796
980.470
971.660
974.562
973.303
975.303
971.270
969.028
966.883
971.609
962.791
960.040
958.300
963.432
961.172
951.233
956.004
956.952
947.516
957.378
946.081
956.669
952.715
942.314
943.500
948.744
945.559
947.263
940.060
943.999
949.888
943.239
944.554
945.447
942.548
936.576
939.870
934.281
925.954
933.858
927.591
926.123
927.026
927.761
931.840
923.317
931.707
923.405
917.818
914.563
913.678
925.046
913.394
919.601
923.352
907.410
913.287
909.933
918.927
905.226
909.812
913.799
912.407
903.751
905.676
910.699
909.697
904.608
909.113
902.582
898.452
893.946
893.460
901.280
900.352
896.824
899.868
896.080
893.107
888.382
881.619
892.521
884.478
884.638
891.643
882.058
889.072
873.778
887.358
884.473
875.960
877.930
881.289
878.613
875.429
868.439
877.835
862.417
873.140
866.849
873.848
865.851
861.138
855.267
868.847
862.084
859.572
851.458
859.268
862.957
854.331
847.943
854.350
853.573
852.695
848.860
859.388
848.149
847.150
857.144
847.431
849.002
855.956
851.980
849.527
855.242
856.735
863.785
852.677
859.367
861.044
865.245
856.669
854.505
867.944
855.047
866.625
856.001
864.087
864.807
858.923
864.643
866.347
864.006
861.045
871.300
857.300
866.385
858.500
864.583
864.055
872.028
868.162
867.694
871.466
875.130
866.864
875.523
864.651
866.988
870.253
862.521
866.736
864.780
865.492
872.562
867.103
879.453
878.459
870.054
865.476
878.470
867.581
881.124
874.235
868.722
881.716
872.684
872.698
876.077
881.227
882.304
885.307
884.298
885.948
876.760
871.671
884.622
876.896
886.406
877.818
880.551
878.188
876.143
878.006
887.208
880.376
885.573
885.143
891.158
891.555
882.460
877.028
880.828
887.046
878.681
884.435
881.459
882.006
881.586
887.908
882.807
892.909
882.459
893.034
884.405
886.487
894.084
893.115
892.377
887.446
898.302
885.210
898.045
893.188
887.787
898.595
891.050
886.450
896.873
895.271
894.223
902.911
888.516
901.350
888.659
889.408
894.510
896.816
905.822
895.683
896.720
891.080
905.202
895.400
903.761
901.773
902.047
896.682
897.961
901.712
906.510
898.446
909.135
907.754
896.536
908.541
900.840
906.789
907.615
906.254
901.415
904.078
902.656
902.020
912.526
900.215
906.904
912.384
905.349
913.336
907.237
917.235
912.043
910.597
908.226
908.402
908.786
907.591
919.114
915.501
912.758
909.974
906.285
909.457
919.656
913.204
918.123
908.248
918.234
919.650
916.918
910.604
924.457
925.290
922.848
925.271
919.846
913.955
917.821
922.518
913.280
919.455
926.843
924.516
927.278
915.383
920.401
927.873
916.723
924.712
931.517
926.692
925.767
927.842
922.397
917.796
926.619
922.736
923.803
926.045
923.651
923.782
926.103
914.271
911.184
913.893
925.546
912.242
909.459
913.719
915.942
911.087
919.642
915.626
916.637
920.088
919.432
911.124
919.530
906.062
912.931
908.153
912.903
913.321
909.647
912.753
915.414
912.461
913.808
899.577
901.101
912.292
912.886
898.804
898.567
903.332
911.041
896.428
894.606
907.094
907.239
899.582
895.963
899.562
891.565
896.671
904.177
903.878
902.795
898.884
901.362
894.860
888.920
890.315
894.996
891.865
891.572
899.757
899.062
891.386
889.537
897.659
885.973
895.586
895.304
893.114
896.231
884.094
882.500
891.304
884.166
878.838
879.293
883.922
889.157
889.106
891.239
882.210
886.485
879.773
884.842
887.300
881.931
875.882
877.465
880.942
871.090
879.924
878.173
871.700
868.894
878.427
881.293
880.707
869.699
872.092
879.300
871.646
866.270
865.122
872.880
870.781
873.984
878.080
869.161
864.648
862.517
860.640
874.019
873.287
874.336
870.513
863.787
869.477
866.537
868.918
856.928
862.386
860.987
867.210
869.844
856.370
858.023
864.909
852.335
859.693
861.188
862.096
864.333
857.184
857.229
853.468
850.822
850.043
855.409
852.589
848.751
847.458
853.398
845.028
848.117
859.301
858.867
846.929
852.406
842.548
856.789
854.798
855.788
852.207
846.616
846.484
842.243
853.188
845.411
842.798
845.372
842.659
836.698
839.917
838.665
843.210
846.394
848.230
847.966
843.773
840.275
839.445
835.982
839.805
842.437
840.505
835.936
838.299
835.081
829.132
835.714
832.920
841.028
837.355
827.558
839.113
834.808
834.182
837.715
833.408
822.705
833.796
830.200
826.163
822.831
835.179
832.914
819.996
824.537
820.444
823.882
834.304
826.855
835.375
821.217
822.420
834.115
832.825
827.864
827.471
828.109
833.829
827.834
830.320
827.143
826.052
824.748
837.910
828.563
832.084
832.986
838.532
831.448
841.524
832.308
828.740
827.751
828.935
831.198
834.516
832.003
842.082
830.348
838.177
829.408
839.219
830.169
833.811
835.581
832.214
832.096
843.931
838.950
839.133
837.162
832.993
844.385
844.644
843.879
837.714
834.696
834.176
846.111
837.138
850.726
839.948
841.239
850.867
843.296
844.358
844.829
844.605
851.286
853.287
838.829
852.575
838.367
840.065
852.331
846.844
846.071
842.766
848.988
849.549
843.826
845.004
849.245
853.512
855.671
856.563
843.126
850.895
848.036
850.680
843.504
851.906
850.050
845.346
847.212
853.963
845.537
849.328
849.922
856.200
858.286
847.524
855.009
860.267
854.949
859.983
856.390
852.542
853.747
849.686
849.744
856.188
853.058
854.088
853.629
853.039
854.353
853.838
864.444
857.206
855.896
867.338
855.432
855.911
868.167
862.531
853.038
858.229
860.930
859.377
866.437
864.934
861.697
870.523
864.137
869.952
856.856
862.033
864.629
858.165
857.649
866.863
867.063
858.097
870.356
866.472
862.451
861.061
863.483
871.330
873.202
871.043
862.261
874.979
873.997
874.777
865.574
875.716
866.352
868.236
868.289
874.753
864.554
875.075
875.995
873.891
864.329
873.183
870.722
874.587
865.538
867.112
866.341
877.436
872.228
871.527
867.423
881.045
870.509
879.595
873.612
873.241
869.679
881.402
876.232
869.898
872.032
872.917
875.455
881.358
874.503
872.588
880.193
875.520
880.583
880.154
886.542
874.788
876.267
885.361
882.674
879.203
874.456
875.866
878.746
881.089
889.461
876.807
885.817
880.999
893.540
893.087
881.860
887.018
883.302
889.903
896.535
886.875
897.145
887.450
897.347
898.370
885.532
888.026
894.993
887.640
895.903
900.177
898.553
899.667
890.270
888.707
902.720
892.400
897.350
905.519
893.758
894.798
907.222
896.873
907.934
900.044
904.669
905.618
910.338
910.806
907.358
904.974
906.848
906.913
906.818
913.240
900.148
911.329
914.409
904.547
909.971
912.643
913.706
912.114
903.413
906.595
919.464
906.401
919.777
906.233
918.480
920.678
908.386
913.631
922.032
918.570
918.348
916.462
917.447
918.479
924.359
915.704
921.753
914.007
925.287
923.122
918.181
929.302
917.218
918.080
930.291
923.819
924.009
923.196
931.167
923.649
919.866
935.897
925.183
926.821
937.089
935.344
926.528
937.756
937.946
936.375
931.169
933.278
939.037
934.712
937.766
927.467
931.657
938.962
941.392
944.548
932.816
944.116
941.146
945.125
939.303
940.716
937.139
944.096
937.875
948.338
937.774
941.794
948.016
947.499
944.740
948.889
942.816
947.793
942.758
949.410
943.121
947.339
949.947
956.588
954.473
958.169
953.872
954.967
945.003
944.652
951.452
954.896
959.462
946.540
950.457
950.898
955.292
960.077
961.953
962.131
963.949
956.114
964.779
962.481
957.577
958.646
957.889
956.210
964.759
964.608
962.027
970.429
958.236
969.917
967.551
972.457
964.850
972.184
970.530
972.261
964.262
964.527
963.378
965.742
964.581
965.768
975.503
971.706
975.784
966.435
980.984
977.210
970.034
971.118
974.832
980.627
977.242
975.255
975.980
978.357
983.614
982.532
975.117
987.396
976.486
988.539
975.459
977.665
974.503
986.227
980.948
978.542
981.472
982.548
987.664
986.243
976.339
980.162
980.439
985.558
977.658
983.355
984.465
983.552
984.765
973.866
973.507
983.937
972.170
979.459
977.585
969.585
970.687
976.008
968.661
971.254
967.878
974.520
982.161
966.975
976.167
978.041
979.260
980.406
968.739
974.518
978.751
976.590
971.208
968.035
974.424
973.941
971.985
964.436
978.037
970.479
974.610
962.995
969.973
975.844
962.948
974.131
967.629
966.239
973.291
974.932
974.059
967.002
960.821
971.534
958.199
963.745
963.049
956.961
959.513
956.477
971.139
966.248
959.218
960.921
955.466
954.882
961.470
959.773
958.252
968.940
957.879
957.626
962.970
959.528
959.767
955.275
952.659
952.577
957.724
954.806
963.766
953.559
951.388
953.969
957.650
950.948
959.842
951.472
960.047
950.464
947.905
949.124
950.679
961.517
960.420
949.373
950.839
946.915
955.047
949.304
946.735
944.854
947.408
958.062
948.335
943.779
954.649
949.905
950.658
946.382
950.189
953.676
947.936
940.806
940.278
943.920
949.779
946.944
944.111
946.054
945.668
950.157
953.616
946.641
946.481
951.342
948.417
938.528
947.602
941.990
949.395
947.580
940.851
934.643
937.247
947.353
940.667
935.466
944.873
941.021
941.884
944.959
933.348
934.970
939.028
936.916
931.396
939.867
936.182
944.320
938.069
930.861
930.479
935.642
939.532
939.918
938.983
940.682
929.527
929.301
935.549
939.360
934.426
933.481
933.441
939.795
925.072
933.849
930.803
928.976
927.985
928.139
932.633
935.405
932.018
934.430
935.579
927.017
931.988
931.239
936.493
923.373
920.451
932.869
929.043
922.409
928.428
920.681
924.022
926.285
920.235
929.646
921.932
932.692
920.659
916.884
914.488
922.770
919.393
924.777
917.619
914.501
913.915
918.069
911.096
910.853
906.616
905.243
909.727
911.267
912.218
907.831
897.750
898.259
894.196
901.743
905.129
898.771
897.610
887.857
892.741
893.627
889.874
891.018
885.340
881.001
880.482
890.736
882.608
883.708
888.458
873.663
876.472
874.087
872.239
876.732
880.686
874.932
876.168
870.667
867.083
871.034
863.629
867.353
861.638
871.351
857.397
856.753
858.138
854.299
855.357
863.345
848.814
857.206
854.503
859.805
857.168
848.579
843.164
840.774
844.492
846.484
842.788
850.352
842.134
847.397
845.889
836.944
838.767
834.261
830.122
840.751
830.543
838.308
825.300
836.669
828.496
828.566
821.851
831.684
819.418
817.157
826.883
824.780
820.474
811.284
808.350
820.538
815.679
806.068
813.804
806.466
815.737
811.492
802.354
798.300
796.644
795.622
803.489
798.311
803.700
796.449
804.839
789.343
800.256
792.598
788.669
798.613
785.125
794.244
781.810
790.468
790.808
787.349
777.330
786.531
781.995
775.447
770.632
782.029
777.521
775.773
767.628
777.620
770.558
767.542
772.467
762.172
773.388
757.935
760.135
756.225
754.382
757.896
762.529
752.193
764.010
750.051
754.743
747.276
749.108
756.749
752.821
752.631
748.807
740.498
739.544
742.860
748.042
742.315
745.842
745.340
737.205
744.300
727.808
729.883
733.718
737.554
737.631
735.688
720.660
719.818
733.872
717.421
728.769
722.722
728.113
721.437
721.978
716.277
720.331
708.373
715.104
708.529
709.761
703.684
716.404
713.819
710.496
699.400
710.972
708.508
706.420
704.275
699.291
695.056
704.547
691.225
701.347
691.735
700.798
699.017
682.895
696.839
681.038
685.710
686.533
677.083
677.110
677.254
671.122
672.445
675.058
663.092
660.701
659.854
665.911
658.037
645.958
654.939
650.474
647.416
642.640
644.918
639.964
634.228
632.944
631.178
628.664
627.927
619.332
618.574
616.739
621.550
616.271
613.737
611.970
598.858
602.250
596.523
606.400
594.444
590.057
587.012
589.437
584.199
584.217
577.383
584.132
580.676
567.779
566.608
574.840
566.199
563.584
560.828
561.982
557.638
558.692
551.457
543.247
544.848
541.998
547.756
543.918
536.167
534.528
533.912
522.774
527.005
518.425
516.452
522.713
524.832
517.802
506.860
504.330
506.284
507.090
504.489
494.296
502.575
501.071
489.708
486.871
490.063
486.681
481.437
482.642
471.156
473.507
477.419
461.792
464.037
458.596
469.663
458.933
453.749
461.132
453.335
450.401
450.010
446.815
441.172
436.669
436.264
433.182
432.628
437.137
423.750
423.698
420.177
427.862
422.044
419.530
405.868
417.208
403.495
402.160
403.894
393.824
394.717
402.292
400.023
386.682
381.090
384.799
378.729
375.734
378.970
373.077
375.245
365.164
365.518
372.131
366.896
364.635
354.254
362.412
357.374
354.345
344.860
346.783
339.342
348.121
344.835
337.191
333.994
330.988
322.821
330.891
330.785
327.698
314.127
314.276
320.625
317.432
312.788
313.607
306.236
304.017
293.989
300.255
295.168
292.696
294.398
278.622
288.608
287.717
271.774
272.508
280.269
270.137
269.638
272.371
257.364
258.963
258.799
261.425
253.724
243.796
252.585
248.860
245.027
237.186
232.373
242.127
238.622
228.435
234.264
220.031
224.078
224.653
211.637
218.159
212.707
207.253
213.869
207.766
207.592
204.394
195.544
198.097
198.831
