1141.835
1134.756
1140.465
1131.462
1133.774
1145.487
1135.438
1130.035
1138.336
1140.705
1142.166
1130.515
1129.192
1131.041
1138.343
1137.173
1136.091
1126.614
1127.630
1132.495
1139.372
1127.840
1134.891
1135.350
1139.438
1135.001
1133.498
1135.744
1125.079
1135.030
1123.653
1125.920
1129.058
1129.165
1135.434
1135.213
1134.367
1123.233
1127.517
1132.707
1131.949
1119.462
1132.737
1126.963
1131.183
1122.761
1128.955
1127.023
1120.772
1129.468
1130.778
1124.431
1122.930
1119.793
1121.565
1119.080
1124.145
1116.745
1116.421
1114.891
1116.073
1112.842
1121.646
1117.182
1112.438
1116.141
1122.540
1116.943
1122.374
1117.916
1114.941
1118.541
1121.729
1120.236
1112.989
1111.277
1110.756
1108.138
1113.317
1113.968
1111.240
1116.055
1112.047
1104.411
1114.947
1117.888
1112.354
1110.611
1109.352
1105.954
1102.707
1103.505
1108.955
1108.325
1113.308
1115.122
1115.586
1099.952
1111.812
1108.464
1105.713
1104.460
1113.685
1112.422
1099.240
1110.894
1105.619
1100.679
1100.168
1108.271
1095.576
1100.625
1101.945
1100.492
1100.370
1108.600
1105.867
1096.650
1107.278
1101.208
1107.506
1098.948
1102.309
1100.850
1096.692
1091.225
1096.356
1093.478
1094.787
1104.522
1094.149
1092.848
1093.548
1098.078
1098.632
1087.199
1090.841
1095.924
1087.378
1100.173
1097.179
1100.181
1088.231
1095.333
1099.642
1091.663
1098.372
1083.342
1095.738
1084.392
1083.738
1088.046
1092.406
1088.427
1088.477
1083.901
1091.908
1088.669
1090.985
1091.594
1086.549
1081.531
1079.084
1087.099
1091.782
1089.863
1090.585
1076.325
1082.336
1089.011
1083.107
1077.592
1085.237
1078.158
1078.457
1079.445
1087.572
1077.355
1076.584
1075.885
1077.370
1079.729
1083.901
1073.607
1084.471
1077.883
1071.492
1074.012
1083.897
1070.127
1076.804
1080.335
1072.586
1073.427
1076.234
1069.495
1076.151
1080.508
1079.101
1067.640
1072.567
1076.199
1072.017
1072.543
1058.207
1057.019
1057.941
1058.632
1047.564
1050.792
1046.801
1047.105
1046.490
1036.038
1047.276
1038.463
1043.880
1033.356
1031.676
1034.850
1020.437
1021.736
1024.308
1015.727
1024.389
1011.949
1019.578
1011.380
1011.773
1003.842
998.619
1006.201
1000.649
995.366
1002.310
1000.077
995.809
984.254
992.025
981.900
979.838
976.146
978.251
980.132
965.520
962.486
973.217
958.960
970.384
955.214
961.388
952.047
951.981
945.770
950.672
939.834
945.161
945.864
947.049
942.583
931.486
938.629
929.687
931.697
919.959
924.900
917.038
914.987
920.841
909.347
909.692
908.740
915.240
902.322
910.357
903.077
892.425
891.361
894.319
890.425
895.482
888.824
881.214
879.048
883.618
872.557
868.017
872.734
878.037
869.210
872.377
859.354
862.536
860.034
856.040
851.608
857.012
854.701
845.451
845.169
849.651
846.844
845.682
841.897
836.972
824.527
835.608
825.202
823.920
824.307
826.317
823.540
821.844
817.060
808.841
814.604
809.653
801.099
795.547
792.126
796.821
800.804
790.699
788.792
781.717
793.387
782.116
784.407
779.382
775.766
778.370
769.011
770.157
762.527
772.350
770.272
762.285
752.795
758.084
762.007
749.444
742.785
739.150
737.550
746.280
744.107
737.882
730.166
725.933
725.807
720.969
721.959
723.903
722.707
721.625
720.698
715.100
708.973
704.695
715.769
711.134
707.272
703.862
693.534
694.312
692.078
689.775
682.128
683.001
680.087
680.656
684.321
683.196
673.990
671.583
677.955
669.270
669.849
661.014
663.992
660.047
664.625
647.771
654.582
653.447
646.230
639.201
648.324
636.830
640.603
644.457
633.343
636.770
626.813
634.378
618.847
622.243
618.201
622.049
616.329
611.954
609.608
614.062
609.822
618.663
626.182
621.032
627.009
623.690
628.558
618.280
625.428
629.609
623.037
631.044
626.205
630.574
635.458
629.385
639.111
641.186
630.567
634.073
634.094
641.113
633.051
637.216
643.420
643.008
645.357
641.749
648.459
649.719
651.748
642.868
658.125
656.018
650.769
648.372
647.911
651.506
652.829
661.162
662.286
661.142
654.839
668.578
657.282
671.965
657.564
660.521
675.170
665.483
667.128
676.726
667.305
679.574
673.030
667.326
670.791
675.914
674.801
674.153
686.426
679.921
678.339
675.799
688.360
691.754
691.015
681.395
681.458
696.389
685.624
698.990
699.519
692.643
697.790
696.860
690.165
700.040
691.739
691.659
697.286
699.312
699.493
709.508
697.841
711.331
699.657
711.657
710.463
710.551
707.084
711.510
705.852
715.010
719.514
721.039
714.881
724.056
713.429
725.876
716.451
722.623
723.660
732.150
733.454
726.009
730.803
724.925
723.974
726.218
736.634
733.655
733.850
733.957
738.851
731.123
741.908
741.877
739.878
736.886
740.783
746.015
748.739
740.679
742.353
749.872
746.888
755.029
752.613
751.976
746.303
761.364
754.398
760.744
755.431
764.377
761.056
765.665
757.654
770.325
766.753
763.639
757.882
759.105
762.204
761.557
764.973
776.029
778.738
775.215
766.467
773.890
780.514
779.392
774.120
778.676
787.685
778.862
778.734
779.586
785.842
787.089
785.003
786.329
787.332
783.791
793.295
792.466
796.190
788.789
802.662
794.033
792.794
798.970
794.253
798.629
795.125
809.188
798.942
803.308
805.230
806.011
813.403
806.284
813.661
811.744
811.055
811.338
819.825
817.906
808.632
816.115
824.987
821.977
822.213
820.173
828.445
818.388
825.244
827.997
821.599
830.927
833.946
828.636
821.074
831.840
832.262
821.574
837.469
833.098
824.184
838.806
827.435
836.633
838.786
834.520
842.510
833.413
839.793
844.269
837.161
839.118
834.493
842.426
842.506
846.270
833.801
841.126
846.423
841.700
847.228
845.385
843.576
852.994
841.534
850.505
842.833
848.778
855.777
855.419
854.210
854.253
844.751
852.702
847.897
854.823
853.274
847.047
859.612
861.440
858.857
862.840
854.729
855.805
853.891
854.853
856.293
869.061
857.131
859.723
860.570
870.528
871.088
861.563
869.890
867.710
859.611
872.229
867.219
862.917
865.818
875.456
873.728
863.987
875.088
878.715
870.069
875.586
870.047
882.152
882.692
871.147
880.235
876.988
882.280
880.353
874.684
884.774
886.153
874.670
888.015
881.029
880.551
876.208
880.589
890.196
878.639
886.990
887.263
888.925
883.893
882.356
892.927
897.170
895.048
892.174
887.353
897.117
896.951
897.451
893.964
888.383
903.623
903.416
900.643
894.159
898.631
902.071
895.331
900.390
903.092
895.036
900.539
901.255
901.788
909.009
898.879
904.335
908.727
907.856
904.707
904.567
913.128
904.390
915.132
915.543
904.221
913.017
918.587
906.727
911.593
920.146
908.162
920.008
914.289
913.239
914.570
911.450
912.121
922.065
921.262
917.224
928.967
924.383
921.059
926.937
930.464
922.237
920.517
925.186
919.207
926.694
930.867
927.337
925.817
932.183
938.184
926.509
930.845
932.813
934.880
932.943
935.946
928.195
938.915
934.228
936.827
938.722
941.800
933.113
942.946
940.644
943.308
949.250
942.249
938.151
942.612
941.468
946.058
937.435
938.737
938.983
939.807
942.490
951.796
947.578
946.403
944.556
952.430
946.500
954.216
940.787
943.817
951.707
939.117
943.819
950.211
935.341
945.218
949.473
938.230
940.069
941.009
937.883
932.822
940.563
940.481
936.793
940.706
937.254
934.079
931.646
929.142
930.876
926.884
924.159
924.309
929.327
934.877
935.827
920.895
920.796
922.800
921.631
923.772
920.649
928.823
916.401
920.616
925.073
927.939
917.820
914.749
914.984
922.139
916.454
908.880
914.423
918.304
921.375
909.453
909.905
908.593
908.896
910.981
909.828
907.096
901.940
900.206
913.303
912.037
899.828
907.647
910.662
909.288
901.185
898.263
903.908
899.714
901.548
901.536
891.041
901.334
901.473
902.666
891.084
889.589
888.527
891.915
893.689
884.797
894.254
890.694
893.724
894.870
881.757
893.528
884.760
893.373
880.108
890.007
892.608
892.008
887.448
881.342
885.785
873.544
883.799
881.827
879.517
884.498
876.029
872.332
877.973
878.541
873.083
878.253
879.481
869.440
864.524
875.281
872.158
870.219
876.289
861.470
867.147
867.290
872.882
864.313
864.531
869.771
856.290
864.661
867.620
862.608
860.199
854.488
854.968
857.339
865.547
864.228
859.549
856.641
859.467
852.617
849.626
854.962
856.328
853.160
852.552
858.556
858.023
851.777
855.057
840.824
849.455
843.365
845.411
851.347
837.458
838.516
836.155
842.126
846.606
844.087
844.855
843.602
833.181
840.156
834.225
835.279
835.696
828.420
832.786
835.910
831.163
834.129
834.642
830.710
823.345
832.182
822.220
826.698
824.400
826.672
827.158
823.365
825.094
818.418
831.605
826.404
829.029
829.273
818.319
826.060
818.069
815.865
811.880
822.236
817.607
822.400
816.108
807.443
809.201
814.942
815.798
811.112
818.407
805.820
813.517
818.338
813.941
815.137
813.590
816.444
822.360
831.108
833.284
834.384
833.925
829.530
831.831
827.249
841.287
840.472
839.653
836.925
836.361
850.458
850.904
848.777
851.901
842.236
856.224
852.847
853.054
861.000
856.381
855.155
856.281
858.126
860.726
860.119
864.146
863.101
878.330
871.092
874.540
875.709
872.627
875.536
875.434
886.702
888.179
880.822
881.274
888.811
888.413
889.265
887.812
888.066
891.176
895.661
894.401
894.332
905.597
895.982
897.386
907.106
899.772
902.417
906.125
911.293
911.845
914.977
910.396
915.283
918.229
914.214
928.621
929.464
923.384
921.028
936.448
937.600
925.721
930.995
935.422
933.886
940.216
935.139
938.673
950.434
943.053
952.268
943.327
950.416
946.442
958.777
956.628
952.799
951.352
961.529
962.980
966.648
971.519
960.659
970.045
969.395
965.518
966.251
965.338
966.598
970.588
972.752
986.931
981.048
990.230
986.373
979.400
994.094
995.435
984.893
999.616
1000.897
998.400
999.441
1003.797
1001.529
1002.001
1000.852
1005.847
1002.480
1002.408
1007.795
1011.132
1009.700
1014.166
1013.272
1012.654
1015.586
1027.172
1023.639
1022.508
1031.450
1030.466
1025.362
1030.109
1037.048
1027.078
1033.291
1035.860
1041.800
1033.370
1040.420
1043.150
1036.872
1048.154
1041.052
1041.272
1047.086
1056.435
1059.062
1046.888
1057.132
1051.697
1054.393
1063.230
1053.602
1060.477
1059.223
1068.445
1065.968
1074.347
1074.143
1065.827
1077.770
1072.370
1072.745
1072.460
1084.592
1078.345
1084.614
1083.563
1084.119
1092.489
1085.180
1087.169
1086.562
1100.932
1093.926
1096.529
1103.418
1103.927
1106.908
1110.974
1109.765
1109.833
1111.970
1108.650
1115.823
1108.110
1118.186
1120.300
1118.636
1125.582
1120.296
1125.820
1128.261
1123.647
1115.127
1119.250
1119.147
1112.069
1125.060
1115.121
1121.050
1113.803
1118.739
1108.171
1116.482
1112.225
1115.435
1107.914
1119.738
1106.609
1107.992
1113.505
1109.152
1114.556
1106.840
1115.482
1107.596
1102.014
1104.641
1111.712
1107.282
1105.450
1102.427
1098.494
1098.809
1100.793
1105.423
1102.646
1104.913
1102.732
1094.708
1106.239
1098.418
1090.660
1098.681
1090.103
1092.788
1093.162
1091.389
1091.404
1086.266
1092.080
1087.182
1093.756
1085.332
1090.790
1083.873
1091.473
1092.971
1087.403
1081.508
1086.448
1083.577
1078.199
1092.118
1083.200
1088.668
1081.154
1076.762
1081.136
1084.259
1082.284
1078.212
1072.842
1073.455
1077.426
1071.019
1070.236
1078.833
1077.877
1071.368
1075.351
1078.311
1074.031
1070.909
1068.078
1078.793
1072.843
1063.747
1074.127
1066.137
1065.022
1070.596
1066.859
1072.879
1071.725
1067.978
1061.882
1072.047
1067.313
1059.268
1058.797
1061.578
1067.137
1054.902
1065.369
1066.672
1064.895
1051.082
1053.167
1049.286
1049.284
1063.668
1055.016
1059.098
1056.946
1056.825
1059.098
1057.380
1057.251
1046.988
1046.826
1057.809
1050.443
1054.089
1041.404
1051.371
1043.211
1044.369
1050.217
1050.022
1038.534
1043.039
1045.041
1046.833
1045.855
1048.743
1041.167
1032.992
1041.461
1036.095
1041.054
1031.444
1045.003
1037.064
1030.918
1028.590
1034.420
1029.944
1027.489
1040.335
1039.757
1037.218
1029.835
1028.124
1029.595
1027.847
1024.149
1023.396
1032.358
1030.396
1021.486
1025.896
1030.563
1019.747
1032.254
1017.819
1023.937
1017.009
1019.695
1027.040
1015.778
1014.781
1016.905
1025.028
1013.390
1013.724
1022.096
1019.459
1013.839
1022.233
1010.513
1012.242
1021.509
1014.024
1006.779
1011.826
1010.874
1003.930
1012.993
1009.036
1006.307
1003.283
1010.397
1012.110
999.479
1007.588
1003.156
1008.146
997.170
1007.563
995.232
1009.214
1007.500
993.822
1003.470
995.240
998.579
994.651
992.866
993.151
998.150
984.043
990.290
982.709
994.550
984.208
979.630
976.440
982.793
986.763
975.717
983.433
976.504
977.521
971.119
971.706
970.042
965.921
964.410
975.269
968.475
974.218
972.022
972.235
958.743
958.846
964.634
960.148
955.202
963.728
955.851
957.120
959.826
958.845
947.747
958.031
952.017
949.865
948.641
948.004
944.823
952.145
952.029
948.918
935.246
939.601
947.710
943.952
938.786
941.406
934.566
934.069
936.184
932.825
929.444
937.320
933.367
933.790
927.028
923.551
930.872
918.120
923.020
917.396
921.637
911.083
912.567
920.213
922.719
908.587
920.212
916.123
909.796
916.788
915.004
902.334
912.552
907.623
901.341
894.983
908.944
907.043
892.944
903.679
897.629
898.452
887.841
891.123
886.288
884.919
886.320
889.752
884.957
888.936
882.715
885.027
876.688
881.078
887.953
886.245
883.180
884.772
881.334
879.948
874.035
868.854
873.526
871.556
866.699
867.729
868.551
872.184
866.310
871.111
870.981
867.517
864.299
854.545
855.360
856.403
855.571
852.617
848.741
856.225
849.111
843.360
845.258
850.489
848.998
838.918
841.055
839.931
844.684
843.336
842.785
845.781
846.490
843.640
836.182
834.055
827.412
838.876
824.547
827.343
825.718
827.572
826.085
828.244
821.695
830.574
830.116
817.374
812.841
826.023
816.141
820.229
810.483
820.007
814.053
819.202
811.464
806.466
815.428
816.217
804.885
805.633
803.408
798.162
800.535
800.305
799.572
792.545
805.175
803.992
797.213
795.331
792.276
788.509
793.860
792.535
784.482
789.973
783.047
784.425
788.645
778.725
776.243
779.525
780.549
775.777
779.286
783.556
781.010
771.585
775.277
770.400
764.141
766.713
757.553
755.776
748.518
754.312
751.617
756.980
746.097
740.083
742.832
741.705
739.329
739.969
739.961
730.100
733.121
726.703
727.792
716.408
717.505
722.330
709.358
712.755
711.701
706.592
705.090
711.413
710.366
703.235
704.227
693.051
688.920
699.336
683.431
685.232
690.964
684.846
687.573
687.135
673.752
681.021
670.805
676.266
666.312
668.594
671.009
665.778
656.707
650.104
657.084
648.911
658.470
646.730
649.026
647.345
642.491
635.039
632.404
632.202
625.092
626.592
631.075
631.366
630.245
621.903
623.321
622.111
608.928
618.542
610.381
603.729
612.118
604.916
596.291
607.596
597.717
589.434
587.696
595.376
590.053
580.206
592.328
590.051
578.243
571.463
573.347
568.295
571.435
561.607
564.676
572.102
565.550
567.238
552.427
562.951
557.954
545.745
556.821
547.403
537.356
537.194
536.939
538.615
531.028
532.458
538.311
522.514
520.925
533.179
530.003
522.883
519.621
515.384
513.499
513.989
508.746
510.274
507.389
500.789
497.377
505.564
496.617
487.569
489.741
495.101
493.454
484.841
483.586
474.018
480.235
469.078
467.818
470.182
474.396
469.741
462.035
460.749
454.617
464.612
458.196
448.310
448.192
455.840
454.856
438.894
440.095
448.134
439.798
444.035
439.025
432.860
426.614
425.152
432.621
429.627
420.376
422.833
411.946
417.568
409.306
402.831
408.518
407.915
405.858
400.875
399.245
399.326
389.621
389.808
389.794
394.162
384.525
390.714
375.561
385.580
381.385
379.448
371.733
372.918
374.980
367.218
367.293
362.199
352.584
358.049
353.449
361.348
354.777
351.105
351.273
347.927
346.770
336.496
343.114
340.463
330.995
332.103
331.560
338.362
326.094
334.702
334.812
322.401
329.476
318.780
326.045
326.428
316.650
311.001
323.799
316.372
314.459
314.903
316.163
316.185
310.294
300.632
312.064
299.509
297.131
304.404
308.466
296.820
304.112
297.858
302.863
287.383
286.002
286.420
291.199
293.127
290.537
284.008
292.424
287.553
274.978
288.202
277.181
283.719
272.415
274.787
267.475
265.806
269.729
264.970
267.855
269.763
269.838
259.188
258.179
261.853
255.355
258.279
260.086
261.592
258.753
262.265
257.578
251.990
247.271
253.468
250.842
245.772
244.045
250.011
244.763
245.151
239.401
233.380
238.528
237.414
227.655
227.463
227.771
223.413
237.931
225.652
233.872
226.140
226.106
225.407
227.803
220.098
220.712
215.736
209.883
220.072
208.208
217.373
203.596
206.743
214.495
214.129
213.597
198.782
204.944
204.755
208.920
196.812
194.847
193.623
196.333
200.639
200.112
183.872
187.350
192.046
195.293
193.419
192.974
179.228
176.174
187.718
178.020
173.795
183.434
181.060
181.424
166.156
175.699
171.880
175.992
161.718
159.450
159.444
171.745
169.366
168.542
153.662
153.053
163.669
161.830
151.882
158.726
149.895
157.083
148.231
148.022
152.599
143.845
141.922
138.441
144.060
143.193
143.214
144.814
138.543
142.957
128.328
128.797
134.724
133.275
131.684
121.132
132.323
132.000
125.729
117.890
113.965
112.152
123.024
115.635
118.667
109.029
106.941
116.991
106.319
103.160
101.229
111.572
104.845
96.931
101.393
106.304
105.143
93.630
92.036
93.222
92.220
89.970
90.876
91.740
90.797
94.705
90.550
77.498
82.905
82.130
82.752
74.115
81.981
82.684
74.945
