576.053
580.173
577.099
583.064
573.065
575.805
572.217
578.033
572.108
585.420
577.495
582.270
581.653
580.206
579.020
588.059
584.626
593.406
589.076
587.196
582.413
593.940
588.854
589.898
597.267
589.951
599.038
603.063
602.552
589.437
596.101
605.272
593.778
608.507
603.358
607.388
607.123
599.811
610.113
604.584
603.100
605.484
604.269
613.262
606.921
614.517
610.479
609.883
620.989
606.920
614.298
623.080
618.033
620.102
612.558
623.022
617.651
615.857
619.047
621.482
618.224
621.505
619.089
627.861
631.795
630.582
620.708
626.165
624.808
632.486
632.935
629.443
635.947
634.027
632.575
638.706
633.499
634.183
641.601
633.419
634.948
641.929
640.944
650.310
644.987
643.985
649.733
640.075
644.340
641.748
649.543
649.714
651.900
648.497
645.195
646.958
653.417
653.625
658.476
650.501
654.287
663.527
658.348
665.797
653.895
655.560
663.261
667.129
657.876
669.542
660.254
669.110
667.941
669.823
675.745
673.287
674.156
667.966
679.053
668.097
668.702
678.191
680.357
669.697
678.640
669.997
685.049
672.098
684.673
680.123
678.605
690.516
680.466
689.465
691.062
681.209
684.096
689.868
693.544
686.399
698.213
689.705
686.077
686.843
698.017
687.634
692.026
696.953
698.774
693.046
695.246
704.885
705.935
705.404
703.270
705.460
701.072
702.725
709.502
707.379
707.689
702.403
715.237
708.716
703.688
717.011
706.238
706.284
708.884
714.906
708.238
709.381
723.785
723.466
722.907
717.945
714.149
728.479
721.509
731.099
729.852
726.738
722.421
724.508
732.959
727.556
721.678
733.103
734.380
729.936
726.138
726.193
730.107
734.956
728.681
742.968
733.761
733.631
738.636
737.715
733.898
736.227
739.301
743.571
744.056
752.626
751.504
744.169
753.248
762.775
759.780
757.548
764.770
767.836
759.144
761.241
758.668
762.166
774.242
770.421
764.715
767.791
782.081
770.559
780.620
778.090
787.170
790.000
780.225
784.781
782.046
792.094
785.263
788.785
796.208
802.199
795.860
805.577
800.765
800.619
804.714
808.497
803.580
806.280
813.281
808.219
820.582
814.921
813.941
811.975
825.657
817.309
825.596
827.577
827.188
833.978
836.680
839.138
830.348
839.832
839.503
829.596
842.015
833.076
840.934
846.431
838.053
851.631
840.967
844.155
844.568
859.998
847.555
862.228
862.245
862.257
860.247
868.646
865.259
866.090
866.156
868.345
865.425
870.456
877.886
875.487
876.652
879.436
879.561
885.253
889.347
885.229
881.832
890.406
890.171
889.718
891.955
897.235
888.207
898.766
897.137
894.121
895.679
904.897
898.144
905.653
904.879
904.632
919.950
915.255
908.918
918.843
915.024
913.055
928.213
921.398
930.817
926.461
926.256
922.708
925.077
934.904
937.681
935.948
939.101
945.088
942.736
935.303
942.160
937.584
946.571
944.308
951.111
949.183
951.522
953.656
951.787
951.317
959.680
967.402
961.364
966.878
963.878
968.040
968.419
968.767
966.643
979.345
973.335
982.197
981.015
974.199
976.176
976.732
982.117
982.684
992.755
984.495
998.581
1000.673
986.445
997.012
989.894
999.414
1008.622
1010.038
1004.630
1011.449
1007.164
1004.041
1002.706
1011.096
1013.337
1017.279
1011.118
1010.178
1013.891
1025.529
1025.923
1018.922
1026.768
1027.052
1031.607
1026.160
1036.009
1028.131
1037.106
1035.658
1041.157
1036.175
1046.281
1050.492
1040.779
1047.123
1043.078
1046.376
1047.375
1052.016
1061.435
1054.401
1064.030
1054.249
1053.026
1056.274
1059.706
1056.646
1061.519
1056.720
1055.410
1062.231
1058.752
1062.202
1060.254
1055.333
1052.216
1066.263
1064.957
1059.399
1057.492
1063.772
1052.629
1064.785
1065.935
1060.382
1051.942
1065.662
1061.396
1064.134
1051.573
1066.684
1053.677
1061.060
1061.626
1052.565
1051.845
1056.723
1062.739
1065.474
1062.035
1060.332
1056.179
1055.050
1052.351
1059.877
1056.766
1055.850
1061.745
1055.464
1057.187
1066.270
1052.929
1063.545
1066.226
1061.619
1054.905
1054.505
1063.966
1064.947
1061.023
1065.247
1056.855
1063.907
1059.058
1064.331
1060.096
1058.585
1054.141
1067.117
1064.351
1067.123
1069.256
1065.923
1054.985
1067.693
1056.214
1063.821
1057.691
1068.434
1068.092
1054.465
1062.901
1060.452
1065.686
1065.647
1062.432
1061.054
1057.509
1063.600
1061.230
1064.748
1070.771
1058.880
1067.557
1063.645
1064.886
1061.470
1062.505
1056.218
1063.220
1068.869
1070.071
1071.266
1069.910
1069.022
1065.467
1067.969
1057.051
1071.297
1070.679
1071.221
1068.962
1071.958
1066.769
1069.219
1071.221
1060.632
1058.163
1066.570
1068.266
1058.232
1067.940
1068.689
1063.968
1067.892
1066.391
1062.474
1062.324
1072.987
1064.649
1058.426
1064.751
1061.036
1066.536
1071.559
1069.761
1064.003
1062.810
1063.735
1063.286
1058.468
1070.660
1063.492
1063.823
1067.506
1070.153
1061.802
1066.987
1069.599
1066.508
1065.331
1069.415
1061.105
1066.624
1059.292
1070.678
1067.507
1061.819
1068.889
1065.078
1064.059
1059.618
1068.751
1062.030
1067.226
1065.763
1070.688
1075.143
1074.893
1069.388
1065.436
1062.784
1067.845
1075.421
1063.077
1063.869
1075.458
1064.250
1065.940
1068.741
1067.472
1063.396
1063.803
1065.263
1073.077
1064.939
1075.711
1071.484
1064.117
1063.897
1065.197
1075.654
1074.952
1074.735
1062.979
1074.829
1064.172
1063.056
1064.743
1076.031
1063.063
1070.087
1072.330
1065.834
1071.824
1070.135
1060.970
1069.073
1068.623
1067.796
1066.930
1050.971
1061.517
1062.729
1054.589
1049.514
1046.080
1044.957
1046.404
1051.925
1049.629
1047.014
1040.002
1037.669
1044.937
1046.755
1037.171
1044.416
1032.595
1042.900
1039.229
1043.032
1034.345
1027.936
1026.877
1031.367
1037.610
1037.618
1035.651
1032.825
1023.894
1022.686
1031.538
1017.375
1018.657
1027.990
1015.937
1015.684
1014.499
1023.777
1023.928
1021.957
1021.493
1012.400
1009.691
1018.522
1004.779
1016.130
1011.856
1009.425
1011.031
999.951
1003.326
1006.229
1002.190
1006.623
997.678
994.572
993.773
1000.641
999.378
998.277
985.363
983.581
988.395
995.851
992.073
989.636
988.750
976.771
985.919
978.297
981.469
984.040
980.007
973.906
974.731
969.173
969.400
979.572
967.384
975.816
973.746
968.762
969.008
975.263
969.960
962.740
964.671
970.415
964.742
957.920
952.829
964.675
963.254
961.527
955.072
949.533
945.435
957.422
952.777
946.508
945.386
951.555
941.407
947.725
947.226
936.455
940.108
941.420
939.511
946.580
932.305
944.205
940.350
935.052
941.711
936.764
932.346
925.929
936.980
930.423
934.885
928.416
920.203
922.739
929.294
919.869
921.059
917.906
917.728
912.765
922.177
921.956
908.051
916.562
907.162
914.851
916.977
911.866
914.774
901.978
908.655
909.908
899.599
897.939
896.318
901.467
897.568
905.195
899.139
899.883
896.658
900.422
889.410
887.929
893.576
883.918
881.375
890.958
881.375
891.589
882.202
875.298
878.761
883.627
887.307
877.733
869.800
870.789
867.859
871.507
865.293
875.603
869.911
867.448
872.981
863.386
866.494
857.894
871.199
866.758
860.721
854.346
865.850
851.953
855.715
857.320
854.676
861.659
845.549
848.918
847.835
857.191
859.102
856.492
857.545
850.087
849.636
860.862
850.192
861.174
851.102
858.553
855.375
853.738
857.579
858.938
854.076
856.017
856.097
857.671
861.979
852.933
854.096
864.271
854.379
857.513
856.344
859.063
859.253
859.081
863.278
865.084
864.999
869.234
867.382
864.386
872.743
862.481
871.838
859.038
868.125
871.475
872.716
865.160
871.548
875.643
863.664
867.161
862.634
872.397
868.227
870.162
878.349
878.449
874.719
878.498
875.656
868.754
880.773
879.322
870.471
867.635
881.017
881.623
871.381
881.736
875.317
874.113
876.875
877.836
878.650
877.299
883.185
879.753
883.542
873.068
886.816
888.114
879.864
879.443
882.300
887.781
876.917
877.658
885.249
877.912
882.173
877.068
877.801
883.764
883.850
888.746
890.191
882.402
880.904
889.211
887.587
880.540
892.158
894.321
895.702
885.457
888.085
888.642
890.043
882.785
890.279
888.820
898.075
899.593
888.857
897.229
886.223
895.630
887.299
893.016
887.480
902.030
900.345
900.589
896.520
899.998
899.345
898.465
901.750
905.152
899.959
891.403
902.043
906.027
907.748
907.783
893.297
897.090
895.772
902.101
899.403
904.491
902.614
904.326
899.211
896.820
902.622
898.168
899.340
908.165
911.928
912.498
909.767
908.594
910.727
911.996
915.082
904.908
903.716
903.636
913.522
908.698
913.384
908.528
914.732
911.008
907.383
911.653
906.630
919.142
919.210
908.043
918.252
915.506
916.516
911.080
912.956
921.938
919.852
920.772
922.083
919.343
922.281
910.059
920.487
924.787
915.505
922.790
920.275
916.762
918.838
925.738
926.758
925.218
927.775
916.298
916.815
919.104
914.952
919.793
917.851
926.637
923.508
917.076
928.930
930.150
926.968
921.063
918.654
927.814
920.886
916.583
914.847
921.156
916.326
925.371
911.949
915.411
912.836
920.528
916.623
907.973
912.269
907.406
906.760
919.088
912.397
913.204
906.376
915.824
906.306
908.888
915.073
915.190
908.141
905.316
913.855
909.314
904.748
903.241
901.753
899.115
911.011
902.311
902.336
904.952
908.257
900.749
906.843
894.748
908.047
895.053
901.671
900.461
893.334
897.531
901.508
891.112
897.125
896.627
892.930
895.811
891.935
895.641
887.808
889.828
901.805
897.021
885.731
887.176
892.781
885.796
887.592
882.523
886.151
887.774
889.609
889.200
885.884
886.447
881.262
889.569
891.075
886.145
881.508
888.184
882.876
882.159
881.703
884.601
879.533
886.255
874.481
883.511
886.409
879.398
883.711
877.516
874.029
885.696
883.690
875.471
878.436
878.184
881.179
881.499
870.898
879.215
876.318
876.023
878.932
866.204
874.917
878.787
865.529
876.001
869.562
870.160
874.183
863.005
866.212
868.438
874.359
872.716
859.123
864.296
865.713
866.830
863.748
856.707
857.681
856.075
855.979
853.198
855.706
853.985
853.553
857.927
862.623
850.411
854.244
864.199
861.826
850.400
861.842
851.374
859.313
856.798
854.825
856.195
856.406
854.286
856.951
845.668
856.302
857.884
842.946
849.419
854.563
845.002
843.535
839.500
847.083
851.390
846.095
849.116
838.016
851.927
846.070
840.319
836.047
844.895
839.939
835.260
848.933
836.844
843.541
841.424
841.910
840.095
837.910
833.423
840.080
828.958
839.098
839.334
828.221
839.795
829.775
840.786
825.912
837.295
827.874
836.909
833.422
830.915
833.670
825.541
828.681
822.389
834.922
826.084
824.399
832.072
825.969
824.927
825.556
824.385
824.438
824.223
834.038
833.414
827.635
835.863
825.439
832.297
831.953
834.640
826.190
828.376
830.468
830.622
835.446
826.182
825.178
825.337
831.224
830.425
833.503
837.771
836.772
828.557
841.999
827.432
837.426
838.568
834.845
837.145
832.563
831.403
829.869
839.765
832.281
834.413
832.400
837.775
834.069
831.624
842.019
841.970
834.737
832.940
837.099
847.846
837.411
838.760
837.739
843.897
839.446
846.087
849.066
837.537
836.470
843.603
846.353
851.855
850.802
842.095
851.857
840.342
844.064
838.985
840.972
847.886
847.262
844.759
850.063
850.072
842.380
844.716
845.851
849.251
843.729
848.912
849.907
854.520
844.238
852.241
857.423
851.448
851.601
847.964
857.421
848.618
858.964
852.980
860.272
858.869
849.082
856.579
848.571
846.248
858.587
850.686
848.296
848.180
856.941
862.786
856.548
850.484
851.047
859.584
858.702
864.710
863.388
850.816
862.196
854.799
862.180
862.293
862.138
859.300
851.779
864.852
852.947
862.367
852.751
856.320
854.608
856.552
855.977
862.511
864.113
866.179
863.609
868.127
859.361
856.778
865.966
866.732
867.821
857.393
865.828
865.271
859.800
861.090
862.241
863.050
873.191
865.206
861.660
866.866
864.290
860.845
873.303
865.794
863.823
867.874
874.724
868.712
875.003
869.358
878.098
876.422
867.853
876.730
873.079
864.039
879.475
879.437
868.523
867.167
870.479
871.711
866.088
866.186
879.386
870.047
874.549
871.652
881.181
876.790
873.522
871.094
880.209
876.158
882.857
880.838
882.216
875.259
876.501
878.101
874.222
883.554
886.284
880.573
875.059
885.385
880.365
886.948
879.406
880.621
877.452
883.578
874.530
876.187
886.847
888.720
891.511
879.968
884.794
887.622
881.197
883.827
887.174
888.481
885.602
896.603
882.724
889.081
896.517
885.256
887.730
895.634
884.825
896.498
898.166
900.083
889.919
887.987
899.239
896.611
898.831
892.285
896.464
896.428
905.988
898.971
902.156
905.266
892.785
893.585
894.923
898.696
895.396
901.282
903.493
900.904
908.624
906.584
903.871
905.963
911.749
908.585
905.385
905.505
903.811
913.230
907.845
911.377
912.020
911.800
908.301
912.620
910.460
910.038
920.409
910.889
914.130
910.182
917.526
912.461
914.675
920.686
920.501
913.147
911.494
918.976
916.147
920.007
928.186
922.616
917.714
914.615
927.305
931.017
923.264
924.610
917.793
920.653
926.906
924.785
929.879
928.577
927.061
928.357
930.747
936.317
930.385
926.422
926.165
928.124
938.323
939.199
928.624
939.038
935.589
942.083
939.454
940.058
934.259
932.060
944.225
944.364
931.860
935.818
937.586
932.196
945.260
935.076
938.068
947.036
944.810
935.436
950.226
945.569
938.315
946.605
941.220
950.253
953.193
945.291
948.415
947.470
954.004
952.398
944.107
948.552
956.307
944.121
948.729
951.677
948.424
952.706
945.728
961.801
948.530
951.601
960.537
954.691
955.728
961.315
963.459
955.992
959.214
956.961
960.013
960.371
959.841
964.415
969.164
958.729
956.731
967.404
968.025
959.611
963.514
969.980
969.644
973.788
973.342
964.660
974.486
975.664
973.701
973.649
962.175
978.178
970.328
969.984
966.203
973.828
969.178
969.842
977.201
967.727
972.356
973.179
968.226
972.748
973.147
971.065
978.378
982.250
986.526
978.735
983.225
972.539
974.090
988.040
988.271
984.448
981.697
977.673
985.317
981.478
980.218
982.643
983.463
975.648
979.159
973.577
979.993
974.867
981.477
974.036
981.213
982.723
978.669
973.031
978.391
975.444
984.841
980.816
980.410
970.458
973.219
973.029
975.701
975.521
970.104
972.606
971.190
978.867
972.175
972.730
980.203
972.374
969.271
973.676
977.963
972.744
970.835
968.543
970.719
973.897
966.679
967.365
970.549
974.094
973.553
972.008
976.634
969.144
968.336
967.147
972.792
974.677
965.236
967.018
966.037
964.960
960.955
972.260
973.250
966.054
967.454
956.913
960.346
965.329
961.310
956.170
968.653
958.786
956.189
965.536
968.731
964.178
958.963
961.906
961.893
955.851
952.932
959.525
965.455
955.992
962.777
950.841
958.498
950.684
949.891
953.610
956.115
952.625
960.405
958.649
963.119
952.156
959.128
961.669
961.341
960.496
947.841
950.331
961.003
947.927
945.319
945.932
945.309
948.854
954.529
956.421
946.577
952.898
951.220
948.501
951.094
951.724
949.012
955.206
951.679
956.597
946.340
942.671
947.282
942.083
947.846
947.057
942.272
943.004
952.939
953.677
949.996
948.204
938.991
937.882
946.959
942.249
943.117
940.318
935.770
945.349
936.488
939.856
941.207
942.277
946.569
944.883
942.241
941.597
935.841
943.796
938.159
935.069
934.528
933.312
934.317
932.273
941.065
935.984
943.085
942.938
929.373
932.457
934.842
938.369
941.095
931.061
939.392
941.395
936.371
931.998
941.349
939.585
927.900
938.940
937.233
930.353
930.335
927.056
936.059
926.425
938.084
923.031
932.077
923.614
935.873
925.638
930.404
926.381
931.027
924.795
927.624
929.344
923.262
920.401
925.153
921.322
921.408
933.688
930.615
917.370
930.844
918.631
930.156
918.548
916.989
914.901
923.988
921.372
910.175
916.131
910.070
917.513
906.742
914.819
909.543
913.134
906.429
911.836
905.342
905.747
908.197
895.494
899.021
902.592
903.804
901.781
897.401
886.634
888.668
883.655
897.872
886.578
889.282
890.716
893.392
884.402
880.699
885.846
882.071
872.776
877.564
870.706
881.782
880.243
870.370
868.297
875.159
874.559
861.953
875.758
867.134
866.514
861.729
867.750
869.739
856.779
866.004
851.031
858.055
849.325
855.617
849.398
854.030
851.514
849.184
846.490
846.639
852.815
842.277
845.355
839.874
836.761
845.734
834.004
842.670
831.926
839.701
834.401
836.428
824.639
832.025
838.051
834.043
825.013
824.830
822.620
819.979
824.532
814.674
823.182
814.618
819.563
823.808
814.871
811.929
806.701
808.236
818.685
810.359
809.004
810.370
808.675
804.852
805.165
799.362
803.029
795.559
802.949
800.351
798.648
800.374
799.096
801.066
786.104
783.507
789.034
790.782
790.944
784.495
781.217
791.715
777.115
780.910
778.600
777.306
783.163
782.671
773.742
778.010
775.165
770.246
776.340
774.877
770.415
774.420
773.001
758.247
763.512
760.533
756.963
758.609
754.857
765.090
756.269
753.148
758.694
756.438
749.707
752.607
741.754
755.165
742.150
751.680
739.406
749.531
749.558
744.072
735.681
738.005
740.427
729.427
738.600
735.720
732.169
725.888
737.088
721.666
726.536
719.920
718.765
728.829
718.915
727.379
715.236
724.031
721.918
720.044
709.620
716.588
715.551
706.117
717.452
716.715
717.220
702.945
710.623
700.604
709.785
697.805
696.679
697.587
696.203
702.867
696.304
693.055
688.639
696.057
697.288
686.113
690.969
686.007
