569.396
571.646
572.035
580.031
584.074
580.121
576.297
584.444
581.378
582.652
576.122
579.864
588.943
590.254
585.576
585.481
589.578
594.200
582.916
586.862
585.639
589.218
593.895
588.816
589.760
589.073
599.471
592.132
602.223
594.799
600.646
591.738
604.932
594.563
601.823
598.157
606.680
599.607
598.222
612.233
602.015
612.086
602.123
611.046
607.957
605.960
615.881
618.125
608.991
616.706
614.089
616.243
615.450
611.269
620.688
612.095
623.927
623.969
616.345
619.880
623.265
625.989
625.080
626.691
633.299
635.434
623.287
623.179
630.805
637.844
628.590
637.999
637.341
639.564
639.450
642.480
642.327
630.192
641.644
639.649
633.605
645.608
637.813
647.216
636.587
648.972
642.766
645.024
642.147
641.766
642.854
657.158
655.645
653.999
646.881
659.315
661.146
653.217
656.336
654.077
663.272
664.530
653.292
664.005
654.479
667.939
655.164
663.352
661.232
669.000
659.844
669.192
665.881
663.148
673.402
672.768
673.202
678.892
671.308
677.115
674.246
670.033
670.169
669.051
669.245
680.336
678.037
677.362
683.435
685.590
684.066
684.848
676.777
682.556
684.282
680.781
682.715
690.310
686.241
681.828
682.617
692.220
699.063
690.129
693.801
691.576
703.368
692.294
696.877
700.474
700.862
695.856
706.222
706.340
704.263
710.224
696.787
702.884
712.166
713.191
713.672
700.665
702.286
717.403
704.871
704.189
708.534
714.756
706.264
718.901
711.880
720.733
710.577
722.667
718.115
717.111
717.605
716.029
722.241
720.881
726.012
730.107
731.851
733.675
721.020
732.513
722.359
725.470
731.392
727.986
726.794
740.195
730.522
739.997
731.308
742.451
743.302
743.612
741.760
734.169
736.177
745.642
740.938
739.768
744.675
755.712
749.110
745.599
746.570
752.415
755.520
764.273
755.432
762.699
756.787
759.535
766.835
768.558
773.485
776.011
767.192
767.521
778.581
772.086
784.423
784.413
776.091
788.676
779.675
793.336
785.567
783.331
785.923
789.408
798.790
788.833
790.740
797.896
793.854
801.977
808.699
812.093
811.079
815.028
808.565
810.948
810.907
817.163
810.001
818.251
825.714
819.880
824.181
828.920
829.745
827.866
837.185
823.419
834.854
829.490
837.436
832.212
834.306
841.532
841.152
845.661
845.297
853.805
844.870
852.066
854.101
854.694
850.132
859.711
863.471
863.742
858.419
862.943
861.287
865.837
872.362
870.190
867.416
880.286
877.901
881.618
883.299
873.042
886.517
885.109
879.986
878.304
887.369
892.347
887.114
893.166
899.146
899.347
888.497
890.640
896.092
899.388
898.198
902.557
901.782
909.538
905.052
915.236
917.518
916.613
916.046
917.058
920.586
915.656
928.405
916.417
931.348
919.292
921.979
933.851
935.715
940.087
940.197
929.682
934.244
939.024
940.696
934.142
941.954
952.590
943.319
951.030
954.215
954.301
955.646
950.200
963.442
954.139
953.363
957.305
958.369
965.049
964.998
963.838
964.389
962.596
971.485
967.250
977.979
984.287
980.211
986.203
985.815
979.427
992.639
993.286
986.826
997.010
996.261
993.453
986.891
1001.867
992.064
993.024
1007.772
1000.823
1004.837
999.320
1010.037
1014.716
1011.975
1010.717
1006.087
1011.365
1022.198
1010.338
1016.922
1017.402
1018.916
1022.155
1030.199
1019.781
1025.931
1028.506
1027.533
1031.957
1043.238
1042.445
1045.518
1043.643
1036.957
1041.917
1039.986
1045.446
1044.738
1050.668
1055.971
1046.931
1060.250
1057.685
1060.834
1056.023
1050.032
1055.610
1057.465
1061.818
1057.250
1064.435
1051.485
1057.004
1056.423
1063.218
1063.194
1065.930
1057.674
1063.473
1052.493
1051.801
1054.505
1061.790
1066.258
1055.931
1060.343
1056.431
1056.306
1063.386
1062.319
1066.797
1057.873
1058.247
1061.859
1065.768
1054.934
1052.433
1063.099
1056.974
1065.510
1052.446
1055.004
1054.509
1052.840
1064.626
1061.490
1061.291
1052.607
1058.312
1063.416
1062.386
1059.907
1052.766
1055.819
1060.487
1067.875
1057.157
1063.675
1054.670
1066.927
1061.400
1068.849
1061.276
1053.200
1062.901
1060.501
1069.202
1062.030
1066.827
1061.286
1063.438
1066.988
1060.120
1063.995
1062.711
1055.489
1061.668
1069.787
1066.848
1057.837
1054.323
1062.266
1062.266
1066.895
1069.516
1060.687
1061.271
1067.330
1057.677
1063.792
1054.839
1062.045
1060.357
1059.266
1061.670
1068.998
1063.781
1058.259
1065.898
1070.774
1058.944
1057.141
1062.038
1067.066
1067.115
1071.396
1061.093
1057.385
1058.002
1060.940
1056.874
1057.153
1066.463
1066.651
1066.493
1059.313
1065.628
1059.617
1066.811
1068.071
1061.150
1063.979
1063.634
1063.767
1072.767
1058.090
1059.902
1060.815
1057.087
1061.726
1064.628
1064.503
1071.585
1064.601
1059.764
1071.913
1062.595
1061.838
1069.230
1060.724
1061.482
1068.330
1064.404
1073.297
1070.410
1072.292
1058.999
1071.804
1060.576
1058.754
1069.608
1067.021
1058.848
1063.630
1070.903
1071.165
1071.222
1058.754
1063.005
1068.441
1060.255
1070.967
1069.826
1068.355
1074.774
1059.708
1063.160
1060.420
1063.299
1065.675
1068.263
1061.096
1070.042
1071.808
1066.874
1065.561
1070.527
1065.613
1075.587
1061.389
1068.882
1068.407
1069.617
1068.498
1064.603
1064.484
1072.515
1066.827
1074.942
1076.402
1066.934
1065.044
1074.223
1073.382
1071.825
1061.487
1066.059
1063.135
1061.167
1073.881
1066.539
1072.742
1067.086
1075.250
1074.228
1075.051
1066.701
1070.602
1070.899
1064.950
1066.724
1064.459
1056.045
1059.010
1060.353
1056.362
1047.993
1056.023
1060.610
1055.833
1051.941
1049.517
1044.889
1040.729
1044.929
1048.610
1046.903
1038.874
1039.578
1038.184
1045.404
1033.817
1032.710
1033.055
1037.847
1041.141
1036.641
1036.716
1038.430
1031.945
1033.073
1028.851
1019.891
1025.486
1017.289
1020.708
1015.718
1016.175
1018.993
1014.743
1010.841
1012.942
1011.405
1007.654
1020.381
1006.415
1010.540
1006.549
1001.726
1013.214
1008.825
1002.963
1009.534
1002.224
1000.005
996.954
1007.865
994.629
998.020
998.180
989.486
989.617
1001.916
986.738
990.725
994.886
989.939
981.376
983.784
993.772
993.107
978.291
987.768
977.198
981.027
984.914
983.159
978.966
978.812
972.724
980.493
968.949
976.526
975.413
967.823
961.733
969.479
974.579
969.339
957.504
957.594
960.556
960.472
964.057
961.275
950.802
961.338
958.027
951.336
948.018
948.075
948.419
947.517
957.765
956.281
954.137
953.027
941.759
952.106
939.128
945.444
938.491
935.833
931.617
931.545
938.525
933.166
927.584
935.015
938.133
923.811
923.000
935.609
935.455
932.319
928.383
929.563
916.938
921.167
925.723
916.888
916.027
917.703
918.502
910.008
908.521
917.195
905.918
913.601
911.780
916.180
913.588
909.331
905.117
906.740
912.315
909.353
897.285
905.825
894.167
892.615
897.054
892.075
890.705
897.548
900.732
892.735
884.926
890.706
881.393
896.180
879.492
893.292
883.775
888.681
880.019
879.764
885.885
872.223
879.053
881.003
872.593
878.901
867.371
878.107
876.618
871.515
875.666
874.862
862.008
864.381
869.847
857.803
860.332
862.411
863.738
867.831
864.990
854.114
851.470
862.507
861.263
846.918
845.765
855.154
855.503
860.285
861.717
849.529
856.928
848.087
860.514
850.005
853.934
858.665
857.910
859.090
860.132
857.059
862.867
856.470
852.214
853.689
865.114
856.612
854.679
853.090
862.568
855.432
855.868
860.635
859.944
864.823
858.479
859.037
857.826
871.142
861.079
857.722
873.164
863.990
858.280
862.941
871.529
866.238
865.365
863.289
864.395
869.659
867.840
864.520
874.003
863.623
863.054
862.972
866.958
866.099
867.148
875.478
868.511
866.228
871.799
874.869
873.977
878.764
873.258
869.506
877.656
881.196
876.766
869.683
869.153
879.884
881.304
871.792
879.476
874.930
873.086
882.695
878.619
882.333
880.209
887.352
889.262
886.269
883.393
890.236
875.591
890.647
883.168
887.144
881.601
890.433
880.105
888.495
893.146
885.693
888.712
889.706
894.831
893.190
889.175
893.768
893.653
895.747
882.914
892.129
890.901
888.801
890.082
888.354
885.203
893.057
886.560
900.247
890.785
897.823
898.866
894.746
889.183
901.400
889.313
888.202
892.627
894.270
897.960
893.786
890.463
892.398
891.649
893.291
901.179
898.676
894.030
896.220
897.951
899.506
896.255
907.914
900.596
898.489
902.445
908.820
904.170
902.020
900.412
904.666
908.432
909.323
908.882
899.404
913.264
911.435
909.426
908.988
908.473
912.739
910.972
909.753
916.594
913.948
909.444
914.153
917.766
905.614
905.455
909.169
907.114
918.702
908.042
911.284
906.006
920.760
908.848
920.422
910.619
918.363
918.459
913.227
917.841
916.275
921.966
910.438
909.626
911.891
916.215
915.329
916.442
922.003
927.265
924.104
920.692
927.924
928.121
917.592
918.105
928.797
916.211
917.393
920.684
916.283
916.097
924.706
924.456
930.106
916.245
922.132
929.684
921.860
915.559
922.154
914.512
919.620
927.496
918.060
923.925
925.188
920.036
911.568
916.222
922.243
922.589
909.499
916.106
918.607
919.742
917.063
906.006
917.931
918.076
915.706
916.620
912.271
917.866
904.895
916.758
902.699
903.713
906.226
908.674
900.271
905.125
899.504
904.389
901.068
904.163
902.584
905.459
909.385
902.555
903.622
900.055
908.449
906.664
900.232
901.759
893.527
893.169
898.331
894.654
895.016
902.531
903.625
889.536
896.129
895.486
890.579
892.489
891.398
895.571
891.934
888.115
895.395
892.877
883.244
896.191
884.327
892.133
890.209
895.249
883.753
880.905
880.302
881.283
880.934
889.363
878.530
889.065
881.355
889.593
882.554
888.656
879.196
877.227
882.644
873.469
886.731
881.213
883.714
884.952
871.748
876.489
882.506
868.813
869.431
873.644
873.108
870.358
867.175
872.808
864.427
869.073
868.674
867.562
876.369
866.712
875.015
865.285
872.448
863.970
870.349
867.762
861.042
870.768
871.525
872.992
858.025
867.555
870.605
867.539
867.665
864.849
858.049
864.937
855.372
861.733
855.894
855.111
857.092
852.162
861.110
852.073
855.054
855.303
856.606
853.336
854.004
848.923
861.594
848.790
857.231
856.363
857.216
846.832
845.606
844.271
850.527
848.073
841.475
849.467
840.532
846.175
853.856
848.757
852.476
851.543
850.097
846.728
850.449
846.513
837.015
849.987
841.863
836.543
847.824
848.004
846.461
836.060
838.968
844.897
844.175
840.295
833.592
841.139
835.690
839.054
842.007
831.748
838.433
831.036
839.957
837.373
827.062
831.120
824.103
834.825
831.665
835.735
829.493
833.912
821.379
832.060
829.936
830.043
823.285
823.786
825.762
831.269
826.766
831.308
832.608
832.240
825.820
829.413
827.626
824.806
824.890
823.471
833.262
823.774
835.555
832.731
824.205
835.711
839.691
829.293
826.303
828.443
836.578
833.799
826.686
838.079
837.121
834.862
839.214
838.454
834.995
838.347
844.349
844.809
836.088
840.628
831.234
833.184
841.063
846.395
845.733
846.571
841.517
833.003
838.157
847.494
840.680
834.823
840.172
839.988
839.237
845.443
848.534
841.020
837.144
849.889
837.480
846.675
841.682
844.299
847.805
837.650
839.508
844.450
839.748
852.587
850.835
842.285
844.055
851.402
841.878
851.646
846.216
853.312
844.819
848.379
844.556
850.743
850.945
854.447
851.923
843.483
844.981
843.515
843.524
854.063
843.456
856.326
853.320
846.710
847.603
845.722
849.114
846.552
845.829
848.196
853.797
859.983
855.362
857.037
861.470
856.225
860.217
863.474
854.836
853.470
854.710
864.570
864.295
856.686
851.420
861.576
861.847
859.164
852.806
862.372
855.636
863.471
865.073
858.218
853.489
861.182
867.129
860.805
862.796
854.199
858.234
863.892
862.200
866.250
865.360
869.292
868.985
871.341
871.081
870.980
869.498
858.789
860.829
869.648
862.939
869.018
861.902
859.347
873.614
862.184
864.882
874.579
872.593
876.490
875.953
867.051
865.729
870.474
876.644
875.389
862.682
865.589
874.765
877.502
868.120
872.575
874.882
870.878
870.360
867.043
869.350
879.989
879.052
869.166
868.712
882.284
867.544
874.551
876.631
874.673
869.976
875.188
874.226
881.872
881.252
877.518
870.823
875.805
885.239
873.273
878.379
880.459
878.490
886.760
885.742
883.815
881.775
887.073
881.812
880.973
883.522
874.087
889.401
884.434
887.277
881.386
886.802
879.559
877.874
883.551
890.909
884.248
895.021
890.121
882.323
889.542
891.937
882.429
892.716
892.481
885.112
891.901
887.482
898.327
893.020
889.960
892.480
888.801
895.094
889.727
892.016
900.646
895.462
905.335
900.785
897.307
895.203
892.664
902.372
901.769
907.469
900.087
901.871
910.255
903.849
910.516
911.712
907.834
908.192
899.699
908.380
906.377
903.381
903.363
903.134
917.080
902.529
914.618
906.797
905.804
904.406
915.844
918.904
921.040
919.196
919.324
914.589
907.347
917.210
918.398
918.297
919.494
922.127
913.098
914.218
918.399
916.271
922.059
916.713
924.273
928.325
924.303
924.917
925.552
929.846
929.118
931.087
921.537
918.817
926.096
926.367
932.346
928.344
925.015
932.795
926.647
933.766
936.013
924.357
925.830
926.855
938.150
938.503
930.279
932.124
941.315
927.795
933.068
937.942
936.142
939.092
944.615
945.209
939.424
939.943
940.079
944.207
939.298
945.622
945.637
936.227
941.963
945.401
938.067
950.783
952.185
944.721
946.214
941.279
943.672
945.691
955.004
949.315
946.628
942.565
952.174
949.253
946.183
950.642
957.250
956.129
955.741
955.969
946.392
955.143
952.389
957.494
956.651
955.833
963.328
951.214
964.602
959.812
961.993
955.406
964.150
966.383
962.756
965.174
956.449
968.439
963.578
966.632
965.682
966.912
962.040
962.360
972.877
959.117
970.071
970.444
964.738
976.316
974.360
965.343
962.454
976.680
977.116
975.579
970.662
978.112
968.377
977.928
977.688
972.004
981.992
982.576
981.323
977.901
979.832
974.097
982.124
986.507
976.727
982.117
988.096
978.744
980.404
976.662
982.796
978.228
983.892
985.518
978.404
987.902
983.155
985.189
978.092
988.826
975.008
979.340
988.240
977.005
984.922
982.092
987.204
978.783
977.750
976.082
972.085
977.946
978.554
982.850
970.011
983.713
981.874
982.575
982.150
968.222
975.967
968.935
976.614
978.472
978.633
971.052
972.480
980.082
976.494
971.075
976.610
973.490
964.352
966.283
978.552
978.117
974.913
972.555
965.081
963.251
962.921
967.233
971.548
975.832
969.916
970.669
964.733
964.068
972.838
971.207
971.133
966.682
964.115
973.327
972.667
958.355
965.118
963.078
958.601
961.737
963.625
958.525
956.123
958.557
959.211
955.721
962.697
961.351
960.098
960.080
959.301
965.294
962.043
955.806
967.107
966.378
954.088
953.418
950.952
951.141
952.093
952.042
953.674
961.469
957.138
959.755
949.850
963.322
953.739
948.764
955.162
948.836
954.412
947.277
956.293
953.367
956.488
948.987
958.327
944.272
952.946
958.637
944.345
948.269
944.243
950.110
954.720
954.983
948.404
951.252
945.433
948.523
944.867
942.395
939.828
942.807
942.190
945.403
950.922
939.350
944.431
952.556
950.066
948.671
946.915
947.028
940.521
938.996
946.583
943.731
941.882
949.613
948.157
944.668
946.779
941.481
940.846
948.766
941.679
937.533
938.548
933.967
936.278
946.557
944.392
941.147
933.190
937.525
944.981
941.078
936.658
942.819
941.907
942.726
932.965
941.453
941.793
930.670
935.332
939.569
931.066
929.110
937.452
930.087
926.661
925.157
924.673
935.830
931.792
923.849
927.854
925.665
935.017
926.928
922.560
929.987
934.907
934.290
928.517
927.426
922.413
929.715
920.033
928.639
921.252
924.192
932.020
919.292
930.113
918.991
927.348
931.038
919.577
919.231
918.425
913.788
920.763
921.729
912.440
915.845
917.898
908.101
912.451
906.481
911.246
915.498
906.971
905.929
907.591
899.929
899.552
900.352
893.403
895.729
901.726
901.397
900.727
901.058
889.984
899.246
896.590
887.201
895.435
892.741
893.173
889.671
886.671
887.732
885.494
879.544
882.741
879.360
885.381
877.823
870.833
879.253
867.003
864.622
874.428
876.262
868.711
861.041
867.536
858.442
859.214
868.980
861.000
856.981
865.830
857.625
853.154
860.074
850.499
851.321
851.135
843.827
848.664
854.121
841.749
849.011
837.508
848.742
847.091
838.918
834.992
834.342
839.808
828.223
830.721
838.111
837.729
829.241
834.220
827.458
822.147
823.746
832.544
818.499
825.175
815.259
818.620
825.593
821.336
810.034
823.844
820.489
808.607
817.569
806.800
806.247
812.442
803.558
808.173
801.377
805.325
807.614
802.431
804.368
794.601
800.678
791.393
794.968
802.478
788.951
788.989
790.281
790.746
783.201
793.678
791.029
791.090
786.037
777.451
787.185
779.675
777.154
782.132
771.227
777.008
776.502
780.122
776.591
776.805
773.026
767.726
765.326
766.806
766.223
758.400
756.593
764.690
761.070
753.688
760.971
762.182
755.219
746.718
750.007
750.091
746.954
750.901
750.875
744.860
753.208
748.394
747.038
737.547
743.048
732.955
736.176
741.288
741.873
733.199
729.108
734.642
738.217
731.404
730.089
732.315
730.054
731.849
728.155
719.660
728.618
722.975
724.495
714.586
711.217
709.887
708.553
709.400
705.167
710.026
712.514
702.825
700.316
708.874
710.796
710.699
702.994
697.387
708.183
707.080
706.319
704.121
698.896
701.926
695.850
687.995
698.782
689.979
690.222
