746.049
738.255
749.052
751.700
747.059
748.341
745.341
759.932
748.344
752.676
763.335
760.941
762.414
769.283
758.115
761.575
758.801
775.164
777.336
769.290
780.094
768.266
781.582
783.846
782.372
783.370
789.191
785.160
782.124
790.465
789.986
787.254
794.762
786.795
787.773
801.096
801.598
802.795
799.027
810.494
803.713
810.073
802.514
803.350
810.301
817.633
814.054
815.012
821.144
810.889
818.679
821.857
825.891
817.183
825.049
825.656
831.366
823.528
829.047
837.682
833.150
845.268
838.715
845.835
842.346
838.811
838.943
847.103
847.396
846.511
848.539
859.460
849.810
855.793
854.405
854.637
864.747
859.402
870.721
860.777
869.826
865.175
877.951
878.425
870.183
881.416
874.364
875.240
881.089
885.261
887.945
891.893
891.373
880.430
895.883
890.177
896.580
902.393
892.199
904.860
903.970
900.579
909.980
911.532
908.124
902.721
904.304
914.360
916.772
912.606
914.725
915.836
921.372
916.668
920.350
917.538
925.323
927.163
928.828
932.145
923.909
930.147
930.578
929.475
943.797
937.771
935.928
943.982
945.271
938.902
939.373
941.703
951.303
944.578
951.803
952.382
954.868
953.854
966.647
955.259
965.165
967.046
969.417
971.534
973.168
974.650
979.126
974.447
970.391
970.376
975.486
987.295
975.391
989.710
990.691
991.893
983.659
987.540
988.342
986.083
987.361
1001.177
996.805
996.934
995.557
1003.027
1005.051
1002.739
1014.699
1012.248
1009.949
1015.916
1009.998
1009.147
1019.631
1013.000
1013.454
1016.277
1023.833
1017.445
1025.429
1022.844
1023.149
1023.488
1038.180
1032.926
1042.501
1032.060
1037.326
1033.515
1045.766
1038.355
1051.593
1052.926
1050.201
1043.919
1052.814
1056.941
1051.169
1052.899
1057.897
1051.919
1051.811
1064.972
1056.959
1062.413
1062.252
1058.869
1059.100
1053.136
1058.565
1063.266
1056.110
1053.592
1063.835
1056.442
1056.069
1052.811
1051.490
1060.959
1052.365
1060.630
1051.861
1058.398
1053.273
1052.078
1063.259
1055.257
1054.951
1065.626
1057.088
1057.053
1066.202
1054.065
1059.887
1062.023
1055.047
1066.366
1060.155
1056.230
1067.055
1058.622
1062.545
1065.441
1060.110
1057.383
1058.258
1056.816
1066.448
1052.753
1057.166
1055.123
1058.985
1055.234
1065.081
1062.832
1068.049
1067.432
1059.017
1054.933
1058.210
1054.510
1058.709
1066.168
1068.499
1059.695
1053.647
1065.010
1059.652
1055.242
1066.238
1059.603
1054.329
1056.482
1069.980
1066.677
1057.590
1062.355
1060.332
1065.653
1056.369
1068.046
1061.751
1070.437
1057.914
1057.058
1069.888
1058.706
1061.004
1059.632
1069.394
1061.588
1060.665
1069.678
1068.262
1070.500
1069.751
1062.812
1057.844
1067.210
1060.122
1071.361
1063.238
1066.846
1066.711
1055.850
1067.310
1057.528
1062.836
1056.869
1059.001
1058.664
1066.475
1068.344
1062.983
1059.999
1070.176
1060.594
1060.714
1072.346
1063.893
1064.185
1060.014
1067.055
1060.852
1057.434
1061.977
1071.446
1067.809
1065.550
1067.318
1065.487
1060.646
1059.572
1070.280
1070.016
1063.880
1062.675
1069.423
1061.779
1058.364
1067.713
1058.440
1058.988
1063.857
1068.136
1058.704
1060.721
1072.298
1059.290
1059.487
1074.299
1070.548
1065.232
1060.145
1073.235
1059.961
1074.128
1064.209
1073.001
1070.301
1062.537
1065.507
1061.025
1059.302
1059.981
1063.685
1074.542
1066.516
1067.474
1071.119
1063.757
1059.763
1070.900
1064.731
1065.072
1063.368
1068.107
1073.512
1066.811
1066.881
1072.450
1069.377
1063.239
1066.839
1062.528
1069.088
1074.247
1062.390
1069.409
1073.145
1068.732
1071.886
1070.940
1061.599
1074.846
1069.395
1067.190
1073.668
1069.150
1069.544
1072.398
1062.399
1060.933
1058.861
1068.673
1063.453
1055.891
1054.040
1064.444
1053.167
1056.255
1049.498
1056.018
1059.978
1060.155
1057.094
1050.110
1044.925
1041.011
1041.052
1048.951
1037.869
1041.070
1050.277
1048.416
1046.411
1038.836
1033.308
1043.596
1029.735
1035.096
1030.209
1026.846
1029.820
1029.423
1023.252
1032.632
1029.760
1032.978
1032.741
1028.863
1017.830
1019.671
1021.206
1023.823
1012.541
1025.730
1011.009
1022.208
1021.881
1017.362
1009.880
1008.172
1008.808
1015.082
1001.711
1014.612
1000.456
1010.863
1003.371
998.238
996.312
1007.659
1001.386
1002.984
1003.227
999.176
990.802
991.597
989.539
989.090
984.194
992.406
995.210
988.659
994.862
978.218
990.619
980.331
980.381
980.097
982.263
982.881
980.202
983.899
973.664
979.451
968.857
978.940
971.327
970.199
967.465
962.882
959.872
967.586
971.708
965.025
967.985
967.412
954.315
965.034
954.396
964.866
956.718
958.008
961.641
946.876
956.578
955.948
948.949
951.280
942.166
950.577
946.857
948.299
948.267
938.170
948.918
934.519
945.895
936.131
935.056
941.839
933.799
935.140
938.050
934.290
937.846
923.758
921.869
923.134
931.535
930.374
931.651
926.866
927.233
918.635
926.354
924.994
914.144
918.141
918.884
914.344
913.245
911.255
916.274
913.855
910.354
902.276
901.448
903.088
904.150
910.062
898.952
901.719
905.193
898.641
901.911
898.880
888.270
886.772
900.187
892.551
889.633
893.745
885.542
892.866
885.788
892.638
886.765
880.626
886.271
876.186
884.590
879.216
874.363
884.773
876.738
873.405
881.016
879.992
879.511
873.562
869.123
860.781
862.308
859.239
862.378
863.215
869.715
857.052
864.030
861.753
863.955
856.551
862.015
852.408
849.930
859.469
853.318
847.841
859.308
854.021
848.501
849.181
849.476
860.665
862.063
848.083
848.546
853.287
860.666
858.606
855.177
854.050
856.802
859.083
859.405
860.480
856.787
852.397
854.985
868.354
864.185
855.244
866.809
855.885
867.095
854.890
864.772
856.069
869.614
861.569
863.292
872.018
862.934
861.831
869.901
863.016
872.108
870.738
872.296
864.441
866.455
861.034
875.222
869.512
869.960
863.910
863.905
874.414
875.542
875.956
871.343
870.074
865.217
872.050
880.065
867.625
880.652
881.603
872.713
877.056
878.417
878.187
872.147
871.582
873.819
874.280
872.318
881.923
873.150
886.600
884.693
882.371
873.977
876.239
878.253
881.717
873.728
882.650
876.303
888.538
875.395
886.561
886.796
884.869
888.979
891.835
890.756
877.310
883.560
889.509
890.773
891.699
884.301
892.316
888.651
887.534
895.872
884.599
894.181
895.166
888.954
882.957
886.318
884.763
893.283
885.870
888.364
887.695
891.629
897.702
885.838
899.157
889.343
888.395
899.597
893.699
895.851
888.753
902.676
890.396
895.088
900.308
903.587
900.093
896.105
892.585
895.506
896.921
900.155
906.417
907.241
900.753
899.952
896.491
904.944
909.498
897.957
908.286
897.224
911.514
897.099
910.172
909.451
909.447
898.879
904.890
905.803
910.141
912.557
902.630
904.181
908.245
913.472
906.421
916.174
908.024
909.510
916.665
907.533
913.139
915.043
916.335
919.071
908.344
911.282
905.843
915.924
912.369
920.179
919.558
909.984
921.495
918.105
912.251
919.228
923.273
918.876
919.717
921.634
916.358
926.189
922.255
918.269
915.645
914.797
926.519
915.097
914.445
924.905
921.663
919.401
919.806
925.322
918.912
926.939
920.514
930.872
930.652
916.652
926.198
925.204
923.865
921.784
919.571
926.006
921.928
927.586
916.985
911.511
925.808
921.123
910.242
916.211
915.536
916.991
919.871
920.332
914.655
907.290
918.619
914.854
918.685
914.848
912.157
911.341
918.258
910.826
908.160
905.636
908.561
911.764
901.580
914.651
905.995
911.605
903.658
903.859
911.095
899.112
901.472
910.155
904.816
907.007
908.185
900.591
896.779
899.234
898.789
898.109
896.457
895.613
899.643
892.319
890.011
898.543
895.402
888.712
896.973
893.050
894.665
888.152
887.462
894.354
896.179
888.465
884.521
895.369
883.937
895.669
895.597
894.103
881.397
891.232
893.559
883.332
883.950
885.260
881.720
889.032
890.487
887.537
887.300
884.822
879.888
885.312
887.487
883.825
883.917
882.703
876.977
872.824
878.114
884.974
874.460
876.434
873.776
880.838
881.177
872.220
869.338
879.669
873.439
865.973
875.907
874.342
873.413
863.097
875.210
870.838
870.758
866.904
862.236
869.095
867.412
874.410
862.395
860.130
863.060
864.152
868.344
862.641
857.227
860.258
855.873
859.784
858.300
867.601
855.805
866.083
866.047
866.793
853.482
859.241
861.467
852.531
848.902
853.909
851.283
860.126
852.807
858.649
851.921
855.808
856.510
849.251
858.989
857.365
846.718
856.837
842.050
847.481
843.798
853.534
843.195
845.005
853.526
839.738
853.571
850.759
846.601
850.259
844.798
850.821
839.007
835.835
844.859
848.048
844.328
848.540
843.098
842.377
834.841
836.769
838.514
840.748
837.945
829.900
838.802
838.010
830.602
836.818
828.402
830.037
827.110
828.629
835.171
836.274
826.093
824.881
832.631
827.025
822.607
835.686
821.524
834.530
827.946
827.315
821.505
821.264
824.563
825.375
829.952
821.786
832.122
823.984
834.945
823.646
835.630
835.126
834.846
827.961
835.047
828.690
834.885
835.362
839.387
833.857
834.860
826.608
835.753
834.129
838.605
834.953
831.272
838.466
831.692
830.005
829.801
833.218
831.560
838.167
837.601
843.376
829.191
833.065
831.855
842.714
845.043
836.763
844.137
838.122
846.489
833.565
845.429
847.766
837.706
840.873
848.079
847.910
846.788
842.369
835.879
849.564
837.741
847.580
837.880
839.640
846.021
836.063
850.263
844.560
837.431
839.733
851.163
851.338
839.329
839.523
845.148
847.628
846.645
842.965
844.745
853.200
844.438
851.963
853.079
849.139
844.591
851.565
851.424
856.777
857.774
847.965
855.493
858.738
852.986
858.625
852.325
851.922
853.289
860.472
859.954
847.632
848.523
860.672
853.030
848.141
847.527
862.219
862.893
852.093
856.251
857.497
858.488
849.453
851.103
860.933
859.722
852.983
864.330
861.996
861.290
863.887
866.200
853.860
851.851
867.248
855.455
867.186
864.073
858.631
858.527
865.428
855.077
858.812
862.912
865.566
855.880
858.208
865.259
857.250
869.445
862.364
865.695
869.968
868.804
865.418
872.492
864.571
862.870
867.488
872.855
867.328
859.451
869.494
867.196
869.609
866.409
866.929
874.849
865.622
861.904
871.077
872.942
864.198
866.662
865.928
868.301
863.863
866.826
876.947
864.606
870.448
875.477
871.259
867.691
879.885
875.448
872.065
881.120
868.564
870.998
873.253
880.892
871.588
873.400
869.150
881.515
875.043
878.756
870.920
871.852
882.859
871.127
873.080
872.970
872.033
882.480
877.083
882.367
873.744
880.422
878.149
879.660
879.866
884.242
878.529
879.614
881.598
878.912
877.367
884.410
892.181
892.019
878.008
890.605
888.137
893.499
891.148
892.006
886.693
889.909
897.061
896.331
883.796
888.422
885.491
893.697
889.151
886.846
898.554
889.482
895.464
900.402
901.912
894.116
902.888
899.513
894.154
899.442
894.862
898.080
906.284
905.329
902.743
900.439
895.934
910.329
896.795
895.775
908.726
905.558
900.341
907.881
913.502
911.238
910.722
909.397
904.721
910.120
916.371
902.230
911.510
906.130
906.053
911.979
908.566
906.840
913.507
921.096
922.225
916.669
917.610
913.400
914.379
914.037
919.423
910.351
918.425
922.250
918.093
912.737
922.710
924.433
929.362
924.368
929.434
917.250
929.073
922.526
920.248
930.643
928.202
922.371
925.321
923.735
919.652
932.084
934.624
933.557
931.750
928.976
936.870
926.048
927.445
938.351
936.443
926.587
933.738
931.237
927.873
934.852
938.303
939.967
930.809
936.520
931.100
930.852
946.332
940.222
943.723
947.230
940.404
942.862
943.787
949.645
946.576
946.640
949.915
939.480
939.658
945.862
947.121
945.424
954.006
950.917
955.779
941.664
943.118
948.666
955.478
954.015
943.369
951.419
946.424
958.656
953.706
958.792
952.900
961.348
958.316
951.758
948.509
955.676
960.340
953.596
958.646
960.672
965.410
960.894
965.582
956.186
958.028
959.535
955.166
962.153
960.889
958.482
960.088
971.402
965.834
972.876
960.107
969.441
966.928
968.766
965.482
966.299
961.897
973.951
970.645
971.408
964.503
967.728
973.180
972.985
979.603
970.707
976.575
978.142
980.209
972.858
974.083
979.040
969.793
984.942
979.336
984.612
978.113
987.327
986.725
976.565
985.221
983.830
986.070
977.352
990.105
980.759
981.223
975.796
978.005
978.620
976.403
977.067
981.260
987.858
976.223
984.363
983.430
974.710
979.341
986.518
984.074
985.350
977.452
983.072
975.350
984.923
982.360
976.834
982.081
974.702
972.609
972.953
974.250
977.980
971.345
980.485
978.386
978.756
974.886
975.408
972.966
968.246
972.335
979.077
974.872
979.022
966.269
964.687
978.434
968.761
976.351
962.046
973.904
965.550
974.260
971.564
968.513
974.428
965.171
973.838
965.842
967.541
970.847
968.754
973.565
968.528
969.367
970.063
963.254
963.914
967.363
957.473
971.216
964.969
958.028
962.553
958.157
958.743
954.517
962.767
964.244
956.644
957.240
957.350
956.212
959.354
953.050
957.972
966.638
955.590
954.212
953.652
954.401
954.934
951.697
962.560
960.248
962.935
959.904
954.465
953.900
948.909
950.811
946.868
949.818
956.364
956.801
960.821
949.179
949.753
949.040
949.916
956.811
949.615
947.865
953.527
955.463
947.419
943.439
950.965
952.441
948.092
942.943
949.493
944.123
948.917
949.329
947.700
944.156
953.619
940.035
942.361
949.884
946.736
946.848
952.790
937.827
936.858
941.549
937.592
948.231
935.779
945.415
938.674
939.884
937.408
945.043
945.598
945.647
935.155
941.576
937.943
937.459
932.616
935.781
945.324
934.806
933.454
945.250
931.087
940.802
941.322
940.498
939.235
937.426
939.742
930.964
941.371
940.578
941.497
937.799
928.306
941.180
932.843
930.187
927.324
926.249
939.874
924.799
938.372
924.884
932.468
927.599
928.744
927.525
932.773
937.261
932.921
924.315
925.178
925.676
925.583
928.700
923.287
932.221
925.185
932.211
928.126
923.549
922.608
933.376
926.876
921.890
929.759
917.441
922.407
918.483
922.231
923.845
916.247
925.246
923.058
921.606
906.601
907.012
919.065
914.691
905.373
900.226
909.374
899.261
900.882
908.022
895.658
905.185
904.019
892.281
903.355
896.610
900.102
901.765
887.931
885.154
888.307
884.571
882.611
884.550
885.784
883.485
886.854
887.750
885.594
874.937
885.554
880.999
874.141
873.641
868.555
866.692
874.020
875.301
867.293
868.599
867.738
872.934
856.544
865.592
858.904
856.164
861.831
858.699
865.174
861.533
857.420
847.714
847.219
847.325
846.659
847.392
841.360
852.907
842.095
838.217
849.729
847.850
847.193
839.427
835.480
838.240
840.641
829.147
825.750
826.620
836.109
835.624
833.699
820.815
831.700
827.148
828.629
821.545
817.316
817.082
820.272
819.222
821.455
811.853
812.416
808.390
805.182
814.359
815.937
808.019
803.168
802.744
802.069
807.363
801.639
806.193
798.869
794.098
799.055
802.841
802.943
801.495
797.862
784.638
790.063
787.778
785.443
793.564
785.099
792.692
779.410
789.516
784.924
785.394
779.601
782.511
773.530
778.260
780.706
772.306
767.013
765.710
766.221
773.016
763.868
760.175
760.008
766.524
767.474
768.074
760.016
765.012
757.312
755.720
756.846
756.964
750.485
758.404
744.033
749.668
741.135
754.257
749.411
744.599
743.554
735.459
746.282
742.088
742.685
744.877
732.939
732.832
735.156
732.755
724.120
729.747
731.016
727.782
732.375
719.630
723.708
728.334
722.884
721.046
717.880
712.831
724.593
723.742
718.850
715.139
718.383
715.460
706.978
705.905
706.900
712.288
698.734
699.651
704.987
697.477
697.962
706.913
701.838
701.660
691.868
697.361
700.516
695.107
696.012
694.653
688.592
694.077
682.400
684.568
683.564
683.269
669.900
674.495
669.815
667.600
670.073
670.285
664.379
658.891
652.090
652.067
652.196
650.274
642.655
646.851
636.379
644.218
639.691
637.170
629.743
630.509
631.036
618.726
622.049
621.749
617.319
613.549
608.019
616.195
612.574
611.737
602.717
603.790
594.145
589.078
596.285
581.633
589.256
583.083
588.851
571.456
583.196
568.781
577.231
563.537
571.039
570.364
561.765
554.864
554.205
554.744
551.606
547.305
541.954
548.377
536.735
540.663
531.068
530.589
527.946
527.400
533.862
526.370
515.318
515.828
516.444
517.022
507.735
508.125
499.289
498.474
508.203
491.945
489.666
500.624
485.169
493.885
483.530
478.746
489.901
481.207
483.955
482.234
476.517
475.767
461.767
466.407
464.012
465.120
459.199
458.879
453.326
445.757
451.789
446.799
446.039
439.779
440.313
441.431
432.022
428.236
434.649
425.461
424.104
424.432
415.546
414.972
409.153
415.022
405.902
397.401
399.965
405.798
389.761
394.570
392.150
391.483
386.264
383.527
380.504
376.818
381.683
368.286
375.704
374.988
364.720
360.295
358.213
359.201
359.065
360.317
347.380
346.302
345.743
345.107
350.850
338.458
340.349
341.790
326.738
324.230
328.626
323.311
324.233
326.618
319.996
318.528
317.833
312.257
314.195
298.018
307.239
307.721
296.157
288.733
291.500
288.608
288.614
281.295
280.874
277.251
277.821
282.013
278.498
265.911
274.353
264.425
264.975
260.840
253.039
261.033
258.139
245.527
244.999
249.726
244.235
233.608
232.444
242.856
237.923
224.624
230.732
226.663
222.414
228.316
210.915
219.630
220.922
210.624
210.128
202.003
199.262
208.713
191.235
202.143
192.316
