361.193
361.459
346.630
342.573
369.677
407.880
402.976
393.148
409.058
395.976
420.821
443.967
463.496
466.959
464.370
454.061
473.733
517.847
159.580
157.664
154.542
155.813
171.402
168.188
174.585
176.850
184.001
174.687
190.447
192.502
185.728
197.270
194.295
193.592
203.243
209.378
199.232
209.265
217.976
210.497
220.953
221.330
226.327
222.658
228.031
235.349
235.208
245.171
240.966
244.961
252.165
251.487
257.547
258.879
251.245
254.784
260.335
265.525
261.391
278.156
277.940
277.735
277.347
281.561
280.561
284.798
287.642
288.248
289.808
303.836
301.220
311.401
305.758
312.777
321.951
320.490
315.160
316.625
328.622
333.490
331.664
329.469
344.501
343.260
349.033
350.368
351.758
351.032
355.717
359.262
354.728
364.635
371.898
376.087
368.032
368.314
372.963
383.307
375.146
386.561
385.535
394.085
390.159
396.962
405.549
395.481
408.647
401.698
410.976
415.634
417.412
413.294
421.684
420.278
428.798
426.632
434.451
429.711
441.550
440.289
452.102
451.668
455.529
446.793
456.596
460.374
457.455
462.858
468.918
464.992
474.603
482.103
485.150
476.143
487.128
486.921
485.797
491.513
490.126
502.870
498.837
502.154
509.186
502.502
520.562
523.575
526.243
518.047
517.665
531.991
537.203
529.228
543.378
531.037
548.028
538.357
548.231
547.807
548.069
558.220
555.559
559.706
569.244
568.597
564.175
569.188
578.309
581.031
573.866
591.029
581.922
587.426
595.952
590.156
606.114
608.662
600.391
605.080
610.260
609.790
616.636
626.207
626.666
623.886
628.766
632.481
628.590
633.692
631.179
645.815
641.379
644.008
657.282
656.613
648.712
651.406
659.985
665.674
673.710
669.334
675.500
668.536
671.139
672.558
679.209
690.958
683.937
692.451
698.319
700.092
702.277
696.574
697.232
709.725
701.754
710.774
704.989
717.640
713.302
723.033
713.921
718.235
727.893
733.061
727.398
731.766
730.837
736.479
738.837
736.251
750.589
744.594
748.231
751.138
757.504
755.987
762.291
754.479
753.624
760.801
762.267
768.847
768.536
766.915
773.657
778.467
772.701
789.906
776.752
779.297
782.117
789.068
789.147
797.869
793.140
806.787
809.716
810.160
811.338
803.143
807.422
810.467
821.114
816.713
816.611
830.216
824.411
828.679
834.941
836.253
829.527
836.026
840.920
840.116
850.351
840.751
852.077
850.823
855.989
861.938
860.824
864.100
862.509
866.812
869.058
871.419
874.746
874.906
878.115
875.204
885.209
888.610
889.628
882.065
890.573
899.978
892.949
902.432
895.552
905.126
908.489
905.838
916.347
918.620
915.264
915.511
923.175
924.232
931.418
927.737
936.148
931.433
934.011
931.282
934.803
935.987
942.011
941.571
955.758
956.965
947.554
949.925
950.398
964.959
965.803
960.473
963.296
965.956
972.582
968.987
968.447
972.537
973.252
982.656
991.919
986.208
989.534
987.773
987.121
990.711
1003.716
1005.771
1000.324
1000.346
1010.665
1013.556
1015.332
1018.215
1017.195
1023.431
1020.714
1019.392
1034.493
1027.293
1032.070
1027.052
1035.788
1043.310
1043.160
1041.783
1045.205
1048.567
1053.918
1057.175
1063.491
1057.199
1054.692
1060.398
1072.853
1067.306
1068.056
1077.272
1079.711
1083.367
1073.941
1082.334
1078.893
1093.981
1091.749
1082.808
1092.344
1091.681
1093.023
1105.469
1100.554
1112.039
1105.579
1116.605
1113.096
1115.217
1118.251
1123.343
1128.831
1126.248
1122.852
1135.900
1135.603
1130.969
1136.498
1133.439
1134.202
1136.251
1140.668
1145.016
1138.032
1140.485
1142.815
1136.097
1142.852
1132.621
1132.004
1139.998
1128.398
1142.512
1132.888
1133.106
1140.889
1132.461
1129.823
1140.995
1140.818
1127.942
1127.404
1133.303
1124.956
1130.551
1136.777
1133.142
1138.406
1122.697
1130.981
1131.851
1123.225
1133.243
1123.257
1126.017
1126.880
1126.484
1122.397
1126.954
1118.989
1124.573
1118.658
1119.458
1119.464
1127.475
1121.938
1130.649
1124.066
1120.020
1116.098
1117.763
1116.644
1125.122
1127.953
1126.223
1126.837
1124.815
1118.718
1121.856
1117.854
1114.400
1117.694
1120.111
1116.084
1112.232
1113.025
1116.859
1115.033
1110.537
1109.529
1120.937
1117.048
1112.347
1121.429
1110.173
1116.692
1114.408
1118.744
1115.088
1105.565
1107.507
1116.043
1107.687
1115.214
1113.903
1106.573
1103.174
1112.045
1110.161
1117.669
1111.695
1107.795
1112.695
1110.956
1115.455
1110.748
1103.472
1104.973
1111.737
1103.990
1107.999
1102.921
1109.670
1098.784
1104.647
1101.170
1103.352
1109.690
1098.831
1100.944
1108.107
1103.858
1102.939
1099.058
1105.316
1102.438
1103.730
1094.224
1107.705
1096.569
1098.192
1101.037
1100.214
1097.970
1105.260
1097.336
1094.306
1101.139
1095.150
1090.050
1101.302
1099.792
1094.353
1087.375
1094.683
1092.639
1101.002
1089.074
1087.521
1090.983
1090.196
1087.764
1092.901
1090.107
1087.357
1085.471
1086.194
1087.078
1082.964
1094.510
1087.849
1084.922
1089.698
1087.476
1090.684
1088.774
1088.526
1090.899
1088.609
1093.464
1081.665
1080.992
1078.914
1078.157
1091.465
1090.967
1085.541
1084.945
1086.990
1085.864
1081.414
1087.111
1083.384
1089.436
1085.518
1081.659
1086.056
1077.253
1073.844
1079.185
1086.483
1085.476
1085.165
1073.509
1080.450
1073.529
1075.943
1073.012
1082.954
1074.379
1078.682
1071.361
1074.176
1074.535
1072.163
1075.647
1071.202
1075.064
1072.960
1076.043
1075.210
1071.206
1062.566
1066.336
1058.114
1061.152
1053.402
1053.405
1046.136
1055.629
1045.823
1039.756
1045.089
1048.027
1045.869
1041.846
1039.991
1025.944
1026.576
1032.716
1025.220
1025.674
1020.744
1018.359
1021.073
1021.589
1015.514
1003.669
1009.529
1003.498
1009.565
998.588
992.275
1000.785
985.276
996.448
992.091
985.536
976.978
987.649
981.703
972.168
971.294
969.296
975.969
969.231
971.517
969.219
958.993
953.068
953.682
951.178
948.903
945.226
949.967
945.748
947.739
933.180
938.637
942.689
930.457
938.229
929.858
922.811
916.320
926.911
919.255
912.683
916.677
905.578
904.005
909.594
911.680
901.738
903.239
894.670
889.632
897.089
896.310
892.113
887.475
888.366
887.975
876.919
873.798
880.208
866.334
876.523
873.465
870.820
860.328
860.938
858.025
854.683
854.688
858.758
851.818
854.076
841.587
848.222
844.810
831.183
837.405
835.676
825.134
835.984
825.073
820.654
830.532
817.385
825.309
817.851
818.098
811.071
803.335
805.248
809.162
795.430
795.993
793.938
799.539
788.970
787.371
789.468
782.941
777.091
773.989
774.429
779.386
779.946
779.552
769.138
760.972
757.910
755.957
761.414
756.089
762.471
760.250
753.390
747.387
747.026
736.834
736.262
745.408
736.191
733.099
738.567
724.995
734.630
730.172
717.852
729.507
714.117
722.585
718.591
709.000
704.786
701.300
713.737
707.074
706.084
700.312
696.059
692.932
694.990
689.532
688.030
688.992
680.153
675.232
681.966
674.149
667.066
668.121
672.754
661.571
665.225
667.437
653.218
659.349
656.157
654.253
644.474
647.092
650.843
650.456
642.364
643.513
630.678
636.883
625.618
623.563
626.065
632.856
628.172
627.543
626.312
617.687
612.667
609.409
610.916
609.293
611.513
618.782
615.667
616.142
623.384
626.737
623.110
622.136
625.156
632.976
634.654
631.687
624.542
627.251
630.192
628.417
634.768
630.330
644.212
640.822
635.327
647.614
638.453
637.381
644.341
649.496
652.978
638.670
640.691
649.188
645.373
646.346
654.259
658.784
646.162
661.086
648.080
664.372
659.281
654.721
654.698
665.592
664.132
663.100
660.751
670.560
666.028
669.197
661.827
671.598
670.345
663.693
665.465
674.468
679.245
672.131
682.013
672.380
672.158
683.379
675.663
682.506
689.839
691.299
685.656
680.525
684.257
680.695
684.386
698.173
692.420
684.974
692.410
689.458
698.109
699.817
705.157
705.597
702.001
701.837
701.356
698.801
698.447
709.459
706.127
701.719
702.701
716.960
709.696
708.403
716.074
718.133
712.045
713.598
716.268
715.063
714.263
722.396
728.222
722.586
724.086
728.785
732.644
719.667
729.920
730.736
736.567
729.380
729.233
734.491
732.855
728.753
740.278
730.482
740.889
741.841
734.569
745.818
745.966
749.254
739.049
747.392
740.461
746.093
740.586
749.268
753.838
746.377
748.666
757.506
747.545
752.062
755.036
756.682
763.954
757.609
753.387
757.227
762.531
757.544
772.295
767.109
760.476
766.433
765.262
768.794
771.629
766.598
772.579
772.577
781.453
771.292
782.029
770.456
787.039
777.095
785.135
789.743
788.203
781.522
778.263
780.496
789.779
795.938
783.451
794.310
792.590
800.576
793.273
796.884
790.230
804.880
790.010
793.931
795.153
797.886
804.192
804.406
812.101
801.094
811.288
808.402
808.473
803.539
804.622
808.142
817.729
807.474
807.640
812.152
810.517
822.882
813.591
826.899
825.160
828.171
818.267
825.712
822.052
819.241
826.462
820.307
819.881
820.219
824.266
832.659
831.557
837.403
832.009
828.383
833.020
839.201
829.876
839.884
831.235
841.774
832.490
842.970
844.546
838.502
841.536
835.936
836.576
845.353
840.697
835.395
842.896
844.386
850.830
842.474
848.711
853.246
840.719
846.007
842.850
850.831
854.025
850.110
846.859
852.003
845.699
846.930
845.614
860.748
857.110
854.432
847.396
850.991
853.208
851.772
860.183
862.746
860.939
854.725
858.198
866.283
856.371
861.188
861.657
869.286
863.261
866.826
869.746
871.365
865.301
861.923
872.591
872.251
871.596
872.723
867.946
876.919
874.840
867.821
876.417
874.942
867.094
881.897
867.206
868.272
880.538
875.047
870.828
873.267
873.927
885.951
883.035
878.258
885.792
879.072
875.037
888.081
890.361
882.102
890.423
890.072
892.826
886.365
894.961
894.667
887.204
889.351
891.709
891.822
888.339
894.032
896.664
894.253
889.509
894.581
899.425
898.413
897.852
904.007
904.262
899.964
903.397
902.141
899.895
899.260
904.827
901.267
898.177
896.963
899.017
899.594
910.687
904.588
904.598
915.204
901.746
907.670
910.015
916.873
911.743
909.830
914.411
917.293
921.279
921.152
918.709
919.234
923.071
923.510
912.417
910.795
920.147
919.326
912.057
916.699
924.567
923.667
921.752
925.921
929.972
916.189
931.050
932.152
919.327
923.828
924.465
930.509
924.951
922.135
933.374
935.130
931.828
939.509
926.447
932.844
933.948
928.938
928.859
937.879
942.114
931.436
942.273
943.937
943.989
940.226
939.345
940.315
946.629
944.623
939.017
940.587
940.780
938.990
941.403
949.335
948.407
944.265
950.780
951.124
947.801
949.153
954.205
945.554
953.149
945.651
940.999
953.351
949.375
937.307
945.574
948.671
943.745
950.081
948.969
947.321
932.649
939.798
942.471
941.210
943.131
935.269
929.590
938.784
931.159
928.039
939.144
929.691
931.838
927.312
924.235
923.476
925.016
930.626
929.253
923.416
932.246
933.049
923.014
917.472
930.210
919.530
924.751
921.118
915.483
919.616
923.712
914.043
913.755
924.490
918.982
920.723
912.969
917.506
915.557
910.870
913.624
915.870
906.208
912.603
903.282
906.796
902.104
906.565
902.528
903.587
905.862
906.129
911.732
904.380
899.251
904.674
897.955
905.345
904.532
899.242
905.513
897.144
897.665
900.701
903.819
891.352
892.592
896.431
889.376
894.978
884.738
890.568
883.062
888.545
890.231
884.155
894.727
885.950
882.708
884.258
892.372
886.712
888.307
889.791
881.919
889.145
874.346
885.430
887.284
879.387
878.889
878.597
876.713
871.943
872.359
877.706
868.222
875.776
879.716
875.788
867.129
867.432
866.851
862.667
872.976
860.688
859.529
868.895
859.198
867.646
867.551
861.929
869.213
854.581
860.247
858.018
862.613
863.647
859.050
863.718
860.324
848.636
857.535
852.685
859.226
846.098
848.915
850.123
856.010
843.322
853.503
843.844
847.425
845.431
855.406
846.222
845.550
852.887
848.549
838.959
846.261
850.357
840.758
840.898
842.952
846.785
843.015
842.601
836.468
831.212
843.505
827.797
840.310
831.188
827.607
826.055
837.936
834.536
837.351
837.672
832.546
836.282
828.064
833.280
834.255
823.500
824.923
829.210
824.505
816.980
824.372
819.399
818.472
815.734
814.371
817.876
821.190
812.940
821.724
822.249
823.245
810.084
806.372
808.665
812.830
806.558
813.861
818.212
816.128
808.418
813.833
816.947
816.925
826.270
815.884
825.367
824.653
826.286
835.397
828.515
832.383
839.404
838.742
834.922
843.205
834.311
835.907
839.595
843.021
848.278
844.608
857.042
845.959
856.924
854.407
860.104
860.834
856.131
859.292
857.215
861.851
864.075
868.340
876.580
862.795
870.379
871.966
869.904
880.407
870.464
885.474
886.265
889.265
891.496
888.408
894.709
883.953
891.700
892.608
895.844
889.068
900.015
891.350
902.771
896.277
906.655
897.035
913.451
913.245
917.154
905.501
906.238
912.798
914.511
916.825
918.286
912.890
918.516
918.541
931.875
929.683
934.384
933.279
936.501
932.867
937.541
938.222
931.347
941.957
938.221
947.190
950.604
949.349
945.340
950.765
942.617
948.058
945.592
948.246
958.110
958.778
966.339
956.253
964.284
964.143
967.865
970.105
969.230
966.209
971.258
973.200
969.603
979.840
976.534
986.816
986.670
988.398
981.159
991.368
982.910
996.133
985.630
991.110
1001.027
1002.134
993.456
1005.006
997.353
997.102
1005.561
1004.898
1004.825
1000.193
1010.532
1011.716
1012.090
1017.446
1009.575
1013.739
1022.190
1012.051
1022.985
1023.391
1026.891
1031.157
1022.437
1036.151
1031.365
1028.222
1033.062
1039.694
1037.187
1033.236
1046.493
1047.904
1040.869
1038.076
1041.867
1050.824
1050.942
1045.767
1053.814
1057.476
1051.242
1051.738
1063.294
1061.761
1063.368
1069.308
1059.459
1066.891
1073.944
1073.064
1065.611
1078.583
1077.586
1072.149
1076.067
1084.527
1083.682
1084.711
1076.066
1078.272
1082.044
1080.997
1096.921
1085.833
1093.133
1098.522
1098.887
1092.404
1105.754
1106.959
1099.332
1108.595
1107.990
1102.353
1105.932
1108.831
1103.615
1105.845
1118.127
1122.509
1125.033
1112.576
1114.297
1120.456
1119.614
1122.361
1125.150
1120.889
1117.181
1117.785
1112.053
1123.844
1114.567
1109.106
1113.067
1115.479
1121.281
1108.759
1117.447
1107.344
1118.086
1106.652
1109.265
1117.980
1111.271
1106.966
1102.779
1101.459
1110.941
1111.895
1104.865
1108.857
1102.623
1103.162
1100.718
1104.895
1104.378
1106.189
1095.339
1105.493
1094.550
1106.127
1101.380
1100.989
1100.578
1094.271
1101.049
1091.444
1101.155
1097.706
1089.871
1095.807
1094.206
1095.253
1092.435
1098.527
1095.405
1092.893
1081.797
1083.707
1088.248
1091.354
1083.115
1091.827
1092.886
1084.813
1087.309
1080.305
1077.797
1079.930
1090.001
1084.487
1084.873
1088.305
1072.287
1082.820
1073.043
1075.747
1078.707
1073.663
1076.981
1074.809
1080.053
1066.557
1075.154
1075.460
1074.223
1069.516
1079.322
1077.013
1064.762
1062.150
1062.123
1067.292
1072.055
1068.679
1073.869
1069.845
1058.198
1059.150
1070.610
1056.947
1062.669
1065.873
1068.095
1056.341
1058.730
1055.367
1057.097
1052.879
1053.711
1055.746
1052.355
1057.817
1059.737
1051.573
1047.246
1054.557
1051.412
1053.469
1046.295
1047.274
1043.909
1046.771
1043.374
1049.232
1052.327
1044.521
1052.545
1048.453
1044.965
1049.973
1048.018
1038.883
1041.912
1050.757
1044.808
1040.924
1046.049
1043.028
1034.902
1033.581
1036.307
1033.967
1034.880
1036.701
1039.080
1035.884
1034.184
1040.551
1029.265
1038.746
1028.211
1031.929
1026.941
1036.362
1029.872
1022.523
1035.474
1023.726
1026.418
1033.517
1022.582
1027.181
1029.807
1020.361
1028.804
1028.835
1030.344
1016.407
1026.871
1018.248
1018.150
1025.339
1015.226
1021.089
1011.206
1020.896
1024.402
1009.889
1010.212
1010.202
1012.362
1014.177
1014.131
1015.048
1020.825
1009.648
1011.170
1009.404
1012.766
1014.166
1006.693
1006.355
1004.569
1011.700
1007.058
1001.899
1010.340
1007.296
1008.787
1011.461
1001.250
1000.536
999.134
1006.534
991.730
1002.089
1001.799
1002.086
988.134
1000.303
997.651
997.168
995.297
991.349
984.104
986.000
985.360
984.695
990.011
989.541
978.802
984.180
986.441
983.200
983.144
973.017
982.039
969.299
972.064
965.728
965.636
963.872
962.207
967.533
966.383
961.530
964.015
954.717
965.461
965.496
966.100
954.533
957.155
958.136
961.605
958.364
959.385
955.424
952.367
952.249
940.223
947.680
946.253
938.909
941.630
947.534
933.434
944.188
936.449
931.241
936.784
928.693
929.486
932.937
932.010
938.698
934.745
927.789
923.158
932.293
930.806
930.738
926.696
919.970
924.022
923.797
913.260
912.495
916.176
913.712
907.257
919.561
910.548
905.060
913.197
911.116
900.749
907.909
912.868
897.610
908.985
907.961
896.275
902.176
896.706
895.861
896.313
902.444
889.989
894.776
893.747
887.826
890.935
881.951
891.196
885.113
883.467
891.025
879.830
881.711
885.950
872.440
877.893
880.983
877.645
876.717
875.183
866.598
871.373
863.080
873.878
865.832
863.193
869.723
870.572
858.089
861.444
853.517
867.440
858.468
851.726
852.293
861.326
847.244
851.999
852.719
845.664
850.575
845.014
852.164
847.715
852.883
840.233
843.520
837.745
833.490
841.902
844.254
842.734
834.661
836.037
838.436
826.444
834.309
826.818
828.537
832.330
827.848
824.623
822.209
816.393
817.383
814.464
828.549
825.504
810.641
814.448
814.048
810.782
814.846
817.369
817.180
806.772
815.305
804.025
810.767
810.542
802.662
809.850
808.721
807.787
797.436
801.901
792.802
792.356
800.507
791.349
795.054
798.549
784.274
783.153
789.171
789.234
788.499
786.097
787.936
785.855
786.165
786.006
777.852
777.157
