644.673
640.563
644.996
648.901
641.831
648.176
646.628
641.764
646.575
650.303
644.710
652.979
654.516
651.022
649.129
648.293
647.370
648.861
663.561
658.602
662.574
659.692
657.597
662.614
667.107
662.526
663.315
665.817
668.903
672.721
658.510
664.077
667.620
668.981
662.636
671.387
665.544
674.935
676.230
666.879
681.874
675.902
681.793
680.201
685.796
677.659
679.888
675.960
685.127
678.061
679.590
681.630
691.965
685.453
687.624
693.947
688.274
685.756
686.150
690.034
699.493
693.724
699.507
691.367
694.584
699.052
692.465
699.555
700.523
697.724
703.199
705.261
698.967
704.018
711.266
697.182
703.852
707.822
704.063
699.718
710.942
703.703
705.619
706.910
710.476
710.449
708.115
712.865
712.203
717.345
709.132
719.212
724.271
724.406
717.429
725.159
719.628
730.779
729.173
724.828
726.400
722.617
732.249
728.218
728.581
737.407
727.769
726.082
734.674
726.607
727.419
736.095
727.718
732.050
732.745
736.640
740.242
738.081
732.767
745.347
735.517
745.991
736.991
744.923
751.843
748.589
749.959
745.352
754.405
754.159
757.001
744.535
756.014
748.140
753.514
753.025
757.945
749.632
757.119
764.441
751.463
757.897
762.308
756.919
759.292
768.027
756.302
759.696
761.485
759.687
761.594
768.815
764.203
773.608
777.272
772.053
770.151
770.097
768.270
776.352
771.258
776.386
782.789
778.358
779.026
773.569
776.563
775.322
790.169
778.380
786.989
777.027
793.412
789.660
795.506
785.554
792.443
795.195
788.184
795.062
791.757
798.151
790.800
791.772
796.137
789.343
795.858
802.753
806.813
802.741
805.959
799.630
796.171
809.725
801.199
803.644
802.033
813.525
802.322
812.110
817.340
808.478
805.849
805.394
815.973
809.579
811.391
804.865
817.297
817.173
805.461
805.471
810.915
814.710
806.843
806.780
815.307
805.727
817.532
816.955
812.074
812.938
818.874
813.098
811.520
819.417
822.678
812.261
811.830
815.544
813.828
807.884
810.605
814.852
819.989
810.236
815.954
815.331
817.455
814.704
813.858
815.960
811.219
813.821
820.306
825.694
817.482
825.443
816.489
812.603
817.686
819.114
816.960
827.501
816.228
822.854
816.895
821.461
818.771
828.553
828.920
828.459
822.536
829.305
828.714
825.647
822.225
821.260
820.200
827.248
821.487
821.518
818.098
818.136
822.082
818.953
820.185
820.968
830.580
832.207
831.537
823.233
825.855
823.737
821.290
832.511
831.929
832.290
824.215
825.314
825.873
822.868
832.124
832.890
834.193
832.672
832.812
822.429
828.676
822.297
824.382
823.968
825.083
824.226
833.267
832.040
831.532
829.671
829.619
837.499
837.420
831.035
832.606
831.780
840.360
831.355
837.222
839.435
836.912
831.911
836.634
836.366
838.080
832.093
834.414
839.221
827.392
841.946
830.829
842.594
831.882
830.995
832.162
831.754
832.831
839.104
831.514
845.411
831.065
843.388
840.490
840.745
838.819
846.722
846.310
839.735
846.522
840.666
838.251
843.743
834.411
833.510
844.668
838.687
833.481
843.531
836.369
843.540
849.508
846.102
837.892
839.273
838.524
842.336
848.076
841.042
836.153
841.158
843.240
843.820
846.547
841.250
839.430
848.946
839.191
848.888
840.001
850.354
847.903
851.986
839.631
853.714
853.120
839.115
846.658
851.650
842.755
842.438
854.295
840.504
844.214
844.607
849.903
851.927
856.768
856.597
852.396
842.919
855.868
855.286
857.484
846.242
856.866
841.905
848.582
849.164
842.847
841.466
839.230
837.680
836.830
849.086
846.599
845.988
839.053
839.914
847.391
838.922
845.386
834.891
842.817
833.157
839.727
835.048
829.348
833.724
829.505
840.891
840.694
832.590
840.022
829.170
825.789
825.200
824.626
826.561
826.642
828.284
830.578
835.609
827.995
827.194
829.254
821.145
830.475
827.709
826.782
819.765
822.574
828.567
813.865
815.526
817.386
817.255
826.249
824.834
815.498
820.986
822.140
814.362
819.917
817.895
818.049
807.714
809.591
815.227
808.636
805.696
811.060
804.800
812.929
816.147
806.117
803.185
803.285
804.663
814.440
812.362
801.226
808.081
800.441
802.628
810.783
795.333
794.333
804.533
808.345
796.762
795.195
798.794
802.466
791.873
794.928
803.611
791.523
791.997
792.494
795.875
796.234
799.476
792.649
789.757
795.968
787.782
787.914
796.592
788.380
782.924
788.299
779.813
792.188
792.999
780.737
788.295
791.939
779.055
776.970
788.830
776.122
783.165
781.939
780.935
784.897
772.004
782.500
775.748
776.860
770.701
771.550
769.146
769.237
774.132
779.069
769.210
774.973
765.170
766.596
776.348
770.745
770.466
775.271
763.809
762.687
761.603
760.337
760.764
769.326
769.198
770.617
765.547
764.164
763.211
764.944
768.274
754.257
761.390
768.332
764.252
753.434
762.386
763.788
754.563
750.281
756.177
752.157
762.191
758.752
758.305
749.712
757.421
749.325
744.763
744.329
752.310
744.961
756.673
740.938
746.155
741.431
741.681
741.810
749.266
742.806
742.518
745.721
740.424
747.611
739.376
742.041
744.023
746.434
732.421
737.680
744.633
739.052
734.242
732.974
731.271
741.047
736.832
730.879
736.375
734.724
736.058
735.455
738.487
733.915
734.756
748.231
748.512
744.679
746.848
747.988
740.295
741.856
753.905
751.632
747.939
744.286
759.178
756.801
756.909
748.023
759.235
754.929
763.728
763.273
764.307
763.209
764.756
770.101
758.178
768.549
759.631
774.325
764.268
770.284
774.976
772.376
773.676
771.845
770.036
782.513
782.595
783.560
776.608
774.750
782.117
777.090
785.305
781.595
780.661
779.987
781.889
790.873
788.977
795.108
783.283
792.975
797.392
796.653
795.559
795.882
800.266
797.015
794.420
802.379
798.575
803.833
801.485
802.772
804.020
804.076
805.263
800.162
803.792
805.535
808.897
817.015
812.808
810.077
812.960
815.512
814.884
810.129
817.115
823.714
818.045
821.982
816.498
818.798
826.801
825.009
826.988
831.312
823.193
826.941
827.133
835.615
826.027
836.637
824.250
833.099
835.159
839.791
828.343
841.204
837.238
842.751
834.047
832.348
848.158
846.669
847.823
835.462
842.737
850.778
838.734
847.564
853.436
845.408
854.399
848.603
856.603
848.382
849.062
856.592
858.026
859.415
856.610
861.661
865.744
854.069
853.647
859.748
865.810
856.080
861.597
860.998
872.947
867.872
868.292
876.521
872.380
864.205
873.652
871.585
877.544
880.720
872.222
884.348
872.586
880.443
883.315
879.200
879.375
885.757
883.714
887.220
881.149
879.168
879.810
896.188
887.758
887.927
891.297
899.966
901.176
887.894
892.771
899.287
901.985
905.241
901.860
897.961
900.875
898.320
908.067
907.391
909.243
902.484
899.021
901.779
904.826
905.442
902.842
911.189
912.228
909.259
915.739
908.805
913.565
914.276
919.388
914.454
916.763
916.978
923.159
929.624
917.814
921.201
926.122
926.700
925.750
929.218
916.292
920.880
921.939
925.834
914.316
921.606
928.497
917.903
916.992
921.575
923.400
920.713
919.327
917.247
918.718
919.410
912.774
913.102
911.857
915.128
916.133
917.462
915.464
910.446
922.108
921.977
911.596
920.274
912.928
917.136
905.398
908.430
915.876
907.468
918.741
908.881
917.615
902.548
914.439
909.991
913.803
905.443
904.991
901.521
909.883
907.617
909.550
903.305
913.577
908.327
913.325
903.022
905.553
897.376
911.852
897.668
906.445
898.517
899.159
904.444
901.037
896.721
907.983
902.304
909.032
906.227
896.616
900.789
896.780
896.015
903.380
899.549
903.343
894.482
905.325
903.507
896.051
892.247
889.056
896.290
902.182
896.082
891.505
896.889
890.188
886.658
896.863
886.684
888.290
895.529
889.656
894.414
893.957
886.690
890.842
886.894
887.687
886.633
882.919
894.276
889.955
886.247
891.249
894.662
892.633
891.228
884.823
884.188
885.244
893.098
889.698
881.042
882.914
885.422
885.182
877.647
880.172
885.039
883.693
889.901
879.858
880.984
887.018
878.401
886.639
876.306
882.730
877.820
886.895
884.564
883.515
884.257
877.546
878.168
881.513
875.897
877.549
870.838
877.734
872.408
871.334
874.631
875.066
875.307
875.130
866.356
872.892
864.879
874.871
864.421
878.043
864.886
872.439
866.207
862.860
862.270
874.142
861.675
873.055
873.160
875.042
870.138
874.774
875.178
861.347
862.996
858.572
864.574
865.082
872.694
871.068
862.356
872.015
859.147
856.144
868.330
855.678
860.956
865.279
867.332
854.433
859.659
865.127
866.253
862.716
866.371
864.194
851.769
851.112
858.228
864.662
864.023
855.117
850.096
852.525
852.919
851.747
860.511
857.673
857.186
851.729
848.043
854.344
851.602
847.383
853.008
842.598
845.013
843.549
843.409
846.571
849.520
833.492
845.016
846.115
832.828
842.751
836.950
839.384
831.259
833.014
829.553
836.255
823.775
828.673
836.242
834.254
833.429
830.441
830.871
821.384
831.383
821.089
824.873
820.909
820.357
822.397
823.183
819.234
825.159
822.955
821.101
811.630
815.303
808.483
810.600
804.168
805.959
814.234
813.157
808.317
811.841
809.681
803.269
798.710
795.627
803.866
800.026
793.556
793.109
790.748
795.623
795.707
794.172
788.299
797.228
799.334
786.576
796.529
791.621
794.794
788.483
791.882
789.703
792.260
786.999
789.195
776.268
780.854
783.449
773.879
786.621
779.118
778.419
784.233
782.479
768.201
766.767
777.172
768.656
772.655
777.783
771.006
769.960
771.707
767.276
768.321
765.554
764.697
761.811
767.980
758.917
760.248
766.618
758.420
751.619
764.294
753.355
762.275
754.772
759.101
749.540
759.245
752.958
751.179
756.038
750.175
747.594
745.142
749.399
742.650
742.307
738.392
738.686
739.534
744.693
743.408
739.236
739.084
744.840
731.625
732.034
734.275
726.594
736.319
731.015
724.567
728.427
733.101
726.869
724.362
733.120
731.986
732.258
723.702
727.896
714.460
725.670
718.807
719.237
723.683
725.189
712.821
709.705
712.107
709.023
713.944
717.272
709.654
706.559
711.409
707.904
708.118
711.266
711.960
702.597
709.513
695.460
706.640
696.082
703.814
706.896
694.569
691.895
689.141
690.963
692.040
699.943
693.338
696.166
689.207
685.216
691.856
691.554
686.071
693.810
683.926
681.465
677.344
690.627
677.735
674.481
677.929
684.895
676.903
675.871
673.205
684.527
685.183
686.763
684.810
689.085
682.488
679.822
687.000
689.154
695.935
689.774
694.665
692.056
694.970
698.977
695.919
694.115
690.860
697.658
703.232
704.072
695.679
698.521
705.849
695.526
697.482
707.242
702.483
698.504
707.872
700.948
714.976
712.984
716.860
710.379
716.868
717.560
716.373
722.763
715.438
712.994
712.996
718.544
726.895
722.297
727.256
729.411
725.012
725.806
722.716
732.155
720.834
724.949
722.979
734.230
732.777
733.818
732.820
736.366
731.386
738.142
731.404
735.964
744.986
742.572
742.821
734.639
748.052
738.187
747.267
739.006
753.173
739.564
755.898
746.812
748.916
752.787
750.495
759.463
756.886
761.647
760.586
759.939
759.765
761.159
763.141
765.006
767.144
765.957
762.984
762.835
757.564
762.723
772.590
762.316
770.549
766.300
768.554
774.978
777.229
772.077
767.316
780.656
768.523
779.635
773.074
773.409
773.075
783.191
776.951
775.591
790.064
791.237
778.174
793.730
789.360
783.364
791.342
791.651
784.109
787.317
798.525
792.260
790.408
802.229
796.585
800.032
800.667
795.584
798.432
805.677
804.272
797.712
806.140
812.127
802.166
801.124
811.476
806.491
807.646
802.752
815.639
810.492
812.436
813.248
821.021
812.582
822.029
818.224
817.446
815.401
815.386
816.454
821.724
817.266
829.733
824.348
828.414
827.198
833.152
822.104
829.186
829.220
829.917
836.610
828.368
833.483
834.313
843.551
838.627
835.980
843.921
838.575
837.921
847.479
849.535
849.927
845.379
849.529
844.635
842.914
841.343
854.958
845.547
845.671
847.703
852.460
856.522
856.727
855.489
849.470
859.690
856.845
866.986
853.938
863.730
854.292
863.622
871.511
862.861
864.115
875.792
876.653
866.623
872.929
876.295
873.955
870.001
870.334
886.836
879.724
876.959
886.026
881.801
881.336
885.751
895.602
890.178
891.945
891.219
894.503
892.046
896.907
905.970
895.772
908.432
904.097
897.604
898.472
902.560
912.738
904.421
915.819
904.502
911.178
907.803
909.818
912.302
912.428
925.332
929.548
922.256
927.664
924.729
920.811
925.497
934.791
925.843
930.512
936.025
935.800
938.579
939.875
945.781
944.099
942.135
947.254
942.523
939.619
954.946
950.781
943.311
945.856
952.850
956.450
953.872
952.964
959.491
963.201
964.263
965.399
969.539
957.862
974.482
967.266
962.005
967.476
966.140
975.990
977.790
975.632
973.762
973.176
986.684
979.138
981.779
982.815
988.908
983.948
989.109
984.650
997.121
997.596
996.334
994.428
1003.571
1000.409
997.436
1002.598
996.821
1010.946
997.486
1003.682
1012.153
1013.781
1005.506
1004.595
1015.462
1008.242
1018.536
1009.898
1017.399
1026.566
1019.916
1026.238
1024.285
1019.463
1027.051
1027.222
1029.433
1032.392
1030.804
1030.206
1038.005
1037.323
1038.885
1046.181
1039.174
1046.803
1038.808
1049.621
1045.192
1044.093
1041.813
1047.572
1055.008
1057.202
1047.441
1050.470
1052.056
1066.204
1052.267
1057.358
1057.632
1060.794
1066.266
1061.606
1064.726
1065.996
1076.671
1075.243
1070.249
1072.800
1070.949
1074.508
1076.502
1083.355
1087.439
1079.291
1089.543
1088.405
1083.411
1085.290
1095.092
1085.725
1085.834
1088.785
1102.766
1102.054
1105.802
1100.969
1105.821
1104.871
1104.854
1111.078
1101.798
1110.264
1115.510
1103.132
1109.945
1114.518
1122.387
1118.446
1122.328
1121.336
1124.216
1128.964
1119.463
1132.078
1122.440
1131.408
1133.947
1124.590
1127.070
1134.383
1141.000
1133.897
1131.241
1132.780
1130.059
1133.921
1136.658
1125.766
1133.563
1124.705
1124.165
1135.823
1122.871
1130.282
1125.729
1130.057
1116.612
1127.128
1126.217
1123.835
1127.135
1124.271
1115.651
1109.340
1107.773
1116.841
1111.644
1112.898
1118.242
1106.333
1116.081
1105.029
1109.263
1104.792
1105.873
1106.059
1098.433
1106.332
1101.890
1092.835
1102.864
1104.078
1097.097
1089.615
1085.609
1089.967
1092.716
1093.046
1096.866
1095.377
1079.743
1080.632
1091.258
1079.626
1087.603
1085.060
1076.317
1071.415
1070.681
1077.716
1077.755
1077.157
1079.124
1068.228
1068.764
1070.925
1067.426
1061.047
1060.380
1058.764
1070.296
1065.218
1068.199
1067.066
1056.634
1062.678
1062.280
1058.915
1055.120
1057.843
1049.937
1046.971
1048.243
1044.622
1046.643
1048.454
1050.556
1047.243
1046.373
1043.428
1042.037
1047.159
1048.503
1033.380
1033.152
1031.785
1041.315
1028.271
1030.464
1026.930
1024.618
1038.610
1034.317
1025.379
1033.025
1027.001
1019.743
1023.783
1019.800
1014.886
1017.668
1017.901
1027.088
1023.200
1018.338
1023.991
1022.842
1017.118
1012.884
1007.198
1014.353
1004.325
1015.418
1015.354
1013.162
1012.200
1001.653
1004.369
1005.797
1003.539
998.375
1001.771
990.314
996.408
999.247
989.806
999.961
992.103
988.856
985.472
983.939
987.622
992.129
982.476
987.385
980.881
983.398
988.328
984.072
975.177
979.865
974.360
970.837
979.812
969.135
970.946
976.879
971.161
965.894
976.188
962.319
970.610
961.950
960.929
965.491
970.037
968.227
965.306
959.161
951.589
949.833
952.847
952.160
949.332
946.436
947.861
957.613
949.707
947.904
953.972
942.875
941.091
941.912
949.053
933.860
942.657
935.521
930.865
935.824
931.698
936.029
938.515
934.785
933.192
931.829
924.374
926.268
919.383
918.472
931.687
926.641
923.183
914.743
916.431
925.415
907.825
910.737
904.621
904.860
897.280
897.741
903.007
893.273
894.493
880.475
885.943
885.050
872.301
868.116
873.954
863.513
860.537
866.365
860.393
857.872
848.433
841.213
848.472
836.473
839.550
835.971
832.779
826.974
826.029
822.716
824.519
812.083
818.535
817.174
813.768
802.049
802.797
805.410
796.445
800.901
797.048
784.546
777.255
772.783
774.354
775.407
777.301
767.004
764.496
757.728
759.288
759.510
747.359
754.509
750.083
740.707
747.363
734.579
741.008
732.621
721.784
717.684
717.932
726.002
710.908
713.109
706.024
710.571
702.030
701.505
703.435
699.357
691.719
690.809
688.085
687.531
675.978
680.915
667.417
674.113
662.360
656.684
659.908
653.895
647.590
647.211
640.851
643.085
637.152
635.868
636.666
637.939
623.974
625.666
620.153
614.031
615.165
615.442
603.451
598.806
601.168
605.112
593.041
591.817
582.614
589.982
578.043
579.050
584.592
566.804
569.328
573.608
561.492
564.221
562.705
553.042
545.789
541.873
552.255
536.777
544.616
538.462
532.431
524.695
530.635
523.020
517.735
517.842
508.620
516.629
510.241
500.473
501.777
503.135
499.504
493.567
496.112
482.787
486.653
482.254
473.747
473.676
478.140
470.613
471.498
465.803
466.989
453.640
447.090
447.245
452.553
438.023
433.333
433.313
432.223
429.181
428.504
428.494
424.200
419.497
419.869
419.654
415.107
399.584
398.680
404.672
401.385
390.164
393.357
387.299
384.878
383.360
384.659
375.812
365.351
362.259
359.272
367.667
365.909
357.383
356.261
343.114
343.822
350.138
334.101
330.787
328.234
336.133
333.960
324.276
320.070
321.113
322.233
315.945
314.138
313.025
307.716
297.371
