332.269
333.958
335.068
324.737
329.833
332.771
338.971
330.370
334.579
332.954
340.650
346.914
333.596
343.822
348.829
351.576
337.226
345.635
340.439
348.764
354.327
345.032
344.151
355.660
347.463
359.860
356.449
356.136
355.303
351.051
354.461
356.587
363.284
366.628
358.748
366.808
362.322
366.155
374.971
373.573
370.062
376.859
365.679
377.899
377.905
368.680
381.464
384.329
379.386
370.761
379.840
377.942
385.111
379.443
391.715
392.776
386.660
387.414
393.382
393.711
391.148
393.426
387.142
395.128
394.355
393.776
400.700
390.952
404.599
395.957
405.099
408.918
399.806
405.252
408.613
405.188
409.955
411.874
411.036
416.398
418.468
419.000
415.700
420.132
414.888
419.341
408.966
423.340
419.520
416.684
421.768
426.039
427.613
417.660
432.563
431.326
420.116
435.230
424.873
437.659
428.206
431.505
430.485
431.988
433.885
437.245
437.898
445.261
433.864
433.030
433.661
449.955
445.523
443.283
448.832
448.125
442.477
441.548
445.590
442.918
458.560
459.756
448.267
457.833
460.888
457.337
453.644
451.657
462.692
463.979
461.557
460.092
462.954
471.366
470.627
464.722
470.831
475.120
467.601
467.196
479.157
479.660
477.291
482.288
468.762
484.088
474.330
476.390
480.442
475.158
489.906
484.437
488.772
479.058
491.526
481.174
490.535
487.317
488.892
484.411
499.959
486.797
495.384
500.521
491.533
493.701
503.188
505.100
493.180
498.692
504.514
497.819
510.387
508.022
512.120
500.433
514.212
505.302
514.916
508.396
508.477
516.164
517.241
523.592
523.858
513.965
512.518
520.029
521.398
519.348
517.465
522.473
527.870
527.935
527.992
529.100
525.821
527.960
527.520
532.037
538.853
533.591
536.011
536.629
541.369
544.756
536.787
533.458
536.748
547.811
542.536
542.465
547.723
539.330
553.352
549.187
543.870
552.296
557.418
546.292
560.268
550.494
550.248
559.942
560.208
550.973
565.907
554.984
563.402
568.544
558.451
563.490
568.836
573.126
573.781
566.135
570.273
563.671
566.251
566.634
578.461
573.462
571.408
576.410
576.833
582.046
579.430
581.220
581.464
588.091
589.616
579.692
587.688
587.235
591.330
592.280
585.373
583.911
596.576
597.666
589.973
599.285
587.238
596.577
590.499
600.994
604.885
593.835
593.810
599.206
595.428
600.986
607.115
610.181
613.222
607.331
614.197
605.498
614.439
616.320
618.423
615.085
617.588
607.682
616.889
622.878
612.636
613.969
613.357
625.627
617.048
619.446
624.128
619.400
626.365
620.552
628.505
619.686
632.550
634.179
637.421
633.878
639.796
640.480
642.068
630.232
637.940
645.207
633.752
634.721
635.360
641.752
639.226
648.316
647.885
643.815
642.723
649.343
643.522
645.873
649.048
657.103
645.477
655.662
660.068
661.992
655.038
651.029
659.811
653.250
663.052
658.024
656.194
655.793
670.577
666.974
660.024
663.740
673.526
661.461
663.674
676.437
671.100
673.617
672.278
677.399
678.901
677.950
674.467
672.105
679.019
680.652
674.469
676.292
683.229
687.875
679.611
684.052
680.891
687.752
688.118
696.579
698.337
696.055
685.141
695.405
697.091
689.162
693.755
701.319
702.110
704.878
694.791
703.690
700.505
710.626
711.403
705.842
701.786
702.210
715.482
706.713
705.256
709.611
717.061
709.905
712.789
722.307
709.140
719.530
712.178
717.539
713.004
727.422
722.521
726.756
727.132
719.922
724.780
723.932
726.122
727.112
727.785
735.969
720.772
723.886
722.808
731.816
727.797
734.730
738.075
727.450
732.344
735.695
732.773
724.875
731.143
728.283
734.336
725.493
740.931
736.352
735.754
732.668
733.610
735.060
734.676
731.663
743.408
730.958
741.425
733.941
741.452
739.382
733.781
744.081
739.095
733.350
741.296
745.138
746.470
737.372
747.975
739.903
741.635
740.951
734.486
745.686
734.796
742.334
745.732
741.147
741.993
747.089
750.355
751.461
749.490
739.540
738.080
741.527
753.016
753.337
743.922
753.236
741.266
750.644
755.402
746.010
751.120
746.145
751.914
755.956
751.244
753.920
755.157
748.868
746.497
759.172
749.823
750.747
755.398
754.888
747.499
746.907
752.620
751.835
753.228
750.047
752.673
759.536
763.391
749.535
762.549
760.314
760.491
755.756
752.510
757.854
759.664
763.801
752.699
752.449
763.727
768.400
758.394
768.981
767.757
755.211
766.988
755.360
765.581
767.167
756.678
764.874
761.400
763.535
764.920
764.260
763.033
761.547
771.431
767.852
759.363
762.601
764.218
769.497
775.484
767.055
762.334
767.628
770.288
762.881
762.623
773.492
768.609
775.081
764.454
765.367
779.639
776.979
773.631
766.403
779.269
766.649
774.529
779.646
766.588
780.193
767.505
767.564
779.163
772.488
774.027
774.217
772.121
773.289
775.406
778.705
778.718
777.442
771.891
783.374
783.997
783.102
776.228
773.180
779.842
775.974
780.816
777.234
774.512
778.419
788.984
786.139
775.761
778.788
791.778
785.383
779.382
789.981
792.607
785.180
784.047
790.074
789.775
786.399
794.555
789.123
780.242
794.683
795.326
795.704
787.447
787.023
790.346
787.569
795.685
788.501
794.715
788.892
783.864
785.113
787.868
786.291
790.748
797.941
787.469
787.942
803.010
790.823
793.872
797.586
799.226
796.593
798.748
791.476
790.940
793.900
796.798
794.949
792.983
802.563
803.829
802.729
797.598
801.898
796.757
808.246
797.007
802.819
810.076
802.648
812.236
799.148
799.207
805.970
815.224
806.234
807.961
811.190
804.320
804.922
806.849
810.457
813.437
811.669
803.691
808.622
818.220
817.515
810.321
806.612
821.985
807.813
808.842
815.724
821.148
816.161
824.332
824.967
824.737
816.912
826.235
814.503
818.514
827.253
823.809
822.966
822.256
818.457
818.299
814.445
828.017
828.367
816.423
820.429
820.451
820.290
820.211
828.138
823.325
822.765
824.087
833.668
830.718
826.062
831.734
827.757
830.785
828.184
828.250
831.699
830.491
824.774
829.261
830.939
839.634
833.649
829.057
839.955
838.871
840.133
831.891
840.788
835.966
843.504
833.533
837.642
837.228
831.026
842.433
834.706
835.926
844.510
838.472
842.255
849.669
849.819
841.246
850.384
845.866
839.080
844.062
848.075
839.354
847.163
840.230
847.301
852.712
848.525
841.371
847.651
856.134
846.079
852.318
846.780
850.531
851.979
848.773
845.747
850.797
847.144
859.307
849.410
858.254
846.304
859.630
859.007
858.464
848.731
852.580
854.134
860.507
864.021
859.183
857.890
858.378
854.876
866.941
865.290
859.546
865.741
864.189
867.988
862.330
862.737
858.561
863.024
864.727
859.963
857.293
871.000
864.684
871.495
869.591
865.426
864.830
870.085
862.568
873.366
872.454
872.716
873.426
871.543
868.403
878.062
870.263
869.508
880.593
872.297
875.371
867.920
881.597
872.884
878.007
868.483
872.404
872.703
874.091
873.397
878.102
873.748
881.253
883.892
870.255
884.379
872.414
878.920
876.729
873.406
884.208
874.289
881.819
872.205
878.897
867.826
875.866
878.894
872.563
879.451
876.702
873.711
874.488
880.688
878.076
876.064
875.303
874.592
877.332
873.007
874.820
870.135
869.001
866.816
872.387
866.055
867.653
867.709
864.014
867.140
878.345
876.721
876.947
876.007
863.056
876.568
878.029
876.502
875.406
867.083
863.038
871.395
862.425
873.006
872.904
874.403
865.601
872.141
871.501
862.461
868.138
864.230
862.431
861.420
864.014
863.270
864.098
875.298
864.894
861.431
868.209
866.554
862.003
865.451
863.871
869.963
864.997
862.432
862.576
867.121
858.286
864.296
866.044
871.315
859.477
861.908
859.911
871.761
863.683
867.871
862.606
863.623
867.492
856.090
857.893
869.705
862.554
855.459
857.699
858.276
866.501
855.476
860.820
861.841
868.591
861.238
861.379
856.314
859.329
855.188
854.223
860.078
853.311
864.019
855.580
857.937
862.731
855.917
852.031
851.623
857.242
860.775
864.143
854.998
863.533
861.579
860.945
863.877
854.719
864.062
852.976
853.553
856.522
861.015
863.796
853.634
851.863
864.073
856.662
855.205
862.957
848.617
848.839
847.776
860.323
851.046
849.998
856.960
859.239
848.776
848.760
861.334
854.785
850.539
861.120
853.815
852.394
853.184
854.808
853.391
846.471
846.511
859.516
847.207
848.919
858.540
856.212
852.067
848.581
848.561
858.345
843.093
844.902
854.716
852.279
850.791
847.102
844.667
842.696
846.574
845.811
855.357
845.842
846.153
852.328
843.015
855.805
853.071
844.778
852.075
853.340
850.938
855.452
852.449
841.391
842.868
845.047
851.938
841.221
850.107
843.693
838.721
842.466
845.017
849.622
837.595
845.115
850.228
844.614
836.165
850.935
840.784
836.026
846.645
846.562
846.420
835.751
835.642
836.346
839.617
843.928
846.650
840.795
842.838
833.906
834.385
845.280
831.805
832.007
830.140
832.910
837.077
840.855
834.473
842.062
831.597
832.851
842.336
829.144
843.078
841.543
830.952
840.249
825.972
837.107
830.110
825.191
838.999
831.245
834.534
831.163
838.478
837.742
824.486
825.649
838.200
837.434
836.058
825.502
826.357
830.919
833.461
830.638
827.247
823.601
829.874
830.031
823.275
823.967
822.905
832.215
828.004
822.337
826.750
816.829
829.230
827.675
831.839
816.391
815.811
827.015
816.616
817.841
819.495
827.842
817.693
814.354
824.339
822.700
823.687
814.033
814.707
815.614
820.868
816.365
824.100
813.968
810.227
819.016
825.337
820.158
814.611
821.964
808.711
808.639
808.247
808.880
813.176
811.728
811.490
807.947
816.946
816.286
820.298
814.214
812.008
817.741
816.268
810.911
808.970
805.065
807.381
815.614
808.812
808.077
812.099
802.638
806.909
808.507
816.684
808.664
813.583
809.214
813.423
810.819
811.115
810.226
805.940
811.409
798.045
806.661
799.202
798.635
802.821
808.835
797.591
800.785
801.622
802.786
807.826
800.086
808.825
805.044
794.546
797.679
800.376
794.056
807.799
807.815
804.085
805.553
800.690
793.626
800.147
791.034
802.623
803.899
795.275
805.153
803.125
801.288
794.749
791.432
791.145
803.369
794.120
787.803
793.178
794.537
791.560
796.605
799.367
792.076
799.012
793.098
799.015
785.921
790.084
785.191
786.350
794.491
789.591
797.750
794.810
795.725
784.493
784.532
792.642
789.425
787.445
784.642
785.848
794.306
790.445
791.766
783.344
784.928
786.585
782.691
779.870
779.987
786.344
781.167
780.619
776.653
769.092
782.135
782.790
773.997
774.735
777.674
766.092
774.583
765.979
767.341
763.507
760.285
765.775
762.608
759.931
768.376
761.819
760.292
764.873
764.743
763.569
760.334
767.450
763.976
762.121
752.090
753.940
748.148
758.998
747.651
751.239
759.780
751.875
754.757
753.488
745.178
743.272
744.100
745.936
749.897
741.812
741.877
750.255
751.601
745.374
747.883
745.270
738.672
738.794
738.888
741.650
734.149
738.633
734.751
741.262
734.140
741.296
734.918
727.910
731.060
729.206
723.310
724.227
735.303
728.867
722.436
733.717
732.026
724.095
730.843
730.157
714.711
714.539
719.307
727.052
712.181
725.114
711.491
723.855
723.623
713.703
709.405
720.698
711.822
712.114
704.153
711.371
709.688
708.425
708.849
713.411
701.577
704.403
705.238
711.951
702.593
710.853
703.902
696.190
703.370
707.837
698.947
693.519
704.530
690.131
703.654
690.385
696.147
693.548
692.631
686.157
698.189
698.313
683.512
697.390
687.063
688.645
682.636
693.203
677.830
691.637
678.593
675.440
684.847
680.331
680.112
675.307
684.046
679.565
675.196
674.822
670.587
670.926
681.033
668.790
674.029
675.449
672.270
678.797
664.360
675.904
676.310
672.533
674.404
666.473
669.452
668.599
669.748
671.225
665.586
669.630
663.640
657.369
659.086
660.735
659.190
651.547
657.480
655.402
657.076
651.318
645.748
657.139
653.760
652.095
648.156
656.736
643.681
646.601
651.754
650.933
642.642
643.462
646.767
644.069
650.897
634.899
636.021
638.343
639.127
637.084
641.501
639.845
631.696
641.285
629.643
638.741
627.456
630.301
637.583
629.020
635.351
632.691
633.607
627.099
631.698
635.561
640.840
628.305
629.144
628.819
641.539
626.051
626.116
637.070
634.709
634.429
634.358
634.480
635.253
641.116
639.245
631.710
634.582
629.716
640.587
640.576
627.489
637.821
634.422
627.624
637.748
631.007
630.300
639.541
639.792
637.076
634.745
638.437
625.006
639.133
639.000
632.272
625.874
627.034
638.971
627.092
637.441
624.399
634.309
626.919
622.622
629.802
637.678
637.393
623.243
634.846
622.707
629.062
636.487
631.903
625.774
633.894
637.316
629.580
634.524
630.077
629.157
635.604
634.991
631.713
623.875
630.806
634.096
621.847
623.151
625.784
630.143
622.311
620.012
632.800
628.072
626.105
627.432
625.422
626.308
623.424
626.751
631.829
628.043
621.711
633.802
625.522
618.859
620.058
630.789
627.323
621.723
634.258
633.177
621.413
628.000
624.607
622.512
628.403
630.044
624.751
622.036
627.824
620.788
619.513
631.264
624.838
617.446
631.504
618.854
632.464
621.754
622.920
620.731
628.197
616.756
620.156
620.515
627.784
626.177
628.708
621.172
626.278
624.325
618.216
623.951
620.855
616.126
619.808
628.560
629.518
623.020
626.451
622.954
617.134
627.685
623.715
622.787
625.495
625.828
624.614
620.240
625.568
617.314
627.962
627.578
617.656
620.677
618.461
615.270
614.192
627.451
616.667
628.903
622.331
627.254
615.694
618.224
622.166
620.052
613.927
617.367
617.975
618.855
616.543
624.330
620.309
623.014
626.053
617.385
621.220
615.140
614.229
626.636
614.982
615.527
621.138
623.099
623.831
620.466
622.349
615.410
615.299
623.153
612.825
616.166
615.351
616.784
617.053
611.480
614.862
620.191
622.367
623.826
620.825
627.296
628.664
629.746
635.322
635.815
639.749
636.601
637.761
631.416
631.783
637.839
647.065
640.724
641.830
644.388
650.983
648.895
642.809
643.479
648.536
648.952
650.913
651.791
652.316
663.648
651.888
658.558
655.596
654.891
665.312
664.536
671.172
668.802
663.329
672.526
676.571
669.557
675.712
673.583
672.530
684.000
678.147
685.231
680.812
675.713
678.635
683.282
683.181
683.737
695.891
694.806
698.260
698.397
700.030
693.389
699.552
695.026
693.366
701.921
696.784
706.116
712.138
704.166
708.135
712.536
715.766
716.874
717.067
706.832
721.676
724.114
717.764
720.840
726.480
723.730
719.669
724.216
722.826
724.194
733.944
724.323
728.231
730.549
729.588
730.902
740.220
732.023
735.159
738.032
740.659
748.863
743.336
749.425
750.567
749.846
753.926
753.327
753.932
746.333
757.300
755.914
755.265
763.906
758.774
754.072
769.960
764.428
768.397
775.025
764.745
762.483
778.084
779.568
765.679
777.868
773.761
783.892
774.471
775.712
786.275
789.636
785.034
784.099
789.799
783.099
795.163
783.363
799.750
792.925
798.180
800.083
795.095
800.469
794.133
802.147
808.197
798.882
809.337
804.934
809.723
805.249
812.822
811.871
820.688
811.199
816.796
823.919
818.698
821.821
819.594
818.509
829.389
824.719
825.039
824.224
824.292
823.639
824.082
833.789
832.473
834.466
840.007
839.080
838.721
832.696
838.422
850.683
845.444
845.520
846.663
848.335
854.410
858.187
854.426
859.551
852.040
850.077
854.804
864.591
857.077
867.845
864.709
869.979
864.129
861.816
861.423
862.880
875.983
874.127
880.120
875.171
868.967
871.608
877.469
880.374
886.490
871.861
884.997
869.192
877.839
877.563
881.067
877.460
871.493
867.642
877.567
867.901
867.024
873.643
861.072
869.193
864.372
864.064
869.623
858.300
869.634
862.867
858.255
853.277
866.140
854.320
852.608
855.508
847.474
860.216
848.974
847.303
850.658
848.247
843.294
844.656
854.736
844.911
850.643
844.219
852.207
838.667
849.822
837.785
844.776
837.756
836.533
832.195
840.594
836.369
836.349
828.095
835.558
828.107
830.716
833.195
823.844
833.515
824.201
829.399
831.049
827.694
823.141
826.362
819.403
816.502
822.921
814.606
816.219
816.494
825.946
820.158
817.171
821.321
821.455
815.833
820.024
819.879
810.585
812.369
818.588
809.171
815.813
804.403
808.085
806.778
803.666
802.765
802.271
797.445
801.918
806.913
808.522
797.383
792.366
804.540
802.754
796.240
787.865
797.888
789.397
796.618
793.271
796.975
796.571
783.038
792.485
793.423
792.935
788.166
779.245
791.362
786.688
777.566
789.263
777.500
776.325
783.267
778.838
774.129
774.306
779.472
774.002
768.626
780.485
766.732
777.407
771.145
772.747
764.353
768.007
773.954
760.828
767.509
772.355
756.223
762.174
759.291
769.317
765.279
767.547
751.522
757.064
752.742
754.915
755.452
751.143
759.528
750.844
748.790
752.840
757.194
754.764
741.594
754.120
742.991
742.630
742.234
747.518
746.095
745.277
741.052
739.559
743.119
744.550
731.881
738.610
734.477
741.969
729.213
736.593
734.748
727.663
724.318
736.951
724.055
722.823
731.371
731.986
725.447
727.865
732.077
717.754
724.448
723.260
720.732
720.023
720.777
722.549
715.557
709.395
723.117
719.571
710.897
711.229
710.898
704.554
710.270
708.923
