217.115
224.763
221.461
217.621
232.681
234.524
221.698
231.934
231.815
240.581
235.129
241.370
238.390
235.234
241.706
249.314
236.686
245.396
247.683
248.104
247.010
244.974
247.505
249.665
254.953
250.331
261.869
265.061
255.651
268.380
262.389
262.583
257.138
264.389
271.351
274.741
274.082
269.560
277.259
281.921
269.975
272.684
276.542
283.566
288.873
290.285
288.855
291.431
286.432
285.427
286.179
286.748
295.418
293.376
300.478
292.303
305.166
299.452
296.805
306.720
301.517
311.088
299.444
305.500
315.446
315.481
309.945
320.005
307.221
313.662
311.712
324.629
325.859
317.521
316.185
324.825
331.385
328.570
328.387
337.510
325.841
326.003
326.640
342.315
338.381
332.740
334.687
346.752
346.987
337.301
345.604
354.295
340.322
350.193
356.122
358.025
354.914
354.479
348.537
351.582
359.481
361.212
360.628
358.711
366.882
373.511
363.673
371.355
366.463
372.525
365.941
371.525
377.529
371.803
379.283
371.756
381.542
377.512
379.706
389.028
384.242
381.246
388.082
383.715
390.340
389.185
394.017
392.247
397.161
394.004
401.336
397.406
399.120
406.246
398.086
413.816
411.622
406.457
410.755
410.536
407.513
419.365
411.386
413.864
425.451
416.105
426.133
426.936
422.444
426.411
420.724
421.700
433.195
427.035
441.030
442.337
437.562
437.927
444.300
434.636
444.104
448.663
438.724
447.700
449.038
444.490
451.671
452.605
447.271
459.932
449.227
449.161
454.652
461.969
467.480
466.875
467.348
468.827
459.588
470.507
465.856
473.489
467.109
469.553
478.124
480.214
480.101
476.203
483.591
478.264
485.643
488.122
481.693
481.605
485.017
494.520
486.755
485.122
494.576
496.401
496.917
493.903
502.353
505.104
505.350
510.516
512.176
516.839
516.785
509.066
521.319
524.436
514.176
525.318
528.377
529.704
526.660
525.998
533.841
531.485
527.526
528.843
543.432
539.458
537.896
536.029
546.874
547.365
549.075
554.514
546.248
547.781
564.025
557.670
559.432
562.406
559.907
565.812
567.126
566.750
578.532
566.148
567.662
575.406
572.225
578.891
582.958
583.263
592.078
582.091
588.910
593.675
598.446
600.893
594.763
603.605
607.350
597.856
611.115
600.456
610.763
606.382
608.701
611.081
612.299
618.929
619.213
626.773
616.160
621.479
625.570
627.046
625.988
631.207
637.154
632.561
640.772
646.099
641.948
646.086
648.239
644.339
645.121
643.684
658.462
648.125
663.340
664.269
658.348
662.309
660.618
666.528
671.123
675.775
678.913
674.052
668.210
678.748
674.904
674.024
691.050
686.958
693.957
690.167
693.324
694.614
699.737
698.141
702.980
694.429
694.206
698.160
704.319
704.072
708.044
709.436
706.298
713.818
717.117
713.997
716.172
721.532
725.831
729.959
729.762
727.841
737.725
739.149
742.463
744.715
739.222
745.919
741.218
740.305
750.916
742.013
757.743
748.361
752.016
748.279
750.229
753.835
762.166
763.979
771.296
762.146
768.006
772.737
777.654
768.557
776.353
782.401
780.327
786.179
791.343
787.724
788.258
791.982
796.051
797.949
797.721
790.771
791.364
798.212
803.148
806.361
802.069
804.253
806.095
805.554
807.340
812.882
822.152
815.734
825.056
815.967
826.697
831.413
834.027
828.648
832.749
830.583
828.663
840.092
834.031
840.663
841.442
850.409
845.580
855.104
845.966
855.125
861.434
858.851
852.599
861.068
863.915
868.322
858.559
868.341
874.093
867.923
864.604
878.039
875.727
876.774
868.005
873.083
874.243
875.521
867.410
869.836
869.337
872.129
870.081
875.450
867.776
873.462
865.995
871.812
873.457
879.076
874.608
879.834
871.257
866.278
876.600
875.650
879.303
875.183
872.945
867.189
868.365
867.465
866.983
871.292
881.717
872.469
881.271
874.325
868.010
869.591
880.967
876.679
877.374
883.875
879.097
868.766
873.457
877.903
884.516
878.921
884.518
883.918
884.087
879.006
877.964
873.928
882.414
878.374
870.385
884.558
879.650
875.129
873.195
882.357
874.744
875.290
886.496
884.765
873.788
880.646
885.914
880.837
884.282
873.952
875.826
880.302
879.945
873.851
883.759
880.647
880.221
884.741
889.084
879.194
884.379
879.023
881.941
885.643
889.956
886.940
886.387
884.870
883.982
875.017
888.985
890.834
884.337
890.964
875.834
883.882
881.847
887.167
882.649
881.026
886.986
889.760
892.267
879.531
885.795
883.880
878.453
886.940
888.374
893.153
885.139
890.903
889.062
886.371
890.102
879.036
880.387
887.161
894.353
887.258
892.660
884.476
895.233
894.616
892.271
886.234
885.769
889.528
894.574
882.021
885.153
887.818
890.571
894.582
883.866
890.689
881.463
891.094
892.612
885.595
889.488
896.867
894.160
897.245
884.189
892.682
884.771
889.919
884.571
895.354
891.582
895.494
892.420
887.623
893.925
892.555
894.914
890.562
899.957
894.014
894.303
893.747
891.574
898.121
896.865
894.905
893.773
892.151
896.918
900.974
887.570
900.411
889.129
899.910
894.123
890.294
890.037
897.400
897.910
893.711
896.848
893.925
899.671
896.519
900.036
890.224
888.415
891.500
903.150
890.624
898.346
891.636
901.502
895.074
890.904
889.350
896.096
886.799
888.221
898.359
892.315
882.153
881.668
880.437
886.925
884.474
887.700
884.799
875.497
884.051
884.478
880.376
873.321
877.822
869.817
868.584
863.688
864.238
869.449
865.065
859.055
862.024
858.654
858.614
855.552
856.066
858.847
852.561
853.551
847.946
852.515
852.859
856.341
850.406
845.284
852.654
844.764
841.472
834.435
836.565
836.011
831.189
842.007
837.404
839.061
830.847
834.599
828.146
823.738
832.343
833.217
827.399
819.919
823.891
815.280
826.106
826.002
820.324
824.073
822.221
812.795
808.033
816.131
812.505
805.618
810.363
800.375
806.439
804.662
798.316
796.125
807.298
795.951
791.410
800.261
801.254
793.475
794.123
788.322
784.903
790.761
791.409
789.648
790.664
783.750
785.038
781.308
773.799
775.334
781.163
770.535
774.035
781.091
770.711
778.493
768.779
769.685
774.476
759.536
764.323
767.063
763.970
759.498
768.376
757.439
763.422
761.356
751.911
758.999
751.002
757.679
754.177
747.830
749.727
753.419
745.096
749.483
740.685
734.814
741.425
737.451
731.844
733.964
733.521
732.841
727.993
726.682
732.755
731.301
729.462
720.908
725.584
720.683
719.195
729.011
719.836
724.270
710.922
723.675
713.813
716.227
716.533
710.140
703.804
706.306
707.014
702.952
703.280
703.262
708.137
697.978
701.048
694.413
698.686
693.618
690.369
690.750
686.695
685.332
684.935
684.258
680.979
686.151
680.088
686.408
688.507
675.441
686.958
671.770
680.995
683.960
676.052
672.181
672.544
671.751
666.049
665.945
666.573
659.717
662.888
664.421
662.450
661.168
655.816
663.343
664.856
655.917
653.109
655.147
654.707
652.625
650.020
655.372
646.805
654.151
654.287
646.721
648.911
659.998
659.244
657.968
662.108
663.024
665.248
659.887
665.711
670.654
670.662
671.274
670.957
665.181
677.449
671.324
674.099
676.629
681.453
689.923
691.763
681.207
692.346
684.826
682.991
696.070
699.457
689.925
689.638
696.542
699.612
695.742
696.067
698.245
699.329
709.943
717.020
719.189
713.203
716.457
716.119
720.989
723.970
719.789
723.733
718.842
722.807
725.557
723.773
729.085
734.313
739.016
734.950
729.265
739.360
741.343
747.879
744.219
752.682
745.784
754.779
745.479
756.414
744.953
748.939
763.716
750.345
763.544
764.717
759.559
763.993
772.973
769.507
763.640
768.905
770.181
774.000
773.503
776.567
775.169
774.530
775.212
780.978
784.028
790.470
790.150
786.641
787.128
789.463
798.207
793.979
795.248
797.218
803.103
804.397
800.587
799.481
803.312
806.855
805.707
810.992
812.596
818.873
812.435
811.828
828.189
826.392
818.961
818.185
823.596
826.304
825.554
826.750
828.436
841.996
837.299
831.131
832.037
840.382
835.808
848.633
851.059
847.213
851.428
849.228
854.232
855.065
855.080
851.489
865.597
860.873
866.839
869.250
866.721
867.813
869.485
871.515
864.604
871.229
877.470
883.420
884.792
883.143
873.199
875.525
890.510
881.016
893.258
885.488
891.356
893.479
888.825
903.490
893.990
893.485
898.039
896.921
909.518
912.381
908.388
910.017
910.439
912.568
919.313
913.705
909.171
910.723
915.069
923.449
917.190
927.017
926.762
931.155
935.980
933.542
928.834
940.720
928.719
936.256
946.715
937.409
944.165
942.891
945.529
954.703
949.590
947.122
944.807
945.961
954.103
962.676
957.418
952.022
960.009
963.918
964.409
967.364
966.656
974.286
963.073
971.895
961.824
964.660
953.912
963.186
954.415
964.429
960.077
951.513
953.016
958.131
947.198
959.336
954.721
957.425
957.119
942.723
943.723
947.319
950.494
944.055
943.996
936.416
948.671
940.214
945.777
944.320
940.401
934.620
938.363
939.088
931.025
925.346
933.608
938.091
925.577
934.582
924.462
924.333
932.554
917.570
919.568
927.392
920.336
917.489
918.465
915.289
918.999
915.627
913.933
917.120
919.614
916.003
908.131
914.102
902.968
917.355
909.521
904.481
913.427
907.271
911.426
909.803
910.255
907.162
906.241
898.641
898.726
897.306
898.719
895.568
900.119
898.041
895.552
886.867
893.175
890.100
884.739
891.616
894.689
893.574
888.648
882.911
880.280
887.240
873.414
878.602
885.149
885.440
876.576
874.365
877.650
880.501
872.156
873.221
863.507
871.262
865.031
866.571
870.098
862.710
859.545
868.959
870.888
854.978
853.183
856.612
863.273
850.763
857.927
858.147
855.214
847.460
854.564
856.800
846.914
850.195
842.127
849.336
850.702
843.157
839.221
843.099
848.511
843.909
837.632
839.384
843.859
833.879
836.547
838.741
830.517
832.795
840.465
836.460
836.461
835.826
836.051
832.747
832.656
829.973
823.124
826.590
821.497
820.499
822.615
828.034
823.402
820.180
825.063
813.042
813.789
819.261
817.918
805.684
816.465
817.500
814.568
804.765
801.183
812.500
800.973
804.833
809.155
810.512
807.800
800.022
793.165
798.054
791.775
790.667
793.146
791.980
789.533
796.649
786.137
785.696
788.810
792.049
788.440
787.407
783.953
789.257
776.347
788.074
776.620
781.822
780.375
786.298
778.796
782.825
774.513
769.660
768.602
781.116
779.225
774.886
768.905
764.327
761.969
774.173
767.602
770.655
759.951
766.526
767.143
765.761
767.247
759.770
768.937
768.628
764.907
763.972
759.043
769.567
755.148
761.922
755.931
756.915
755.662
752.828
758.319
761.567
753.612
759.993
759.569
758.540
756.717
748.406
762.796
754.334
761.562
750.386
750.120
756.468
756.673
757.064
748.120
748.095
753.090
744.723
753.324
746.027
743.781
752.476
754.592
753.726
744.891
748.575
744.966
748.521
750.658
748.447
737.020
751.332
741.385
750.239
749.971
739.848
743.532
743.089
741.532
744.556
738.565
740.198
733.507
737.462
743.820
730.327
729.547
742.807
732.183
738.018
736.926
733.835
730.375
738.176
735.013
726.529
737.494
724.315
727.337
728.922
733.634
733.586
731.098
728.302
733.528
728.220
732.502
733.089
724.564
721.733
731.507
721.374
719.210
725.312
727.694
724.014
725.480
728.570
725.768
727.214
725.302
719.160
722.205
726.491
719.919
714.269
721.508
713.316
711.476
713.735
722.147
721.778
708.017
715.765
718.060
719.546
708.958
710.063
709.387
709.869
711.092
713.338
713.740
703.417
706.082
714.660
705.149
704.685
709.018
709.556
704.985
707.422
699.020
701.069
705.962
711.200
706.168
696.807
701.276
702.660
700.795
696.858
702.266
697.843
706.024
694.712
698.363
704.675
703.314
692.856
698.800
693.647
690.052
700.282
692.308
690.426
689.019
696.189
698.925
695.939
699.764
685.759
683.892
694.006
690.382
689.168
690.288
682.218
681.012
693.125
695.561
686.240
685.096
690.630
692.626
679.310
679.480
679.067
684.427
683.905
690.760
686.694
680.132
683.144
685.439
684.869
674.152
674.602
677.986
670.839
679.431
676.684
673.600
684.061
675.564
678.394
680.722
678.268
667.749
667.110
673.632
665.244
673.376
664.442
665.854
658.837
666.988
660.536
664.025
651.583
662.573
660.505
652.680
650.910
659.529
652.420
643.756
648.362
640.958
649.073
641.094
642.232
649.991
638.484
636.106
631.720
643.178
637.963
641.899
625.990
624.528
626.725
628.823
626.746
632.792
632.894
621.847
621.577
616.626
616.077
614.221
621.712
610.046
611.931
613.894
611.781
605.221
606.860
610.796
602.873
613.291
603.953
601.774
601.763
608.053
596.751
598.274
591.832
598.045
598.123
603.001
586.771
597.088
590.569
583.909
591.866
582.035
592.562
586.539
582.282
585.764
580.055
585.414
578.352
576.789
576.620
570.484
571.107
566.796
568.227
564.774
572.699
561.458
575.404
560.224
572.785
564.503
564.235
554.492
567.430
562.942
551.608
555.724
561.777
556.674
548.394
550.361
544.564
545.443
555.178
553.826
551.457
536.493
550.823
535.452
541.435
533.123
543.944
541.717
530.758
540.072
528.131
529.148
523.228
531.898
527.739
527.270
521.441
520.367
523.199
528.721
515.296
514.100
515.425
513.312
522.006
513.582
509.576
506.742
517.165
507.764
509.618
508.230
511.189
505.359
510.756
499.261
505.677
496.703
494.311
503.392
492.439
489.072
499.758
489.000
495.242
493.346
495.771
480.297
491.094
488.918
483.297
481.473
478.263
474.418
473.600
481.121
485.258
474.996
480.938
471.120
475.489
469.376
476.736
469.197
463.746
469.713
473.018
459.336
463.898
459.336
460.155
462.977
462.849
451.274
462.965
459.053
445.203
448.857
442.510
451.821
442.306
439.655
449.767
443.868
438.797
439.320
444.871
431.976
432.332
429.964
432.223
427.232
441.226
429.209
430.699
438.807
435.074
442.273
433.162
435.023
448.718
435.310
451.015
438.834
446.482
446.363
453.650
449.762
451.279
449.543
452.760
464.928
457.675
454.087
454.500
457.595
458.278
461.604
473.212
471.966
467.476
475.948
464.428
473.063
467.567
470.944
478.698
473.695
476.794
489.250
488.325
480.683
486.512
492.459
487.452
493.242
495.257
496.303
492.449
503.419
496.135
504.181
501.850
495.494
505.625
497.031
502.105
501.678
511.836
511.359
516.209
505.843
510.570
515.120
519.603
524.444
525.078
526.244
523.933
527.741
529.281
531.295
535.114
528.233
527.069
525.787
535.253
529.430
528.189
533.209
538.192
532.764
538.545
545.330
545.529
541.719
551.571
546.258
552.330
555.953
546.991
546.588
549.942
557.527
550.448
558.949
563.955
559.640
556.455
564.191
563.013
563.798
571.642
571.361
565.601
577.580
581.175
575.485
578.511
579.737
584.659
578.670
576.628
585.504
586.008
584.941
587.031
587.596
597.876
600.294
590.363
595.742
601.250
603.750
607.930
605.596
609.111
609.544
599.132
600.325
614.794
608.372
604.097
604.964
611.462
620.185
613.589
618.764
622.111
615.122
620.535
631.397
623.546
632.211
632.424
628.976
626.745
627.690
637.333
628.366
641.628
636.284
636.578
638.974
648.384
635.111
648.378
646.149
639.940
652.559
657.673
656.694
656.530
654.112
655.465
661.306
662.035
652.229
663.137
666.298
664.464
659.931
660.830
665.621
677.046
663.677
676.999
666.794
672.852
676.104
681.527
683.493
684.913
686.855
683.699
680.393
690.651
690.685
694.184
694.680
692.856
700.537
687.953
699.207
689.460
702.724
702.000
702.449
708.394
705.371
710.249
707.484
712.657
708.083
701.461
705.806
698.621
705.667
692.436
686.942
690.239
690.896
687.414
689.089
685.975
671.476
678.147
672.160
670.536
662.241
665.003
656.368
664.402
657.559
649.358
650.338
648.286
647.620
645.692
639.870
638.434
637.284
625.465
619.008
617.442
622.858
617.703
621.256
608.608
618.279
613.852
599.559
607.784
593.149
599.356
595.061
585.532
582.692
582.418
579.589
575.072
584.638
569.923
569.878
561.767
571.312
564.248
562.367
557.682
553.708
545.497
543.541
540.068
538.892
534.953
532.675
538.434
540.495
530.118
533.939
525.570
522.405
515.039
524.071
511.084
517.131
513.513
513.325
508.950
506.383
495.330
497.780
490.343
488.068
494.264
478.942
485.980
475.005
468.516
472.394
477.149
464.253
467.638
461.569
455.932
455.069
459.739
446.419
454.888
452.866
446.106
434.294
436.702
437.454
433.443
434.893
423.869
429.919
414.735
417.876
415.220
414.172
406.950
406.167
408.699
403.153
397.792
395.929
391.997
390.091
390.299
382.721
388.986
378.725
371.511
367.753
375.246
375.841
358.998
363.122
359.116
361.527
354.714
353.552
349.564
345.719
337.614
338.455
340.228
329.775
334.625
324.406
320.129
317.698
316.330
317.577
311.597
311.686
310.395
306.099
304.176
299.523
306.283
295.120
294.496
295.385
294.316
277.423
289.851
278.924
273.482
268.621
276.077
262.327
267.695
259.201
258.425
253.453
257.230
258.136
241.878
249.301
241.082
233.502
242.402
228.045
235.510
229.098
228.199
231.892
227.225
220.041
217.137
218.249
218.659
211.322
204.560
195.452
201.889
204.492
201.739
184.306
192.174
178.590
184.393
175.908
179.819
174.882
169.073
170.226
166.869
167.695
166.702
