1132.732
1140.758
1139.546
1141.214
1140.576
1144.218
1136.618
1135.615
1133.707
1139.001
1137.188
1135.615
1136.967
1127.880
1127.427
1137.763
1132.200
1129.743
1140.393
1137.683
1126.037
1132.222
1132.408
1136.488
1135.182
1129.751
1134.311
1123.191
1135.314
1134.676
1132.233
1136.597
1124.020
1122.929
1123.090
1123.606
1130.914
1128.617
1127.838
1123.780
1128.638
1124.263
1121.193
1118.854
1119.505
1120.041
1120.781
1131.357
1123.326
1118.261
1128.252
1127.440
1116.163
1121.832
1125.305
1128.708
1117.316
1116.230
1112.992
1126.971
1117.103
1113.924
1120.319
1126.232
1120.494
1111.639
1123.573
1113.865
1113.129
1111.831
1113.498
1118.041
1109.261
1115.069
1118.204
1111.420
1121.226
1115.753
1121.614
1105.775
1105.864
1106.614
1106.695
1110.243
1117.737
1113.104
1107.594
1111.649
1107.719
1114.054
1110.861
1115.115
1115.234
1107.331
1106.382
1107.378
1113.225
1115.192
1114.663
1106.762
1101.428
1101.893
1101.645
1101.397
1105.173
1103.232
1102.825
1105.956
1109.968
1103.793
1110.690
1095.798
1106.278
1097.160
1106.049
1103.131
1100.985
1106.147
1095.409
1108.068
1107.550
1096.558
1100.823
1105.379
1101.473
1104.081
1095.566
1097.255
1096.911
1093.727
1093.126
1100.949
1088.027
1101.412
1101.815
1097.799
1098.848
1099.006
1100.018
1085.949
1097.175
1086.838
1084.777
1087.330
1085.445
1099.509
1089.237
1090.444
1089.833
1094.603
1097.475
1088.635
1087.573
1082.204
1083.474
1096.181
1080.636
1081.351
1083.332
1087.749
1083.755
1079.049
1092.134
1085.771
1081.552
1084.739
1090.586
1091.774
1088.729
1085.636
1088.096
1090.914
1083.385
1083.817
1075.937
1085.550
1079.631
1074.670
1077.079
1080.883
1076.667
1073.489
1074.862
1073.075
1080.324
1075.488
1069.983
1084.442
1080.244
1071.722
1078.682
1074.975
1074.657
1083.516
1070.637
1080.650
1081.414
1072.132
1070.642
1073.810
1078.944
1068.854
1062.727
1061.441
1071.053
1053.936
1064.905
1053.815
1051.185
1059.755
1044.290
1055.842
1046.642
1039.596
1041.111
1034.440
1040.101
1041.250
1031.934
1034.747
1025.534
1029.551
1018.287
1025.822
1023.346
1012.263
1016.142
1008.798
1012.316
1007.007
997.638
1004.680
1007.442
994.203
999.545
999.884
993.812
993.007
985.799
978.702
983.820
976.457
980.891
981.419
975.279
966.851
975.345
970.168
962.386
967.714
958.499
963.385
956.282
951.292
942.788
943.226
944.377
949.962
934.790
938.641
943.355
935.127
935.245
933.880
932.382
929.474
917.764
911.643
909.885
922.057
907.443
913.950
906.704
909.240
902.350
896.445
893.920
894.969
895.387
887.108
882.607
886.804
891.934
886.567
873.788
876.441
880.971
879.060
875.609
862.671
859.046
872.256
866.240
857.331
849.595
857.889
859.323
843.736
847.767
850.455
837.771
838.364
836.173
840.611
840.631
835.119
829.526
832.189
832.094
828.696
822.847
825.455
809.315
807.222
810.418
803.657
809.302
800.852
799.790
805.976
800.109
790.212
793.917
792.764
795.319
787.311
791.468
788.539
780.260
782.361
775.315
771.258
776.567
772.347
766.803
769.137
764.183
758.623
749.664
760.556
757.271
754.252
751.112
739.870
734.900
733.313
744.159
731.076
727.222
734.207
726.083
726.893
728.202
727.207
712.956
719.176
707.935
715.248
704.681
715.272
709.109
695.994
708.946
701.535
695.282
695.997
691.139
693.626
679.758
683.327
675.727
682.837
683.883
678.217
674.498
672.548
672.567
665.635
671.192
660.054
656.130
664.858
648.471
656.833
651.742
653.509
639.394
642.538
636.429
640.692
638.813
638.643
635.710
628.980
621.450
630.091
629.650
624.894
624.944
609.169
617.344
606.968
608.604
618.513
622.818
613.798
625.158
617.276
627.644
624.430
616.760
618.457
627.347
620.063
627.256
634.551
622.736
633.122
632.209
639.309
642.373
639.853
643.717
636.796
633.884
645.328
648.115
643.035
640.718
642.194
652.172
649.315
649.836
644.959
653.720
653.031
651.247
658.841
654.790
646.948
652.868
664.340
653.831
656.785
662.002
656.098
656.579
657.364
659.555
657.808
659.980
674.382
664.550
674.571
673.387
675.686
674.295
669.445
670.082
672.683
679.002
684.372
683.656
686.130
684.467
682.496
686.016
686.960
683.620
683.095
692.219
684.119
692.191
686.462
691.413
686.149
686.644
698.419
690.241
704.438
697.264
705.683
700.950
695.620
707.437
701.075
704.121
697.192
704.805
713.199
714.498
708.518
708.158
709.013
714.116
708.449
707.949
713.752
722.422
712.567
718.325
726.846
726.252
725.601
727.128
721.866
724.953
723.519
733.548
726.711
733.389
732.827
729.525
731.408
727.130
733.605
736.198
736.855
739.947
730.962
746.840
739.204
736.401
735.385
746.940
744.300
746.442
739.128
741.516
745.757
745.384
749.605
755.403
758.389
755.902
754.784
758.535
761.013
756.652
753.789
754.096
753.511
763.956
761.896
762.185
761.604
759.290
774.482
761.237
764.787
769.297
764.320
770.013
779.270
772.257
771.153
773.900
772.040
786.060
782.605
774.087
786.749
788.900
792.035
779.807
779.898
792.115
794.482
797.416
786.141
784.364
787.110
800.267
795.995
800.456
791.506
801.694
797.682
802.178
808.116
798.555
799.317
805.826
799.637
799.561
807.553
811.103
816.779
813.619
806.641
806.885
820.977
816.902
819.342
813.122
813.611
826.312
820.174
817.771
822.971
826.619
815.737
818.492
824.216
828.478
832.753
829.987
833.228
824.803
835.749
827.146
830.358
837.226
835.460
833.228
826.467
836.899
827.501
834.602
834.351
831.838
841.690
833.583
844.194
845.041
841.312
844.747
834.971
848.726
846.652
843.738
848.227
846.877
836.388
842.771
843.514
853.340
849.387
842.318
850.139
844.633
844.682
855.532
857.567
849.871
859.066
851.422
860.940
855.459
860.014
861.464
859.788
854.055
857.278
854.049
856.512
865.822
859.381
861.693
864.859
867.683
866.263
854.580
858.908
867.373
859.074
866.368
858.663
861.390
860.758
869.664
869.338
866.978
870.652
875.011
874.535
863.472
878.739
871.185
875.886
875.325
876.655
872.291
883.112
872.913
875.119
881.648
883.008
877.233
880.005
881.985
878.254
877.535
885.689
875.446
885.744
884.108
892.316
880.245
880.163
882.558
879.653
880.444
893.795
892.122
883.912
896.584
887.339
889.557
890.763
888.346
893.428
897.201
900.759
890.676
895.427
898.362
894.108
900.240
891.136
902.628
904.943
908.240
893.640
907.512
901.125
906.722
905.847
912.077
904.431
897.800
902.951
914.909
911.207
914.135
906.477
907.899
905.595
911.898
911.198
911.790
919.669
911.877
908.113
916.386
910.866
918.949
908.960
922.774
918.625
919.649
917.166
916.535
927.450
921.994
927.283
918.819
920.764
921.179
929.371
918.656
929.704
931.614
929.673
927.777
926.220
931.191
929.858
931.112
927.233
934.588
927.725
931.787
929.984
935.455
926.876
938.890
937.696
936.058
934.752
930.749
933.556
931.812
940.495
946.314
939.483
937.072
938.904
947.715
942.089
938.013
951.642
949.786
948.296
944.099
941.998
947.203
953.181
950.855
954.390
947.328
952.248
941.690
950.912
943.345
946.659
951.534
942.493
941.766
943.271
938.412
947.403
946.647
935.673
942.145
939.699
946.532
942.494
933.710
944.879
929.653
937.058
939.388
930.864
936.078
934.207
933.149
924.691
937.553
930.949
935.933
932.792
927.140
931.622
918.702
926.966
926.201
927.803
927.117
922.946
920.703
922.481
913.635
921.332
917.557
912.056
910.383
912.989
920.334
919.249
923.115
922.471
912.065
905.476
910.539
910.112
912.218
916.438
914.243
901.751
909.886
915.606
901.954
909.454
900.987
899.951
906.593
909.751
904.529
909.585
908.549
901.941
897.378
903.281
895.684
899.877
894.646
893.611
895.361
896.347
895.417
897.988
890.455
889.001
890.078
898.488
885.664
892.030
891.600
885.150
880.017
879.355
891.738
889.683
883.192
883.278
889.719
884.910
881.728
874.945
879.492
886.297
877.990
881.657
885.503
873.463
879.134
882.192
875.137
870.724
866.519
877.295
870.604
877.939
877.710
874.594
868.788
870.425
874.839
861.933
871.664
866.693
868.125
865.074
856.241
867.907
868.905
861.161
857.222
864.748
866.290
862.452
853.822
851.558
860.186
849.102
858.363
853.857
857.872
850.769
858.400
855.153
857.955
856.439
845.877
856.312
843.297
850.988
843.902
839.494
846.382
842.259
846.511
843.398
850.084
842.896
846.969
838.138
847.300
847.374
836.909
835.842
842.345
842.072
843.040
838.516
830.703
831.782
834.172
829.663
824.595
836.450
831.216
827.651
836.940
831.416
821.905
825.029
826.955
831.559
831.782
825.413
816.389
817.107
829.569
822.205
816.282
827.427
817.427
811.490
815.515
824.675
811.845
821.358
810.698
809.011
809.398
816.067
806.915
813.315
815.336
818.048
811.004
815.733
811.391
811.704
825.173
819.595
828.395
827.622
834.169
825.032
823.632
833.806
830.384
828.392
830.012
830.284
837.483
839.054
844.409
846.160
848.426
852.427
854.993
843.710
854.027
845.974
861.761
852.256
864.164
861.104
854.876
863.903
869.876
862.463
864.959
875.653
871.841
874.611
874.851
881.153
883.747
882.833
885.942
874.545
876.170
886.300
889.179
879.675
886.431
887.520
884.269
887.963
890.894
897.452
892.830
907.912
898.772
903.179
909.548
899.159
909.958
906.900
908.656
918.290
910.452
920.858
916.390
922.435
926.979
922.911
918.156
922.631
926.846
925.647
935.061
935.456
936.217
940.929
943.474
942.585
945.860
934.051
949.351
951.269
952.690
941.849
954.199
953.146
957.720
947.590
961.185
950.257
952.297
958.309
967.373
963.317
964.696
958.122
959.509
964.078
966.681
967.513
971.319
981.703
980.370
982.115
984.034
973.655
975.204
991.733
993.128
991.898
982.953
995.859
998.643
988.489
1000.178
990.865
995.438
993.738
1007.484
1007.508
998.608
1007.997
1009.893
1004.858
1013.366
1006.404
1011.573
1021.758
1014.895
1020.038
1013.924
1016.056
1027.017
1016.936
1018.128
1029.600
1024.585
1031.396
1028.769
1027.087
1034.781
1041.527
1043.410
1041.937
1042.655
1049.467
1043.440
1047.055
1053.258
1056.414
1056.866
1054.438
1055.372
1060.793
1058.306
1052.076
1062.157
1069.425
1068.402
1065.112
1062.944
1069.082
1064.212
1067.812
1073.291
1075.246
1083.552
1079.725
1079.690
1082.150
1084.443
1075.378
1078.039
1079.492
1089.875
1095.671
1089.909
1093.131
1087.112
1093.041
1096.280
1099.518
1105.059
1097.019
1110.613
1110.144
1102.597
1102.376
1115.608
1113.369
1112.069
1120.280
1122.858
1123.520
1126.615
1128.046
1127.807
1115.082
1115.138
1126.737
1122.352
1113.406
1121.056
1111.725
1114.890
1111.683
1111.071
1113.722
1109.439
1109.515
1109.467
1120.405
1112.909
1107.592
1108.173
1112.947
1118.243
1108.053
1106.966
1104.341
1106.734
1112.135
1107.617
1113.834
1113.082
1105.867
1103.619
1103.239
1102.202
1104.868
1094.306
1099.747
1107.975
1100.284
1095.521
1093.239
1102.096
1093.422
1104.075
1100.196
1090.429
1100.757
1095.758
1096.238
1096.107
1088.348
1084.781
1084.458
1092.658
1083.503
1091.835
1095.947
1094.193
1081.242
1081.985
1092.604
1078.435
1090.419
1085.155
1089.568
1083.892
1080.422
1086.627
1076.253
1074.614
1074.413
1080.907
1078.147
1073.001
1078.468
1073.477
1072.986
1083.652
1076.207
1083.034
1074.728
1079.718
1081.598
1073.656
1066.497
1071.739
1066.463
1063.544
1066.564
1076.930
1062.799
1068.429
1060.623
1073.040
1074.264
1064.792
1069.752
1068.478
1063.927
1066.220
1061.518
1057.048
1064.277
1055.747
1068.037
1066.022
1060.215
1055.912
1061.864
1058.465
1057.245
1049.059
1059.791
1056.756
1055.896
1050.381
1051.055
1055.456
1058.403
1057.973
1049.688
1056.300
1053.751
1050.672
1053.819
1047.157
1055.069
1039.498
1050.566
1044.110
1049.227
1043.281
1051.312
1047.348
1044.322
1040.581
1036.759
1046.704
1040.415
1035.546
1032.303
1037.719
1031.300
1036.643
1035.214
1044.126
1032.868
1031.210
1042.104
1040.155
1037.615
1034.648
1035.459
1027.826
1030.304
1023.549
1035.798
1033.865
1033.927
1020.567
1023.897
1028.753
1028.684
1024.915
1027.981
1026.701
1024.275
1015.776
1024.174
1028.019
1014.957
1020.150
1017.100
1025.050
1017.953
1023.582
1023.648
1012.664
1015.495
1011.575
1022.183
1011.843
1014.326
1011.772
1007.593
1015.832
1007.049
1017.937
1003.470
1015.964
1006.876
1016.740
1000.541
1013.624
1007.354
1004.214
1001.898
1001.734
1007.301
1001.230
1000.297
1003.323
995.166
994.658
996.861
995.572
997.938
992.447
993.217
991.515
989.521
991.420
989.320
982.366
993.505
990.204
991.162
991.556
979.910
986.254
980.183
976.475
974.200
978.223
973.331
968.198
970.547
977.718
979.096
967.357
967.888
974.133
960.698
963.132
968.939
969.103
960.259
956.183
964.322
959.778
965.784
961.230
956.050
950.835
955.564
952.370
945.235
952.236
946.995
949.995
951.071
947.640
937.763
949.891
945.299
946.975
949.051
936.555
932.674
930.828
941.204
929.809
940.643
940.767
929.733
934.726
935.398
925.532
934.479
918.620
928.007
930.360
922.178
923.206
913.319
913.959
914.571
923.241
921.778
910.760
910.887
907.478
919.333
905.939
915.182
913.120
899.993
911.526
901.598
908.216
897.167
903.274
898.592
895.518
897.585
905.031
889.374
900.935
894.641
885.556
884.890
894.697
888.673
881.670
884.400
889.743
884.592
888.936
878.342
889.142
883.234
877.816
872.270
869.785
875.472
877.863
879.015
878.030
878.124
864.495
864.910
861.271
870.023
861.104
861.431
860.596
866.973
860.600
863.006
853.782
863.891
851.924
849.370
846.905
859.327
855.611
858.468
855.585
850.085
845.040
842.185
845.363
849.972
836.795
837.188
838.593
839.021
836.491
832.583
841.560
829.068
835.915
839.995
827.721
825.044
822.594
822.676
825.334
818.719
824.884
822.491
823.015
815.850
813.207
827.392
812.282
821.318
816.566
815.117
808.309
819.821
804.341
804.603
801.888
806.235
807.295
807.499
803.198
804.136
798.912
797.189
797.104
802.641
802.941
801.592
794.007
792.570
799.826
791.999
789.265
788.032
787.213
793.376
781.338
792.978
784.966
787.603
784.190
778.984
775.288
780.196
771.603
772.501
772.973
774.172
775.967
760.923
762.408
759.667
756.341
758.718
762.384
757.759
755.934
748.367
740.251
752.308
735.163
747.112
736.827
743.867
726.799
732.904
729.823
724.891
730.578
719.067
722.221
712.006
714.455
709.642
706.870
711.380
707.879
712.668
709.500
708.127
701.742
695.829
692.734
685.121
687.381
692.653
693.691
675.851
675.096
676.354
680.313
668.696
666.874
666.408
675.675
671.382
658.862
668.013
655.412
663.602
657.602
644.956
656.994
643.495
639.434
650.821
647.793
632.374
636.266
641.911
634.573
638.313
628.055
625.005
619.359
625.335
627.022
613.204
611.893
607.700
609.134
610.338
612.670
601.690
599.228
606.031
603.315
598.368
590.192
595.996
590.233
584.119
577.200
583.192
578.360
585.570
577.860
579.562
577.888
565.407
572.131
566.550
562.237
554.740
554.939
557.904
556.898
553.851
545.773
541.998
540.390
548.070
540.101
538.629
531.765
530.124
534.820
531.533
529.508
532.929
515.299
526.713
511.175
519.472
516.319
509.021
515.930
500.296
507.680
496.148
507.061
496.623
502.080
487.336
492.216
483.081
481.727
481.413
488.960
484.180
475.212
470.278
468.036
479.789
470.154
461.739
469.738
469.037
463.549
455.008
457.963
461.698
455.970
456.605
453.213
447.497
443.703
439.353
434.219
435.532
435.747
424.941
426.390
420.556
430.379
423.781
416.295
420.078
419.528
416.717
407.071
410.020
410.787
407.840
410.843
404.120
395.364
394.931
401.974
396.881
383.778
384.330
387.460
383.435
389.953
382.777
383.789
377.619
372.577
368.147
372.098
364.241
372.462
364.208
367.803
352.167
357.475
356.387
355.441
343.132
354.111
350.656
342.971
348.325
346.008
342.630
341.010
335.574
329.292
334.954
334.965
330.193
331.083
330.979
320.443
318.808
329.873
327.302
316.749
321.919
323.531
317.938
312.167
305.742
315.885
310.477
303.638
309.849
309.031
302.177
309.465
302.305
301.839
294.898
302.729
291.019
293.682
292.873
289.890
285.205
283.691
296.639
289.818
288.563
278.761
286.785
276.596
284.994
281.087
272.501
277.709
282.042
269.780
274.868
278.715
263.555
270.805
272.959
262.346
267.713
269.380
262.549
255.060
263.074
251.583
260.695
255.689
256.117
258.362
256.235
249.080
246.596
249.884
239.940
250.676
251.121
242.966
234.987
233.877
238.278
233.391
236.524
234.694
230.015
236.382
226.099
237.376
230.237
224.759
223.653
216.823
225.995
214.885
226.937
224.392
226.031
221.721
221.223
221.256
217.770
209.419
209.491
205.153
213.821
212.741
204.360
201.046
209.729
203.289
191.982
196.539
202.172
194.149
201.146
196.490
196.141
196.844
185.303
193.114
183.308
186.912
185.650
187.870
185.002
184.610
183.541
170.751
169.450
172.086
174.113
171.558
168.478
170.121
164.415
164.253
166.178
169.561
164.320
154.009
161.592
153.480
154.976
161.788
149.455
151.077
153.946
145.265
143.236
150.677
142.339
142.709
146.975
137.077
139.365
140.799
146.582
138.242
129.820
134.018
127.073
138.043
136.009
133.944
134.862
128.106
128.474
129.419
127.608
118.011
124.531
117.643
114.709
116.068
112.419
113.112
105.027
107.170
105.869
111.254
99.556
112.002
99.338
109.486
96.757
102.184
102.760
97.301
102.845
98.653
88.398
90.642
89.044
91.004
88.646
93.239
83.719
87.907
87.968
75.788
73.133
78.969
73.923
73.549
77.232
