1133.439
1142.303
1133.290
1135.968
1139.367
1138.214
1139.474
1143.299
1129.439
1133.824
1140.995
1131.616
1129.863
1132.174
1128.896
1138.396
1133.120
1131.556
1131.559
1126.883
1135.181
1136.413
1127.672
1129.190
1124.022
1129.096
1130.954
1134.838
1125.866
1133.138
1125.718
1131.921
1127.634
1131.149
1120.943
1127.756
1134.143
1127.025
1128.558
1124.911
1124.442
1120.922
1133.663
1119.246
1118.326
1124.478
1127.257
1118.813
1123.881
1125.972
1126.751
1127.337
1114.593
1125.742
1128.588
1118.901
1129.007
1125.811
1117.089
1126.006
1115.671
1117.158
1124.467
1114.700
1119.436
1110.859
1121.251
1117.872
1114.552
1109.018
1123.041
1110.614
1114.544
1114.979
1115.700
1110.382
1119.295
1116.759
1116.238
1116.691
1117.714
1111.263
1114.109
1119.141
1116.183
1108.694
1105.735
1109.667
1113.723
1111.327
1111.149
1116.544
1112.916
1106.925
1103.100
1114.429
1112.672
1114.828
1101.702
1107.725
1110.990
1111.070
1103.731
1113.419
1102.458
1104.178
1111.395
1100.348
1111.035
1099.288
1097.555
1104.750
1101.953
1107.663
1104.423
1096.810
1107.100
1103.655
1102.493
1093.040
1102.570
1093.387
1096.758
1091.822
1104.333
1099.952
1102.500
1094.865
1099.392
1096.831
1093.389
1093.643
1099.100
1096.857
1101.576
1095.675
1088.636
1097.553
1090.875
1091.644
1092.113
1097.429
1086.460
1093.000
1087.653
1091.775
1086.281
1086.040
1098.132
1094.120
1094.313
1083.551
1087.142
1087.335
1093.527
1096.037
1080.516
1082.256
1085.748
1087.813
1078.855
1087.399
1089.450
1089.068
1089.131
1086.401
1086.400
1081.679
1077.868
1078.985
1077.401
1085.878
1086.013
1082.787
1080.822
1079.432
1086.474
1082.232
1079.161
1078.177
1076.242
1087.494
1080.915
1077.607
1075.817
1081.573
1075.028
1079.136
1072.751
1080.907
1070.454
1079.684
1082.808
1071.916
1080.834
1082.044
1072.457
1079.646
1076.804
1074.021
1070.218
1066.077
1073.354
1064.460
1059.081
1066.901
1056.993
1061.714
1055.235
1051.404
1049.305
1055.392
1047.919
1038.928
1044.604
1044.686
1034.441
1040.370
1030.553
1028.649
1022.921
1017.399
1029.005
1014.475
1017.564
1022.446
1006.137
1009.027
1012.237
1013.332
1000.822
1007.558
997.114
995.857
992.695
985.069
992.463
993.850
980.599
983.981
986.806
974.657
984.444
970.382
971.860
964.207
974.336
969.122
959.276
953.575
965.514
963.492
958.852
956.540
950.715
944.547
951.970
937.365
940.004
933.275
936.299
925.415
933.870
920.975
923.193
924.375
926.763
918.375
918.376
917.730
909.122
909.845
908.998
904.674
897.318
893.771
895.986
898.930
894.936
898.730
892.606
892.737
880.276
882.277
888.248
877.765
877.033
874.206
877.792
867.807
866.991
865.009
865.007
866.887
850.446
847.699
846.661
854.194
844.940
842.966
835.856
847.053
838.438
831.378
839.514
826.319
828.634
822.469
823.102
818.187
819.562
812.677
811.384
813.221
815.779
812.063
812.691
808.053
796.409
798.968
793.378
792.969
794.271
789.217
785.602
781.661
775.965
788.691
775.556
769.233
773.689
772.325
771.203
768.470
758.095
765.363
757.987
758.664
750.872
753.450
747.175
756.606
746.904
742.814
746.615
741.950
741.946
733.985
736.941
729.386
727.178
730.893
719.389
722.585
725.488
715.440
718.593
705.375
714.168
714.302
709.653
703.030
695.182
693.391
689.134
693.705
693.629
692.866
681.592
688.002
684.607
684.848
674.785
669.449
676.951
673.647
662.178
660.521
658.559
663.095
654.644
664.870
662.408
647.201
643.110
652.866
646.319
651.532
643.343
642.978
638.422
631.465
629.679
624.104
633.937
622.338
631.055
617.940
618.923
615.739
614.335
615.147
609.053
622.150
625.964
621.190
623.684
624.168
619.440
617.057
625.574
632.813
632.840
633.999
627.552
624.470
628.379
630.042
636.498
633.623
637.685
635.062
629.534
644.206
641.671
639.257
645.032
640.636
641.662
646.486
650.391
641.354
651.724
650.383
646.245
644.099
656.908
657.106
654.644
655.916
649.334
649.962
651.377
662.673
665.297
655.362
662.569
656.424
657.363
658.024
670.740
667.207
671.528
664.944
674.652
678.649
672.072
680.320
669.536
680.960
675.836
685.453
686.162
681.042
676.936
689.362
677.949
691.492
690.780
680.476
690.757
685.302
683.940
688.635
692.229
694.845
694.479
696.587
687.552
693.941
705.390
703.693
701.169
707.248
695.175
705.648
698.002
702.812
708.671
709.162
705.791
711.388
711.938
717.164
715.960
714.316
716.456
709.081
722.589
721.875
722.543
721.022
725.481
723.582
730.538
730.509
725.579
730.195
730.646
725.048
724.405
729.316
731.947
725.770
733.769
735.720
738.794
740.790
731.940
732.513
743.385
745.888
748.809
746.134
738.532
741.129
743.019
752.930
741.876
752.990
748.288
753.810
754.168
760.939
747.577
760.552
762.942
758.671
755.248
762.461
755.882
768.404
768.545
760.948
771.712
772.132
769.706
770.475
766.899
776.513
764.506
776.633
773.509
779.229
773.122
776.018
769.265
773.903
777.924
783.547
773.870
786.002
783.985
788.872
789.676
787.308
789.163
782.509
792.792
792.274
788.340
785.394
797.107
796.273
803.491
793.637
791.402
801.746
801.248
798.135
809.057
800.188
807.308
811.332
806.507
804.126
809.319
808.040
817.321
805.175
816.291
810.240
810.924
808.361
812.014
821.774
813.593
818.614
814.330
817.602
826.747
817.982
818.593
827.051
832.010
823.355
830.337
825.234
827.573
830.447
822.490
823.121
833.462
836.545
837.640
828.095
836.186
827.415
833.317
839.014
835.244
841.402
837.708
834.478
846.068
836.789
843.893
846.162
839.185
838.253
847.901
848.883
837.859
837.299
844.443
842.185
839.996
845.970
842.011
840.888
849.113
842.402
843.248
843.667
847.439
853.521
847.225
847.310
860.088
849.672
858.841
856.881
862.812
849.179
859.811
858.812
862.999
863.089
866.747
867.866
864.635
855.942
868.072
866.042
858.643
867.079
865.187
869.477
864.403
863.120
871.159
870.311
874.390
876.024
874.356
867.476
868.903
870.970
873.675
871.567
868.988
868.780
869.771
876.564
868.848
869.958
881.845
874.681
884.888
884.444
874.056
874.563
876.970
886.602
879.103
881.046
881.985
884.768
881.879
886.764
880.595
889.954
888.852
894.732
881.418
883.077
889.384
887.570
884.420
891.615
897.479
897.053
897.000
897.823
894.317
894.574
901.515
891.756
894.312
891.000
902.936
892.607
907.974
904.774
907.710
910.084
897.210
903.120
908.217
904.615
905.324
907.022
909.368
911.319
907.135
902.614
913.441
915.201
915.642
917.253
917.051
912.103
921.300
916.663
922.514
914.365
922.739
909.653
914.189
910.639
921.840
922.417
926.977
926.421
925.204
916.998
916.490
919.712
923.300
919.328
931.214
929.478
924.208
932.540
930.788
920.989
934.528
928.596
921.840
928.110
929.117
926.646
929.319
938.753
933.404
937.704
939.963
938.177
940.929
931.786
933.020
942.918
936.509
933.908
935.450
948.508
946.591
936.373
937.843
937.709
946.311
948.064
951.313
953.245
950.292
943.786
940.450
949.618
951.127
941.837
957.130
950.478
955.121
948.288
940.120
942.731
946.277
942.235
949.545
941.754
935.779
950.443
937.758
933.840
935.827
933.674
938.682
931.683
934.333
938.207
938.673
943.574
930.127
938.465
929.727
936.265
928.445
928.592
937.012
937.590
935.585
933.749
924.811
919.518
919.368
920.168
924.605
922.392
926.075
924.999
915.570
918.737
927.209
927.592
926.753
924.606
919.578
921.891
908.858
923.298
921.187
920.880
913.508
911.518
907.406
919.775
911.068
912.909
913.916
907.927
904.114
915.422
901.590
900.948
902.874
902.152
900.974
908.075
899.514
900.706
906.408
906.408
907.143
897.037
895.151
892.777
892.093
899.859
899.134
892.088
902.106
900.376
891.294
889.322
897.954
888.187
882.687
882.789
885.275
886.034
889.469
884.231
881.364
881.376
889.911
881.876
889.975
888.546
882.978
875.553
881.470
874.844
871.787
874.626
878.706
880.275
871.468
869.204
867.244
880.422
870.008
880.445
875.600
875.778
864.127
865.579
865.341
865.682
862.294
871.318
860.053
869.654
866.188
872.393
861.383
869.381
858.607
859.658
860.228
862.137
863.341
853.075
851.888
855.056
856.468
853.288
858.274
848.679
846.715
850.328
850.652
851.284
843.873
850.646
854.500
844.489
849.166
848.689
851.973
842.085
847.470
845.430
844.921
839.805
841.903
842.357
838.921
846.954
836.476
840.150
845.674
832.084
840.484
831.847
829.558
832.673
839.548
832.405
839.966
836.655
830.864
839.399
829.975
834.141
825.994
832.578
831.763
821.272
821.763
832.059
824.375
817.674
825.861
822.271
828.211
815.130
825.269
814.635
819.699
812.528
813.997
810.991
811.093
812.070
821.339
811.250
812.468
820.240
806.853
807.389
817.019
806.822
816.000
812.917
825.126
825.161
823.892
824.273
816.319
824.823
827.999
836.051
829.475
835.980
834.352
837.408
834.666
835.930
845.412
847.157
842.648
839.779
841.427
841.996
850.789
848.192
852.159
849.324
856.259
856.751
850.630
856.179
863.096
868.581
871.619
866.826
860.828
866.915
864.417
871.981
881.135
869.072
881.417
881.360
872.987
875.285
876.760
880.638
884.519
884.234
885.292
888.488
885.820
896.039
896.678
898.405
890.517
899.560
904.709
909.740
902.528
902.470
906.775
917.085
916.342
911.928
918.794
916.587
918.393
914.172
923.396
927.944
926.527
924.544
925.652
934.148
930.040
938.148
935.777
931.186
939.944
933.537
943.066
945.555
935.737
942.128
944.510
940.851
943.161
957.342
958.024
953.332
953.293
956.377
956.333
956.842
961.468
966.072
964.149
965.725
959.739
974.845
970.900
976.826
968.915
981.013
982.202
973.920
978.233
985.291
987.052
984.939
992.946
982.360
982.550
992.737
985.417
990.945
997.748
993.125
1005.483
994.874
994.841
1001.898
1005.193
1009.732
1007.768
1005.711
1007.897
1011.923
1019.778
1012.224
1020.593
1016.984
1018.207
1016.007
1025.666
1021.026
1024.531
1025.660
1032.938
1038.062
1026.521
1038.980
1040.875
1039.989
1043.846
1040.907
1045.950
1042.864
1038.268
1048.882
1051.814
1044.411
1046.490
1057.382
1046.976
1051.893
1059.171
1056.276
1063.335
1055.530
1067.471
1063.280
1061.342
1075.338
1062.122
1072.553
1079.440
1068.498
1080.108
1081.978
1076.339
1075.217
1079.091
1078.879
1084.870
1080.412
1094.403
1086.528
1086.564
1086.880
1093.245
1100.167
1096.582
1106.309
1101.800
1108.082
1095.989
1097.899
1104.024
1100.292
1107.301
1108.197
1107.894
1108.197
1117.908
1116.202
1116.410
1113.728
1128.903
1125.222
1123.958
1119.453
1116.219
1113.060
1115.836
1122.032
1115.034
1120.740
1124.019
1117.922
1119.937
1117.384
1116.111
1121.058
1105.291
1114.762
1106.140
1112.930
1107.154
1103.836
1108.943
1110.398
1106.996
1111.157
1112.228
1112.998
1100.586
1107.599
1112.003
1102.081
1101.252
1100.856
1095.645
1104.949
1102.871
1099.510
1106.282
1101.030
1093.833
1104.054
1101.321
1096.790
1102.387
1089.322
1086.990
1095.137
1100.623
1087.335
1095.132
1085.020
1087.479
1092.551
1095.957
1081.818
1087.022
1090.059
1085.827
1090.469
1091.884
1093.125
1085.002
1086.795
1086.145
1080.587
1087.918
1089.092
1084.728
1084.481
1072.956
1077.682
1076.726
1083.127
1080.736
1070.013
1083.381
1076.300
1069.696
1077.831
1076.692
1077.027
1074.613
1076.173
1078.255
1076.826
1070.778
1063.027
1069.753
1066.251
1070.730
1064.722
1071.541
1065.964
1069.927
1058.557
1069.681
1071.089
1071.709
1064.198
1068.268
1063.285
1053.470
1062.350
1066.521
1058.323
1056.600
1065.943
1065.479
1062.344
1062.186
1049.265
1049.395
1055.572
1056.431
1046.992
1051.864
1056.962
1058.532
1047.582
1053.952
1057.486
1048.424
1042.155
1042.967
1053.252
1047.389
1044.108
1047.255
1043.510
1050.110
1044.527
1042.937
1048.281
1035.286
1047.200
1034.789
1043.353
1034.004
1034.200
1037.626
1044.650
1038.087
1041.115
1031.378
1032.356
1029.455
1032.240
1026.172
1038.689
1031.759
1032.913
1025.904
1037.043
1030.387
1033.820
1021.779
1033.032
1032.277
1035.120
1023.564
1026.428
1028.898
1021.863
1023.983
1023.394
1015.370
1016.149
1024.031
1025.879
1027.776
1025.682
1024.614
1014.497
1011.545
1020.400
1018.913
1016.889
1010.483
1017.396
1020.847
1014.076
1019.504
1017.566
1017.191
1016.749
1004.239
1016.368
1005.748
1015.078
1012.745
1014.472
1012.637
1003.576
1014.158
1010.782
1000.818
1000.355
1004.082
1006.312
997.209
995.175
1007.944
1002.672
1000.828
995.560
999.157
1001.303
986.151
999.481
992.214
984.634
981.524
983.767
979.872
985.352
987.353
988.928
989.102
978.917
987.129
987.057
982.865
984.087
980.112
979.538
971.407
966.124
965.427
965.024
973.648
970.559
959.511
963.671
970.823
968.014
958.451
954.671
955.860
960.502
950.156
953.001
956.452
961.236
961.131
955.593
956.401
952.638
947.258
949.268
945.362
948.222
945.923
949.593
938.246
936.828
946.000
934.050
937.935
938.776
935.378
936.880
940.587
929.408
927.383
935.899
927.891
931.556
933.422
925.755
929.585
924.459
925.390
921.822
919.308
918.490
923.105
918.270
919.264
915.131
913.774
908.068
908.112
916.176
904.664
904.332
908.359
913.110
911.151
897.019
898.552
908.065
892.236
892.270
903.043
896.655
896.399
899.192
889.737
893.385
895.372
891.164
889.330
892.522
879.184
878.941
885.965
882.311
885.455
880.427
882.827
884.343
870.636
872.985
873.519
871.281
875.221
868.619
873.287
870.109
864.710
873.664
859.255
857.830
856.234
856.816
862.356
857.928
864.869
856.443
849.218
853.107
859.604
845.894
852.554
856.485
842.997
853.860
853.165
849.185
850.029
842.871
847.476
846.265
836.419
842.192
831.373
835.467
829.918
842.115
836.158
826.244
838.864
835.050
827.429
833.997
826.771
828.339
819.784
824.555
828.606
827.105
821.627
813.504
823.113
823.809
814.738
815.243
815.497
813.945
807.672
805.490
806.032
815.612
799.981
814.049
809.486
799.709
796.092
795.947
798.116
799.599
797.786
791.988
791.290
790.259
801.009
799.892
799.547
796.745
790.447
782.578
793.250
779.305
782.302
776.848
776.065
786.818
779.762
787.180
783.283
771.068
779.325
777.575
774.140
773.383
771.754
759.937
762.986
750.965
761.925
748.725
759.234
756.442
747.031
743.851
738.054
747.019
733.386
740.839
737.747
729.562
732.995
723.871
719.736
723.405
713.217
725.139
722.438
722.000
718.553
715.977
715.126
708.957
708.227
698.052
701.264
689.239
702.337
696.496
684.726
692.401
681.750
687.099
676.605
677.176
670.015
670.371
678.884
674.037
674.859
663.710
671.302
668.735
657.225
663.699
656.646
648.059
654.991
650.668
644.272
644.731
635.818
643.722
636.275
633.347
640.303
638.096
629.459
625.103
629.250
616.960
611.977
620.732
619.821
611.835
610.338
603.975
610.941
603.553
603.556
593.895
603.640
599.910
593.296
591.029
584.119
589.007
581.470
579.011
584.668
574.219
569.118
571.944
576.429
563.543
569.354
558.391
556.644
564.187
554.473
563.808
551.897
546.648
550.393
546.414
549.922
541.792
544.744
531.578
542.996
529.241
532.452
537.394
529.545
527.839
523.777
525.663
515.124
520.036
506.937
505.967
513.517
511.538
500.975
502.536
506.580
498.165
489.547
489.636
496.731
487.433
485.201
479.323
481.338
475.393
478.767
482.897
478.460
476.001
462.617
472.501
471.571
456.591
464.811
457.769
457.899
461.265
447.963
445.046
444.474
444.683
436.797
438.787
431.697
429.996
432.071
436.151
436.699
427.747
419.180
425.542
417.453
416.171
418.179
419.922
420.537
411.237
415.621
408.211
405.431
400.195
405.778
391.573
397.511
393.356
390.165
383.256
387.343
391.322
386.371
387.533
381.309
374.886
374.398
372.310
370.519
372.746
362.905
362.614
352.842
364.226
352.349
351.359
357.482
353.529
346.838
351.335
350.110
341.161
345.430
334.433
343.110
342.192
325.149
331.781
326.316
323.867
325.159
319.176
317.806
322.562
330.357
320.774
319.078
324.661
312.211
312.276
317.359
310.218
313.144
304.551
311.601
303.879
302.568
306.981
310.203
304.915
304.394
306.159
292.447
293.429
302.435
293.342
297.421
299.959
290.180
286.542
284.176
281.185
284.663
282.198
277.851
281.628
287.895
279.108
279.199
271.945
267.507
271.501
277.183
277.992
273.895
270.082
259.877
266.731
267.407
263.468
267.603
254.145
263.586
249.822
250.693
252.553
255.483
253.641
243.487
241.920
249.001
254.428
238.347
240.146
250.256
235.502
238.149
236.512
241.261
242.606
239.932
231.231
237.612
226.669
222.965
233.880
223.882
229.372
217.459
225.009
214.322
227.844
217.910
223.886
224.516
209.667
208.755
219.912
206.155
210.940
215.802
200.998
204.021
202.841
198.350
199.972
194.312
202.656
205.002
200.249
199.928
194.388
189.378
185.740
195.517
183.104
191.763
185.620
183.257
177.472
183.817
188.243
183.780
182.650
173.505
181.220
175.779
179.642
166.894
174.212
169.113
162.786
163.511
163.340
167.518
509.702
538.029
515.951
526.505
498.185
504.350
527.479
493.080
474.930
479.073
507.592
462.563
465.696
456.811
453.207
465.786
467.461
431.544
436.527
452.492
450.665
457.936
409.496
449.540
412.046
435.647
419.042
396.385
416.261
395.241
402.231
407.769
371.443
364.874
382.695
367.384
351.959
347.739
371.871
363.332
355.793
358.951
372.479
366.505
329.938
330.231
325.206
303.888
305.562
343.058
320.066
307.560
282.740
292.324
320.209
268.574
310.743
275.833
264.183
298.183
289.267
251.563
253.448
253.618
238.453
239.995
229.872
