357.678
360.676
366.035
369.711
367.076
360.165
364.216
372.295
362.449
369.207
373.749
371.699
378.179
377.984
375.513
375.725
369.838
368.763
372.060
369.591
373.499
378.009
381.088
381.701
375.900
377.186
386.446
383.735
376.840
378.117
380.843
388.161
386.129
386.485
384.208
386.325
386.355
395.890
391.901
390.986
387.960
399.663
388.419
395.375
387.919
390.288
396.815
401.314
391.327
392.416
399.722
405.526
401.908
407.913
399.150
407.765
399.575
407.385
401.518
404.232
403.321
401.901
413.681
403.188
406.996
403.764
411.581
416.702
406.051
415.568
419.843
412.128
417.859
422.924
423.332
417.211
423.412
424.119
425.043
422.307
414.335
428.098
431.106
421.710
417.425
429.766
423.069
432.481
433.416
431.150
429.517
433.464
428.889
426.791
426.146
432.359
431.272
427.215
434.777
441.860
433.110
445.117
444.868
446.480
441.551
444.856
444.572
440.099
437.081
435.864
440.661
438.945
445.172
451.258
441.311
449.167
451.073
450.423
442.490
449.699
451.330
459.975
457.557
454.327
459.766
450.155
455.679
464.282
465.335
463.383
456.376
466.337
457.062
466.673
468.819
462.099
464.781
459.731
464.873
460.250
460.799
466.135
466.016
473.410
472.115
465.876
470.950
473.649
471.147
471.779
471.591
479.884
481.198
470.378
475.535
479.909
472.628
480.289
480.928
474.174
481.184
484.444
483.381
485.455
479.748
479.148
484.153
479.913
492.412
481.138
486.161
481.864
490.397
494.628
496.698
496.137
495.332
493.184
487.871
500.451
498.803
499.439
490.887
491.963
493.251
496.325
501.597
500.628
508.054
499.525
505.147
504.312
504.551
506.308
509.206
507.976
505.085
502.511
510.631
513.877
505.175
512.700
521.886
511.893
522.659
528.715
528.255
521.657
529.534
536.469
526.993
532.546
544.540
547.421
545.584
545.749
549.580
552.888
544.307
553.487
563.326
557.354
566.675
570.556
572.780
570.175
574.524
566.729
580.492
570.108
577.998
588.200
590.651
593.015
595.665
589.907
597.070
598.705
598.836
593.562
602.887
597.742
610.499
604.958
605.811
611.694
615.363
615.399
620.296
622.191
620.264
623.869
634.985
629.957
639.595
634.373
636.547
642.722
643.267
650.881
654.531
643.813
650.680
652.685
663.003
662.602
660.129
664.229
658.652
673.741
666.188
667.770
669.296
676.409
685.461
680.751
682.034
693.329
689.496
687.348
694.511
694.162
693.737
699.578
705.403
707.823
703.806
707.598
709.426
718.597
723.112
717.923
722.160
719.629
725.747
720.290
725.624
729.857
729.527
743.418
732.815
739.867
743.758
753.037
755.745
747.930
757.180
752.128
762.565
764.363
763.396
760.286
767.109
762.195
767.964
768.620
767.686
771.105
785.369
778.505
778.264
790.825
782.780
797.674
791.945
792.654
797.723
803.260
807.227
801.287
800.392
816.436
806.407
818.479
809.663
816.384
821.253
827.714
818.509
824.302
824.504
836.743
840.644
845.307
842.076
840.391
846.971
844.128
848.051
848.046
852.574
855.543
852.576
860.366
869.772
872.307
862.815
872.017
874.237
867.790
877.863
882.688
888.711
884.791
881.766
881.648
882.570
885.787
900.503
897.479
897.712
906.434
895.985
902.775
904.262
908.706
916.041
922.883
916.765
925.129
917.730
923.084
923.032
936.567
931.501
938.590
934.803
932.747
938.785
941.230
946.441
953.962
944.549
956.191
951.895
958.985
966.561
954.399
958.256
963.576
960.881
967.437
959.976
958.391
969.211
957.702
958.558
949.553
962.758
946.713
946.433
953.614
946.715
948.243
946.903
943.380
940.779
949.086
943.124
939.840
936.962
938.285
940.960
937.873
934.772
935.059
928.224
932.197
928.821
922.889
926.206
926.923
914.587
914.605
911.223
919.480
921.459
908.381
917.867
908.129
917.037
911.422
899.913
903.929
900.629
894.231
899.101
901.751
904.239
900.749
894.643
894.268
885.149
896.647
893.728
882.949
891.773
885.292
875.065
884.617
886.921
875.791
877.776
870.912
869.393
878.939
870.950
866.723
869.538
869.363
862.783
861.703
854.354
855.191
854.706
850.801
862.740
852.736
857.665
854.228
853.347
848.419
841.742
845.109
840.738
840.393
847.220
839.817
835.811
844.175
843.721
834.164
829.236
832.366
824.585
825.496
828.329
832.117
830.386
828.073
813.979
826.692
812.372
813.019
808.459
821.239
809.716
814.903
809.260
812.941
811.762
807.060
801.657
803.908
805.619
802.506
789.719
793.366
797.229
787.972
793.511
785.905
791.998
779.824
786.432
777.301
778.216
788.422
775.800
782.103
780.875
783.387
781.657
773.008
776.306
769.505
769.381
768.612
760.312
768.414
762.723
760.199
757.247
764.079
762.602
762.038
752.741
758.144
758.515
748.160
740.040
738.736
748.892
747.614
739.878
733.517
744.847
734.515
735.886
730.312
732.967
733.342
728.271
727.415
725.534
731.266
727.908
728.768
718.375
715.022
720.091
719.402
718.431
706.995
711.204
717.870
707.290
711.420
710.501
708.611
711.609
703.430
701.476
693.592
701.317
703.626
687.426
699.009
690.281
684.921
690.206
684.315
687.657
682.556
678.412
685.920
675.432
680.926
671.309
670.839
671.968
680.064
679.634
681.271
675.559
681.262
679.775
676.407
686.673
680.672
681.752
679.396
683.178
683.791
682.297
681.436
682.961
688.038
686.098
690.235
689.618
698.450
694.203
699.042
697.351
689.946
693.298
695.223
699.504
703.061
697.545
699.354
706.545
707.857
704.427
699.740
695.811
707.493
703.202
704.055
706.662
703.133
702.671
710.779
712.480
716.044
713.672
709.155
712.986
720.114
717.832
721.191
715.027
713.841
723.251
718.866
718.347
716.434
727.886
716.027
719.779
723.468
717.001
725.386
724.051
726.226
730.956
723.666
731.359
734.771
734.941
732.155
727.382
727.828
739.563
739.975
730.459
735.673
730.469
742.267
744.016
735.464
746.073
734.604
738.523
751.334
747.040
737.744
738.463
747.056
740.199
752.356
756.650
747.163
749.013
749.336
759.537
751.729
759.906
759.798
762.630
751.096
757.625
757.915
763.370
752.282
767.654
757.688
754.236
763.415
763.231
770.468
770.194
769.016
770.378
761.431
767.032
766.648
763.291
764.560
766.857
768.471
770.183
773.064
781.806
773.670
775.493
780.013
774.751
776.124
784.396
775.881
778.638
780.430
780.970
782.566
789.408
778.533
787.418
785.576
780.903
785.563
784.656
795.407
798.695
797.023
786.635
788.720
794.920
803.164
792.663
789.305
802.001
792.079
792.513
792.856
800.867
800.908
810.037
806.988
807.572
809.225
803.435
801.066
803.939
800.855
806.714
813.571
813.416
815.804
805.407
818.896
821.788
818.257
823.127
819.845
822.779
822.390
825.462
817.041
813.202
820.658
816.635
818.260
819.083
826.322
822.948
819.660
829.570
831.740
825.565
828.193
835.891
828.770
830.819
832.369
836.141
830.203
840.278
836.122
843.037
836.569
841.024
835.872
830.891
835.523
843.470
842.051
832.793
839.899
848.923
847.193
845.126
843.868
842.625
842.972
841.819
845.104
846.775
851.932
846.972
843.367
845.224
845.975
848.425
847.727
843.712
851.626
841.739
846.279
856.464
854.483
855.026
857.190
850.863
851.098
848.474
847.476
848.479
854.995
850.053
848.985
852.446
850.697
857.440
862.462
863.600
855.680
856.374
854.840
852.707
859.940
864.000
856.668
857.585
866.004
855.040
868.401
868.315
859.045
868.637
856.679
867.780
859.315
858.280
861.073
859.295
872.656
865.225
860.755
862.229
873.983
861.941
870.766
873.551
864.472
861.779
873.418
869.624
866.023
872.164
868.538
873.710
872.766
865.473
879.754
876.573
869.045
870.203
871.293
871.098
880.690
869.811
871.244
870.602
879.853
881.803
876.071
871.607
882.941
880.973
884.111
884.045
885.496
877.780
886.930
876.295
887.223
885.188
881.567
886.408
889.965
879.152
883.427
882.409
885.513
881.272
893.509
890.640
886.493
894.645
886.953
895.144
885.568
886.853
887.593
897.832
890.586
888.722
888.746
894.712
895.853
886.580
898.895
902.287
887.664
889.332
897.833
892.691
897.369
901.139
904.387
902.695
904.698
906.386
903.922
900.961
897.482
898.171
898.989
900.669
902.749
896.265
901.460
910.344
900.590
911.591
897.642
910.505
911.303
904.174
902.721
899.403
901.575
912.640
901.625
913.716
904.637
908.344
910.403
915.931
917.092
909.080
916.619
906.453
912.637
919.857
918.183
918.923
906.670
922.051
910.112
907.233
915.211
915.600
908.779
910.504
919.854
916.807
916.899
919.929
918.091
927.201
926.160
917.684
917.491
914.478
914.929
922.663
929.571
916.703
924.410
922.931
919.315
927.675
923.934
921.682
930.569
925.526
925.620
934.646
937.355
938.060
924.087
931.902
926.132
940.060
929.796
941.342
933.777
928.960
934.923
934.418
931.526
939.277
945.780
937.291
933.878
937.303
945.197
941.895
945.681
938.025
951.917
945.931
950.173
951.330
950.612
943.653
955.837
952.881
951.290
953.166
949.174
950.931
951.463
956.692
951.123
963.641
958.876
956.113
960.106
966.558
965.482
956.076
964.707
960.290
959.493
969.207
958.802
963.689
966.490
967.990
967.621
963.806
960.844
971.867
966.187
971.654
974.339
971.957
971.036
971.118
976.355
974.463
974.037
970.182
973.175
985.401
971.964
986.488
982.095
979.008
979.468
987.121
977.735
977.144
987.203
987.853
982.203
987.756
981.725
990.694
982.399
995.137
990.246
993.159
983.631
986.135
1000.258
986.115
988.463
989.082
988.822
998.767
995.138
999.492
998.122
1001.839
994.630
994.248
994.938
998.634
1004.656
1005.576
1007.675
998.838
999.099
1013.412
1013.068
1010.031
1011.772
1013.435
1004.750
1012.768
1010.584
1014.867
1018.670
1014.219
1018.533
1008.476
1017.995
1021.429
1011.960
1010.598
1019.892
1025.509
1019.829
1011.987
1016.380
1020.199
1022.430
1017.952
1030.323
1024.797
1021.559
1021.866
1034.089
1025.652
1030.769
1024.990
1025.719
1025.230
1037.591
1028.382
1037.030
1038.885
1040.270
1034.279
1039.590
1031.510
1031.037
1043.669
1043.160
1036.483
1044.343
1033.007
1041.270
1045.020
1039.237
1037.193
1042.068
1035.827
1050.687
1042.641
1038.004
1053.300
1044.349
1048.448
1041.631
1046.259
1047.754
1057.399
1045.146
1044.785
1049.835
1058.752
1056.114
1062.979
1048.516
1049.114
1055.013
1052.427
1053.665
1064.454
1062.126
1064.844
1062.639
1062.777
1065.425
1059.133
1066.940
1067.188
1061.771
1053.240
1056.433
1053.378
1058.817
1057.733
1050.736
1050.406
1049.813
1038.837
1036.780
1037.512
1035.274
1033.354
1041.025
1039.927
1028.294
1026.766
1024.246
1031.623
1029.371
1020.447
1027.090
1027.742
1020.549
1026.720
1014.806
1019.809
1009.076
1009.726
1006.352
1015.444
1004.180
1004.925
1011.373
1008.588
1005.083
1002.046
994.444
1004.798
1004.879
991.468
995.007
997.434
996.476
986.763
986.701
982.257
981.000
981.004
980.776
979.082
984.482
981.957
975.922
973.840
977.916
971.390
976.602
966.622
975.277
969.805
960.702
964.916
965.858
966.627
960.365
956.669
953.908
959.012
954.539
959.790
952.665
944.134
942.372
952.056
951.171
937.505
947.780
940.073
946.080
931.252
942.339
934.648
926.206
934.796
926.274
923.549
922.761
922.671
922.253
916.801
917.897
911.300
920.079
912.914
920.443
909.087
906.299
907.158
915.578
911.390
912.613
911.845
909.962
895.560
894.559
899.099
889.294
899.010
896.809
890.353
895.599
885.561
881.939
885.932
882.962
887.936
877.193
885.700
875.001
874.576
880.299
881.173
869.730
878.722
869.059
860.246
871.055
857.960
864.262
857.878
855.558
858.810
857.402
850.134
857.434
846.830
857.492
844.242
840.992
846.318
842.765
850.991
835.831
846.850
835.690
843.801
839.687
829.980
840.700
837.252
826.322
834.105
827.138
819.227
819.962
821.858
829.111
826.846
810.270
815.566
822.861
808.858
818.530
804.352
813.704
811.160
809.772
807.078
802.866
793.682
801.628
805.684
789.747
799.352
787.966
790.087
786.666
795.187
780.218
788.176
777.803
781.047
778.290
784.999
778.734
775.193
776.722
767.866
765.928
770.149
763.275
775.469
772.647
768.568
760.256
757.004
759.356
768.973
755.184
759.201
758.027
757.739
751.912
764.178
748.970
748.784
759.725
753.744
757.044
756.879
747.879
750.203
753.211
754.395
744.994
744.463
750.349
749.230
747.441
742.442
741.542
743.900
736.425
750.221
738.711
736.410
733.343
739.206
744.805
740.269
741.184
740.377
744.620
739.404
729.656
733.257
728.281
736.530
729.428
724.685
734.879
731.964
733.328
734.707
721.025
728.815
722.655
733.521
725.065
723.449
721.922
719.224
729.351
726.130
728.854
720.907
727.913
716.548
718.500
712.292
711.798
720.770
717.638
711.857
712.739
711.502
708.411
718.789
714.659
713.107
718.125
711.950
706.909
705.755
708.383
706.773
714.086
713.041
706.858
703.016
708.492
699.387
709.670
705.754
697.786
703.629
703.757
706.166
692.861
694.299
698.534
703.693
701.255
690.033
686.316
689.309
690.810
694.122
692.471
696.090
684.456
689.264
695.767
680.715
691.228
681.883
679.682
680.466
679.725
684.044
675.078
689.486
680.198
680.908
675.771
672.993
680.871
676.823
674.620
678.187
679.541
668.494
667.624
681.395
675.549
669.567
676.158
663.440
674.734
665.334
673.918
663.275
663.656
662.294
658.017
660.975
660.397
659.541
664.731
655.853
654.747
666.948
653.488
658.029
663.697
655.261
652.735
655.473
660.198
663.420
647.381
647.885
649.397
653.822
654.064
653.650
648.445
644.547
644.965
655.284
643.159
648.179
639.369
639.734
637.463
643.720
648.331
636.934
644.717
640.601
637.632
636.853
643.858
637.237
635.026
638.174
639.754
635.664
636.621
636.077
626.522
635.302
629.747
625.978
628.780
625.269
633.885
624.697
621.427
628.316
628.054
622.543
619.493
626.042
631.895
629.382
629.866
623.652
634.574
622.543
636.274
622.453
629.400
625.011
626.907
631.631
638.323
636.433
638.426
638.019
641.379
634.637
641.039
638.757
647.629
652.608
643.566
652.549
642.283
642.406
650.225
651.055
648.847
654.368
649.923
659.630
657.865
665.675
665.980
654.008
653.970
655.088
669.862
670.748
672.274
664.442
661.944
673.613
667.018
673.840
673.045
672.251
672.697
668.835
681.927
686.042
675.567
686.998
686.898
683.009
690.280
686.628
692.306
693.749
689.572
682.358
694.418
687.149
697.204
699.113
688.845
701.541
694.478
696.814
700.660
700.448
700.173
700.089
704.753
710.499
707.286
704.560
711.299
703.145
708.003
710.988
718.570
712.265
713.548
722.351
721.905
724.410
719.793
724.469
725.670
726.580
726.585
719.903
730.756
722.146
729.337
735.569
731.327
733.557
728.322
740.664
740.666
729.879
736.344
743.054
741.409
737.669
736.692
745.493
745.824
746.827
745.278
747.880
747.872
740.912
748.589
750.578
745.721
749.817
751.710
751.526
752.924
759.942
752.491
759.642
760.989
757.496
762.344
765.467
771.879
763.272
763.325
765.677
764.692
764.234
767.883
776.920
766.308
774.255
777.533
778.688
779.425
771.374
783.858
783.396
785.500
781.446
791.903
789.689
787.174
789.512
790.741
786.559
786.704
790.423
793.185
789.418
802.136
788.964
796.540
793.510
800.789
807.885
794.496
807.833
806.351
804.009
810.906
808.884
804.920
812.810
817.224
814.020
807.142
808.069
807.312
819.792
824.152
811.695
822.393
820.663
823.061
827.849
822.524
817.631
825.132
819.940
834.747
821.606
830.635
826.871
829.973
836.510
828.006
839.808
830.069
839.354
837.823
834.685
847.063
847.101
840.330
838.424
838.587
850.879
841.374
842.959
852.130
847.004
845.716
860.885
847.150
853.939
850.930
849.762
863.530
861.130
864.703
857.894
855.469
855.898
863.488
868.452
858.853
861.025
867.986
872.262
867.139
866.294
869.447
869.375
873.853
872.096
883.732
876.257
876.356
883.897
880.893
879.681
878.268
891.370
881.327
891.182
885.507
886.110
890.036
889.487
887.447
890.391
900.881
902.445
888.939
892.178
904.944
905.180
895.810
903.542
907.545
908.967
907.732
898.554
910.423
907.636
904.114
912.062
905.362
917.342
915.149
908.876
912.446
913.731
923.319
925.369
923.246
920.786
918.684
928.988
928.040
922.387
932.346
931.772
921.969
926.051
925.573
923.966
937.386
934.876
926.658
937.233
931.822
943.752
939.491
946.484
944.810
943.440
944.656
945.385
939.512
943.428
944.101
941.792
944.195
954.843
947.626
947.246
954.963
947.141
956.471
947.723
958.814
952.338
954.126
958.904
962.407
955.804
963.924
965.232
965.424
968.937
971.763
974.757
963.656
975.882
967.805
977.108
970.907
969.784
969.491
974.229
974.765
986.545
981.274
977.332
975.023
980.695
977.458
983.955
978.658
979.653
984.961
995.721
982.195
991.420
988.863
992.789
986.776
990.769
995.964
1004.215
992.931
1007.498
997.216
1008.230
996.884
1004.162
1003.260
1001.564
1002.027
1001.250
1002.686
1011.476
1007.256
1006.699
1011.303
1010.846
1018.385
1014.077
1013.454
1012.365
1015.531
1015.285
1026.296
1027.053
1017.995
1027.431
1019.733
1027.911
1030.058
1025.110
1021.896
1035.679
1030.820
1040.367
1037.667
1036.419
1028.868
1039.290
1034.444
1041.718
1046.037
1038.070
1046.866
1040.562
1047.362
1051.790
1048.130
1041.870
1051.997
1053.397
1044.618
