640.340
642.031
642.689
642.436
652.299
649.357
654.026
645.361
646.906
651.493
643.721
654.583
651.065
658.143
645.513
661.472
659.932
655.928
662.708
659.220
653.296
664.114
665.965
662.715
655.173
661.742
662.902
666.357
668.984
664.460
670.827
660.096
668.904
673.868
672.268
668.432
674.689
669.930
667.243
669.079
673.281
671.410
672.417
671.370
683.524
681.967
675.403
683.710
680.413
682.578
690.838
676.221
682.219
679.464
678.829
695.018
693.224
682.597
688.635
685.374
685.186
696.616
694.212
701.374
693.794
695.255
689.604
696.982
693.058
692.864
698.454
707.384
701.851
704.533
700.763
711.830
705.934
706.724
699.132
714.404
708.844
704.029
712.273
704.625
705.539
712.218
708.894
720.629
720.386
719.275
721.973
721.340
726.253
725.976
721.280
721.918
729.591
714.940
730.006
717.273
717.818
730.997
731.628
731.231
735.894
724.257
735.367
728.870
738.182
726.039
726.442
739.382
728.732
729.909
741.743
741.737
746.161
744.266
745.463
742.564
750.028
745.443
747.867
748.201
747.547
744.165
747.450
750.692
749.122
744.963
752.139
756.859
758.899
756.614
745.994
755.309
750.770
748.554
757.745
758.143
755.214
756.952
754.131
763.401
767.972
755.229
769.820
767.674
773.529
773.648
774.365
773.846
762.843
767.756
770.095
768.137
768.385
766.202
773.278
771.776
781.256
774.789
781.159
779.137
781.302
776.277
774.462
774.207
775.986
789.947
783.464
792.655
792.556
784.629
790.178
789.214
786.896
786.000
787.771
793.975
787.376
787.013
799.222
795.634
795.224
795.566
794.080
794.658
805.468
794.843
796.089
803.208
799.237
810.912
811.842
808.286
813.505
812.975
803.283
809.149
810.950
809.848
809.423
815.288
805.840
816.204
814.894
816.827
812.119
812.305
811.040
804.655
805.696
819.699
813.962
817.754
818.026
808.462
807.192
812.412
811.217
814.353
820.381
817.656
813.894
814.617
813.843
816.920
809.364
810.178
808.535
808.044
816.978
816.971
809.676
813.955
809.990
823.137
809.541
819.588
815.287
823.947
821.020
825.292
810.961
810.972
822.983
824.860
824.410
821.651
816.225
818.908
814.682
817.666
824.150
820.740
821.457
814.099
828.925
826.436
825.890
814.941
827.299
826.788
818.033
827.295
826.177
830.382
820.119
829.930
822.791
816.358
820.825
831.551
820.694
824.530
819.621
818.721
832.881
826.342
828.185
824.177
820.549
826.710
828.367
829.472
824.439
823.935
827.689
830.746
829.514
822.470
827.919
836.027
836.014
832.623
824.650
836.758
836.517
822.646
822.218
823.498
832.956
837.338
827.971
823.904
827.586
839.249
824.986
829.507
838.018
828.045
826.595
825.983
831.648
839.122
837.384
835.845
835.233
840.990
827.980
841.892
840.792
830.710
834.562
837.034
830.399
835.934
833.547
833.449
833.460
837.614
842.240
842.489
842.272
829.197
842.179
841.414
842.232
832.659
839.067
844.688
832.137
843.407
840.888
846.050
846.663
842.792
846.764
833.519
845.657
847.572
837.249
843.431
840.018
847.191
843.532
837.920
835.665
835.973
847.906
835.098
843.299
848.853
841.986
847.942
843.919
839.713
835.990
839.432
843.204
850.565
845.232
839.456
845.862
847.113
839.081
838.998
843.852
849.472
846.741
843.228
848.901
850.916
845.154
843.787
848.105
847.421
852.165
848.768
854.194
844.594
844.874
841.671
844.655
845.772
849.968
842.830
857.761
844.186
848.599
854.541
842.148
851.965
855.202
841.411
840.377
845.532
852.860
837.540
838.845
841.059
846.968
846.287
849.706
846.206
836.685
844.334
845.471
839.327
838.041
838.646
839.651
841.925
832.536
833.378
833.641
835.449
836.646
840.077
829.447
835.774
827.959
824.200
835.476
830.014
826.176
834.629
821.509
820.389
830.332
819.981
827.405
825.806
819.199
829.672
830.525
820.231
823.620
815.050
816.596
827.348
826.019
827.399
815.731
825.199
813.292
824.734
815.135
817.997
814.416
814.402
808.343
817.821
813.722
817.900
808.928
811.414
815.659
802.746
814.489
803.231
804.897
809.560
811.112
808.321
807.314
805.141
806.399
806.706
803.787
802.358
801.543
810.284
806.853
797.316
806.603
803.694
801.498
793.934
797.273
805.592
795.782
792.710
793.981
796.366
789.828
792.658
798.731
788.313
799.331
799.179
799.570
791.312
786.343
795.667
796.735
795.875
788.092
783.988
790.765
786.650
778.563
777.832
790.669
787.384
789.261
787.970
776.966
785.145
788.857
774.422
785.497
777.980
771.654
773.609
780.382
772.064
774.816
780.844
781.635
776.456
777.222
781.250
769.190
766.770
771.133
777.312
764.579
765.706
775.241
768.119
776.024
774.316
772.547
771.531
767.329
762.642
760.309
764.606
763.700
756.487
768.056
762.514
769.072
768.801
763.363
754.714
758.630
751.078
757.911
753.967
752.056
758.838
749.570
761.157
754.997
749.463
754.601
754.525
752.503
747.044
756.342
744.675
747.059
742.749
746.278
750.569
750.504
745.427
748.647
738.719
742.369
745.845
741.923
739.913
749.836
736.660
748.054
743.589
737.668
734.574
744.961
742.649
732.507
735.258
742.447
735.059
738.498
742.757
738.042
733.760
744.204
741.384
743.356
743.640
732.970
744.289
745.498
736.674
752.384
738.098
750.493
746.712
742.624
752.539
755.581
759.082
747.709
753.176
761.200
754.442
756.671
763.142
750.309
757.398
752.983
753.654
757.493
767.513
765.754
767.200
770.447
766.584
771.307
774.082
762.847
768.573
778.797
778.073
766.965
766.404
767.319
776.927
777.539
779.538
771.004
781.043
787.019
789.102
780.459
786.973
790.172
781.965
782.353
794.219
782.001
795.465
793.708
790.339
795.845
790.773
789.833
792.240
789.695
791.732
797.359
792.258
800.319
805.211
806.382
808.182
795.602
806.730
797.730
812.392
809.386
806.820
801.167
802.384
816.581
814.930
817.612
821.548
814.043
816.668
811.234
815.287
820.317
826.246
816.512
820.110
825.945
816.454
818.285
820.934
822.108
831.136
822.449
825.940
825.200
835.612
832.160
840.557
836.030
839.953
843.453
843.990
830.850
830.441
831.724
833.389
847.550
842.257
849.843
839.358
848.198
853.583
843.096
845.936
846.271
852.079
856.630
849.615
849.923
851.214
853.100
853.973
855.987
849.638
864.069
860.480
854.157
861.690
867.075
868.560
861.656
869.268
865.754
869.251
873.420
862.053
868.411
863.854
865.027
877.251
874.416
867.071
877.855
875.287
881.961
873.383
872.952
873.551
883.033
881.802
876.909
881.692
886.503
892.982
890.265
884.408
893.446
890.560
886.043
894.773
898.762
897.605
900.590
898.178
891.006
899.004
904.408
894.266
895.436
899.654
901.025
906.732
908.796
899.893
912.400
914.380
915.328
913.340
917.142
905.632
905.630
908.670
905.865
919.873
911.930
908.647
919.578
924.778
925.945
913.754
913.477
923.603
925.649
929.179
923.305
928.906
917.020
931.299
919.151
923.451
915.125
925.576
919.434
914.943
925.647
924.477
923.283
915.416
920.655
913.696
923.171
916.140
918.674
921.918
916.031
915.660
914.176
912.629
922.642
920.810
920.690
916.683
921.860
909.828
913.984
920.872
912.944
915.057
917.162
911.443
914.590
917.197
917.349
917.989
907.212
911.046
911.494
912.189
908.804
911.509
907.205
901.874
913.088
910.499
905.647
901.618
908.360
903.012
903.168
906.583
901.053
900.274
903.275
906.615
907.156
906.348
896.902
901.984
906.460
902.368
909.369
904.153
897.840
904.460
908.080
901.326
895.352
895.527
895.277
904.822
896.854
904.830
903.836
899.535
901.036
897.942
897.782
895.962
898.974
888.380
890.615
897.642
890.460
890.629
888.708
896.452
901.140
885.387
900.535
895.983
895.518
892.956
896.098
883.151
886.363
888.808
885.971
891.740
896.537
883.254
885.677
892.786
880.775
892.094
879.582
887.724
886.656
890.473
880.078
880.939
883.509
883.339
879.849
883.835
888.711
878.145
881.143
875.559
879.942
883.856
883.777
887.111
878.305
883.268
872.546
874.984
877.896
883.513
879.963
870.606
871.704
875.236
885.518
871.857
872.455
872.018
878.064
881.277
877.943
870.688
882.405
877.545
867.542
869.793
880.611
866.832
879.586
880.044
864.412
877.552
867.584
877.287
874.143
867.467
869.645
861.864
866.854
873.764
872.195
868.269
866.034
862.509
863.542
862.262
861.207
859.095
858.997
857.591
863.997
867.512
864.497
867.507
863.101
867.373
861.865
870.292
855.070
868.273
854.135
859.165
865.446
854.468
864.590
861.193
866.787
864.394
854.466
851.950
861.614
859.809
855.700
855.668
854.073
862.385
858.917
857.551
850.364
849.371
850.838
859.081
843.823
856.634
847.212
848.362
841.966
853.265
846.982
844.888
850.592
836.598
842.622
840.794
843.317
842.201
845.366
840.838
839.989
836.396
833.496
830.214
836.905
832.752
839.165
837.270
821.821
825.364
832.517
825.103
821.109
831.274
816.334
823.604
824.942
827.203
818.827
827.034
821.588
816.115
820.619
815.760
813.732
816.813
810.804
810.400
805.338
807.373
815.751
814.689
810.143
804.276
810.956
802.246
800.353
797.402
810.219
803.390
798.679
798.711
792.334
799.651
804.841
792.929
789.115
789.601
797.568
792.854
790.052
797.608
793.630
785.793
786.161
792.820
783.751
778.198
790.790
781.755
789.862
790.104
788.653
786.761
785.346
777.660
782.196
773.855
775.867
775.371
779.771
772.754
769.996
778.574
770.832
775.127
766.416
764.319
766.236
766.322
772.854
757.016
771.322
758.306
755.420
761.448
764.528
753.673
762.253
759.063
760.359
759.510
747.677
757.913
755.220
745.940
746.981
751.700
751.093
746.099
742.102
739.658
741.635
738.018
749.858
746.636
746.127
742.631
742.263
736.000
736.914
745.270
739.539
736.166
737.524
735.433
734.354
737.875
730.478
734.773
737.863
732.712
732.231
729.406
728.447
731.541
728.361
716.400
726.347
727.713
719.496
722.552
712.753
725.318
712.669
718.104
716.524
711.876
712.082
712.441
705.610
706.320
706.028
707.189
708.990
712.893
700.907
712.770
698.255
711.943
698.688
699.618
698.684
695.017
704.048
703.994
697.399
701.235
691.191
703.157
694.981
694.215
685.923
696.586
684.780
695.612
696.507
682.815
691.270
685.896
687.372
678.192
683.319
684.149
682.752
683.055
674.170
685.515
672.326
681.386
688.019
686.046
676.720
680.355
683.703
680.975
687.755
684.615
685.474
696.189
695.154
686.196
693.657
687.266
699.609
692.173
692.868
697.186
701.353
695.782
700.403
698.394
702.545
706.939
707.054
701.664
700.357
708.733
712.850
699.748
714.161
705.709
706.473
705.153
715.612
710.034
710.430
715.986
714.733
712.303
724.057
710.988
721.250
724.944
721.343
714.222
719.784
716.188
723.789
732.221
725.110
735.222
731.883
731.073
736.701
724.910
738.218
731.914
732.438
742.085
728.103
742.942
733.677
741.990
744.506
740.925
734.215
735.919
736.922
742.093
739.499
742.405
744.494
752.993
745.110
743.551
747.984
749.960
748.311
755.296
753.309
761.467
758.783
760.343
753.054
765.039
765.423
755.385
761.694
767.955
765.584
771.029
761.088
759.920
763.510
763.247
772.530
775.567
778.763
767.610
779.186
770.587
779.767
779.911
777.362
776.402
774.926
785.627
780.692
787.823
781.447
786.145
788.693
779.619
780.905
786.012
788.768
793.773
790.438
798.048
792.726
797.936
794.827
801.349
787.414
791.181
803.335
800.432
803.686
801.749
800.667
806.868
806.518
800.402
812.252
810.677
806.164
813.402
803.174
807.019
816.423
815.950
808.236
819.025
821.739
813.454
820.159
809.317
813.530
812.095
826.241
825.110
821.864
815.260
828.208
821.546
831.089
820.258
831.141
820.012
834.018
836.314
836.031
830.974
834.173
840.473
826.700
838.491
843.525
832.714
844.801
833.440
840.621
836.956
838.481
845.228
845.858
837.128
846.005
853.798
853.898
848.693
855.667
853.683
854.788
858.253
848.466
853.889
858.515
850.557
852.773
864.069
851.501
866.260
865.404
864.064
865.135
869.939
866.722
862.915
872.584
865.358
877.449
864.019
869.641
871.057
881.686
879.034
872.728
878.534
876.835
886.638
887.578
882.313
893.815
888.902
885.446
885.686
886.033
895.859
887.719
890.434
900.850
893.369
903.989
904.036
895.787
900.224
903.437
912.441
910.556
909.380
910.166
912.186
905.496
912.639
913.391
924.904
921.868
916.474
924.856
915.025
931.290
920.714
924.624
927.100
926.097
925.856
937.490
940.445
938.008
941.134
932.317
947.158
946.757
947.554
944.817
950.258
940.785
947.160
947.417
956.592
951.080
949.305
959.883
959.490
961.126
966.432
961.265
963.102
961.304
968.166
968.572
968.172
972.886
972.566
963.178
974.519
976.839
982.813
970.625
980.805
981.988
979.301
986.394
990.679
979.435
992.862
993.620
995.635
985.315
995.592
998.693
998.580
995.847
989.618
999.356
992.501
1000.839
1004.827
1001.284
1007.064
1004.758
1007.916
1003.520
1013.195
1009.753
1017.846
1016.272
1022.288
1010.169
1022.144
1016.388
1026.392
1022.320
1022.567
1021.565
1030.063
1032.998
1027.010
1026.438
1026.308
1034.640
1031.548
1034.615
1036.665
1031.320
1041.360
1048.185
1051.284
1044.694
1053.900
1040.360
1051.661
1048.696
1051.722
1058.525
1055.583
1056.217
1056.496
1055.253
1052.205
1068.222
1070.325
1066.658
1065.355
1069.473
1068.892
1069.082
1073.545
1072.426
1074.161
1071.870
1077.597
1082.655
1077.615
1078.453
1086.513
1078.471
1089.419
1082.328
1079.446
1084.736
1088.489
1089.475
1085.020
1101.868
1098.395
1089.894
1105.953
1106.602
1098.578
1109.529
1100.018
1099.066
1108.475
1104.363
1111.611
1116.808
1114.916
1115.700
1118.598
1108.815
1119.333
1115.943
1115.799
1120.241
1124.810
1123.826
1118.414
1122.289
1131.318
1128.068
1138.751
1127.383
1136.097
1137.840
1135.118
1130.780
1130.462
1130.119
1126.660
1131.683
1132.234
1128.333
1133.345
1135.125
1131.327
1125.277
1127.649
1123.344
1122.377
1120.965
1119.437
1116.607
1117.398
1119.958
1112.242
1116.409
1110.591
1106.721
1110.803
1106.563
1112.498
1102.178
1101.939
1109.005
1102.781
1104.462
1111.214
1106.553
1101.123
1093.278
1092.512
1099.680
1099.244
1102.187
1100.770
1098.167
1086.324
1094.918
1091.501
1095.730
1086.017
1090.296
1084.837
1083.904
1085.352
1084.767
1077.284
1083.205
1081.743
1075.079
1075.214
1073.126
1072.360
1069.018
1071.468
1071.186
1069.359
1062.924
1066.824
1070.680
1067.986
1068.754
1066.447
1063.259
1065.234
1055.729
1059.687
1052.450
1064.820
1064.856
1062.190
1049.465
1053.638
1047.104
1056.202
1054.562
1055.321
1043.085
1049.999
1052.036
1050.847
1048.314
1050.127
1036.314
1035.574
1033.107
1036.683
1038.312
1032.879
1032.276
1034.739
1029.948
1036.861
1035.485
1029.324
1026.618
1024.910
1021.089
1018.514
1028.480
1029.861
1018.390
1027.580
1013.756
1021.288
1011.524
1019.051
1020.029
1017.707
1016.342
1013.724
1012.568
1008.632
1015.943
1002.508
1003.115
1008.410
1012.813
1005.449
1006.128
1001.029
1002.848
1005.403
991.886
995.644
995.123
998.582
1001.053
999.949
988.442
999.180
992.863
985.447
988.281
985.291
990.117
988.115
978.183
985.616
988.474
982.583
977.629
973.145
980.675
970.162
980.297
974.227
968.314
973.366
968.042
974.014
966.516
971.197
965.435
963.178
960.214
960.285
962.670
961.320
956.817
960.358
955.891
954.771
947.939
948.608
948.006
955.768
947.446
954.615
953.316
951.594
949.873
938.247
949.685
945.102
935.684
934.569
942.356
941.737
935.589
929.375
931.442
928.833
929.759
932.026
935.632
924.171
926.364
920.647
930.448
932.758
925.146
918.632
922.792
929.073
917.009
918.495
914.973
912.569
905.740
905.429
894.585
896.940
891.438
895.809
892.977
892.407
881.379
877.901
875.543
875.680
871.261
861.306
871.894
866.094
861.007
854.272
847.803
853.840
848.924
844.882
834.203
836.204
834.176
825.350
822.906
826.530
823.302
822.805
807.538
818.405
803.321
805.151
801.238
802.735
798.133
786.019
785.267
783.180
779.498
782.920
784.540
768.769
774.680
772.216
758.778
762.291
752.478
761.872
746.044
746.522
740.991
741.073
735.409
731.189
727.374
728.436
725.261
721.088
720.343
712.401
717.827
715.408
703.502
711.733
694.755
695.668
692.490
700.983
696.239
686.090
683.160
681.999
681.035
673.818
664.628
660.662
662.450
659.109
663.062
654.102
656.783
642.111
645.604
643.321
633.973
644.229
634.146
631.016
625.245
626.506
624.528
618.185
612.394
617.027
603.418
613.180
603.507
598.555
595.681
596.785
591.500
590.891
584.187
586.183
582.043
569.741
576.823
561.558
572.125
569.329
557.717
557.362
552.500
552.572
541.343
550.452
535.260
539.257
531.376
529.846
520.610
529.595
520.431
514.383
522.976
506.794
507.307
512.792
503.034
496.930
493.524
497.334
491.961
488.292
481.234
480.712
476.525
479.103
474.599
474.814
467.881
456.344
455.268
451.266
445.871
450.808
450.535
447.512
439.429
440.173
437.138
424.471
432.531
429.348
422.973
418.353
422.343
404.727
416.272
406.811
402.707
407.423
391.380
391.765
393.334
385.153
388.644
384.039
383.253
371.737
375.158
374.280
366.798
366.559
364.996
349.976
352.072
357.919
346.725
337.288
342.243
338.407
329.035
330.605
320.363
328.110
324.068
323.217
309.360
314.451
306.447
311.475
301.655
294.697
