451.840
447.476
444.065
444.832
447.253
454.452
452.799
454.643
459.881
454.337
459.042
464.429
463.140
456.577
464.931
461.025
458.529
454.610
459.396
470.310
468.675
470.101
461.614
476.214
468.784
463.594
469.518
478.463
469.570
477.062
472.953
483.287
470.632
483.119
474.278
473.294
481.144
485.150
486.338
480.528
480.450
478.130
483.321
486.640
482.933
491.172
491.021
492.679
491.631
491.144
488.026
487.719
500.494
494.728
493.256
505.694
504.591
496.054
509.610
501.349
501.664
509.345
509.626
507.633
503.920
514.118
513.331
509.306
508.716
515.235
521.807
507.565
516.196
522.598
520.505
521.795
518.309
520.426
518.436
518.089
522.947
528.915
519.832
529.644
530.498
521.838
528.001
524.161
531.002
530.765
540.438
535.442
537.552
533.629
535.022
533.460
533.944
542.956
548.041
546.183
545.092
551.741
538.122
545.238
551.599
546.502
554.803
555.585
553.006
555.985
558.820
557.501
548.769
553.479
556.780
553.316
560.817
557.170
557.525
567.098
566.090
566.208
572.200
562.838
565.170
564.937
565.824
576.480
564.679
568.788
579.872
571.551
577.382
574.082
569.212
585.554
584.810
576.075
575.814
576.040
588.657
576.088
585.837
581.200
591.056
589.175
581.942
591.970
592.633
592.484
585.720
598.533
596.756
600.177
597.911
595.023
594.230
606.660
604.461
606.839
600.648
598.337
609.293
602.354
611.099
608.945
603.961
602.209
613.308
608.359
618.682
610.749
606.885
610.632
613.698
613.060
622.142
614.858
624.548
623.448
619.503
622.703
631.451
618.614
619.348
631.937
632.457
629.101
630.240
626.630
633.728
629.579
632.486
633.218
638.608
642.586
640.012
638.227
640.499
638.180
647.251
648.706
645.939
640.527
649.077
647.216
640.933
647.597
652.553
654.318
643.163
651.147
656.626
659.677
657.992
650.459
648.927
649.400
651.642
665.203
659.505
665.978
662.769
653.062
662.700
665.656
655.494
671.242
668.280
662.328
663.511
667.264
660.655
667.463
677.447
667.568
678.072
666.573
669.989
668.978
673.800
670.647
678.146
684.633
681.975
677.749
681.806
675.244
673.867
682.587
678.040
690.061
679.389
681.932
683.445
680.537
681.157
687.962
696.333
684.430
695.789
690.475
698.126
698.113
689.115
694.586
691.371
700.327
705.755
691.963
692.405
703.256
704.034
701.671
711.295
698.572
702.446
700.884
711.856
699.852
702.697
704.466
708.020
705.391
715.171
711.518
712.225
711.857
712.290
720.029
722.799
715.774
713.695
726.253
713.365
724.702
726.990
720.437
731.372
729.021
722.768
727.274
728.766
735.782
724.086
724.499
737.112
738.022
732.724
735.427
732.480
727.474
729.431
742.007
735.149
734.711
738.077
737.701
739.725
736.222
742.400
734.986
738.386
741.918
740.976
754.179
754.589
755.798
749.080
744.753
749.115
758.670
751.363
759.866
755.695
752.039
755.151
755.364
755.136
763.644
761.914
759.942
755.204
757.466
757.939
767.664
758.440
769.949
767.015
772.015
770.778
774.422
774.459
770.440
775.452
777.730
772.473
770.734
773.108
778.674
775.589
780.662
784.438
778.534
786.242
773.247
779.989
774.687
782.279
778.482
790.189
791.302
782.609
779.612
790.417
793.719
784.131
797.111
787.893
795.599
790.671
788.625
800.190
798.985
800.889
798.121
795.574
792.188
806.366
792.374
808.527
794.545
809.137
808.276
808.780
803.157
813.744
808.951
808.349
808.926
809.716
813.816
809.016
806.046
810.487
818.188
803.288
804.273
804.064
808.146
810.266
812.795
819.600
809.123
818.355
814.311
807.213
807.148
808.126
811.356
812.252
816.844
808.640
807.432
820.114
806.713
808.052
815.946
808.416
822.064
817.632
810.826
814.478
821.233
808.607
821.914
810.790
816.348
822.212
813.694
810.018
814.150
820.074
823.727
823.636
813.708
811.864
822.514
819.238
819.989
825.465
823.274
816.404
823.439
822.043
825.616
818.127
818.628
814.811
821.534
829.253
821.064
817.829
820.750
819.151
817.351
821.788
828.790
819.337
823.184
824.132
824.293
830.724
819.534
824.383
821.993
826.889
817.819
833.230
823.102
822.681
826.857
823.718
824.587
827.910
830.445
833.530
824.030
835.019
825.598
828.906
828.244
825.899
835.640
833.787
830.200
835.550
826.503
821.808
828.558
832.774
823.416
830.125
824.014
834.785
825.282
837.616
833.684
832.251
829.371
832.785
839.113
832.401
828.735
835.558
833.314
828.651
829.409
828.141
834.938
835.569
838.676
837.101
839.062
835.479
842.612
840.077
842.727
831.249
841.916
836.949
834.420
829.354
834.925
840.968
831.230
829.639
834.901
841.038
842.322
844.949
845.247
836.198
831.370
831.440
835.426
845.193
841.209
840.666
837.796
838.151
834.221
841.946
847.685
848.224
839.422
842.758
836.576
833.964
838.265
842.288
835.105
841.293
847.889
849.056
847.166
847.223
838.015
845.600
846.281
837.334
845.248
850.610
847.686
839.638
845.887
844.456
844.993
840.765
849.249
846.524
854.367
842.681
842.963
852.953
840.742
841.861
842.320
844.367
848.415
850.751
844.455
851.255
846.628
847.852
845.100
842.553
843.948
855.489
852.907
849.059
844.765
852.913
843.170
846.983
855.196
850.397
852.647
842.414
849.491
852.595
837.925
849.535
847.424
849.505
841.447
834.267
838.443
839.415
841.437
841.452
840.396
843.800
830.846
830.408
831.815
839.843
835.315
831.073
833.350
839.987
835.482
833.049
836.217
831.840
827.886
827.794
836.114
824.919
833.657
822.998
822.977
826.776
833.538
820.055
823.614
830.389
819.901
827.796
815.865
824.965
814.955
813.626
820.069
814.836
812.743
820.287
815.528
815.182
815.827
822.565
816.432
811.654
821.782
811.320
804.953
808.903
809.152
813.624
813.320
809.747
809.498
808.342
800.695
802.433
806.954
800.952
810.974
808.287
800.569
808.973
808.892
810.752
809.599
799.712
797.230
804.869
799.645
807.519
793.381
802.674
804.073
792.444
804.137
802.602
792.308
792.619
795.553
790.845
790.431
800.151
795.686
794.395
785.840
783.690
792.177
784.498
793.860
783.046
781.681
783.931
791.117
789.949
781.749
786.142
779.050
781.901
786.070
784.971
783.721
787.270
775.224
783.162
776.378
782.645
774.291
782.486
781.623
772.110
779.270
775.777
767.183
767.935
772.279
778.068
773.471
771.739
775.072
771.145
763.618
763.518
774.386
768.710
771.811
769.922
772.943
762.882
771.735
758.201
768.202
761.949
756.323
768.112
765.536
766.933
756.087
767.744
759.523
755.897
755.311
755.159
753.451
761.348
756.607
762.355
753.049
752.520
754.038
755.527
746.859
746.557
754.330
748.331
757.582
753.224
746.384
750.099
743.556
747.952
752.817
742.140
750.324
748.787
752.351
737.767
746.186
742.435
737.582
735.240
741.253
738.075
740.851
734.106
739.678
735.558
741.847
731.158
736.219
729.172
741.801
728.853
742.601
743.302
734.234
744.546
736.105
745.589
748.504
735.948
743.935
751.390
750.305
750.635
753.108
753.959
744.476
745.890
748.749
752.980
745.767
754.952
749.972
754.319
757.732
750.864
757.818
767.719
761.416
757.112
768.776
762.074
766.797
771.195
766.694
765.780
765.763
775.201
766.609
777.091
769.472
779.658
772.154
769.228
782.765
781.524
778.358
784.629
783.513
785.108
784.523
781.183
785.919
787.213
779.650
781.021
792.794
795.280
784.257
793.007
786.410
797.480
795.252
788.130
800.787
800.678
800.983
796.023
802.118
804.087
800.028
797.543
795.730
799.522
807.916
811.991
802.055
813.431
811.038
816.923
814.873
803.365
808.762
815.175
818.619
806.971
812.109
824.179
812.868
815.633
818.384
820.074
824.706
824.292
820.070
829.555
818.392
820.709
830.608
823.881
828.792
830.360
827.644
834.735
838.863
832.207
840.434
838.571
841.597
843.773
843.228
832.688
845.622
842.509
838.571
842.616
842.170
839.341
853.079
844.080
844.564
843.558
851.403
856.354
849.904
845.006
853.876
852.104
854.223
854.088
855.575
861.310
853.616
858.137
857.123
856.993
856.364
868.682
864.468
871.492
862.067
864.775
863.685
874.288
873.663
872.584
880.132
871.109
874.324
867.660
870.203
884.221
876.043
880.625
887.588
873.582
889.216
880.155
888.820
881.607
880.176
884.339
886.758
893.551
889.542
887.784
897.988
885.341
892.240
886.971
903.242
891.955
895.169
893.930
901.609
908.048
900.741
902.925
900.394
896.637
912.391
908.505
901.307
905.378
905.013
904.669
906.907
906.381
916.636
912.504
909.526
913.346
909.533
920.044
924.248
920.028
918.458
925.050
925.704
917.820
917.782
925.283
923.705
922.438
916.906
928.527
929.851
927.860
915.613
926.358
918.929
920.368
920.557
914.210
926.857
912.363
925.810
913.600
922.460
919.625
922.332
912.018
910.627
915.931
911.175
912.833
921.919
922.540
920.124
915.632
916.286
921.429
906.258
916.225
918.479
917.150
908.698
910.303
918.757
908.455
912.116
911.754
906.965
906.473
913.027
906.544
913.609
906.178
913.321
903.497
910.708
912.251
909.245
910.837
905.585
907.103
913.187
897.952
898.149
908.088
899.931
910.171
908.117
907.695
898.012
910.640
898.634
904.026
902.212
893.643
902.366
898.152
907.677
899.193
898.891
894.767
898.835
901.317
899.436
898.959
893.429
893.774
903.808
902.691
894.477
891.120
890.314
900.856
887.716
891.763
895.570
888.312
896.885
900.878
885.040
895.671
885.147
896.191
890.989
893.863
892.412
895.478
886.795
885.208
889.772
896.926
893.787
884.374
894.396
879.989
879.569
886.765
880.471
883.505
883.130
890.701
891.719
877.510
881.375
881.557
884.896
879.658
885.056
887.364
880.380
888.540
883.693
876.686
883.683
887.059
887.163
881.741
876.083
880.351
887.147
872.197
885.821
873.553
875.003
875.666
878.991
873.007
876.410
884.075
873.683
875.767
882.254
871.729
872.975
874.605
868.062
872.280
866.817
871.856
874.775
875.068
876.986
878.691
864.071
875.241
866.755
872.799
871.754
863.003
869.570
869.646
862.911
875.849
869.522
874.007
873.383
869.570
874.137
869.422
864.900
871.024
861.519
858.123
864.033
869.631
858.696
855.579
869.427
869.704
857.831
869.704
865.269
853.457
868.653
859.782
867.027
858.625
853.611
854.042
853.979
852.669
856.794
853.593
857.607
853.992
858.199
850.085
851.980
858.718
860.575
858.400
849.174
858.140
857.179
847.320
855.477
845.329
841.623
853.303
850.655
851.068
838.002
842.817
836.025
842.097
837.527
844.286
832.069
840.439
828.489
842.836
829.431
833.903
838.710
825.283
823.809
825.612
833.279
830.942
823.866
827.205
826.126
818.527
817.286
822.431
822.954
820.808
819.801
817.744
822.173
821.291
811.718
823.133
810.859
820.573
806.759
806.062
814.241
806.543
808.304
813.986
803.840
810.936
800.000
810.142
800.019
810.754
807.501
799.521
806.742
793.426
799.749
797.148
803.690
797.681
790.276
792.311
797.317
796.983
795.814
793.800
783.084
796.126
784.873
784.525
787.603
785.089
790.826
784.234
775.116
785.408
773.294
784.407
774.151
776.806
777.425
770.906
776.168
779.173
776.162
767.542
775.313
778.195
771.111
776.683
766.236
763.382
766.237
757.859
772.172
765.496
761.232
760.171
762.463
759.872
760.366
752.160
764.829
750.736
754.112
752.183
755.051
745.501
750.064
745.021
750.026
747.649
751.259
752.279
744.693
750.330
748.727
748.824
739.165
735.439
741.482
747.008
747.269
731.422
739.689
731.677
728.539
742.105
734.073
733.683
729.899
737.226
723.814
722.466
727.101
727.009
730.362
728.899
731.738
728.366
719.604
727.784
723.923
724.902
722.682
723.160
719.311
718.892
709.333
716.275
707.667
714.612
709.914
708.592
708.093
715.713
702.942
707.903
709.401
699.217
700.678
697.791
699.524
695.569
703.454
706.128
700.730
705.176
700.564
694.573
704.266
703.508
697.540
697.516
697.766
685.359
688.774
697.258
685.824
684.138
690.768
679.750
682.677
687.635
690.834
683.738
681.019
679.250
683.007
676.055
672.057
685.377
682.549
678.992
676.608
677.402
682.012
680.303
679.802
689.982
691.714
683.324
690.750
690.894
683.465
689.305
693.047
697.618
695.263
693.881
703.050
695.838
700.492
703.629
705.079
697.546
695.417
698.192
711.173
710.927
697.806
700.519
705.422
711.209
702.584
709.589
706.503
715.597
705.598
715.666
720.842
713.047
715.052
718.212
719.295
723.769
719.817
720.650
719.073
722.082
722.077
725.949
722.804
727.813
727.687
725.467
723.539
738.146
736.170
735.803
733.391
729.140
734.168
743.480
743.129
732.817
741.080
742.479
746.852
744.755
744.844
745.946
745.879
752.761
744.799
748.771
747.912
753.304
746.559
755.602
747.918
749.673
748.457
756.525
748.421
749.924
759.127
756.948
759.551
760.235
761.643
755.092
764.047
765.707
767.954
766.705
767.471
763.027
767.206
770.218
772.250
767.748
775.588
772.444
768.014
779.208
769.878
775.184
774.491
777.426
772.553
782.612
778.376
779.778
777.054
783.976
777.666
783.186
790.601
791.063
795.878
787.515
790.523
785.814
796.476
789.666
790.926
802.261
803.270
794.619
800.930
794.295
803.852
804.174
809.349
803.527
799.562
801.898
805.751
804.574
811.270
803.372
809.396
808.647
804.021
806.085
809.604
812.035
815.846
809.941
812.930
817.111
821.453
812.094
823.345
813.638
815.882
821.851
816.613
831.039
819.300
829.209
820.301
826.900
825.462
833.121
835.839
830.318
832.009
833.904
830.252
842.142
842.772
842.550
846.582
846.197
848.792
840.437
836.454
843.663
843.829
845.588
852.685
848.823
842.906
845.832
848.343
854.148
846.830
847.500
861.673
862.331
858.784
861.930
862.172
862.736
861.621
863.591
863.638
857.437
857.293
864.543
859.010
863.141
871.200
866.444
868.729
869.619
875.653
870.095
875.491
883.216
878.186
886.063
874.646
875.666
877.836
889.507
893.801
883.845
890.691
895.205
896.023
892.961
897.606
899.855
904.972
902.698
898.678
908.123
899.074
910.492
907.227
909.397
910.800
908.718
904.331
907.432
922.397
917.499
922.267
910.913
925.311
918.846
925.415
917.855
929.021
921.447
932.485
927.343
932.735
938.763
935.865
928.191
936.455
938.804
934.907
938.230
940.133
947.039
939.935
951.071
940.463
952.882
955.583
948.173
955.887
951.827
949.242
962.402
958.649
959.567
962.309
957.867
963.686
965.778
964.543
961.830
972.638
967.007
970.710
977.467
973.370
981.719
981.133
979.170
979.674
976.880
982.641
990.617
988.868
991.579
991.221
987.087
989.514
989.892
996.909
990.318
1003.734
1005.757
1002.462
994.858
997.749
996.880
1001.638
1013.101
1006.769
1012.441
1007.201
1011.192
1017.837
1013.380
1019.720
1013.709
1012.869
1023.964
1024.873
1030.783
1028.234
1018.930
1034.464
1029.968
1033.480
1033.037
1030.140
1033.534
1039.154
1039.923
1036.164
1043.300
1035.687
1045.520
1044.970
1050.663
1050.455
1043.703
1051.012
1043.842
1050.148
1048.003
1049.634
1055.825
1051.197
1054.891
1051.919
1055.974
1059.400
1059.644
1071.359
1062.240
1070.843
1072.037
1063.229
1078.151
1068.642
1081.836
1069.225
1074.798
1081.915
1076.022
1077.826
1090.360
1080.542
1090.543
1092.096
1090.763
1095.131
1093.180
1093.092
1097.843
1091.549
1097.855
1105.944
1104.929
1098.327
1106.802
1100.139
1100.881
1099.011
1104.486
1111.103
1105.308
1110.752
1106.113
1111.920
1109.301
1120.956
1111.281
1127.658
1124.390
1124.031
1125.122
1120.461
1120.367
1121.421
1132.772
1124.233
1136.007
1126.080
1132.621
1131.133
1145.455
1133.721
1130.805
1135.965
1129.817
1129.647
1127.465
1122.422
1133.113
1123.887
1124.661
1130.168
1132.518
1116.350
1125.243
1128.725
1126.150
1118.594
1121.696
1116.250
1121.480
1108.978
1106.068
1111.095
1119.320
1118.178
1103.073
1103.263
1102.121
1106.601
1110.492
1109.304
1103.285
1100.425
1099.952
1095.096
1091.801
1104.114
1098.980
1093.256
1100.626
1096.191
1089.336
1088.378
1082.884
1095.728
1088.811
1080.997
1087.564
1088.997
1079.184
1082.827
1073.704
1086.703
1084.436
1072.165
1083.467
1073.262
1077.739
1068.497
1071.266
1075.438
1077.062
1075.815
1074.004
1074.557
1067.964
1060.639
1069.829
1063.019
1066.027
1064.855
1061.230
1052.459
1059.624
1048.803
1055.611
1048.344
1050.845
1058.935
1052.898
1052.608
1045.393
1051.945
1048.426
1047.122
1044.514
1049.482
1037.232
1036.653
1034.528
1039.364
1043.610
1044.823
1039.339
1030.299
1036.969
1028.702
1032.179
1027.228
1026.548
1034.505
1026.264
1019.354
1031.587
1028.056
1020.508
1026.798
1026.329
1021.666
1023.486
1019.426
1017.728
1020.155
1016.452
1014.660
1019.506
1005.523
1014.132
1005.081
1002.731
1013.770
1010.163
1008.843
996.702
1008.217
1006.928
994.547
998.595
1000.251
988.924
993.661
989.625
999.776
995.193
996.152
996.269
989.095
991.914
990.505
993.593
977.057
981.426
980.679
984.696
986.767
979.329
973.125
973.717
979.115
973.200
977.987
972.192
970.611
966.839
970.145
964.622
972.933
960.829
970.179
960.083
958.897
963.200
964.927
956.239
956.617
953.654
957.710
955.612
955.085
959.443
955.992
955.158
950.324
946.160
942.338
940.306
947.526
948.920
946.893
935.258
941.576
933.936
944.109
931.485
930.351
934.159
938.428
939.652
924.796
924.566
923.644
934.630
921.881
924.134
928.631
922.716
917.976
915.253
914.410
