100.401
100.401
100.401
100.401
100.401
100.401
100.401
100.401
100.401
100.401
100.401
100.401
100.401
100.401
100.401
100.401
100.401
100.401
100.401
100.401
100.401
100.401
100.401
100.401
100.401
100.401
100.401
100.401
100.401
100.401
100.401
100.401
100.401
100.401
100.401
100.401
100.401
100.401
100.401
100.401
100.401
100.401
100.401
100.401
100.401
100.401
100.401
100.401
100.401
100.401
100.401
100.401
100.401
100.401
100.401
100.401
100.401
100.401
100.401
100.401
100.401
100.401
100.401
100.401
100.401
100.401
100.401
100.401
100.401
100.401
100.401
100.401
100.401
100.401
100.401
100.401
100.401
100.401
100.401
100.401
100.401
100.401
100.401
100.401
100.401
100.401
100.401
100.401
100.401
100.401
100.401
100.401
100.401
100.401
100.401
100.401
100.401
100.401
100.401
100.401
100.401
100.401
100.401
100.401
100.401
100.401
100.401
100.401
100.401
100.401
100.401
100.401
100.401
100.401
100.401
100.401
100.401
100.401
100.401
100.401
100.401
100.401
100.401
100.401
100.401
100.401
100.401
100.401
100.401
100.401
100.401
100.401
100.401
100.401
100.401
100.401
100.401
100.401
100.401
100.401
100.401
100.401
100.401
100.401
100.401
100.401
100.401
100.401
100.401
100.401
100.401
100.401
100.401
100.401
100.401
100.401
100.401
100.401
100.401
100.401
100.401
100.401
100.401
100.401
100.401
100.401
100.401
100.401
100.401
100.401
100.401
100.401
100.401
100.401
100.401
100.401
100.401
100.401
100.401
100.401
100.401
100.401
100.401
100.401
100.401
100.401
100.401
100.401
100.401
100.401
100.401
100.401
100.401
100.401
100.401
100.401
100.401
100.401
100.401
100.401
100.401
100.401
100.401
100.401
100.401
100.401
100.401
100.401
100.401
100.401
100.401
100.401
100.401
100.401
100.401
100.401
100.401
100.401
100.401
100.401
100.401
100.401
100.401
100.401
100.401
100.401
100.401
100.401
100.401
100.401
100.401
100.401
100.401
100.401
100.401
100.401
100.401
100.401
100.401
100.401
100.401
100.401
100.401
100.401
100.401
100.401
100.401
100.401
100.401
100.401
100.401
100.401
100.401
100.401
100.401
100.401
100.401
100.401
100.401
100.401
100.401
100.401
100.401
100.401
100.401
100.401
100.401
100.401
100.401
100.401
100.401
100.401
100.401
100.401
100.401
100.401
100.401
100.401
100.401
100.401
100.401
100.401
100.401
100.401
100.401
100.401
100.401
100.401
100.401
100.401
100.401
100.401
100.401
100.401
100.401
100.401
100.401
100.401
100.401
100.401
100.401
100.401
100.401
100.401
100.401
100.401
100.401
100.401
100.401
100.401
100.401
100.401
100.401
100.401
100.401
100.401
100.401
100.401
100.401
100.401
100.401
100.401
100.401
100.401
100.401
100.401
100.401
100.401
100.401
100.401
100.401
100.401
100.401
100.401
100.401
100.401
100.401
100.401
100.401
100.401
100.401
100.401
100.401
100.401
100.401
100.401
100.401
100.401
100.401
100.401
100.401
100.401
100.401
100.401
100.401
100.401
100.401
100.401
100.401
100.401
100.401
100.401
100.401
100.401
100.401
100.401
100.401
100.401
100.401
100.401
100.401
100.401
100.401
100.401
100.401
100.401
100.401
100.401
100.401
100.401
100.401
100.401
100.401
100.401
100.401
100.401
100.401
100.401
100.401
1522.701
1524.729
1526.757
1528.785
1530.813
1532.841
1534.869
1536.897
1538.925
1540.953
1542.981
1545.009
1547.037
1549.065
1551.093
1553.121
1555.149
1557.177
1559.205
1561.233
1563.261
1565.289
1567.317
1569.345
1571.373
1573.401
1575.429
1577.457
1579.485
1581.513
1583.541
1585.569
1587.597
1589.625
1591.653
1593.681
1595.709
1597.737
1599.765
1601.793
1603.821
1605.849
1607.877
1609.905
1611.933
1613.961
1615.989
1618.017
1620.045
1622.073
1624.101
1626.129
1628.157
1630.185
1632.213
1634.241
1636.269
1638.297
1640.325
1642.353
1644.381
1646.409
1648.437
1650.465
1652.493
1654.521
1656.549
1658.577
1660.605
1662.633
1664.661
1666.689
1668.717
1670.745
1672.773
1674.801
1676.829
1678.857
1680.885
1682.913
1684.941
1686.969
1688.997
1691.025
1693.053
1695.081
1697.109
1699.137
1701.165
1703.193
1705.221
1707.249
1709.277
1711.305
1713.333
1715.361
1717.389
1719.417
1721.445
1723.473
1725.501
1727.529
1729.557
1731.585
1733.613
1735.641
1737.669
1739.697
1741.725
1743.753
1745.781
1747.809
1749.837
1751.865
1753.893
1755.921
1757.949
1759.977
1762.005
1764.033
1766.061
1768.089
1770.117
1772.145
1774.173
1776.201
1778.229
1780.257
1782.285
1784.313
1786.341
1788.369
1790.397
1792.425
1794.453
1796.481
1798.509
1800.537
1802.565
1804.593
1806.621
1808.649
1810.677
1812.705
1814.733
1816.761
1818.789
1820.817
1822.845
1824.873
1826.901
1828.929
1830.957
1832.985
1835.013
1837.041
1839.069
1841.097
1843.125
1845.153
1847.181
1849.209
1851.237
1853.265
1855.293
1857.321
1859.349
1861.377
1863.405
1865.433
1867.461
1869.489
1871.517
1873.545
1875.573
1877.601
1879.629
1881.657
1883.685
1885.713
1887.741
1889.769
1891.797
1893.825
1895.853
1897.881
1899.909
1901.937
1903.965
1905.993
1908.021
1910.049
1912.077
1914.105
1916.133
1918.161
1920.189
1922.217
1924.245
1926.273
1928.301
1928.326
1928.350
1928.375
1928.399
1928.424
1928.448
1928.473
1928.497
1928.522
1928.546
1928.571
1928.595
1928.620
1928.644
1928.669
1928.693
1928.718
1928.742
1928.767
1928.791
1928.816
1928.840
1928.865
1928.889
1928.914
1928.938
1928.963
1928.987
1929.012
1929.036
1929.061
1929.085
1929.110
1929.134
1929.159
1929.183
1929.208
1929.232
1929.257
1929.281
1929.306
1929.330
1929.355
1929.379
1929.404
1929.428
1929.453
1929.477
1929.502
1929.526
1929.551
1929.575
1929.600
1929.624
1929.649
1929.673
1929.698
1929.722
1929.747
1929.771
1929.796
1929.820
1929.845
1929.869
1929.894
1929.918
1929.943
1929.967
1929.992
1930.016
1930.041
1930.065
1930.090
1930.114
1930.139
1930.163
1930.188
1930.212
1930.237
1930.261
1930.286
1930.310
1930.335
1930.359
1930.384
1930.408
1930.433
1930.457
1930.482
1930.506
1930.531
1930.555
1930.580
1930.604
1930.629
1930.653
1930.678
1930.702
1930.727
1930.751
1930.776
1930.800
1930.825
1930.849
1930.874
1930.898
1930.923
1930.947
1930.972
1930.996
1931.021
1931.045
1931.070
1931.094
1931.119
1931.143
1931.168
1931.192
1931.217
1931.241
1931.266
1931.290
1931.315
1931.339
1931.364
1931.388
1931.413
1931.437
1931.462
1931.486
1931.511
1931.535
1931.560
1931.584
1931.609
1931.633
1931.658
1931.682
1931.707
1931.731
1931.756
1931.780
1931.805
1931.829
1931.854
1931.878
1931.903
1931.927
1931.952
1931.976
1932.001
1932.025
1932.050
1932.074
1932.099
1932.123
1932.148
1932.172
1932.197
1932.221
1932.246
1932.270
1932.295
1932.319
1932.344
1932.368
1932.393
1932.417
1932.442
1932.466
1932.491
1932.515
1932.540
1932.564
1932.589
1932.613
1932.638
1932.662
1932.687
1932.711
1932.736
1932.760
1932.785
1932.809
1932.834
1932.858
1932.883
1932.907
1932.932
1932.956
1932.981
1933.005
1933.030
1933.054
1933.079
1933.103
1933.128
1933.152
1933.177
1933.201
1934.668
1936.134
1937.601
1939.067
1940.534
1942.000
1943.467
1944.933
1946.400
1947.866
1949.333
1950.799
1952.266
1953.732
1955.199
1956.665
1958.132
1959.598
1961.065
1962.531
1963.998
1965.464
1966.931
1968.397
1969.864
1971.330
1972.797
1974.263
1975.730
1977.196
1978.663
1980.129
1981.596
1983.062
1984.529
1985.995
1987.462
1988.928
1990.395
1991.861
1993.328
1994.794
1996.261
1997.727
1999.194
2000.660
2002.127
2003.593
2005.060
2006.526
2007.993
2009.459
2010.926
2012.392
2013.859
2015.325
2016.792
2018.258
2019.725
2021.191
2022.658
2024.124
2025.591
2027.057
2028.524
2029.990
2031.457
2032.923
2034.390
2035.856
2037.323
2038.789
2040.256
2041.722
2043.189
2044.655
2046.122
2047.588
2049.055
2050.521
2051.988
2053.454
2054.921
2056.387
2057.854
2059.320
2060.787
2062.253
2063.720
2065.186
2066.653
2068.119
2069.586
2071.052
2072.519
2073.985
2075.452
2076.918
2078.385
2079.851
2081.318
2082.784
2084.251
2085.717
2087.184
2088.650
2090.117
2091.583
2093.050
2094.516
2095.983
2097.449
2098.916
2100.382
2101.849
2103.315
2104.782
2106.248
2107.715
2109.181
2110.648
2112.114
2113.581
2115.047
2116.514
2117.980
2119.447
2120.913
2122.380
2123.846
2125.313
2126.779
2128.246
2129.712
2131.179
2132.645
2134.112
2135.578
2137.045
2138.511
2139.978
2141.444
2142.911
2144.377
2145.844
2147.310
2148.777
2150.243
2151.710
2153.176
2154.643
2156.109
2157.576
2159.042
2160.509
2161.975
2163.442
2164.908
2166.375
2167.841
2169.308
2170.774
2172.241
2173.707
2175.174
2176.640
2178.107
2179.573
2181.040
2182.506
2183.973
2185.439
2186.906
2188.372
2189.839
2191.305
2192.772
2194.238
2195.705
2197.171
2198.638
2200.104
2201.571
2203.037
2204.504
2205.970
2207.437
2208.903
2210.370
2211.836
2213.303
2214.769
2216.236
2217.702
2219.169
2220.635
2222.102
2223.568
2225.035
2226.501
2226.550
2226.598
2226.647
2226.695
2226.744
2226.792
2226.841
2226.889
2226.938
2226.986
2227.035
2227.083
2227.132
2227.180
2227.229
2227.277
2227.326
2227.374
2227.423
2227.471
2227.520
2227.568
2227.617
2227.665
2227.714
2227.762
2227.811
2227.859
2227.908
2227.956
2228.005
2228.053
2228.102
2228.150
2228.199
2228.247
2228.296
2228.344
2228.393
2228.441
2228.490
2228.538
2228.587
2228.635
2228.684
2228.732
2228.781
2228.829
2228.878
2228.926
2228.975
2229.023
2229.072
2229.120
2229.169
2229.217
2229.266
2229.314
2229.363
2229.411
2229.460
2229.508
2229.557
2229.605
2229.654
2229.702
2229.751
2229.799
2229.848
2229.896
2229.945
2229.993
2230.042
2230.090
2230.139
2230.187
2230.236
2230.284
2230.333
2230.381
2230.430
2230.478
2230.527
2230.575
2230.624
2230.672
2230.721
2230.769
2230.818
2230.866
2230.915
2230.963
2231.012
2231.060
2231.109
2231.157
2231.206
2231.254
2231.303
2231.351
2231.400
2231.448
2231.497
2231.545
2231.594
2231.642
2231.691
2231.739
2231.788
2231.836
2231.885
2231.933
2231.982
2232.030
2232.079
2232.127
2232.176
2232.224
2232.273
2232.321
2232.370
2232.418
2232.467
2232.515
2232.564
2232.612
2232.661
2232.709
2232.758
2232.806
2232.855
2232.903
2232.952
2233.000
2233.049
2233.097
2233.146
2233.194
2233.243
2233.291
2233.340
2233.388
2233.437
2233.485
2233.534
2233.582
2233.631
2233.679
2233.728
2233.776
2233.825
2233.873
2233.922
2233.970
2234.019
2234.067
2234.116
2234.164
2234.213
2234.261
2234.310
2234.358
2234.407
2234.455
2234.504
2234.552
2234.601
2234.649
2234.698
2234.746
2234.795
2234.843
2234.892
2234.940
2234.989
2235.037
2235.086
2235.134
2235.183
2235.231
2235.280
2235.328
2235.377
2235.425
2235.474
2235.522
2235.571
2235.619
2235.668
2235.716
2235.765
2235.813
2235.862
2235.910
2235.959
2236.007
2236.056
2236.104
2236.153
2236.201
2236.177
2236.153
2236.129
2236.105
2236.081
2236.057
2236.033
2236.009
2235.985
2235.961
2235.937
2235.913
2235.889
2235.865
2235.841
2235.817
2235.793
2235.769
2235.745
2235.721
2235.697
2235.673
2235.649
2235.625
2235.601
2235.577
2235.553
2235.529
2235.505
2235.481
2235.457
2235.433
2235.409
2235.385
2235.361
2235.337
2235.313
2235.289
2235.265
2235.241
2235.217
2235.193
2235.169
2235.145
2235.121
2235.097
2235.073
2235.049
2235.025
2235.001
2234.977
2234.953
2234.929
2234.905
2234.881
2234.857
2234.833
2234.809
2234.785
2234.761
2234.737
2234.713
2234.689
2234.665
2234.641
2234.617
2234.593
2234.569
2234.545
2234.521
2234.497
2234.473
2234.449
2234.425
2234.401
2234.377
2234.353
2234.329
2234.305
2234.281
2234.257
2234.233
2234.209
2234.185
2234.161
2234.137
2234.113
2234.089
2234.065
2234.041
2234.017
2233.993
2233.969
2233.945
2233.921
2233.897
2233.873
2233.849
2233.825
2233.801
2233.777
2233.753
2233.729
2233.705
2233.681
2233.657
2233.633
2233.609
2233.585
2233.561
2233.537
2233.513
2233.489
2233.465
2233.441
2233.417
2233.393
2233.369
2233.345
2233.321
2233.297
2233.273
2233.249
2233.225
2233.201
2233.177
2233.153
2233.129
2233.105
2233.081
2233.057
2233.033
2233.009
2232.985
2232.961
2232.937
2232.913
2232.889
2232.865
2232.841
2232.817
2232.793
2232.769
2232.745
2232.721
2232.697
2232.673
2232.649
2232.625
2232.601
2232.577
2232.553
2232.529
2232.505
2232.481
2232.457
2232.433
2232.409
2232.385
2232.361
2232.337
2232.313
2232.289
2232.265
2232.241
2232.217
2232.193
2232.169
2232.145
2232.121
2232.097
2232.073
2232.049
2232.025
2232.001
2231.977
2231.953
2231.929
2231.905
2231.881
2231.857
2231.833
2231.809
2231.785
2231.761
2231.737
2231.713
2231.689
2231.665
2231.641
2231.617
2231.593
2231.569
2231.545
2231.521
2231.497
2231.473
2231.449
2231.425
2231.401
2232.085
2232.769
2233.453
2234.137
2234.821
2235.505
2236.189
2236.873
2237.557
2238.241
2238.925
2239.609
2240.293
2240.977
2241.661
2242.345
2243.029
2243.713
2244.397
2245.081
2245.765
2246.449
2247.133
2247.817
2248.501
2249.185
2249.869
2250.553
2251.237
2251.921
2252.605
2253.289
2253.973
2254.657
2255.341
2256.025
2256.709
2257.393
2258.077
2258.761
2259.445
2260.129
2260.813
2261.497
2262.181
2262.865
2263.549
2264.233
2264.917
2265.601
2266.285
2266.969
2267.653
2268.337
2269.021
2269.705
2270.389
2271.073
2271.757
2272.441
2273.125
2273.809
2274.493
2275.177
2275.861
2276.545
2277.229
2277.913
2278.597
2279.281
2279.965
2280.649
2281.333
2282.017
2282.701
2283.385
2284.069
2284.753
2285.437
2286.121
2286.805
2287.489
2288.173
2288.857
2289.541
2290.225
2290.909
2291.593
2292.277
2292.961
2293.645
2294.329
2295.013
2295.697
2296.381
2297.065
2297.749
2298.433
2299.117
2299.801
2300.485
2301.169
2301.853
2302.537
2303.221
2303.905
2304.589
2305.273
2305.957
2306.641
2307.325
2308.009
2308.693
2309.377
2310.061
2310.745
2311.429
2312.113
2312.797
2313.481
2314.165
2314.849
2315.533
2316.217
2316.901
2317.585
2318.269
2318.953
2319.637
2320.321
2321.005
2321.689
2322.373
2323.057
2323.741
2324.425
2325.109
2325.793
2326.477
2327.161
2327.845
2328.529
2329.213
2329.897
2330.581
2331.265
2331.949
2332.633
2333.317
2334.001
2334.685
2335.369
2336.053
2336.737
2337.421
2338.105
2338.789
2339.473
2340.157
2340.841
2341.525
2342.209
2342.893
2343.577
2344.261
2344.945
2345.629
2346.313
2346.997
2347.681
2348.365
2349.049
2349.733
2350.417
2351.101
2351.785
2352.469
2353.153
2353.837
2354.521
2355.205
2355.889
2356.573
2357.257
2357.941
2358.625
2359.309
2359.993
2360.677
2361.361
2362.045
2362.729
2363.413
2364.097
2364.781
2365.465
2366.149
2366.833
2367.517
2368.201
2366.808
2365.415
2364.022
2362.629
2361.236
2359.843
2358.450
2357.057
2355.664
2354.271
2352.878
2351.485
2350.092
2348.699
2347.306
2345.913
2344.520
2343.127
2341.734
2340.341
2338.948
2337.555
2336.162
2334.769
2333.376
2331.983
2330.590
2329.197
2327.804
2326.411
2325.018
2323.625
2322.232
2320.839
2319.446
2318.053
2316.660
2315.267
2313.874
2312.481
2311.088
2309.695
2308.302
2306.909
2305.516
2304.123
2302.730
2301.337
2299.944
2298.551
2297.158
2295.765
2294.372
2292.979
2291.586
2290.193
2288.800
2287.407
2286.014
2284.621
2283.228
2281.835
2280.442
2279.049
2277.656
2276.263
2274.870
2273.477
2272.084
2270.691
2269.298
2267.905
2266.512
2265.119
2263.726
2262.333
2260.940
2259.547
2258.154
2256.761
2255.368
2253.975
2252.582
2251.189
2249.796
2248.403
2247.010
2245.617
2244.224
2242.831
2241.438
2240.045
2238.652
2237.259
2235.866
2234.473
2233.080
2231.687
2230.294
2228.901
2227.508
2226.115
2224.722
2223.329
2221.936
2220.543
2219.150
2217.757
2216.364
2214.971
2213.578
2212.185
2210.792
2209.399
2208.006
2206.613
2205.220
2203.827
2202.434
2201.041
2199.648
2198.255
2196.862
2195.469
2194.076
2192.683
2191.290
2189.897
2188.504
2187.111
2185.718
2184.325
2182.932
2181.539
2180.146
2178.753
2177.360
2175.967
2174.574
2173.181
2171.788
2170.395
2169.002
2167.609
2166.216
2164.823
2163.430
2162.037
2160.644
2159.251
2157.858
2156.465
2155.072
2153.679
2152.286
2150.893
2149.500
2148.107
2146.714
2145.321
2143.928
2142.535
2141.142
2139.749
2138.356
2136.963
2135.570
2134.177
2132.784
2131.391
2129.998
2128.605
2127.212
2125.819
2124.426
2123.033
2121.640
2120.247
2118.854
2117.461
2116.068
2114.675
2113.282
2111.889
2110.496
2109.103
2107.710
2106.317
2104.924
2103.531
2102.138
2100.745
2099.352
2097.959
2096.566
2095.173
2093.780
2092.387
2090.994
2089.601
2089.308
2089.015
2088.722
2088.429
2088.136
2087.843
2087.550
2087.257
2086.964
2086.671
2086.378
2086.085
2085.792
2085.499
2085.206
2084.913
2084.620
2084.327
2084.034
2083.741
2083.448
2083.155
2082.862
2082.569
2082.276
2081.983
2081.690
2081.397
2081.104
2080.811
2080.518
2080.225
2079.932
2079.639
2079.346
2079.053
2078.760
2078.467
2078.174
2077.881
2077.588
2077.295
2077.002
2076.709
2076.416
2076.123
2075.830
2075.537
2075.244
2074.951
2074.658
2074.365
2074.072
2073.779
2073.486
2073.193
2072.900
2072.607
2072.314
2072.021
2071.728
2071.435
2071.142
2070.849
2070.556
2070.263
2069.970
2069.677
2069.384
2069.091
2068.798
2068.505
2068.212
2067.919
2067.626
2067.333
2067.040
2066.747
2066.454
2066.161
2065.868
2065.575
2065.282
2064.989
2064.696
2064.403
2064.110
2063.817
2063.524
2063.231
2062.938
2062.645
2062.352
2062.059
2061.766
2061.473
2061.180
2060.887
2060.594
2060.301
2060.008
2059.715
2059.422
2059.129
2058.836
2058.543
2058.250
2057.957
2057.664
2057.371
2057.078
2056.785
2056.492
2056.199
2055.906
2055.613
2055.320
2055.027
2054.734
2054.441
2054.148
2053.855
2053.562
2053.269
2052.976
2052.683
2052.390
2052.097
2051.804
2051.511
2051.218
2050.925
2050.632
2050.339
2050.046
2049.753
2049.460
2049.167
2048.874
2048.581
2048.288
2047.995
2047.702
2047.409
2047.116
2046.823
2046.530
2046.237
2045.944
2045.651
2045.358
2045.065
2044.772
2044.479
2044.186
2043.893
2043.600
2043.307
2043.014
2042.721
2042.428
2042.135
2041.842
2041.549
2041.256
2040.963
2040.670
2040.377
2040.084
2039.791
2039.498
2039.205
2038.912
2038.619
2038.326
2038.033
2037.740
2037.447
2037.154
2036.861
2036.568
2036.275
2035.982
2035.689
2035.396
2035.103
2034.810
2034.517
2034.224
2033.931
2033.638
2033.345
2033.052
2032.759
2032.466
2032.173
2031.880
2031.587
2031.294
2031.001
2023.328
2015.654
2007.981
2000.307
1992.634
1984.960
1977.287
1969.613
1961.940
1954.266
