102.662
102.662
102.662
102.662
102.662
102.662
102.662
102.662
102.662
102.662
102.662
102.662
102.662
102.662
102.662
102.662
102.662
102.662
102.662
102.662
102.662
102.662
102.662
102.662
102.662
102.662
102.662
102.662
102.662
102.662
102.662
102.662
102.662
102.662
102.662
102.662
102.662
102.662
102.662
102.662
102.662
102.662
102.662
102.662
102.662
102.662
102.662
102.662
102.662
102.662
102.662
102.662
102.662
102.662
102.662
102.662
102.662
102.662
102.662
102.662
102.662
102.662
102.662
102.662
102.662
102.662
102.662
102.662
102.662
102.662
102.662
102.662
102.662
102.662
102.662
102.662
102.662
102.662
102.662
102.662
102.662
102.662
102.662
102.662
102.662
102.662
102.662
102.662
102.662
102.662
102.662
102.662
102.662
102.662
102.662
102.662
102.662
102.662
102.662
102.662
102.662
102.662
102.662
102.662
102.662
102.662
557.162
560.608
564.053
567.499
570.944
574.390
577.835
581.281
584.726
588.172
591.617
595.063
598.508
601.954
605.399
608.845
612.290
615.736
619.181
622.627
626.072
629.518
632.963
636.409
639.854
643.300
646.745
650.191
653.636
657.082
660.527
663.973
667.418
670.864
674.309
677.755
681.200
684.646
688.091
691.537
694.982
698.428
701.873
705.319
708.764
712.210
715.655
719.101
722.546
725.992
729.437
732.883
736.328
739.774
743.219
746.665
750.110
753.556
757.001
760.447
763.892
767.338
770.783
774.229
777.674
781.120
784.565
788.011
791.456
794.902
798.347
801.793
805.238
808.684
812.129
815.575
819.020
822.466
825.911
829.357
832.802
836.248
839.693
843.139
846.584
850.030
853.475
856.921
860.366
863.812
867.257
870.703
874.148
877.594
881.039
884.485
887.930
891.376
894.821
898.267
901.712
905.158
908.603
912.049
915.494
918.940
922.385
925.831
929.276
932.722
936.167
939.613
943.058
946.504
949.949
953.395
956.840
960.286
963.731
967.177
970.622
974.068
977.513
980.959
984.404
987.850
991.295
994.741
998.186
1001.632
1005.077
1008.523
1011.968
1015.414
1018.859
1022.305
1025.750
1029.196
1032.641
1036.087
1039.532
1042.978
1046.423
1049.869
1053.314
1056.760
1060.205
1063.651
1067.096
1070.542
1073.987
1077.433
1080.878
1084.324
1087.769
1091.215
1094.660
1098.106
1101.551
1104.997
1108.442
1111.888
1115.333
1118.779
1122.224
1125.670
1129.115
1132.561
1136.006
1139.452
1142.897
1146.343
1149.788
1153.234
1156.679
1160.125
1163.570
1167.016
1170.461
1173.907
1177.352
1180.798
1184.243
1187.689
1191.134
1194.580
1198.025
1201.471
1204.916
1208.362
1211.807
1215.253
1218.698
1222.144
1225.589
1229.035
1232.480
1235.926
1239.371
1242.817
1246.262
1250.930
1255.598
1260.266
1264.934
1269.602
1274.270
1278.938
1283.606
1288.274
1292.942
1297.610
1302.278
1306.946
1311.614
1316.282
1320.950
1325.618
1330.286
1334.954
1339.622
1344.290
1348.958
1353.626
1358.294
1362.962
1367.630
1372.298
1376.966
1381.634
1386.302
1390.970
1395.638
1400.306
1404.974
1409.642
1414.310
1418.978
1423.646
1428.314
1432.982
1437.650
1442.318
1446.986
1451.654
1456.322
1460.990
1465.658
1470.326
1474.994
1479.662
1484.330
1488.998
1493.666
1498.334
1503.002
1507.670
1512.338
1517.006
1521.674
1526.342
1531.010
1535.678
1540.346
1545.014
1549.682
1554.350
1559.018
1563.686
1568.354
1573.022
1577.690
1582.358
1587.026
1591.694
1596.362
1601.030
1605.698
1610.366
1615.034
1619.702
1624.370
1629.038
1633.706
1638.374
1643.042
1647.710
1652.378
1657.046
1661.714
1666.382
1671.050
1675.718
1680.386
1685.054
1689.722
1694.390
1699.058
1703.726
1708.394
1713.062
1717.730
1722.398
1727.066
1731.734
1736.402
1741.070
1745.738
1750.406
1755.074
1759.742
1764.410
1769.078
1773.746
1778.414
1783.082
1787.750
1792.418
1797.086
1801.754
1806.422
1811.090
1815.758
1820.426
1825.094
1829.762
1834.430
1839.098
1843.766
1848.434
1853.102
1857.770
1862.438
1867.106
1871.774
1876.442
1881.110
1885.778
1890.446
1895.114
1899.782
1904.450
1909.118
1913.786
1918.454
1923.122
1927.790
1932.458
1937.126
1941.794
1946.462
1951.130
1955.798
1960.466
1965.134
1969.802
1974.470
1979.138
1983.806
1988.474
1993.142
1997.810
2002.478
2007.146
2011.814
2016.482
2021.150
2025.818
2030.486
2035.154
2039.822
2044.490
2049.158
2053.826
2058.494
2063.162
2067.830
2072.498
2077.166
2081.834
2086.502
2091.170
2095.838
2100.506
2105.174
2109.842
2114.510
2119.178
2123.846
2128.514
2133.182
2137.850
2142.518
2147.186
2151.854
2156.522
2161.190
2165.858
2170.526
2175.194
2179.862
2180.204
2180.546
2180.888
2181.230
2181.572
2181.914
2182.256
2182.598
2182.940
2183.282
2183.624
2183.966
2184.308
2184.650
2184.992
2185.334
2185.676
2186.018
2186.360
2186.702
2187.044
2187.386
2187.728
2188.070
2188.412
2188.754
2189.096
2189.438
2189.780
2190.122
2190.464
2190.806
2191.148
2191.490
2191.832
2192.174
2192.516
2192.858
2193.200
2193.542
2193.884
2194.226
2194.568
2194.910
2195.252
2195.594
2195.936
2196.278
2196.620
2196.962
2197.304
2197.646
2197.988
2198.330
2198.672
2199.014
2199.356
2199.698
2200.040
2200.382
2200.724
2201.066
2201.408
2201.750
2202.092
2202.434
2202.776
2203.118
2203.460
2203.802
2204.144
2204.486
2204.828
2205.170
2205.512
2205.854
2206.196
2206.538
2206.880
2207.222
2207.564
2207.906
2208.248
2208.590
2208.932
2209.274
2209.616
2209.958
2210.300
2210.642
2210.984
2211.326
2211.668
2212.010
2212.352
2212.694
2213.036
2213.378
2213.720
2214.062
2214.404
2214.746
2215.088
2215.430
2215.772
2216.114
2216.456
2216.798
2217.140
2217.482
2217.824
2218.166
2218.508
2218.850
2219.192
2219.534
2219.876
2220.218
2220.560
2220.902
2221.244
2221.586
2221.928
2222.270
2222.612
2222.954
2223.296
2223.638
2223.980
2224.322
2224.664
2225.006
2225.348
2225.690
2226.032
2226.374
2226.716
2227.058
2227.400
2227.742
2228.084
2228.426
2228.768
2229.110
2229.452
2229.794
2230.136
2230.478
2230.820
2231.162
2231.504
2231.846
2232.188
2232.530
2232.872
2233.214
2233.556
2233.898
2234.240
2234.582
2234.924
2235.266
2235.608
2235.950
2236.292
2236.634
2236.976
2237.318
2237.660
2238.002
2238.344
2238.686
2239.028
2239.370
2239.712
2240.054
2240.396
2240.738
2241.080
2241.422
2241.764
2242.106
2242.448
2242.790
2243.132
2243.474
2243.816
2244.158
2244.500
2244.842
2245.184
2245.526
2245.868
2246.210
2246.552
2246.894
2247.236
2247.578
2247.920
2248.262
2245.134
2242.006
2238.878
2235.750
2232.622
2229.494
2226.366
2223.238
2220.110
2216.982
2213.854
2210.726
2207.598
2204.470
2201.342
2198.214
2195.086
2191.958
2188.830
2185.702
2182.574
2179.446
2176.318
2173.190
2170.062
2166.934
2163.806
2160.678
2157.550
2154.422
2151.294
2148.166
2145.038
2141.910
2138.782
2135.654
2132.526
2129.398
2126.270
2123.142
2120.014
2116.886
2113.758
2110.630
2107.502
2104.374
2101.246
2098.118
2094.990
2091.862
2088.734
2085.606
2082.478
2079.350
2076.222
2073.094
2069.966
2066.838
2063.710
2060.582
2057.454
2054.326
2051.198
2048.070
2044.942
2041.814
2038.686
2035.558
2032.430
2029.302
2026.174
2023.046
2019.918
2016.790
2013.662
2010.534
2007.406
2004.278
2001.150
1998.022
1994.894
1991.766
1988.638
1985.510
1982.382
1979.254
1976.126
1972.998
1969.870
1966.742
1963.614
1960.486
1957.358
1954.230
1951.102
1947.974
1944.846
1941.718
1938.590
1935.462
1932.334
1929.206
1926.078
1922.950
1919.822
1916.694
1913.566
1910.438
1907.310
1904.182
1901.054
1897.926
1894.798
1891.670
1888.542
1885.414
1882.286
1879.158
1876.030
1872.902
1869.774
1866.646
1863.518
1860.390
1857.262
1854.134
1851.006
1847.878
1844.750
1841.622
1838.494
1835.366
1832.238
1829.110
1825.982
1822.854
1819.726
1816.598
1813.470
1810.342
1807.214
1804.086
1800.958
1797.830
1794.702
1791.574
1788.446
1785.318
1782.190
1779.062
1775.934
1772.806
1769.678
1766.550
1763.422
1760.294
1757.166
1754.038
1750.910
1747.782
1744.654
1741.526
1738.398
1735.270
1732.142
1729.014
1725.886
1722.758
1719.630
1716.502
1713.374
1710.246
1707.118
1703.990
1700.862
1697.734
1694.606
1691.478
1688.350
1685.222
1682.094
1678.966
1675.838
1672.710
1669.582
1666.454
1663.326
1660.198
1657.070
1653.942
1650.814
1647.686
1644.558
1641.430
1638.302
1635.174
1632.046
1628.918
1625.790
1622.662
1626.670
1630.678
1634.686
1638.694
1642.702
1646.710
1650.718
1654.726
1658.734
1662.742
1666.750
1670.758
1674.766
1678.774
1682.782
1686.790
1690.798
1694.806
1698.814
1702.822
1706.830
1710.838
1714.846
1718.854
1722.862
1726.870
1730.878
1734.886
1738.894
1742.902
1746.910
1750.918
1754.926
1758.934
1762.942
1766.950
1770.958
1774.966
1778.974
1782.982
1786.990
1790.998
1795.006
1799.014
1803.022
1807.030
1811.038
1815.046
1819.054
1823.062
1827.070
1831.078
1835.086
1839.094
1843.102
1847.110
1851.118
1855.126
1859.134
1863.142
1867.150
1871.158
1875.166
1879.174
1883.182
1887.190
1891.198
1895.206
1899.214
1903.222
1907.230
1911.238
1915.246
1919.254
1923.262
1927.270
1931.278
1935.286
1939.294
1943.302
1947.310
1951.318
1955.326
1959.334
1963.342
1967.350
1971.358
1975.366
1979.374
1983.382
1987.390
1991.398
1995.406
1999.414
2003.422
2007.430
2011.438
2015.446
2019.454
2023.462
2027.470
2031.478
2035.486
2039.494
2043.502
2047.510
2051.518
2055.526
2059.534
2063.542
2067.550
2071.558
2075.566
2079.574
2083.582
2087.590
2091.598
2095.606
2099.614
2103.622
2107.630
2111.638
2115.646
2119.654
2123.662
2127.670
2131.678
2135.686
2139.694
2143.702
2147.710
2151.718
2155.726
2159.734
2163.742
2167.750
2171.758
2175.766
2179.774
2183.782
2187.790
2191.798
2195.806
2199.814
2203.822
2207.830
2211.838
2215.846
2219.854
2223.862
2227.870
2231.878
2235.886
2239.894
2243.902
2247.910
2251.918
2255.926
2259.934
2263.942
2267.950
2271.958
2275.966
2279.974
2283.982
2287.990
2291.998
2296.006
2300.014
2304.022
2308.030
2312.038
2316.046
2320.054
2324.062
2328.070
2332.078
2336.086
2340.094
2344.102
2348.110
2352.118
2356.126
2360.134
2364.142
2368.150
2372.158
2376.166
2380.174
2384.182
2388.190
2392.198
2396.206
2400.214
2404.222
2408.230
2412.238
2416.246
2420.254
2424.262
2421.794
2419.325
2416.857
2414.388
2411.920
2409.451
2406.983
2404.514
2402.046
2399.577
2397.109
2394.640
2392.172
2389.703
2387.235
2384.766
2382.298
2379.829
2377.361
2374.892
2372.424
2369.955
2367.487
2365.018
2362.550
2360.081
2357.613
2355.144
2352.676
2350.207
2347.739
2345.270
2342.802
2340.333
2337.865
2335.396
2332.928
2330.459
2327.991
2325.522
2323.054
2320.585
2318.117
2315.648
2313.180
2310.711
2308.243
2305.774
2303.306
2300.837
2298.369
2295.900
2293.432
2290.963
2288.495
2286.026
2283.558
2281.089
2278.621
2276.152
2273.684
2271.215
2268.747
2266.278
2263.810
2261.341
2258.873
2256.404
2253.936
2251.467
2248.999
2246.530
2244.062
2241.593
2239.125
2236.656
2234.188
2231.719
2229.251
2226.782
2224.314
2221.845
2219.377
2216.908
2214.440
2211.971
2209.503
2207.034
2204.566
2202.097
2199.629
2197.160
2194.692
2192.223
2189.755
2187.286
2184.818
2182.349
2179.881
2177.412
2174.944
2172.475
2170.007
2167.538
2165.070
2162.601
2160.133
2157.664
2155.196
2152.727
2150.259
2147.790
2145.322
2142.853
2140.385
2137.916
2135.448
2132.979
2130.511
2128.042
2125.574
2123.105
2120.637
2118.168
2115.700
2113.231
2110.763
2108.294
2105.826
2103.357
2100.889
2098.420
2095.952
2093.483
2091.015
2088.546
2086.078
2083.609
2081.141
2078.672
2076.204
2073.735
2071.267
2068.798
2066.330
2063.861
2061.393
2058.924
2056.456
2053.987
2051.519
2049.050
2046.582
2044.113
2041.645
2039.176
2036.708
2034.239
2031.771
2029.302
2026.834
2024.365
2021.897
2019.428
2016.960
2014.491
2012.023
2009.554
2007.086
2004.617
2002.149
1999.680
1997.212
1994.743
1992.275
1989.806
1987.338
1984.869
1982.401
1979.932
1977.464
1974.995
1972.527
1970.058
1967.590
1965.121
1962.653
1960.184
1957.716
1955.247
1952.779
1950.310
1947.842
1945.373
1942.905
1940.436
1937.968
1935.499
1933.031
1930.562
1929.389
1928.216
1927.043
1925.870
1924.697
1923.524
1922.351
1921.178
1920.005
1918.832
1917.659
1916.486
1915.313
1914.140
1912.967
1911.794
1910.621
1909.448
1908.275
1907.102
1905.929
1904.756
1903.583
1902.410
1901.237
1900.064
1898.891
1897.718
1896.545
1895.372
1894.199
1893.026
1891.853
1890.680
1889.507
1888.334
1887.161
1885.988
1884.815
1883.642
1882.469
1881.296
1880.123
1878.950
1877.777
1876.604
1875.431
1874.258
1873.085
1871.912
1870.739
1869.566
1868.393
1867.220
1866.047
1864.874
1863.701
1862.528
1861.355
1860.182
1859.009
1857.836
1856.663
1855.490
1854.317
1853.144
1851.971
1850.798
1849.625
1848.452
1847.279
1846.106
1844.933
1843.760
1842.587
1841.414
1840.241
1839.068
1837.895
1836.722
1835.549
1834.376
1833.203
1832.030
1830.857
1829.684
1828.511
1827.338
1826.165
1824.992
1823.819
1822.646
1821.473
1820.300
1819.127
1817.954
1816.781
1815.608
1814.435
1813.262
1812.089
1810.916
1809.743
1808.570
1807.397
1806.224
1805.051
1803.878
1802.705
1801.532
1800.359
1799.186
1798.013
1796.840
1795.667
1794.494
1793.321
1792.148
1790.975
1789.802
1788.629
1787.456
1786.283
1785.110
1783.937
1782.764
1781.591
1780.418
1779.245
1778.072
1776.899
1775.726
1774.553
1773.380
1772.207
1771.034
1769.861
1768.688
1767.515
1766.342
1765.169
1763.996
1762.823
1761.650
1760.477
1759.304
1758.131
1756.958
1755.785
1754.612
1753.439
1752.266
1751.093
1749.920
1748.747
1747.574
1746.401
1745.228
1744.055
1742.882
1741.709
1740.536
1739.363
1738.190
1737.017
1735.844
1734.671
1733.498
1732.325
1731.152
1729.979
1728.806
1727.633
1726.460
1725.287
1724.114
1722.941
1721.768
1720.595
1719.422
1718.249
1717.076
1715.903
1714.730
1713.557
1712.384
1711.211
1710.038
1708.865
1707.692
1706.519
1705.346
1704.173
1703.000
1701.827
1700.654
1699.481
1698.308
1697.135
1695.962
1692.908
1689.853
1686.799
1683.744
1680.690
1677.635
1674.581
1671.526
1668.472
1665.417
1662.363
1659.308
1656.254
1653.199
1650.145
1647.090
1644.036
1640.981
1637.927
1634.872
1631.818
1628.763
1625.709
1622.654
1619.600
1616.545
1613.491
1610.436
1607.382
1604.327
1601.273
1598.218
1595.164
1592.109
1589.055
1586.000
1582.946
1579.891
1576.837
1573.782
1570.728
1567.673
1564.619
1561.564
1558.510
1555.455
1552.401
1549.346
1546.292
1543.237
1540.183
1537.128
1534.074
1531.019
1527.965
1524.910
1521.856
1518.801
1515.747
1512.692
1509.638
1506.583
1503.529
1500.474
1497.420
1494.365
1491.311
1488.256
1485.202
1482.147
1479.093
1476.038
1472.984
1469.929
1466.875
1463.820
1460.766
1457.711
1454.657
1451.602
1448.548
1445.493
1442.439
1439.384
1436.330
1433.275
1430.221
1427.166
1424.112
1421.057
1418.003
1414.948
1411.894
1408.839
1405.785
1402.730
1399.676
1396.621
1393.567
1390.512
1387.458
1384.403
1381.349
1378.294
1375.240
1372.185
1369.131
1366.076
1363.022
1359.967
1356.913
1353.858
1350.804
1347.749
1344.695
1341.640
1338.586
1335.531
1332.477
1329.422
1326.368
1323.313
1320.259
1317.204
1314.150
1311.095
1308.041
1304.986
1301.932
1298.877
1295.823
1292.768
1289.714
1286.659
1283.605
1280.550
1277.496
1274.441
1271.387
1268.332
1265.278
1262.223
1259.169
1256.114
1253.060
1250.005
1246.951
1243.896
1240.842
1237.787
1234.733
1231.678
1228.624
1225.569
1222.515
1219.460
1216.406
1213.351
1210.297
1207.242
1204.188
1201.133
1198.079
1195.024
1191.970
1188.915
1185.861
1182.806
1179.752
1176.697
1173.643
1170.588
1167.534
1164.479
1161.425
1158.370
1155.316
1152.261
1149.207
1146.152
1143.098
1140.043
1136.989
1133.934
1130.880
1127.825
1124.771
1121.716
1118.662
1115.607
1112.553
1109.498
1106.444
1103.389
1100.335
1097.280
1094.226
1091.171
1088.117
1085.062
1088.532
1092.002
1095.472
1098.942
1102.412
1105.882
1109.352
1112.822
1116.292
1119.762
1123.232
1126.702
1130.172
1133.642
1137.112
1140.582
1144.052
1147.522
1150.992
1154.462
1157.932
1161.402
1164.872
1168.342
1171.812
1175.282
1178.752
1182.222
1185.692
1189.162
1192.632
1196.102
1199.572
1203.042
1206.512
1209.982
1213.452
1216.922
1220.392
1223.862
1227.332
1230.802
1234.272
1237.742
1241.212
1244.682
1248.152
1251.622
1255.092
1258.562
1262.032
1265.502
1268.972
1272.442
1275.912
1279.382
1282.852
1286.322
1289.792
1293.262
1296.732
1300.202
1303.672
1307.142
1310.612
1314.082
1317.552
1321.022
1324.492
1327.962
1331.432
1334.902
1338.372
1341.842
1345.312
1348.782
1352.252
1355.722
1359.192
1362.662
1366.132
1369.602
1373.072
1376.542
1380.012
1383.482
1386.952
1390.422
1393.892
1397.362
1400.832
1404.302
1407.772
1411.242
1414.712
1418.182
1421.652
1425.122
1428.592
1432.062
1435.532
1439.002
1442.472
1445.942
1449.412
1452.882
1456.352
1459.822
1463.292
1466.762
1470.232
1473.702
1477.172
1480.642
1484.112
1487.582
1491.052
1494.522
1497.992
1501.462
1504.932
1508.402
1511.872
1515.342
1518.812
1522.282
1525.752
1529.222
1532.692
1536.162
1539.632
1543.102
1546.572
1550.042
1553.512
1556.982
1560.452
1563.922
1567.392
1570.862
1574.332
1577.802
1581.272
1584.742
1588.212
1591.682
1595.152
1598.622
1602.092
1605.562
1609.032
1612.502
1615.972
1619.442
1622.912
1626.382
1629.852
1633.322
1636.792
1640.262
1643.732
1647.202
1650.672
1654.142
1657.612
1661.082
1664.552
1668.022
1671.492
1674.962
1678.432
1681.902
1685.372
1688.842
1692.312
1695.782
1699.252
1702.722
1706.192
1709.662
1713.132
1716.602
1720.072
1723.542
1727.012
1730.482
1733.952
1737.422
1740.892
1744.362
1747.832
1751.302
1754.772
1758.242
1761.712
1765.182
1768.652
1772.122
1775.592
1779.062
1772.171
1765.279
1758.388
1751.496
1744.605
1737.713
1730.822
1723.930
1717.039
1710.147
1703.256
1696.364
1689.473
1682.581
1675.690
1668.798
1661.907
1655.015
1648.124
1641.232
1634.341
1627.449
1620.558
1613.666
1606.775
1599.883
1592.992
1586.100
1579.209
1572.317
1565.426
1558.534
1551.643
1544.751
1537.860
1530.968
1524.077
1517.185
1510.294
1503.402
1496.511
1489.619
1482.728
1475.836
1468.945
1462.053
1455.162
1448.270
1441.379
1434.487
1427.596
1420.704
1413.813
1406.921
1400.030
1393.138
1386.247
1379.355
1372.464
1365.572
1358.681
1351.789
1344.898
1338.006
1331.115
1324.223
1317.332
1310.440
1303.549
1296.657
1289.766
1282.874
1275.983
1269.091
1262.200
1255.308
1248.417
1241.525
1234.634
1227.742
1220.851
1213.959
1207.068
1200.176
1193.285
1186.393
1179.502
1172.610
1165.719
1158.827
1151.936
1145.044
1138.153
