112.632
112.632
112.632
112.632
112.632
112.632
112.632
112.632
112.632
112.632
112.632
112.632
112.632
112.632
112.632
112.632
112.632
112.632
112.632
112.632
112.632
112.632
112.632
112.632
112.632
112.632
112.632
112.632
112.632
112.632
112.632
112.632
112.632
112.632
112.632
112.632
112.632
112.632
112.632
112.632
112.632
112.632
112.632
112.632
112.632
112.632
112.632
112.632
112.632
112.632
112.632
112.632
112.632
112.632
112.632
112.632
112.632
112.632
112.632
112.632
112.632
112.632
112.632
112.632
112.632
112.632
112.632
112.632
112.632
112.632
112.632
112.632
112.632
112.632
112.632
112.632
112.632
112.632
112.632
112.632
112.632
112.632
112.632
112.632
112.632
112.632
112.632
112.632
112.632
112.632
112.632
112.632
112.632
112.632
112.632
112.632
112.632
112.632
112.632
112.632
112.632
112.632
112.632
112.632
112.632
112.632
112.632
112.632
112.632
112.632
112.632
112.632
112.632
112.632
112.632
112.632
112.632
112.632
112.632
112.632
112.632
112.632
112.632
112.632
112.632
112.632
112.632
112.632
112.632
112.632
112.632
112.632
112.632
112.632
112.632
112.632
112.632
112.632
112.632
112.632
112.632
112.632
112.632
112.632
112.632
112.632
112.632
112.632
112.632
112.632
112.632
112.632
112.632
112.632
112.632
112.632
112.632
112.632
112.632
112.632
112.632
112.632
112.632
112.632
112.632
112.632
112.632
112.632
112.632
112.632
112.632
112.632
112.632
112.632
112.632
112.632
112.632
112.632
112.632
112.632
112.632
112.632
112.632
112.632
112.632
112.632
112.632
112.632
112.632
112.632
112.632
112.632
112.632
112.632
112.632
112.632
112.632
112.632
112.632
112.632
112.632
112.632
112.632
112.632
112.632
112.632
112.632
112.632
112.632
112.632
112.632
112.632
112.632
112.632
112.632
112.632
112.632
112.632
112.632
112.632
112.632
112.632
112.632
112.632
112.632
112.632
112.632
112.632
112.632
112.632
112.632
112.632
112.632
112.632
112.632
112.632
112.632
112.632
112.632
112.632
112.632
112.632
112.632
112.632
112.632
112.632
112.632
112.632
112.632
112.632
112.632
112.632
112.632
112.632
112.632
112.632
112.632
112.632
112.632
112.632
112.632
112.632
112.632
112.632
112.632
112.632
112.632
112.632
112.632
112.632
112.632
112.632
112.632
112.632
112.632
112.632
112.632
112.632
112.632
112.632
112.632
112.632
112.632
112.632
112.632
1134.132
1136.576
1139.019
1141.463
1143.906
1146.350
1148.793
1151.237
1153.680
1156.124
1158.567
1161.011
1163.454
1165.898
1168.341
1170.785
1173.228
1175.672
1178.115
1180.559
1183.002
1185.446
1187.889
1190.333
1192.776
1195.220
1197.663
1200.107
1202.550
1204.994
1207.437
1209.881
1212.324
1214.768
1217.211
1219.655
1222.098
1224.542
1226.985
1229.429
1231.872
1234.316
1236.759
1239.203
1241.646
1244.090
1246.533
1248.977
1251.420
1253.864
1256.307
1258.751
1261.194
1263.638
1266.081
1268.525
1270.968
1273.412
1275.855
1278.299
1280.742
1283.186
1285.629
1288.073
1290.516
1292.960
1295.403
1297.847
1300.290
1302.734
1305.177
1307.621
1310.064
1312.508
1314.951
1317.395
1319.838
1322.282
1324.725
1327.169
1329.612
1332.056
1334.499
1336.943
1339.386
1341.830
1344.273
1346.717
1349.160
1351.604
1354.047
1356.491
1358.934
1361.378
1363.821
1366.265
1368.708
1371.152
1373.595
1376.039
1378.482
1380.926
1383.369
1385.813
1388.256
1390.700
1393.143
1395.587
1398.030
1400.474
1402.917
1405.361
1407.804
1410.248
1412.691
1415.135
1417.578
1420.022
1422.465
1424.909
1427.352
1429.796
1432.239
1434.683
1437.126
1439.570
1442.013
1444.457
1446.900
1449.344
1451.787
1454.231
1456.674
1459.118
1461.561
1464.005
1466.448
1468.892
1471.335
1473.779
1476.222
1478.666
1481.109
1483.553
1485.996
1488.440
1490.883
1493.327
1495.770
1498.214
1500.657
1503.101
1505.544
1507.988
1510.431
1512.875
1515.318
1517.762
1520.205
1522.649
1525.092
1527.536
1529.979
1532.423
1534.866
1537.310
1539.753
1542.197
1544.640
1547.084
1549.527
1551.971
1554.414
1556.858
1559.301
1561.745
1564.188
1566.632
1569.075
1571.519
1573.962
1576.406
1578.849
1581.293
1583.736
1586.180
1588.623
1591.067
1593.510
1595.954
1598.397
1600.841
1603.284
1605.728
1608.171
1610.615
1613.058
1615.502
1617.945
1620.389
1622.832
1624.934
1627.036
1629.138
1631.240
1633.342
1635.444
1637.546
1639.648
1641.750
1643.852
1645.954
1648.056
1650.158
1652.260
1654.362
1656.464
1658.566
1660.668
1662.770
1664.872
1666.974
1669.076
1671.178
1673.280
1675.382
1677.484
1679.586
1681.688
1683.790
1685.892
1687.994
1690.096
1692.198
1694.300
1696.402
1698.504
1700.606
1702.708
1704.810
1706.912
1709.014
1711.116
1713.218
1715.320
1717.422
1719.524
1721.626
1723.728
1725.830
1727.932
1730.034
1732.136
1734.238
1736.340
1738.442
1740.544
1742.646
1744.748
1746.850
1748.952
1751.054
1753.156
1755.258
1757.360
1759.462
1761.564
1763.666
1765.768
1767.870
1769.972
1772.074
1774.176
1776.278
1778.380
1780.482
1782.584
1784.686
1786.788
1788.890
1790.992
1793.094
1795.196
1797.298
1799.400
1801.502
1803.604
1805.706
1807.808
1809.910
1812.012
1814.114
1816.216
1818.318
1820.420
1822.522
1824.624
1826.726
1828.828
1830.930
1833.032
1835.134
1837.236
1839.338
1841.440
1843.542
1845.644
1847.746
1849.848
1851.950
1854.052
1856.154
1858.256
1860.358
1862.460
1864.562
1866.664
1868.766
1870.868
1872.970
1875.072
1877.174
1879.276
1881.378
1883.480
1885.582
1887.684
1889.786
1891.888
1893.990
1896.092
1898.194
1900.296
1902.398
1904.500
1906.602
1908.704
1910.806
1912.908
1915.010
1917.112
1919.214
1921.316
1923.418
1925.520
1927.622
1929.724
1931.826
1933.928
1936.030
1938.132
1940.234
1942.336
1944.438
1946.540
1948.642
1950.744
1952.846
1954.948
1957.050
1959.152
1961.254
1963.356
1965.458
1967.560
1969.662
1971.764
1973.866
1975.968
1978.070
1980.172
1982.274
1984.376
1986.478
1988.580
1990.682
1992.784
1994.886
1996.988
1999.090
2001.192
2003.294
2005.396
2007.498
2009.600
2011.702
2013.804
2015.906
2018.008
2020.110
2022.212
2024.314
2026.416
2028.518
2030.620
2032.722
2034.824
2036.926
2039.028
2041.130
2043.232
2043.745
2044.258
2044.771
2045.284
2045.797
2046.310
2046.823
2047.336
2047.849
2048.362
2048.875
2049.388
2049.901
2050.414
2050.927
2051.440
2051.953
2052.466
2052.979
2053.492
2054.005
2054.518
2055.031
2055.544
2056.057
2056.570
2057.083
2057.596
2058.109
2058.622
2059.135
2059.648
2060.161
2060.674
2061.187
2061.700
2062.213
2062.726
2063.239
2063.752
2064.265
2064.778
2065.291
2065.804
2066.317
2066.830
2067.343
2067.856
2068.369
2068.882
2069.395
2069.908
2070.421
2070.934
2071.447
2071.960
2072.473
2072.986
2073.499
2074.012
2074.525
2075.038
2075.551
2076.064
2076.577
2077.090
2077.603
2078.116
2078.629
2079.142
2079.655
2080.168
2080.681
2081.194
2081.707
2082.220
2082.733
2083.246
2083.759
2084.272
2084.785
2085.298
2085.811
2086.324
2086.837
2087.350
2087.863
2088.376
2088.889
2089.402
2089.915
2090.428
2090.941
2091.454
2091.967
2092.480
2092.993
2093.506
2094.019
2094.532
2095.045
2095.558
2096.071
2096.584
2097.097
2097.610
2098.123
2098.636
2099.149
2099.662
2100.175
2100.688
2101.201
2101.714
2102.227
2102.740
2103.253
2103.766
2104.279
2104.792
2105.305
2105.818
2106.331
2106.844
2107.357
2107.870
2108.383
2108.896
2109.409
2109.922
2110.435
2110.948
2111.461
2111.974
2112.487
2113.000
2113.513
2114.026
2114.539
2115.052
2115.565
2116.078
2116.591
2117.104
2117.617
2118.130
2118.643
2119.156
2119.669
2120.182
2120.695
2121.208
2121.721
2122.234
2122.747
2123.260
2123.773
2124.286
2124.799
2125.312
2125.825
2126.338
2126.851
2127.364
2127.877
2128.390
2128.903
2129.416
2129.929
2130.442
2130.955
2131.468
2131.981
2132.494
2133.007
2133.520
2134.033
2134.546
2135.059
2135.572
2136.085
2136.598
2137.111
2137.624
2138.137
2138.650
2139.163
2139.676
2140.189
2140.702
2141.215
2141.728
2142.241
2142.754
2143.267
2143.780
2144.293
2144.806
2145.319
2145.832
2144.390
2142.948
2141.506
2140.064
2138.622
2137.180
2135.738
2134.296
2132.854
2131.412
2129.970
2128.528
2127.086
2125.644
2124.202
2122.760
2121.318
2119.876
2118.434
2116.992
2115.550
2114.108
2112.666
2111.224
2109.782
2108.340
2106.898
2105.456
2104.014
2102.572
2101.130
2099.688
2098.246
2096.804
2095.362
2093.920
2092.478
2091.036
2089.594
2088.152
2086.710
2085.268
2083.826
2082.384
2080.942
2079.500
2078.058
2076.616
2075.174
2073.732
2072.290
2070.848
2069.406
2067.964
2066.522
2065.080
2063.638
2062.196
2060.754
2059.312
2057.870
2056.428
2054.986
2053.544
2052.102
2050.660
2049.218
2047.776
2046.334
2044.892
2043.450
2042.008
2040.566
2039.124
2037.682
2036.240
2034.798
2033.356
2031.914
2030.472
2029.030
2027.588
2026.146
2024.704
2023.262
2021.820
2020.378
2018.936
2017.494
2016.052
2014.610
2013.168
2011.726
2010.284
2008.842
2007.400
2005.958
2004.516
2003.074
2001.632
2000.190
1998.748
1997.306
1995.864
1994.422
1992.980
1991.538
1990.096
1988.654
1987.212
1985.770
1984.328
1982.886
1981.444
1980.002
1978.560
1977.118
1975.676
1974.234
1972.792
1971.350
1969.908
1968.466
1967.024
1965.582
1964.140
1962.698
1961.256
1959.814
1958.372
1956.930
1955.488
1954.046
1952.604
1951.162
1949.720
1948.278
1946.836
1945.394
1943.952
1942.510
1941.068
1939.626
1938.184
1936.742
1935.300
1933.858
1932.416
1930.974
1929.532
1928.090
1926.648
1925.206
1923.764
1922.322
1920.880
1919.438
1917.996
1916.554
1915.112
1913.670
1912.228
1910.786
1909.344
1907.902
1906.460
1905.018
1903.576
1902.134
1900.692
1899.250
1897.808
1896.366
1894.924
1893.482
1892.040
1890.598
1889.156
1887.714
1886.272
1884.830
1883.388
1881.946
1880.504
1879.062
1877.620
1876.178
1874.736
1873.294
1871.852
1870.410
1868.968
1867.526
1866.084
1864.642
1863.200
1861.758
1860.316
1858.874
1857.432
1859.803
1862.173
1864.544
1866.914
1869.285
1871.655
1874.026
1876.396
1878.767
1881.137
1883.508
1885.878
1888.249
1890.619
1892.990
1895.360
1897.731
1900.101
1902.472
1904.842
1907.213
1909.583
1911.954
1914.324
1916.695
1919.065
1921.436
1923.806
1926.177
1928.547
1930.918
1933.288
1935.659
1938.029
1940.400
1942.770
1945.141
1947.511
1949.882
1952.252
1954.623
1956.993
1959.364
1961.734
1964.105
1966.475
1968.846
1971.216
1973.587
1975.957
1978.328
1980.698
1983.069
1985.439
1987.810
1990.180
1992.551
1994.921
1997.292
1999.662
2002.033
2004.403
2006.774
2009.144
2011.515
2013.885
2016.256
2018.626
2020.997
2023.367
2025.738
2028.108
2030.479
2032.849
2035.220
2037.590
2039.961
2042.331
2044.702
2047.072
2049.443
2051.813
2054.184
2056.554
2058.925
2061.295
2063.666
2066.036
2068.407
2070.777
2073.148
2075.518
2077.889
2080.259
2082.630
2085.000
2087.371
2089.741
2092.112
2094.482
2096.853
2099.223
2101.594
2103.964
2106.335
2108.705
2111.076
2113.446
2115.817
2118.187
2120.558
2122.928
2125.299
2127.669
2130.040
2132.410
2134.781
2137.151
2139.522
2141.892
2144.263
2146.633
2149.004
2151.374
2153.745
2156.115
2158.486
2160.856
2163.227
2165.597
2167.968
2170.338
2172.709
2175.079
2177.450
2179.820
2182.191
2184.561
2186.932
2189.302
2191.673
2194.043
2196.414
2198.784
2201.155
2203.525
2205.896
2208.266
2210.637
2213.007
2215.378
2217.748
2220.119
2222.489
2224.860
2227.230
2229.601
2231.971
2234.342
2236.712
2239.083
2241.453
2243.824
2246.194
2248.565
2250.935
2253.306
2255.676
2258.047
2260.417
2262.788
2265.158
2267.529
2269.899
2272.270
2274.640
2277.011
2279.381
2281.752
2284.122
2286.493
2288.863
2291.234
2293.604
2295.975
2298.345
2300.716
2303.086
2305.457
2307.827
2310.198
2312.568
2314.939
2317.309
2319.680
2322.050
2324.421
2326.791
2329.162
2331.532
2330.677
2329.822
2328.967
2328.112
2327.257
2326.402
2325.547
2324.692
2323.837
2322.982
2322.127
2321.272
2320.417
2319.562
2318.707
2317.852
2316.997
2316.142
2315.287
2314.432
2313.577
2312.722
2311.867
2311.012
2310.157
2309.302
2308.447
2307.592
2306.737
2305.882
2305.027
2304.172
2303.317
2302.462
2301.607
2300.752
2299.897
2299.042
2298.187
2297.332
2296.477
2295.622
2294.767
2293.912
2293.057
2292.202
2291.347
2290.492
2289.637
2288.782
2287.927
2287.072
2286.217
2285.362
2284.507
2283.652
2282.797
2281.942
2281.087
2280.232
2279.377
2278.522
2277.667
2276.812
2275.957
2275.102
2274.247
2273.392
2272.537
2271.682
2270.827
2269.972
2269.117
2268.262
2267.407
2266.552
2265.697
2264.842
2263.987
2263.132
2262.277
2261.422
2260.567
2259.712
2258.857
2258.002
2257.147
2256.292
2255.437
2254.582
2253.727
2252.872
2252.017
2251.162
2250.307
2249.452
2248.597
2247.742
2246.887
2246.032
2245.177
2244.322
2243.467
2242.612
2241.757
2240.902
2240.047
2239.192
2238.337
2237.482
2236.627
2235.772
2234.917
2234.062
2233.207
2232.352
2231.497
2230.642
2229.787
2228.932
2228.077
2227.222
2226.367
2225.512
2224.657
2223.802
2222.947
2222.092
2221.237
2220.382
2219.527
2218.672
2217.817
2216.962
2216.107
2215.252
2214.397
2213.542
2212.687
2211.832
2210.977
2210.122
2209.267
2208.412
2207.557
2206.702
2205.847
2204.992
2204.137
2203.282
2202.427
2201.572
2200.717
2199.862
2199.007
2198.152
2197.297
2196.442
2195.587
2194.732
2193.877
2193.022
2192.167
2191.312
2190.457
2189.602
2188.747
2187.892
2187.037
2186.182
2185.327
2184.472
2183.617
2182.762
2181.907
2181.052
2180.197
2179.342
2178.487
2177.632
2176.777
2175.922
2175.067
2174.212
2173.357
2172.502
2171.647
2170.792
2169.937
2169.082
2168.227
2167.372
2166.517
2165.662
2164.807
2163.952
2163.097
2162.242
2161.387
2160.532
2158.308
2156.084
2153.860
2151.636
2149.412
2147.188
2144.964
2142.740
2140.516
2138.292
2136.068
2133.844
2131.620
2129.396
2127.172
2124.948
2122.724
2120.500
2118.276
2116.052
2113.828
2111.604
2109.380
2107.156
2104.932
2102.708
2100.484
2098.260
2096.036
2093.812
2091.588
2089.364
2087.140
2084.916
2082.692
2080.468
2078.244
2076.020
2073.796
2071.572
2069.348
2067.124
2064.900
2062.676
2060.452
2058.228
2056.004
2053.780
2051.556
2049.332
2047.108
2044.884
2042.660
2040.436
2038.212
2035.988
2033.764
2031.540
2029.316
2027.092
2024.868
2022.644
2020.420
2018.196
2015.972
2013.748
2011.524
2009.300
2007.076
2004.852
2002.628
2000.404
1998.180
1995.956
1993.732
1991.508
1989.284
1987.060
1984.836
1982.612
1980.388
1978.164
1975.940
1973.716
1971.492
1969.268
1967.044
1964.820
1962.596
1960.372
1958.148
1955.924
1953.700
1951.476
1949.252
1947.028
1944.804
1942.580
1940.356
1938.132
1935.908
1933.684
1931.460
1929.236
1927.012
1924.788
1922.564
1920.340
1918.116
1915.892
1913.668
1911.444
1909.220
1906.996
1904.772
1902.548
1900.324
1898.100
1895.876
1893.652
1891.428
1889.204
1886.980
1884.756
1882.532
1880.308
1878.084
1875.860
1873.636
1871.412
1869.188
1866.964
1864.740
1862.516
1860.292
1858.068
1855.844
1853.620
1851.396
1849.172
1846.948
1844.724
1842.500
1840.276
1838.052
1835.828
1833.604
1831.380
1829.156
1826.932
1824.708
1822.484
1820.260
1818.036
1815.812
1813.588
1811.364
1809.140
1806.916
1804.692
1802.468
1800.244
1798.020
1795.796
1793.572
1791.348
1789.124
1786.900
1784.676
1782.452
1780.228
1778.004
1775.780
1773.556
1771.332
1769.108
1766.884
1764.660
1762.436
1760.212
1757.988
1755.764
1753.540
1751.316
1749.092
1746.868
1744.644
1742.420
1740.196
1737.972
1735.748
1733.524
1731.300
1729.076
1726.852
1724.628
1722.404
1720.180
1717.956
1715.732
1718.054
1720.375
1722.697
1725.018
1727.340
1729.661
1731.983
1734.304
1736.626
1738.947
1741.269
1743.590
1745.912
1748.233
1750.555
1752.876
1755.198
1757.519
1759.841
1762.162
1764.484
1766.805
1769.127
1771.448
1773.770
1776.091
1778.413
1780.734
1783.056
1785.377
1787.699
1790.020
1792.342
1794.663
1796.985
1799.306
1801.628
1803.949
1806.271
1808.592
1810.914
1813.235
1815.557
1817.878
1820.200
1822.521
1824.843
1827.164
1829.486
1831.807
1834.129
1836.450
1838.772
1841.093
1843.415
1845.736
1848.058
1850.379
1852.701
1855.022
1857.344
1859.665
1861.987
1864.308
1866.630
1868.951
1871.273
1873.594
1875.916
1878.237
1880.559
1882.880
1885.202
1887.523
1889.845
1892.166
1894.488
1896.809
1899.131
1901.452
1903.774
1906.095
1908.417
1910.738
1913.060
1915.381
1917.703
1920.024
1922.346
1924.667
1926.989
1929.310
1931.632
1933.953
1936.275
1938.596
1940.918
1943.239
1945.561
1947.882
1950.204
1952.525
1954.847
1957.168
1959.490
1961.811
1964.133
1966.454
1968.776
1971.097
1973.419
1975.740
1978.062
1980.383
1982.705
1985.026
1987.348
1989.669
1991.991
1994.312
1996.634
1998.955
2001.277
2003.598
2005.920
2008.241
2010.563
2012.884
2015.206
2017.527
2019.849
2022.170
2024.492
2026.813
2029.135
2031.456
2033.778
2036.099
2038.421
2040.742
2043.064
2045.385
2047.707
2050.028
2052.350
2054.671
2056.993
2059.314
2061.636
2063.957
2066.279
2068.600
2070.922
2073.243
2075.565
2077.886
2080.208
2082.529
2084.851
2087.172
2089.494
2091.815
2094.137
2096.458
2098.780
2101.101
2103.423
2105.744
2108.066
2110.387
2112.709
2115.030
2117.352
2119.673
2121.995
2124.316
2126.638
2128.959
2131.281
2133.602
2135.924
2138.245
2140.567
2142.888
2145.210
2147.531
2149.853
2152.174
2154.496
2156.817
2159.139
2161.460
2163.782
2166.103
2168.425
2170.746
2173.068
2175.389
2177.711
2180.032
2183.454
2186.875
2190.297
2193.718
2197.140
2200.561
2203.983
2207.404
2210.826
2214.247
2217.669
2221.090
2224.512
2227.933
2231.355
2234.776
2238.198
2241.619
2245.041
2248.462
2251.884
2255.305
2258.727
2262.148
2265.570
2268.991
2272.413
2275.834
2279.256
2282.677
2286.099
2289.520
2292.942
2296.363
2299.785
2303.206
2306.628
2310.049
2313.471
2316.892
2320.314
2323.735
2327.157
2330.578
2334.000
2337.421
2340.843
2344.264
2347.686
2351.107
2354.529
2357.950
2361.372
2364.793
2368.215
2371.636
2375.058
2378.479
2381.901
2385.322
2388.744
2392.165
2395.587
2399.008
2402.430
2405.851
2409.273
2412.694
2416.116
2419.537
2422.959
2426.380
2429.802
2433.223
2436.645
2440.066
2443.488
2446.909
2450.331
2453.752
2457.174
2460.595
2464.017
2467.438
2470.860
2474.281
2477.703
2481.124
2484.546
2487.967
2491.389
2494.810
2498.232
2501.653
2505.075
2508.496
2511.918
2515.339
2518.761
2522.182
2525.604
2529.025
2532.447
2535.868
2539.290
2542.711
2546.133
2549.554
2552.976
2556.397
2559.819
2563.240
2566.662
2570.083
