82.592
82.592
82.592
82.592
82.592
82.592
82.592
82.592
82.592
82.592
82.592
82.592
82.592
82.592
82.592
82.592
82.592
82.592
82.592
82.592
82.592
82.592
82.592
82.592
82.592
82.592
82.592
82.592
82.592
82.592
82.592
82.592
82.592
82.592
82.592
82.592
82.592
82.592
82.592
82.592
82.592
82.592
82.592
82.592
82.592
82.592
82.592
82.592
82.592
82.592
82.592
82.592
82.592
82.592
82.592
82.592
82.592
82.592
82.592
82.592
82.592
82.592
82.592
82.592
82.592
82.592
82.592
82.592
82.592
82.592
82.592
82.592
82.592
82.592
82.592
82.592
82.592
82.592
82.592
82.592
82.592
82.592
82.592
82.592
82.592
82.592
82.592
82.592
82.592
82.592
82.592
82.592
82.592
82.592
82.592
82.592
82.592
82.592
82.592
82.592
82.592
82.592
82.592
82.592
82.592
82.592
82.592
82.592
82.592
82.592
82.592
82.592
82.592
82.592
82.592
82.592
82.592
82.592
82.592
82.592
82.592
82.592
82.592
82.592
82.592
82.592
82.592
82.592
82.592
82.592
82.592
82.592
82.592
82.592
82.592
82.592
82.592
82.592
82.592
82.592
82.592
82.592
82.592
82.592
82.592
82.592
82.592
82.592
82.592
82.592
82.592
82.592
82.592
82.592
82.592
82.592
82.592
82.592
82.592
82.592
82.592
82.592
82.592
82.592
82.592
82.592
82.592
82.592
82.592
82.592
82.592
82.592
82.592
82.592
82.592
82.592
82.592
82.592
82.592
82.592
82.592
82.592
82.592
82.592
82.592
82.592
82.592
82.592
82.592
82.592
82.592
82.592
82.592
82.592
82.592
82.592
82.592
82.592
82.592
82.592
82.592
82.592
82.592
82.592
82.592
82.592
82.592
82.592
82.592
82.592
82.592
82.592
82.592
82.592
82.592
82.592
82.592
82.592
82.592
82.592
82.592
82.592
82.592
82.592
82.592
82.592
82.592
82.592
82.592
82.592
82.592
82.592
82.592
82.592
82.592
82.592
82.592
82.592
82.592
82.592
82.592
82.592
82.592
82.592
82.592
82.592
82.592
82.592
82.592
82.592
82.592
82.592
82.592
82.592
82.592
82.592
82.592
82.592
82.592
82.592
82.592
82.592
82.592
82.592
82.592
82.592
82.592
82.592
82.592
82.592
82.592
82.592
82.592
82.592
82.592
82.592
82.592
82.592
82.592
82.592
82.592
82.592
82.592
82.592
82.592
82.592
82.592
82.592
82.592
82.592
82.592
82.592
82.592
82.592
82.592
82.592
82.592
82.592
82.592
82.592
82.592
82.592
82.592
82.592
82.592
82.592
82.592
82.592
82.592
82.592
82.592
82.592
82.592
82.592
82.592
82.592
82.592
82.592
82.592
82.592
82.592
82.592
82.592
82.592
82.592
82.592
82.592
82.592
82.592
82.592
82.592
82.592
82.592
82.592
82.592
82.592
82.592
82.592
82.567
82.543
82.518
82.494
82.469
82.445
82.420
82.396
82.371
82.347
82.322
82.298
82.273
82.249
82.224
82.200
82.175
82.151
82.126
82.102
82.077
82.053
82.028
82.004
81.979
81.955
81.930
81.906
81.881
81.857
81.832
81.808
81.783
81.759
81.734
81.710
81.685
81.661
81.636
81.612
81.587
81.563
81.538
81.514
81.489
81.465
81.440
81.416
81.391
81.367
81.342
81.318
81.293
81.269
81.244
81.220
81.195
81.171
81.146
81.122
81.097
81.073
81.048
81.024
80.999
80.975
80.950
80.926
80.901
80.877
80.852
80.828
80.803
80.779
80.754
80.730
80.705
80.681
80.656
80.632
80.607
80.583
80.558
80.534
80.509
80.485
80.460
80.436
80.411
80.387
80.362
80.338
80.313
80.289
80.264
80.240
80.215
80.191
80.166
80.142
80.117
80.093
80.068
80.044
80.019
79.995
79.970
79.946
79.921
79.897
79.872
79.848
79.823
79.799
79.774
79.750
79.725
79.701
79.676
79.652
79.627
79.603
79.578
79.554
79.529
79.505
79.480
79.456
79.431
79.407
79.382
79.358
79.333
79.309
79.284
79.260
79.235
79.211
79.186
79.162
79.137
79.113
79.088
79.064
79.039
79.015
78.990
78.966
78.941
78.917
78.892
78.868
78.843
78.819
78.794
78.770
78.745
78.721
78.696
78.672
78.647
78.623
78.598
78.574
78.549
78.525
78.500
78.476
78.451
78.427
78.402
78.378
78.353
78.329
78.304
78.280
78.255
78.231
78.206
78.182
78.157
78.133
78.108
78.084
78.059
78.035
78.010
77.986
77.961
77.937
77.912
77.888
77.863
77.839
77.814
77.790
77.765
77.741
77.716
77.692
77.765
77.838
77.911
77.984
78.057
78.130
78.203
78.276
78.349
78.422
78.495
78.568
78.641
78.714
78.787
78.860
78.933
79.006
79.079
79.152
79.225
79.298
79.371
79.444
79.517
79.590
79.663
79.736
79.809
79.882
79.955
80.028
80.101
80.174
80.247
80.320
80.393
80.466
80.539
80.612
80.685
80.758
80.831
80.904
80.977
81.050
81.123
81.196
81.269
81.342
81.415
81.488
81.561
81.634
81.707
81.780
81.853
81.926
81.999
82.072
82.145
82.218
82.291
82.364
82.437
82.510
82.583
82.656
82.729
82.802
82.875
82.948
83.021
83.094
83.167
83.240
83.313
83.386
83.459
83.532
83.605
83.678
83.751
83.824
83.897
83.970
84.043
84.116
84.189
84.262
84.335
84.408
84.481
84.554
84.627
84.700
84.773
84.846
84.919
84.992
85.065
85.138
85.211
85.284
85.357
85.430
85.503
85.576
85.649
85.722
85.795
85.868
85.941
86.014
86.087
86.160
86.233
86.306
86.379
86.452
86.525
86.598
86.671
86.744
86.817
86.890
86.963
87.036
87.109
87.182
87.255
87.328
87.401
87.474
87.547
87.620
87.693
87.766
87.839
87.912
87.985
88.058
88.131
88.204
88.277
88.350
88.423
88.496
88.569
88.642
88.715
88.788
88.861
88.934
89.007
89.080
89.153
89.226
89.299
89.372
89.445
89.518
89.591
89.664
89.737
89.810
89.883
89.956
90.029
90.102
90.175
90.248
90.321
90.394
90.467
90.540
90.613
90.686
90.759
90.832
90.905
90.978
91.051
91.124
91.197
91.270
91.343
91.416
91.489
91.562
91.635
91.708
91.781
91.854
91.927
92.000
92.073
92.146
92.219
92.292
92.243
92.195
92.146
92.098
92.049
92.001
91.952
91.904
91.855
91.807
91.758
91.710
91.661
91.613
91.564
91.516
91.467
91.419
91.370
91.322
91.273
91.225
91.176
91.128
91.079
91.031
90.982
90.934
90.885
90.837
90.788
90.740
90.691
90.643
90.594
90.546
90.497
90.449
90.400
90.352
90.303
90.255
90.206
90.158
90.109
90.061
90.012
89.964
89.915
89.867
89.818
89.770
89.721
89.673
89.624
89.576
89.527
89.479
89.430
89.382
89.333
89.285
89.236
89.188
89.139
89.091
89.042
88.994
88.945
88.897
88.848
88.800
88.751
88.703
88.654
88.606
88.557
88.509
88.460
88.412
88.363
88.315
88.266
88.218
88.169
88.121
88.072
88.024
87.975
87.927
87.878
87.830
87.781
87.733
87.684
87.636
87.587
87.539
87.490
87.442
87.393
87.345
87.296
87.248
87.199
87.151
87.102
87.054
87.005
86.957
86.908
86.860
86.811
86.763
86.714
86.666
86.617
86.569
86.520
86.472
86.423
86.375
86.326
86.278
86.229
86.181
86.132
86.084
86.035
85.987
85.938
85.890
85.841
85.793
85.744
85.696
85.647
85.599
85.550
85.502
85.453
85.405
85.356
85.308
85.259
85.211
85.162
85.114
85.065
85.017
84.968
84.920
84.871
84.823
84.774
84.726
84.677
84.629
84.580
84.532
84.483
84.435
84.386
84.338
84.289
84.241
84.192
84.144
84.095
84.047
83.998
83.950
83.901
83.853
83.804
83.756
83.707
83.659
83.610
83.562
83.513
83.465
83.416
83.368
83.319
83.271
83.222
83.174
83.125
83.077
83.028
82.980
82.931
82.883
82.834
82.786
82.737
82.689
82.640
82.592
82.592
82.592
82.592
82.592
82.592
82.592
82.592
82.592
82.592
82.592
82.592
82.592
82.592
82.592
82.592
82.592
82.592
82.592
82.592
82.592
82.592
82.592
82.592
82.592
82.592
82.592
82.592
82.592
82.592
82.592
82.592
82.592
82.592
82.592
82.592
82.592
82.592
82.592
82.592
82.592
82.592
82.592
82.592
82.592
82.592
82.592
82.592
82.592
82.592
82.592
82.592
82.592
82.592
82.592
82.592
82.592
82.592
82.592
82.592
82.592
82.592
82.592
82.592
82.592
82.592
82.592
82.592
82.592
82.592
82.592
82.592
82.592
82.592
82.592
82.592
82.592
82.592
82.592
82.592
82.592
82.592
82.592
82.592
82.592
82.592
82.592
82.592
82.592
82.592
82.592
82.592
82.592
82.592
82.592
82.592
82.592
82.592
82.592
82.592
82.592
82.592
82.592
82.592
82.592
82.592
82.592
82.592
82.592
82.592
82.592
82.592
82.592
82.592
82.592
82.592
82.592
82.592
82.592
82.592
82.592
82.592
82.592
82.592
82.592
82.592
82.592
82.592
82.592
82.592
82.592
82.592
82.592
82.592
82.592
82.592
82.592
82.592
82.592
82.592
82.592
82.592
82.592
82.592
82.592
82.592
82.592
82.592
82.592
82.592
82.592
82.592
82.592
82.592
82.592
82.592
82.592
82.592
82.592
82.592
82.592
82.592
82.592
82.592
82.592
82.592
82.592
82.592
82.592
82.592
82.592
82.592
82.592
82.592
82.592
82.592
82.592
82.592
82.592
82.592
82.592
82.592
82.592
82.592
82.592
82.592
82.592
82.592
82.592
82.592
82.592
82.592
82.592
82.592
82.592
82.592
82.592
82.592
82.592
82.592
82.592
82.592
82.592
82.592
82.592
82.592
82.592
82.592
82.592
82.592
82.592
82.592
82.592
82.592
82.592
82.592
82.592
82.592
82.592
82.592
82.592
82.592
82.592
82.592
82.592
82.592
82.592
82.592
82.592
82.592
82.592
82.592
82.592
82.592
82.592
82.592
82.592
82.592
82.592
82.592
82.592
82.592
82.592
82.592
82.592
82.592
82.592
82.592
82.592
82.592
82.592
82.592
82.592
82.592
82.592
82.592
82.592
82.592
82.592
82.592
82.592
82.592
82.592
82.592
82.592
82.592
82.592
82.592
82.592
82.592
82.592
82.592
82.592
82.592
82.592
82.592
82.592
82.592
82.592
82.592
82.592
82.592
82.592
82.592
82.592
82.592
82.592
82.592
82.592
82.592
82.592
82.592
82.592
82.592
82.592
82.592
82.592
82.592
82.592
82.592
82.592
82.592
82.592
82.592
82.592
82.592
82.592
82.592
82.592
82.592
82.592
82.592
82.592
82.592
82.592
82.592
82.592
82.592
82.592
82.592
82.592
82.592
82.592
82.592
82.592
82.592
82.592
82.592
82.592
82.592
82.592
82.592
82.592
82.592
82.592
82.592
82.592
82.592
82.592
82.592
82.592
82.592
82.592
82.592
82.592
82.592
82.592
82.592
82.592
82.592
82.592
82.592
82.592
82.592
82.592
82.592
82.592
82.592
82.592
82.592
82.592
82.592
82.592
82.592
82.592
82.592
82.592
82.592
82.592
82.592
82.592
82.592
82.592
82.592
82.592
82.592
82.592
82.592
82.592
82.592
82.592
82.592
82.592
82.592
82.592
82.592
82.592
82.592
82.592
82.592
82.592
82.592
82.592
82.592
82.592
82.592
82.592
82.592
82.592
82.592
82.592
82.592
82.592
82.592
82.592
82.592
82.592
82.592
82.592
82.592
82.592
82.592
82.592
82.592
82.592
82.592
82.592
82.592
82.592
82.592
82.592
82.592
82.592
82.592
82.592
82.592
82.592
82.592
82.592
82.592
82.592
82.592
82.592
82.592
82.592
82.592
82.592
82.592
82.592
82.592
82.592
82.592
82.592
82.592
82.592
82.592
82.592
82.592
82.592
82.592
82.592
82.592
82.592
82.592
82.592
82.592
82.592
82.592
82.592
82.592
82.592
82.592
82.592
82.592
82.592
82.592
82.592
82.592
82.592
82.592
82.592
82.592
82.592
82.592
82.592
82.592
82.592
82.592
82.592
82.592
82.592
82.592
82.592
82.592
82.592
82.592
82.592
82.592
82.592
82.592
82.592
82.592
82.592
82.592
82.592
82.592
82.592
82.592
82.592
82.592
82.592
82.592
82.592
82.592
82.592
82.592
82.592
82.592
82.592
82.592
82.592
82.592
82.592
82.592
82.592
82.592
82.592
82.592
82.592
82.592
82.592
82.592
82.592
82.592
82.592
82.592
82.592
82.592
82.592
82.592
82.592
82.592
82.592
82.592
82.592
82.592
82.592
82.592
82.592
82.592
82.592
82.592
82.592
82.592
82.592
82.592
82.592
82.592
82.592
82.592
82.592
82.592
82.592
82.592
82.592
82.592
82.592
82.592
82.592
82.592
82.592
82.592
82.592
82.592
82.592
82.592
82.592
82.592
82.592
82.592
82.592
82.592
82.592
82.592
82.592
82.592
82.592
82.592
82.592
82.592
82.592
82.592
82.592
82.592
82.592
82.592
82.592
82.592
82.592
82.592
82.592
82.592
82.592
82.592
82.592
82.592
82.592
82.592
82.592
82.592
1798.092
1797.823
1797.554
1797.285
1797.016
1796.747
1796.478
1796.209
1795.940
1795.671
1795.402
1795.133
1794.864
1794.595
1794.326
1794.057
1793.788
1793.519
1793.250
1792.981
1792.712
1792.443
1792.174
1791.905
1791.636
1791.367
1791.098
1790.829
1790.560
1790.291
1790.022
1789.753
1789.484
1789.215
1788.946
1788.677
1788.408
1788.139
1787.870
1787.601
1787.332
1787.063
1786.794
1786.525
1786.256
1785.987
1785.718
1785.449
1785.180
1784.911
1784.642
1784.373
1784.104
1783.835
1783.566
1783.297
1783.028
1782.759
1782.490
1782.221
1781.952
1781.683
1781.414
1781.145
1780.876
1780.607
1780.338
1780.069
1779.800
1779.531
1779.262
1778.993
1778.724
1778.455
1778.186
1777.917
1777.648
1777.379
1777.110
1776.841
1776.572
1776.303
1776.034
1775.765
1775.496
1775.227
1774.958
1774.689
1774.420
1774.151
1773.882
1773.613
1773.344
1773.075
1772.806
1772.537
1772.268
1771.999
1771.730
1771.461
1771.192
1770.923
1770.654
1770.385
1770.116
1769.847
1769.578
1769.309
1769.040
1768.771
1768.502
1768.233
1767.964
1767.695
1767.426
1767.157
1766.888
1766.619
1766.350
1766.081
1765.812
1765.543
1765.274
1765.005
1764.736
1764.467
1764.198
1763.929
1763.660
1763.391
1763.122
1762.853
1762.584
1762.315
1762.046
1761.777
1761.508
1761.239
1760.970
1760.701
1760.432
1760.163
1759.894
1759.625
1759.356
1759.087
1758.818
1758.549
1758.280
1758.011
1757.742
1757.473
1757.204
1756.935
1756.666
1756.397
1756.128
1755.859
1755.590
1755.321
1755.052
1754.783
1754.514
1754.245
1753.976
1753.707
1753.438
1753.169
1752.900
1752.631
1752.362
1752.093
1751.824
1751.555
1751.286
1751.017
1750.748
1750.479
1750.210
1749.941
1749.672
1749.403
1749.134
1748.865
1748.596
1748.327
1748.058
1747.789
1747.520
1747.251
1746.982
1746.713
1746.444
1746.175
1745.906
1745.637
1745.368
1745.099
1744.830
1744.561
1744.292
1744.048
1743.804
1743.560
1743.316
1743.072
1742.828
1742.584
1742.340
1742.096
1741.852
1741.608
1741.364
1741.120
1740.876
1740.632
1740.388
1740.144
1739.900
1739.656
1739.412
1739.168
1738.924
1738.680
1738.436
1738.192
1737.948
1737.704
1737.460
1737.216
1736.972
1736.728
1736.484
1736.240
1735.996
1735.752
1735.508
1735.264
1735.020
1734.776
1734.532
1734.288
1734.044
1733.800
1733.556
1733.312
1733.068
1732.824
1732.580
1732.336
1732.092
1731.848
1731.604
1731.360
1731.116
1730.872
1730.628
1730.384
1730.140
1729.896
1729.652
1729.408
1729.164
1728.920
1728.676
1728.432
1728.188
1727.944
1727.700
1727.456
1727.212
1726.968
1726.724
1726.480
1726.236
1725.992
1725.748
1725.504
1725.260
1725.016
1724.772
1724.528
1724.284
1724.040
1723.796
1723.552
1723.308
1723.064
1722.820
1722.576
1722.332
1722.088
1721.844
1721.600
1721.356
1721.112
1720.868
1720.624
1720.380
1720.136
1719.892
1719.648
1719.404
1719.160
1718.916
1718.672
1718.428
1718.184
1717.940
1717.696
1717.452
1717.208
1716.964
1716.720
1716.476
1716.232
1715.988
1715.744
1715.500
1715.256
1715.012
1714.768
1714.524
1714.280
1714.036
1713.792
1713.548
1713.304
1713.060
1712.816
1712.572
1712.328
1712.084
1711.840
1711.596
1711.352
1711.108
1710.864
1710.620
1710.376
1710.132
1709.888
1709.644
1709.400
1709.156
1708.912
1708.668
1708.424
1708.180
1707.936
1707.692
1707.448
1707.204
1706.960
1706.716
1706.472
1706.228
1705.984
1705.740
1705.496
1705.252
1705.008
1704.764
1704.520
1704.276
1704.032
1703.788
1703.544
1703.300
1703.056
1702.812
1702.568
1702.324
1702.080
1701.836
1701.592
1701.348
1701.104
1700.860
1700.616
1700.372
1700.128
1699.884
1699.640
1699.396
1699.152
1698.908
1698.664
1698.420
1698.176
1697.932
1697.688
1697.444
1697.200
1696.956
1696.712
1696.468
1696.224
1695.980
1695.736
1695.492
1697.715
1699.939
1702.162
1704.386
1706.609
1708.833
1711.056
1713.280
1715.503
1717.727
1719.950
1722.174
1724.397
1726.621
1728.844
1731.068
1733.291
1735.515
1737.738
1739.962
1742.185
1744.409
1746.632
1748.856
1751.079
1753.303
1755.526
1757.750
1759.973
1762.197
1764.420
1766.644
1768.867
1771.091
1773.314
1775.538
1777.761
1779.985
1782.208
1784.432
1786.655
1788.879
1791.102
1793.326
1795.549
1797.773
1799.996
1802.220
1804.443
1806.667
1808.890
1811.114
1813.337
1815.561
1817.784
1820.008
1822.231
1824.455
1826.678
1828.902
1831.125
1833.349
