84.350
84.350
84.350
84.350
84.350
84.350
84.350
84.350
84.350
84.350
84.350
84.350
84.350
84.350
84.350
84.350
84.350
84.350
250.450
257.562
264.673
271.785
278.896
286.008
293.119
300.231
307.342
314.454
321.565
328.677
335.788
342.900
350.011
357.123
364.234
371.346
378.457
385.569
392.680
399.792
406.903
414.015
421.126
428.238
435.349
442.461
449.572
456.684
463.795
470.907
478.018
485.130
492.241
499.353
506.464
513.576
520.687
527.799
534.910
542.022
549.133
556.245
563.356
570.468
577.579
584.691
591.802
598.914
606.025
613.137
620.248
627.360
634.471
641.583
648.694
655.806
662.917
670.029
677.140
684.252
691.363
698.475
705.586
712.698
719.809
726.921
734.032
741.144
748.255
755.367
762.478
769.590
776.701
783.813
790.924
798.036
805.147
812.259
819.370
826.482
833.593
840.705
847.816
854.928
862.039
869.151
876.262
883.374
890.485
897.597
904.708
911.820
918.931
926.043
933.154
940.266
947.377
954.489
961.600
968.712
975.823
982.935
990.046
997.158
1004.269
1011.381
1018.492
1025.604
1032.715
1039.827
1046.938
1054.050
1061.161
1068.273
1075.384
1082.496
1089.607
1096.719
1103.830
1110.942
1118.053
1125.165
1132.276
1139.388
1146.499
1153.611
1160.722
1167.834
1174.945
1182.057
1189.168
1196.280
1203.391
1210.503
1217.614
1224.726
1231.837
1238.949
1246.060
1253.172
1260.283
1267.395
1274.506
1281.618
1288.729
1295.841
1302.952
1310.064
1317.175
1324.287
1331.398
1338.510
1345.621
1352.733
1359.844
1366.956
1374.067
1381.179
1388.290
1395.402
1402.513
1409.625
1416.736
1423.848
1430.959
1438.071
1445.182
1452.294
1459.405
1466.517
1473.628
1480.740
1487.851
1494.963
1502.074
1509.186
1516.297
1523.409
1530.520
1537.632
1544.743
1551.855
1558.966
1566.078
1573.189
1580.301
1587.412
1594.524
1601.635
1608.747
1615.858
1622.970
1630.081
1637.193
1644.304
1651.416
1658.527
1665.639
1672.750
1678.591
1684.432
1690.273
1696.114
1701.955
1707.796
1713.637
1719.478
1725.319
1731.160
1737.001
1742.842
1748.683
1754.524
1760.365
1766.206
1772.047
1777.888
1783.729
1789.570
1795.411
1801.252
1807.093
1812.934
1818.775
1824.616
1830.457
1836.298
1842.139
1847.980
1853.821
1859.662
1865.503
1871.344
1877.185
1883.026
1888.867
1894.708
1900.549
1906.390
1912.231
1918.072
1923.913
1929.754
1935.595
1941.436
1947.277
1953.118
1958.959
1964.800
1970.641
1976.482
1982.323
1988.164
1994.005
1999.846
2005.687
2011.528
2017.369
2023.210
2029.051
2034.892
2040.733
2046.574
2052.415
2058.256
2064.097
2069.938
2075.779
2081.620
2087.461
2093.302
2099.143
2104.984
2110.825
2116.666
2122.507
2128.348
2134.189
2140.030
2145.871
2151.712
2157.553
2163.394
2169.235
2175.076
2180.917
2186.758
2192.599
2198.440
2204.281
2210.122
2215.963
2221.804
2227.645
2233.486
2239.327
2245.168
2251.009
2256.850
2262.691
2268.532
2274.373
2280.214
2286.055
2291.896
2297.737
2303.578
2309.419
2315.260
2321.101
2326.942
2332.783
2338.624
2344.465
2350.306
2356.147
2361.988
2367.829
2373.670
2379.511
2385.352
2391.193
2397.034
2402.875
2408.716
2414.557
2420.398
2426.239
2432.080
2437.921
2443.762
2449.603
2455.444
2461.285
2467.126
2472.967
2478.808
2484.649
2490.490
2496.331
2502.172
2508.013
2513.854
2519.695
2525.536
2531.377
2537.218
2543.059
2548.900
2554.741
2560.582
2566.423
2572.264
2578.105
2583.946
2589.787
2595.628
2601.469
2607.310
2613.151
2618.992
2624.833
2630.674
2636.515
2642.356
2648.197
2654.038
2659.879
2665.720
2671.561
2677.402
2683.243
2689.084
2694.925
2700.766
2706.607
2712.448
2718.289
2724.130
2729.971
2735.812
2741.653
2747.494
2753.335
2759.176
2765.017
2770.858
2776.699
2782.540
2788.381
2794.222
2800.063
2805.904
2811.745
2817.586
2823.427
2829.268
2835.109
2840.950
2840.119
2839.288
2838.457
2837.626
2836.795
2835.964
2835.133
2834.302
2833.471
2832.640
2831.809
2830.978
2830.147
2829.316
2828.485
2827.654
2826.823
2825.992
2825.161
2824.330
2823.499
2822.668
2821.837
2821.006
2820.175
2819.344
2818.513
2817.682
2816.851
2816.020
2815.189
2814.358
2813.527
2812.696
2811.865
2811.034
2810.203
2809.372
2808.541
2807.710
2806.879
2806.048
2805.217
2804.386
2803.555
2802.724
2801.893
2801.062
2800.231
2799.400
2798.569
2797.738
2796.907
2796.076
2795.245
2794.414
2793.583
2792.752
2791.921
2791.090
2790.259
2789.428
2788.597
2787.766
2786.935
2786.104
2785.273
2784.442
2783.611
2782.780
2781.949
2781.118
2780.287
2779.456
2778.625
2777.794
2776.963
2776.132
2775.301
2774.470
2773.639
2772.808
2771.977
2771.146
2770.315
2769.484
2768.653
2767.822
2766.991
2766.160
2765.329
2764.498
2763.667
2762.836
2762.005
2761.174
2760.343
2759.512
2758.681
2757.850
2757.019
2756.188
2755.357
2754.526
2753.695
2752.864
2752.033
2751.202
2750.371
2749.540
2748.709
2747.878
2747.047
2746.216
2745.385
2744.554
2743.723
2742.892
2742.061
2741.230
2740.399
2739.568
2738.737
2737.906
2737.075
2736.244
2735.413
2734.582
2733.751
2732.920
2732.089
2731.258
2730.427
2729.596
2728.765
2727.934
2727.103
2726.272
2725.441
2724.610
2723.779
2722.948
2722.117
2721.286
2720.455
2719.624
2718.793
2717.962
2717.131
2716.300
2715.469
2714.638
2713.807
2712.976
2712.145
2711.314
2710.483
2709.652
2708.821
2707.990
2707.159
2706.328
2705.497
2704.666
2703.835
2703.004
2702.173
2701.342
2700.511
2699.680
2698.849
2698.018
2697.187
2696.356
2695.525
2694.694
2693.863
2693.032
2692.201
2691.370
2690.539
2689.708
2688.877
2688.046
2687.215
2686.384
2685.553
2684.722
2683.891
2683.060
2682.229
2681.398
2680.567
2679.736
2678.905
2678.074
2677.243
2676.412
2675.581
2674.750
2669.007
2663.264
2657.521
2651.778
2646.035
2640.292
2634.549
2628.806
2623.063
2617.320
2611.577
2605.834
2600.091
2594.348
2588.605
2582.862
2577.119
2571.376
2565.633
2559.890
2554.147
2548.404
2542.661
2536.918
2531.175
2525.432
2519.689
2513.946
2508.203
2502.460
2496.717
2490.974
2485.231
2479.488
2473.745
2468.002
2462.259
2456.516
2450.773
2445.030
2439.287
2433.544
2427.801
2422.058
2416.315
2410.572
2404.829
2399.086
2393.343
2387.600
2381.857
2376.114
2370.371
2364.628
2358.885
2353.142
2347.399
2341.656
2335.913
2330.170
2324.427
2318.684
2312.941
2307.198
2301.455
2295.712
2289.969
2284.226
2278.483
2272.740
2266.997
2261.254
2255.511
2249.768
2244.025
2238.282
2232.539
2226.796
2221.053
2215.310
2209.567
2203.824
2198.081
2192.338
2186.595
2180.852
2175.109
2169.366
2163.623
2157.880
2152.137
2146.394
2140.651
2134.908
2129.165
2123.422
2117.679
2111.936
2106.193
2100.450
2094.707
2088.964
2083.221
2077.478
2071.735
2065.992
2060.249
2054.506
2048.763
2043.020
2037.277
2031.534
2025.791
2020.048
2014.305
2008.562
2002.819
1997.076
1991.333
1985.590
1979.847
1974.104
1968.361
1962.618
1956.875
1951.132
1945.389
1939.646
1933.903
1928.160
1922.417
1916.674
1910.931
1905.188
1899.445
1893.702
1887.959
1882.216
1876.473
1870.730
1864.987
1859.244
1853.501
1847.758
1842.015
1836.272
1830.529
1824.786
1819.043
1813.300
1807.557
1801.814
1796.071
1790.328
1784.585
1778.842
1773.099
1767.356
1761.613
1755.870
1750.127
1744.384
1738.641
1732.898
1727.155
1721.412
1715.669
1709.926
1704.183
1698.440
1692.697
1686.954
1681.211
1675.468
1669.725
1663.982
1658.239
1652.496
1646.753
1641.010
1635.267
1629.524
1623.781
1618.038
1612.295
1606.552
1600.809
1595.066
1589.323
1583.580
1577.837
1572.094
1566.351
1560.608
1554.865
1549.122
1543.379
1537.636
1531.893
1526.150
1528.765
1531.380
1533.995
1536.610
1539.225
1541.840
1544.455
1547.070
1549.685
1552.300
1554.915
1557.530
1560.145
1562.760
1565.375
1567.990
1570.605
1573.220
1575.835
1578.450
1581.065
1583.680
1586.295
1588.910
1591.525
1594.140
1596.755
1599.370
1601.985
1604.600
1607.215
1609.830
1612.445
1615.060
1617.675
1620.290
1622.905
1625.520
1628.135
1630.750
1633.365
1635.980
1638.595
1641.210
1643.825
1646.440
1649.055
1651.670
1654.285
1656.900
1659.515
1662.130
1664.745
1667.360
1669.975
1672.590
1675.205
1677.820
1680.435
1683.050
1685.665
1688.280
1690.895
1693.510
1696.125
1698.740
1701.355
1703.970
1706.585
1709.200
1711.815
1714.430
1717.045
1719.660
1722.275
1724.890
1727.505
1730.120
1732.735
1735.350
1737.965
1740.580
1743.195
1745.810
1748.425
1751.040
1753.655
1756.270
1758.885
1761.500
1764.115
1766.730
1769.345
1771.960
1774.575
1777.190
1779.805
1782.420
1785.035
1787.650
1790.265
1792.880
1795.495
1798.110
1800.725
1803.340
1805.955
1808.570
1811.185
1813.800
1816.415
1819.030
1821.645
1824.260
1826.875
1829.490
1832.105
1834.720
1837.335
1839.950
1842.565
1845.180
1847.795
1850.410
1853.025
1855.640
1858.255
1860.870
1863.485
1866.100
1868.715
1871.330
1873.945
1876.560
1879.175
1881.790
1884.405
1887.020
1889.635
1892.250
1894.865
1897.480
1900.095
1902.710
1905.325
1907.940
1910.555
1913.170
1915.785
1918.400
1921.015
1923.630
1926.245
1928.860
1931.475
1934.090
1936.705
1939.320
1941.935
1944.550
1947.165
1949.780
1952.395
1955.010
1957.625
1960.240
1962.855
1965.470
1968.085
1970.700
1973.315
1975.930
1978.545
1981.160
1983.775
1986.390
1989.005
1991.620
1994.235
1996.850
1999.465
2002.080
2004.695
2007.310
2009.925
2012.540
2015.155
2017.770
2020.385
2023.000
2025.615
2028.230
2030.845
2033.460
2036.075
2038.690
2041.305
2043.920
2046.535
2049.150
2050.739
2052.327
2053.916
2055.504
2057.093
2058.681
2060.270
2061.858
2063.447
2065.035
2066.624
2068.212
2069.801
2071.389
2072.978
2074.566
2076.155
2077.743
2079.332
2080.920
2082.509
2084.097
2085.686
2087.274
2088.863
2090.451
2092.040
2093.628
2095.217
2096.805
2098.394
2099.982
2101.571
2103.159
2104.748
2106.336
2107.925
2109.513
2111.102
2112.690
2114.279
2115.867
2117.456
2119.044
2120.633
2122.221
2123.810
2125.398
2126.987
2128.575
2130.164
2131.752
2133.341
2134.929
2136.518
2138.106
2139.695
2141.283
2142.872
2144.460
2146.049
2147.637
2149.226
2150.814
2152.403
2153.991
2155.580
2157.168
2158.757
2160.345
2161.934
2163.522
2165.111
2166.699
2168.288
2169.876
2171.465
2173.053
2174.642
2176.230
2177.819
2179.407
2180.996
2182.584
2184.173
2185.761
2187.350
2188.938
2190.527
2192.115
2193.704
2195.292
2196.881
2198.469
2200.058
2201.646
2203.235
2204.823
2206.412
2208.000
2209.589
2211.177
2212.766
2214.354
2215.943
2217.531
2219.120
2220.708
2222.297
2223.885
2225.474
2227.062
2228.651
2230.239
2231.828
2233.416
2235.005
2236.593
2238.182
2239.770
2241.359
2242.947
2244.536
2246.124
2247.713
2249.301
2250.890
2252.478
2254.067
2255.655
2257.244
2258.832
2260.421
2262.009
2263.598
2265.186
2266.775
2268.363
2269.952
2271.540
2273.129
2274.717
2276.306
2277.894
2279.483
2281.071
2282.660
2284.248
2285.837
2287.425
2289.014
2290.602
2292.191
2293.779
2295.368
2296.956
2298.545
2300.133
2301.722
2303.310
2304.899
2306.487
2308.076
2309.664
2311.253
2312.841
2314.430
2316.018
2317.607
2319.195
2320.784
2322.372
2323.961
2325.549
2327.138
2328.726
2330.315
2331.903
2333.492
2335.080
2336.669
2338.257
2339.846
2341.434
2343.023
2344.611
2346.200
2347.788
2349.377
2350.965
2352.554
2354.142
2355.731
2357.319
2358.908
2360.496
2362.085
2363.673
2365.262
2366.850
2365.115
2363.379
2361.644
2359.908
2358.173
2356.437
2354.702
2352.966
2351.231
2349.495
2347.760
2346.024
2344.289
2342.553
2340.818
2339.082
2337.347
2335.611
2333.876
2332.140
2330.405
2328.669
2326.934
2325.198
2323.463
2321.727
2319.992
2318.256
2316.521
2314.785
2313.050
2311.314
2309.579
2307.843
2306.108
2304.372
2302.637
2300.901
2299.166
2297.430
2295.695
2293.959
2292.224
2290.488
2288.753
2287.017
2285.282
2283.546
2281.811
2280.075
2278.340
2276.604
2274.869
2273.133
2271.398
2269.662
2267.927
2266.191
2264.456
2262.720
2260.985
2259.249
2257.514
2255.778
2254.043
2252.307
2250.572
2248.836
2247.101
2245.365
2243.630
2241.894
2240.159
2238.423
2236.688
2234.952
2233.217
2231.481
2229.746
2228.010
2226.275
2224.539
2222.804
2221.068
2219.333
2217.597
2215.862
2214.126
2212.391
2210.655
2208.920
2207.184
2205.449
2203.713
2201.978
2200.242
2198.507
2196.771
2195.036
2193.300
2191.565
2189.829
2188.094
2186.358
2184.623
2182.887
2181.152
2179.416
2177.681
2175.945
2174.210
2172.474
2170.739
2169.003
2167.268
2165.532
2163.797
2162.061
2160.326
2158.590
2156.855
2155.119
2153.384
2151.648
2149.913
2148.177
2146.442
2144.706
2142.971
2141.235
2139.500
2137.764
2136.029
2134.293
2132.558
2130.822
2129.087
2127.351
2125.616
2123.880
2122.145
2120.409
2118.674
2116.938
2115.203
2113.467
2111.732
2109.996
2108.261
2106.525
2104.790
2103.054
2101.319
2099.583
2097.848
2096.112
2094.377
2092.641
2090.906
2089.170
2087.435
2085.699
2083.964
2082.228
2080.493
2078.757
2077.022
2075.286
2073.551
2071.815
2070.080
2068.344
2066.609
2064.873
2063.138
2061.402
2059.667
2057.931
2056.196
2054.460
2052.725
2050.989
2049.254
2047.518
2045.783
2044.047
2042.312
2040.576
2038.841
2037.105
2035.370
2033.634
2031.899
2030.163
2028.428
2026.692
2024.957
2023.221
2021.486
2019.750
2023.636
2027.522
2031.408
2035.294
2039.180
2043.066
2046.952
2050.838
2054.724
2058.610
2062.496
2066.382
2070.268
2074.154
2078.040
2081.926
2085.812
2089.698
2093.584
2097.470
2101.356
2105.242
2109.128
2113.014
2116.900
2120.786
2124.672
2128.558
2132.444
2136.330
2140.216
2144.102
2147.988
2151.874
2155.760
2159.646
2163.532
2167.418
2171.304
2175.190
2179.076
2182.962
2186.848
2190.734
2194.620
2198.506
2202.392
2206.278
2210.164
2214.050
2217.936
2221.822
2225.708
2229.594
2233.480
2237.366
2241.252
2245.138
2249.024
2252.910
2256.796
2260.682
2264.568
2268.454
2272.340
2276.226
2280.112
2283.998
2287.884
2291.770
2295.656
2299.542
2303.428
2307.314
2311.200
2315.086
2318.972
2322.858
2326.744
2330.630
2334.516
2338.402
2342.288
2346.174
2350.060
2353.946
2357.832
2361.718
2365.604
2369.490
2373.376
2377.262
2381.148
2385.034
2388.920
2392.806
2396.692
2400.578
2404.464
2408.350
2412.236
2416.122
2420.008
2423.894
2427.780
2431.666
2435.552
2439.438
2443.324
2447.210
2451.096
2454.982
2458.868
2462.754
2466.640
2470.526
2474.412
2478.298
2482.184
2486.070
2489.956
2493.842
2497.728
2501.614
2505.500
2509.386
2513.272
2517.158
2521.044
2524.930
2528.816
2532.702
2536.588
2540.474
2544.360
2548.246
2552.132
2556.018
2559.904
2563.790
2567.676
2571.562
2575.448
2579.334
2583.220
2587.106
2590.992
2594.878
2598.764
2602.650
2606.536
2610.422
2614.308
2618.194
2622.080
2625.966
2629.852
2633.738
2637.624
2641.510
2645.396
2649.282
2653.168
2657.054
2660.940
2664.826
2668.712
2672.598
2676.484
2680.370
2684.256
2688.142
2692.028
2695.914
2699.800
2703.686
2707.572
2711.458
2715.344
2719.230
2723.116
2727.002
2730.888
2734.774
2738.660
2742.546
2746.432
2750.318
2754.204
2758.090
2761.976
2765.862
2769.748
2773.634
2777.520
2781.406
2785.292
2789.178
2793.064
2796.950
2795.459
2793.968
2792.477
2790.986
2789.495
2788.004
2786.513
2785.022
2783.531
2782.040
2780.549
2779.058
2777.567
2776.076
2774.585
2773.094
2771.603
2770.112
2768.621
2767.130
2765.639
2764.148
2762.657
2761.166
2759.675
2758.184
2756.693
2755.202
2753.711
2752.220
2750.729
2749.238
2747.747
2746.256
2744.765
2743.274
2741.783
2740.292
2738.801
2737.310
2735.819
2734.328
2732.837
2731.346
2729.855
2728.364
2726.873
2725.382
2723.891
2722.400
2720.909
2719.418
2717.927
2716.436
2714.945
2713.454
2711.963
2710.472
2708.981
2707.490
2705.999
2704.508
2703.017
2701.526
2700.035
2698.544
2697.053
2695.562
2694.071
2692.580
2691.089
2689.598
2688.107
2686.616
2685.125
2683.634
2682.143
2680.652
2679.161
2677.670
2676.179
2674.688
2673.197
2671.706
2670.215
2668.724
2667.233
2665.742
2664.251
2662.760
2661.269
2659.778
2658.287
2656.796
2655.305
2653.814
2652.323
2650.832
2649.341
2647.850
2646.359
2644.868
2643.377
2641.886
2640.395
2638.904
2637.413
2635.922
2634.431
2632.940
2631.449
2629.958
2628.467
2626.976
2625.485
2623.994
2622.503
2621.012
2619.521
2618.030
2616.539
2615.048
2613.557
2612.066
2610.575
2609.084
2607.593
2606.102
2604.611
2603.120
2601.629
2600.138
2598.647
2597.156
2595.665
2594.174
2592.683
2591.192
2589.701
2588.210
2586.719
2585.228
2583.737
2582.246
2580.755
2579.264
2577.773
2576.282
2574.791
2573.300
2571.809
2570.318
2568.827
2567.336
2565.845
2564.354
2562.863
2561.372
2559.881
2558.390
2556.899
2555.408
2553.917
2552.426
2550.935
2549.444
2547.953
2546.462
2544.971
2543.480
2541.989
2540.498
2539.007
2537.516
2536.025
2534.534
2533.043
2531.552
2530.061
2528.570
2527.079
2525.588
2524.097
2522.606
2521.115
2519.624
2518.133
2516.642
2515.151
2513.660
2512.169
2510.678
2509.187
2507.696
2506.205
2504.714
2503.223
2501.732
2500.241
2498.750
2495.940
2493.130
2490.320
2487.510
2484.700
2481.890
2479.080
2476.270
2473.460
2470.650
2467.840
2465.030
2462.220
2459.410
2456.600
2453.790
2450.980
2448.170
2445.360
2442.550
2439.740
2436.930
2434.120
2431.310
2428.500
2425.690
2422.880
2420.070
2417.260
2414.450
2411.640
2408.830
2406.020
2403.210
2400.400
2397.590
2394.780
2391.970
2389.160
2386.350
2383.540
2380.730
2377.920
2375.110
2372.300
2369.490
2366.680
2363.870
2361.060
2358.250
2355.440
2352.630
2349.820
2347.010
2344.200
2341.390
2338.580
2335.770
2332.960
2330.150
2327.340
2324.530
2321.720
2318.910
2316.100
2313.290
2310.480
2307.670
2304.860
2302.050
2299.240
2296.430
2293.620
2290.810
2288.000
2285.190
2282.380
2279.570
2276.760
2273.950
2271.140
2268.330
2265.520
2262.710
2259.900
2257.090
2254.280
2251.470
2248.660
2245.850
2243.040
2240.230
2237.420
2234.610
2231.800
2228.990
2226.180
2223.370
2220.560
2217.750
2214.940
2212.130
2209.320
2206.510
2203.700
2200.890
2198.080
2195.270
2192.460
2189.650
2186.840
2184.030
2181.220
2178.410
2175.600
2172.790
2169.980
2167.170
2164.360
2161.550
2158.740
2155.930
2153.120
2150.310
2147.500
2144.690
2141.880
2139.070
2136.260
2133.450
2130.640
2127.830
2125.020
2122.210
2119.400
2116.590
2113.780
2110.970
2108.160
2105.350
2102.540
2099.730
2096.920
2094.110
2091.300
2088.490
2085.680
2082.870
2080.060
2077.250
2074.440
2071.630
2068.820
2066.010
2063.200
2060.390
2057.580
2054.770
2051.960
2049.150
2046.340
2043.530
2040.720
2037.910
2035.100
2032.290
2029.480
2026.670
2023.860
2021.050
2018.240
2015.430
2012.620
2009.810
2007.000
2004.190
2001.380
1998.570
1995.760
1992.950
1990.140
