74.733
74.733
74.733
74.733
74.733
74.733
74.733
74.733
74.733
74.733
74.733
74.733
74.733
74.733
74.733
74.733
74.733
74.733
74.733
74.733
74.733
74.733
74.733
74.733
74.733
74.733
74.733
74.733
74.733
74.733
74.733
74.733
74.733
74.733
74.733
74.733
74.733
74.733
74.733
74.733
74.733
74.733
74.733
74.733
74.733
74.733
74.733
74.733
74.733
74.733
74.733
74.733
74.733
74.733
74.733
74.733
74.733
74.733
74.733
74.733
74.733
74.733
74.733
74.733
74.733
74.733
74.733
74.733
74.733
74.733
74.733
74.733
74.733
74.733
74.733
74.733
74.733
74.733
74.733
74.733
74.733
74.733
74.733
74.733
74.733
74.733
74.733
74.733
74.733
74.733
74.733
74.733
74.733
74.733
74.733
74.733
74.733
74.733
74.733
74.733
74.733
74.733
74.733
74.733
74.733
74.733
74.733
74.733
74.733
74.733
74.733
74.733
74.733
74.733
74.733
74.733
74.733
74.733
74.733
74.733
74.733
74.733
74.733
74.733
74.733
74.733
74.733
74.733
74.733
74.733
74.733
74.733
74.733
74.733
74.733
74.733
74.733
74.733
74.733
74.733
74.733
74.733
74.733
74.733
74.733
74.733
74.733
74.733
74.733
74.733
74.733
74.733
74.733
74.733
74.733
74.733
74.733
74.733
74.733
74.733
74.733
74.733
74.733
74.733
74.733
74.733
74.733
74.733
74.733
74.733
74.733
74.733
74.733
74.733
74.733
74.733
74.733
74.733
74.733
74.733
74.733
74.733
74.733
74.733
74.733
74.733
74.733
74.733
74.733
74.733
74.733
74.733
74.733
74.733
74.733
74.733
74.733
74.733
74.733
74.733
74.733
74.733
74.733
74.733
74.733
74.733
74.733
74.733
74.733
74.733
74.733
74.733
74.733
74.733
74.733
74.733
74.733
74.733
74.733
74.733
74.733
74.733
74.733
74.733
74.733
74.733
74.733
74.733
74.733
74.733
74.733
74.733
74.733
74.733
74.733
74.733
74.733
74.733
74.733
74.733
74.733
74.733
74.733
74.733
74.733
74.733
74.733
74.733
74.733
74.733
74.733
74.733
74.733
74.733
74.733
74.733
74.733
74.733
74.733
74.733
74.733
74.733
890.933
892.766
894.599
896.432
898.265
900.098
901.931
903.764
905.597
907.430
909.263
911.096
912.929
914.762
916.595
918.428
920.261
922.094
923.927
925.760
927.593
929.426
931.259
933.092
934.925
936.758
938.591
940.424
942.257
944.090
945.923
947.756
949.589
951.422
953.255
955.088
956.921
958.754
960.587
962.420
964.253
966.086
967.919
969.752
971.585
973.418
975.251
977.084
978.917
980.750
982.583
984.416
986.249
988.082
989.915
991.748
993.581
995.414
997.247
999.080
1000.913
1002.746
1004.579
1006.412
1008.245
1010.078
1011.911
1013.744
1015.577
1017.410
1019.243
1021.076
1022.909
1024.742
1026.575
1028.408
1030.241
1032.074
1033.907
1035.740
1037.573
1039.406
1041.239
1043.072
1044.905
1046.738
1048.571
1050.404
1052.237
1054.070
1055.903
1057.736
1059.569
1061.402
1063.235
1065.068
1066.901
1068.734
1070.567
1072.400
1074.233
1076.066
1077.899
1079.732
1081.565
1083.398
1085.231
1087.064
1088.897
1090.730
1092.563
1094.396
1096.229
1098.062
1099.895
1101.728
1103.561
1105.394
1107.227
1109.060
1110.893
1112.726
1114.559
1116.392
1118.225
1120.058
1121.891
1123.724
1125.557
1127.390
1129.223
1131.056
1132.889
1134.722
1136.555
1138.388
1140.221
1142.054
1143.887
1145.720
1147.553
1149.386
1151.219
1153.052
1154.885
1156.718
1158.551
1160.384
1162.217
1164.050
1165.883
1167.716
1169.549
1171.382
1173.215
1175.048
1176.881
1178.714
1180.547
1182.380
1184.213
1186.046
1187.879
1189.712
1191.545
1193.378
1195.211
1197.044
1198.877
1200.710
1202.543
1204.376
1206.209
1208.042
1209.875
1211.708
1213.541
1215.374
1217.207
1219.040
1220.873
1222.706
1224.539
1226.372
1228.205
1230.038
1231.871
1233.704
1235.537
1237.370
1239.203
1241.036
1242.869
1244.702
1246.535
1248.368
1250.201
1252.034
1253.867
1255.700
1257.533
1263.251
1268.970
1274.688
1280.407
1286.125
1291.844
1297.562
1303.281
1308.999
1314.718
1320.436
1326.155
1331.873
1337.592
1343.310
1349.029
1354.747
1360.466
1366.184
1371.903
1377.621
1383.340
1389.058
1394.777
1400.495
1406.214
1411.932
1417.651
1423.369
1429.088
1434.806
1440.525
1446.243
1451.962
1457.680
1463.399
1469.117
1474.836
1480.554
1486.273
1491.991
1497.710
1503.428
1509.147
1514.865
1520.584
1526.302
1532.021
1537.739
1543.458
1549.176
1554.895
1560.613
1566.332
1572.050
1577.769
1583.487
1589.206
1594.924
1600.643
1606.361
1612.080
1617.798
1623.517
1629.235
1634.954
1640.672
1646.391
1652.109
1657.828
1663.546
1669.265
1674.983
1680.702
1686.420
1692.139
1697.857
1703.576
1709.294
1715.013
1720.731
1726.450
1732.168
1737.887
1743.605
1749.324
1755.042
1760.761
1766.479
1772.198
1777.916
1783.635
1789.353
1795.072
1800.790
1806.509
1812.227
1817.946
1823.664
1829.383
1835.101
1840.820
1846.538
1852.257
1857.975
1863.694
1869.412
1875.131
1880.849
1886.568
1892.286
1898.005
1903.723
1909.442
1915.160
1920.879
1926.597
1932.316
1938.034
1943.753
1949.471
1955.190
1960.908
1966.627
1972.345
1978.064
1983.782
1989.501
1995.219
2000.938
2006.656
2012.375
2018.093
2023.812
2029.530
2035.249
2040.967
2046.686
2052.404
2058.123
2063.841
2069.560
2075.278
2080.997
2086.715
2092.434
2098.152
2103.871
2109.589
2115.308
2121.026
2126.745
2132.463
2138.182
2143.900
2149.619
2155.337
2161.056
2166.774
2172.493
2178.211
2183.930
2189.648
2195.367
2201.085
2206.804
2212.522
2218.241
2223.959
2229.678
2235.396
2241.115
2246.833
2252.552
2258.270
2263.989
2269.707
2275.426
2281.144
2286.863
2292.581
2298.300
2304.018
2309.737
2315.455
2321.174
2326.892
2332.611
2338.329
2344.048
2349.766
2355.485
2361.203
2366.922
2372.640
2378.359
2384.077
2389.796
2395.514
2401.233
2397.567
2393.901
2390.235
2386.569
2382.903
2379.237
2375.571
2371.905
2368.239
2364.573
2360.907
2357.241
2353.575
2349.909
2346.243
2342.577
2338.911
2335.245
2331.579
2327.913
2324.247
2320.581
2316.915
2313.249
2309.583
2305.917
2302.251
2298.585
2294.919
2291.253
2287.587
2283.921
2280.255
2276.589
2272.923
2269.257
2265.591
2261.925
2258.259
2254.593
2250.927
2247.261
2243.595
2239.929
2236.263
2232.597
2228.931
2225.265
2221.599
2217.933
2214.267
2210.601
2206.935
2203.269
2199.603
2195.937
2192.271
2188.605
2184.939
2181.273
2177.607
2173.941
2170.275
2166.609
2162.943
2159.277
2155.611
2151.945
2148.279
2144.613
2140.947
2137.281
2133.615
2129.949
2126.283
2122.617
2118.951
2115.285
2111.619
2107.953
2104.287
2100.621
2096.955
2093.289
2089.623
2085.957
2082.291
2078.625
2074.959
2071.293
2067.627
2063.961
2060.295
2056.629
2052.963
2049.297
2045.631
2041.965
2038.299
2034.633
2030.967
2027.301
2023.635
2019.969
2016.303
2012.637
2008.971
2005.305
2001.639
1997.973
1994.307
1990.641
1986.975
1983.309
1979.643
1975.977
1972.311
1968.645
1964.979
1961.313
1957.647
1953.981
1950.315
1946.649
1942.983
1939.317
1935.651
1931.985
1928.319
1924.653
1920.987
1917.321
1913.655
1909.989
1906.323
1902.657
1898.991
1895.325
1891.659
1887.993
1884.327
1880.661
1876.995
1873.329
1869.663
1865.997
1862.331
1858.665
1854.999
1851.333
1847.667
1844.001
1840.335
1836.669
1833.003
1829.337
1825.671
1822.005
1818.339
1814.673
1811.007
1807.341
1803.675
1800.009
1796.343
1792.677
1789.011
1785.345
1781.679
1778.013
1774.347
1770.681
1767.015
1763.349
1759.683
1756.017
1752.351
1748.685
1745.019
1741.353
1737.687
1734.021
1730.355
1726.689
1723.023
1719.357
1715.691
1712.025
1708.359
1704.693
1701.027
1697.361
1693.695
1690.029
1686.363
1682.697
1679.031
1675.365
1671.699
1668.033
1670.061
1672.090
1674.118
1676.147
1678.175
1680.204
1682.232
1684.261
1686.289
1688.318
1690.346
1692.375
1694.403
1696.432
1698.460
1700.489
1702.517
1704.546
1706.574
1708.603
1710.631
1712.660
1714.688
1716.717
1718.745
1720.774
1722.802
1724.831
1726.859
1728.888
1730.916
1732.945
1734.973
1737.002
1739.030
1741.059
1743.087
1745.116
1747.144
1749.173
1751.201
1753.230
1755.258
1757.287
1759.315
1761.344
1763.372
1765.401
1767.429
1769.458
1771.486
1773.515
1775.543
1777.572
1779.600
1781.629
1783.657
1785.686
1787.714
1789.743
1791.771
1793.800
1795.828
1797.857
1799.885
1801.914
1803.942
1805.971
1807.999
1810.028
1812.056
1814.085
1816.113
1818.142
1820.170
1822.199
1824.227
1826.256
1828.284
1830.313
1832.341
1834.370
1836.398
1838.427
1840.455
1842.484
1844.512
1846.541
1848.569
1850.598
1852.626
1854.655
1856.683
1858.712
1860.740
1862.769
1864.797
1866.826
1868.854
1870.883
1872.911
1874.940
1876.968
1878.997
1881.025
1883.054
1885.082
1887.111
1889.139
1891.168
1893.196
1895.225
1897.253
1899.282
1901.310
1903.339
1905.367
1907.396
1909.424
1911.453
1913.481
1915.510
1917.538
1919.567
1921.595
1923.624
1925.652
1927.681
1929.709
1931.738
1933.766
1935.795
1937.823
1939.852
1941.880
1943.909
1945.937
1947.966
1949.994
1952.023
1954.051
1956.080
1958.108
1960.137
1962.165
1964.194
1966.222
1968.251
1970.279
1972.308
1974.336
1976.365
1978.393
1980.422
1982.450
1984.479
1986.507
1988.536
1990.564
1992.593
1994.621
1996.650
1998.678
2000.707
2002.735
2004.764
2006.792
2008.821
2010.849
2012.878
2014.906
2016.935
2018.963
2020.992
2023.020
2025.049
2027.077
2029.106
2031.134
2033.163
2035.191
2037.220
2039.248
2041.277
2043.305
2045.334
2047.362
2049.391
2051.419
2053.448
2055.476
2057.505
2059.533
2061.562
2063.590
2065.619
2067.647
2069.676
2071.704
2073.733
2074.808
2075.883
2076.958
2078.033
2079.108
2080.183
2081.258
2082.333
2083.408
2084.483
2085.558
2086.633
2087.708
2088.783
2089.858
2090.933
2092.008
2093.083
2094.158
2095.233
2096.308
2097.383
2098.458
2099.533
2100.608
2101.683
2102.758
2103.833
2104.908
2105.983
2107.058
2108.133
2109.208
2110.283
2111.358
2112.433
2113.508
2114.583
2115.658
2116.733
2117.808
2118.883
2119.958
2121.033
2122.108
2123.183
2124.258
2125.333
2126.408
2127.483
2128.558
2129.633
2130.708
2131.783
2132.858
2133.933
2135.008
2136.083
2137.158
2138.233
2139.308
2140.383
2141.458
2142.533
2143.608
2144.683
2145.758
2146.833
2147.908
2148.983
2150.058
2151.133
2152.208
2153.283
2154.358
2155.433
2156.508
2157.583
2158.658
2159.733
2160.808
2161.883
2162.958
2164.033
2165.108
2166.183
2167.258
2168.333
2169.408
2170.483
2171.558
2172.633
2173.708
2174.783
2175.858
2176.933
2178.008
2179.083
2180.158
2181.233
2182.308
2183.383
2184.458
2185.533
2186.608
2187.683
2188.758
2189.833
2190.908
2191.983
2193.058
2194.133
2195.208
2196.283
2197.358
2198.433
2199.508
2200.583
2201.658
2202.733
2203.808
2204.883
2205.958
2207.033
2208.108
2209.183
2210.258
2211.333
2212.408
2213.483
2214.558
2215.633
2216.708
2217.783
2218.858
2219.933
2221.008
2222.083
2223.158
2224.233
2225.308
2226.383
2227.458
2228.533
2229.608
2230.683
2231.758
2232.833
2233.908
2234.983
2236.058
2237.133
2238.208
2239.283
2240.358
2241.433
2242.508
2243.583
2244.658
2245.733
2246.808
2247.883
2248.958
2250.033
2251.108
2252.183
2253.258
2254.333
2255.408
2256.483
2257.558
2258.633
2259.708
2260.783
2261.858
2262.933
2264.008
2265.083
2266.158
2267.233
2268.308
2269.383
2270.458
2271.533
2272.608
2273.683
2274.758
2275.833
2276.908
2277.983
2279.058
2280.133
2281.208
2282.283
2283.358
2284.433
2285.508
2286.583
2287.658
2288.733
2290.492
2292.252
2294.011
2295.771
2297.530
2299.290
2301.049
2302.809
2304.568
2306.328
2308.087
2309.847
2311.606
2313.366
2315.125
2316.885
2318.644
2320.404
2322.163
2323.923
2325.682
2327.442
2329.201
2330.961
2332.720
2334.480
2336.239
2337.999
2339.758
2341.518
2343.277
2345.037
2346.796
2348.556
2350.315
2352.075
2353.834
2355.594
2357.353
2359.113
2360.872
2362.632
2364.391
2366.151
2367.910
2369.670
2371.429
2373.189
2374.948
2376.708
2378.467
2380.227
2381.986
2383.746
2385.505
2387.265
2389.024
2390.784
2392.543
2394.303
2396.062
2397.822
2399.581
2401.341
2403.100
2404.860
2406.619
2408.379
2410.138
2411.898
2413.657
2415.417
2417.176
2418.936
2420.695
2422.455
2424.214
2425.974
2427.733
2429.493
2431.252
2433.012
2434.771
2436.531
2438.290
2440.050
2441.809
2443.569
2445.328
2447.088
2448.847
2450.607
2452.366
2454.126
2455.885
2457.645
2459.404
2461.164
2462.923
2464.683
2466.442
2468.202
2469.961
2471.721
2473.480
2475.240
2476.999
2478.759
2480.518
2482.278
2484.037
2485.797
2487.556
2489.316
2491.075
2492.835
2494.594
2496.354
2498.113
2499.873
2501.632
2503.392
2505.151
2506.911
2508.670
2510.430
2512.189
2513.949
2515.708
2517.468
2519.227
2520.987
2522.746
2524.506
2526.265
2528.025
2529.784
2531.544
2533.303
2535.063
2536.822
2538.582
2540.341
2542.101
2543.860
2545.620
2547.379
2549.139
2550.898
2552.658
2554.417
2556.177
2557.936
2559.696
2561.455
2563.215
2564.974
2566.734
2568.493
2570.253
2572.012
2573.772
2575.531
2577.291
2579.050
2580.810
2582.569
2584.329
2586.088
2587.848
2589.607
2591.367
2593.126
2594.886
2596.645
2598.405
2600.164
2601.924
2603.683
2605.443
2607.202
2608.962
2610.721
2612.481
2614.240
2616.000
2617.759
2619.519
2621.278
2623.038
2624.797
2626.557
2628.316
2630.076
2631.835
2633.595
2635.354
2637.114
2638.873
2640.633
2636.870
2633.107
2629.344
2625.581
2621.818
2618.055
2614.292
2610.529
2606.766
2603.003
2599.240
2595.477
2591.714
2587.951
2584.188
2580.425
2576.662
2572.899
2569.136
2565.373
2561.610
2557.847
2554.084
2550.321
2546.558
2542.795
2539.032
2535.269
2531.506
2527.743
2523.980
2520.217
2516.454
2512.691
2508.928
2505.165
2501.402
2497.639
2493.876
2490.113
2486.350
2482.587
2478.824
2475.061
2471.298
2467.535
2463.772
2460.009
2456.246
2452.483
2448.720
2444.957
2441.194
2437.431
2433.668
2429.905
2426.142
2422.379
2418.616
2414.853
2411.090
2407.327
2403.564
2399.801
2396.038
2392.275
2388.512
2384.749
2380.986
2377.223
2373.460
2369.697
2365.934
2362.171
2358.408
2354.645
2350.882
2347.119
2343.356
2339.593
2335.830
2332.067
2328.304
2324.541
2320.778
2317.015
2313.252
2309.489
2305.726
2301.963
2298.200
2294.437
2290.674
2286.911
2283.148
2279.385
2275.622
2271.859
2268.096
2264.333
2260.570
2256.807
2253.044
2249.281
2245.518
2241.755
2237.992
2234.229
2230.466
2226.703
2222.940
2219.177
2215.414
2211.651
2207.888
2204.125
2200.362
2196.599
2192.836
2189.073
2185.310
2181.547
2177.784
2174.021
2170.258
2166.495
2162.732
2158.969
2155.206
2151.443
2147.680
2143.917
2140.154
2136.391
2132.628
2128.865
2125.102
2121.339
2117.576
2113.813
2110.050
2106.287
2102.524
2098.761
2094.998
2091.235
2087.472
2083.709
2079.946
2076.183
2072.420
2068.657
2064.894
2061.131
2057.368
2053.605
2049.842
2046.079
2042.316
2038.553
2034.790
2031.027
2027.264
2023.501
2019.738
2015.975
2012.212
2008.449
2004.686
2000.923
1997.160
1993.397
1989.634
1985.871
1982.108
1978.345
1974.582
1970.819
1967.056
1963.293
1959.530
1955.767
1952.004
1948.241
1944.478
1940.715
1936.952
1933.189
1929.426
1925.663
1921.900
1918.137
1914.374
1910.611
1906.848
1903.085
1899.322
1895.559
1891.796
1888.033
1886.297
1884.562
1882.826
1881.091
1879.355
1877.620
1875.884
1874.149
1872.413
1870.678
1868.942
1867.207
1865.471
1863.736
1862.000
1860.265
1858.529
1856.794
1855.058
1853.323
1851.587
1849.852
1848.116
1846.381
1844.645
1842.910
1841.174
1839.439
1837.703
1835.968
1834.232
1832.497
1830.761
1829.026
1827.290
1825.555
1823.819
1822.084
1820.348
1818.613
1816.877
1815.142
1813.406
1811.671
1809.935
1808.200
1806.464
1804.729
1802.993
1801.258
1799.522
1797.787
1796.051
1794.316
1792.580
1790.845
1789.109
1787.374
1785.638
1783.903
1782.167
1780.432
1778.696
1776.961
1775.225
1773.490
1771.754
1770.019
1768.283
1766.548
1764.812
1763.077
1761.341
1759.606
1757.870
1756.135
1754.399
1752.664
1750.928
1749.193
1747.457
1745.722
1743.986
1742.251
1740.515
1738.780
1737.044
1735.309
1733.573
1731.838
1730.102
1728.367
1726.631
1724.896
1723.160
1721.425
1719.689
1717.954
1716.218
1714.483
1712.747
1711.012
1709.276
1707.541
1705.805
1704.070
1702.334
1700.599
1698.863
1697.128
1695.392
1693.657
1691.921
1690.186
1688.450
1686.715
1684.979
1683.244
1681.508
1679.773
1678.037
1676.302
1674.566
1672.831
1671.095
1669.360
1667.624
1665.889
1664.153
1662.418
1660.682
1658.947
1657.211
1655.476
1653.740
1652.005
1650.269
1648.534
1646.798
1645.063
1643.327
1641.592
1639.856
1638.121
1636.385
1634.650
1632.914
1631.179
1629.443
1627.708
1625.972
1624.237
1622.501
1620.766
1619.030
1617.295
1615.559
1613.824
1612.088
1610.353
1608.617
1606.882
1605.146
1603.411
1601.675
1599.940
1598.204
1596.469
1594.733
1592.998
1591.262
1589.527
1587.791
1586.056
1584.320
1582.585
1580.849
1579.114
1577.378
1575.643
1573.907
1572.172
1570.436
1568.701
1566.965
1565.230
1563.494
1561.759
1560.023
1558.288
1556.552
1554.817
1553.081
1551.346
1549.610
1547.875
1546.139
1544.404
1542.668
1540.933
1543.670
1546.407
1549.144
1551.881
1554.618
1557.355
1560.092
1562.829
1565.566
1568.303
1571.040
1573.777
1576.514
1579.251
1581.988
1584.725
1587.462
1590.199
1592.936
1595.673
1598.410
1601.147
1603.884
1606.621
1609.358
1612.095
1614.832
1617.569
1620.306
1623.043
1625.780
1628.517
1631.254
1633.991
1636.728
1639.465
1642.202
1644.939
1647.676
1650.413
1653.150
1655.887
1658.624
1661.361
1664.098
1666.835
1669.572
1672.309
1675.046
1677.783
1680.520
1683.257
1685.994
1688.731
1691.468
1694.205
1696.942
1699.679
1702.416
1705.153
1707.890
1710.627
1713.364
1716.101
1718.838
1721.575
1724.312
1727.049
1729.786
1732.523
1735.260
1737.997
1740.734
1743.471
1746.208
1748.945
1751.682
1754.419
1757.156
1759.893
1762.630
1765.367
1768.104
1770.841
1773.578
1776.315
1779.052
1781.789
1784.526
1787.263
1790.000
1792.737
1795.474
1798.211
1800.948
1803.685
1806.422
1809.159
1811.896
1814.633
1817.370
1820.107
1822.844
1825.581
1828.318
1831.055
1833.792
1836.529
1839.266
1842.003
1844.740
1847.477
1850.214
1852.951
1855.688
1858.425
1861.162
1863.899
1866.636
1869.373
1872.110
1874.847
1877.584
1880.321
1883.058
1885.795
1888.532
1891.269
1894.006
1896.743
1899.480
1902.217
1904.954
1907.691
1910.428
1913.165
1915.902
