81.976
81.976
81.976
81.976
81.976
81.976
81.976
81.976
81.976
81.976
81.976
81.976
81.976
81.976
81.976
81.976
81.976
81.976
81.976
81.976
81.976
81.976
81.976
81.976
81.976
81.976
81.976
81.976
81.976
81.976
81.976
81.976
81.976
81.976
81.976
81.976
81.976
81.976
81.976
81.976
81.976
81.976
81.976
81.976
81.976
81.976
81.976
81.976
81.976
81.976
81.976
81.976
81.976
81.976
81.976
81.976
81.976
81.976
81.976
81.976
81.976
81.976
81.976
81.976
81.976
81.976
81.976
81.976
81.976
81.976
81.976
81.976
81.976
81.976
81.976
81.976
81.976
81.976
81.976
81.976
81.976
81.976
81.976
81.976
81.976
81.976
81.976
81.976
81.976
81.976
81.976
81.976
81.976
81.976
81.976
81.976
81.976
81.976
81.976
81.976
81.976
81.976
81.976
81.976
81.976
81.976
81.976
81.976
81.976
81.976
81.976
81.976
81.976
81.976
81.976
81.976
81.976
81.976
81.976
81.976
81.976
81.976
81.976
81.976
81.976
81.976
81.976
81.976
81.976
81.976
81.976
81.976
81.976
81.976
81.976
81.976
81.976
81.976
81.976
81.976
81.976
81.976
81.976
81.976
81.976
81.976
81.976
81.976
81.976
81.976
81.976
81.976
81.976
81.976
81.976
81.976
81.976
81.976
81.976
81.976
81.976
81.976
81.976
81.976
81.976
81.976
81.976
81.976
81.976
81.976
81.976
81.976
81.976
81.976
81.976
81.976
81.976
81.976
81.976
81.976
81.976
81.976
81.976
81.976
81.976
81.976
81.976
81.976
81.976
81.976
81.976
81.976
81.976
81.976
81.976
81.976
81.976
81.976
81.976
81.976
81.976
81.976
81.976
81.976
81.976
81.976
81.976
81.976
81.976
81.976
81.976
81.976
81.976
81.976
81.976
81.976
81.976
81.976
81.976
81.976
81.976
81.976
81.976
81.976
81.976
81.976
81.976
81.976
81.976
81.976
81.976
81.976
81.976
81.976
81.976
81.976
81.976
81.976
81.976
81.976
81.976
81.976
81.976
81.976
81.976
81.976
81.976
81.976
81.976
81.976
81.976
81.976
81.976
81.976
81.976
81.976
81.976
81.976
81.976
81.976
81.976
81.976
81.976
81.976
81.976
81.976
81.976
81.976
81.976
81.976
81.976
81.976
81.976
81.976
81.976
81.976
81.976
81.976
81.976
81.976
81.976
81.976
81.976
81.976
81.976
81.976
81.976
81.976
81.976
81.976
81.976
81.976
81.976
81.976
81.976
81.976
81.976
81.976
81.976
81.976
81.976
81.976
81.976
81.976
81.976
81.976
81.976
81.976
81.976
81.976
81.976
81.976
81.976
81.976
81.976
81.976
81.976
81.976
81.976
81.976
81.976
81.976
81.976
81.976
81.976
81.976
81.976
81.976
81.976
81.976
81.976
81.976
81.976
81.976
81.976
81.976
81.976
81.976
81.976
81.976
81.976
81.976
81.976
81.976
81.976
81.976
81.976
81.976
81.976
81.976
81.976
81.976
81.976
81.976
81.976
81.976
81.976
81.976
81.976
81.976
81.976
81.976
81.976
81.976
81.976
81.976
81.976
81.976
81.976
81.976
81.976
81.976
81.976
81.976
81.976
81.976
81.976
81.976
81.976
81.976
81.976
81.976
81.976
81.976
81.976
81.976
81.976
81.976
81.976
81.976
81.976
81.976
81.976
81.976
81.976
81.976
81.976
81.976
81.976
81.976
81.976
81.976
81.976
81.976
81.976
81.976
81.976
81.976
81.976
81.976
81.976
81.976
81.976
81.976
81.976
81.976
81.976
81.976
81.976
81.976
81.976
81.976
81.976
81.976
81.976
81.976
81.976
81.976
81.976
81.976
81.976
81.976
81.976
81.976
81.976
81.976
81.976
81.976
81.976
81.976
81.976
81.976
81.976
81.976
81.976
81.976
81.976
81.976
81.976
81.976
81.976
81.976
81.976
81.976
81.976
81.976
81.976
81.976
81.976
81.976
81.976
81.976
81.976
81.976
81.976
81.976
81.976
81.976
81.976
81.976
81.976
81.976
81.976
81.976
81.976
81.976
81.976
81.976
81.976
81.976
81.976
81.976
81.976
81.976
81.976
81.976
81.976
81.976
81.976
81.976
81.976
81.976
81.976
81.976
81.976
81.976
81.976
81.976
81.976
81.976
81.976
81.976
81.976
81.976
81.976
81.976
81.976
81.976
81.976
81.976
81.976
81.976
81.976
81.976
81.976
81.976
81.976
81.976
81.976
81.976
81.976
81.976
81.976
81.976
81.976
81.976
81.976
81.976
81.976
81.976
81.976
81.976
81.976
81.976
81.976
81.976
81.976
81.976
81.976
81.976
81.976
81.976
81.976
81.976
81.976
81.976
81.976
81.976
81.976
81.976
81.976
81.976
81.976
81.976
81.976
81.976
81.976
81.976
81.976
81.976
81.976
81.976
81.976
81.976
81.976
81.976
81.976
81.976
81.976
81.976
81.976
81.976
81.976
81.976
81.976
81.976
81.976
81.976
81.976
81.976
81.976
81.976
81.976
81.976
81.976
81.976
81.976
81.976
81.976
81.976
81.976
81.976
81.976
81.976
81.976
81.976
81.976
81.976
81.976
81.976
81.976
81.976
81.976
81.976
81.976
81.976
81.976
81.976
81.976
81.976
81.976
81.976
77.076
77.076
77.076
77.076
77.076
77.076
77.076
77.076
77.076
77.076
77.076
77.076
77.076
77.076
77.076
77.076
77.076
77.076
77.076
77.076
77.076
77.076
77.076
77.076
77.076
77.076
77.076
77.076
77.076
77.076
77.076
77.076
77.076
77.076
77.076
77.076
77.076
77.076
77.076
77.076
77.076
77.076
77.076
77.076
77.076
77.076
77.076
77.076
77.076
77.076
77.076
77.076
77.076
77.076
77.076
77.076
77.076
77.076
77.076
77.076
77.076
77.076
77.076
77.076
77.076
77.076
77.076
77.076
77.076
77.076
77.076
77.076
77.076
77.076
77.076
77.076
77.076
77.076
77.076
77.076
77.076
77.076
77.076
77.076
77.076
77.076
77.076
77.076
77.076
77.076
77.076
77.076
77.076
77.076
77.076
77.076
77.076
77.076
77.076
77.076
77.076
77.076
77.076
77.076
77.076
77.076
77.076
77.076
77.076
77.076
77.076
77.076
77.076
77.076
77.076
77.076
77.076
77.076
77.076
77.076
77.076
77.076
77.076
77.076
77.076
77.076
77.076
77.076
77.076
77.076
77.076
77.076
77.076
77.076
77.076
77.076
77.076
77.076
77.076
77.076
77.076
77.076
77.076
77.076
77.076
77.076
77.076
77.076
77.076
77.076
77.076
77.076
77.076
77.076
77.076
77.076
77.076
77.076
77.076
77.076
77.076
77.076
77.076
77.076
77.076
77.076
77.076
77.076
77.076
77.076
77.076
77.076
77.076
77.076
77.076
77.076
77.076
77.076
77.076
77.076
77.076
77.076
77.076
77.076
77.076
77.076
77.076
77.076
77.076
77.076
77.076
77.076
77.076
77.076
77.076
77.076
77.076
77.076
77.076
77.076
77.076
77.076
77.076
77.076
77.076
77.076
77.076
77.076
77.076
77.076
77.076
77.076
77.076
77.076
77.076
77.076
77.076
77.076
77.076
77.076
77.076
77.076
77.076
77.076
77.076
77.076
77.076
77.076
77.076
77.076
77.076
77.076
77.076
77.076
77.076
77.076
77.076
77.076
77.076
77.076
77.076
77.076
77.076
77.076
77.076
77.076
77.076
77.076
77.076
77.076
77.076
77.076
77.076
77.076
77.076
77.076
77.076
77.076
77.076
77.076
77.076
77.076
77.076
77.076
77.076
77.076
77.076
77.076
77.076
77.076
77.076
77.076
77.076
77.076
77.076
77.076
77.076
77.076
77.076
77.076
77.076
77.076
77.076
77.076
77.076
77.076
77.076
77.076
77.076
77.076
77.076
77.076
77.076
77.076
77.076
77.076
77.076
77.076
77.076
77.076
77.076
77.076
77.076
77.076
77.076
77.076
77.076
77.076
77.076
77.076
77.076
77.076
77.076
77.076
77.076
77.076
77.076
77.076
77.076
77.076
77.076
77.076
77.076
77.076
77.076
77.076
77.076
77.076
77.076
77.076
77.076
77.076
77.076
77.076
77.076
77.076
77.076
77.076
77.076
77.076
77.076
77.076
77.076
77.076
77.076
77.076
77.076
77.076
77.076
77.076
77.076
77.076
77.076
77.076
77.076
77.076
77.076
77.076
77.076
77.076
77.076
77.076
77.076
77.076
77.076
77.076
77.076
77.076
77.076
77.076
77.076
77.076
77.076
77.076
77.076
77.076
77.076
77.076
77.076
77.076
77.076
77.076
77.076
77.076
77.076
77.076
77.076
77.076
77.076
77.076
77.076
77.076
77.076
77.076
77.076
77.076
77.076
77.076
77.076
77.076
1836.576
1840.535
1844.494
1848.453
1852.412
1856.371
1860.330
1864.289
1868.248
1872.207
1876.166
1880.125
1884.084
1888.043
1892.002
1895.961
1899.920
1903.879
1907.838
1911.797
1915.756
1919.715
1923.674
1927.633
1931.592
1935.551
1939.510
1943.469
1947.428
1951.387
1955.346
1959.305
1963.264
1967.223
1971.182
1975.141
1979.100
1983.059
1987.018
1990.977
1994.936
1998.895
2002.854
2006.813
2010.772
2014.731
2018.690
2022.649
2026.608
2030.567
2034.526
2038.485
2042.444
2046.403
2050.362
2054.321
2058.280
2062.239
2066.198
2070.157
2074.116
2078.075
2082.034
2085.993
2089.952
2093.911
2097.870
2101.829
2105.788
2109.747
2113.706
2117.665
2121.624
2125.583
2129.542
2133.501
2137.460
2141.419
2145.378
2149.337
2153.296
2157.255
2161.214
2165.173
2169.132
2173.091
2177.050
2181.009
2184.968
2188.927
2192.886
2196.845
2200.804
2204.763
2208.722
2212.681
2216.640
2220.599
2224.558
2228.517
2232.476
2236.435
2240.394
2244.353
2248.312
2252.271
2256.230
2260.189
2264.148
2268.107
2272.066
2276.025
2279.984
2283.943
2287.902
2291.861
2295.820
2299.779
2303.738
2307.697
2311.656
2315.615
2319.574
2323.533
2327.492
2331.451
2335.410
2339.369
2343.328
2347.287
2351.246
2355.205
2359.164
2363.123
2367.082
2371.041
2375.000
2378.959
2382.918
2386.877
2390.836
2394.795
2398.754
2402.713
2406.672
2410.631
2414.590
2418.549
2422.508
2426.467
2430.426
2434.385
2438.344
2442.303
2446.262
2450.221
2454.180
2458.139
2462.098
2466.057
2470.016
2473.975
2477.934
2481.893
2485.852
2489.811
2493.770
2497.729
2501.688
2505.647
2509.606
2513.565
2517.524
2521.483
2525.442
2529.401
2533.360
2537.319
2541.278
2545.237
2549.196
2553.155
2557.114
2561.073
2565.032
2568.991
2572.950
2576.909
2580.868
2584.827
2588.786
2592.745
2596.704
2600.663
2604.622
2608.581
2612.540
2616.499
2620.458
2624.417
2628.376
2628.523
2628.669
2628.816
2628.962
2629.109
2629.255
2629.402
2629.548
2629.695
2629.841
2629.988
2630.134
2630.281
2630.427
2630.574
2630.720
2630.867
2631.013
2631.160
2631.306
2631.453
2631.599
2631.746
2631.892
2632.039
2632.185
2632.332
2632.478
2632.625
2632.771
2632.918
2633.064
2633.211
2633.357
2633.504
2633.650
2633.797
2633.943
2634.090
2634.236
2634.383
2634.529
2634.676
2634.822
2634.969
2635.115
2635.262
2635.408
2635.555
2635.701
2635.848
2635.994
2636.141
2636.287
2636.434
2636.580
2636.727
2636.873
2637.020
2637.166
2637.313
2637.459
2637.606
2637.752
2637.899
2638.045
2638.192
2638.338
2638.485
2638.631
2638.778
2638.924
2639.071
2639.217
2639.364
2639.510
2639.657
2639.803
2639.950
2640.096
2640.243
2640.389
2640.536
2640.682
2640.829
2640.975
2641.122
2641.268
2641.415
2641.561
2641.708
2641.854
2642.001
2642.147
2642.294
2642.440
2642.587
2642.733
2642.880
2643.026
2643.173
2643.319
2643.466
2643.612
2643.759
2643.905
2644.052
2644.198
2644.345
2644.491
2644.638
2644.784
2644.931
2645.077
2645.224
2645.370
2645.517
2645.663
2645.810
2645.956
2646.103
2646.249
2646.396
2646.542
2646.689
2646.835
2646.982
2647.128
2647.275
2647.421
2647.568
2647.714
2647.861
2648.007
2648.154
2648.300
2648.447
2648.593
2648.740
2648.886
2649.033
2649.179
2649.326
2649.472
2649.619
2649.765
2649.912
2650.058
2650.205
2650.351
2650.498
2650.644
2650.791
2650.937
2651.084
2651.230
2651.377
2651.523
2651.670
2651.816
2651.963
2652.109
2652.256
2652.402
2652.549
2652.695
2652.842
2652.988
2653.135
2653.281
2653.428
2653.574
2653.721
2653.867
2654.014
2654.160
2654.307
2654.453
2654.600
2654.746
2654.893
2655.039
2655.186
2655.332
2655.479
2655.625
2655.772
2655.918
2656.065
2656.211
2656.358
2656.504
2656.651
2656.797
2656.944
2657.090
2657.237
2657.383
2657.530
2657.676
2654.964
2652.251
2649.539
2646.826
2644.114
2641.401
2638.689
2635.976
2633.264
2630.551
2627.839
2625.126
2622.414
2619.701
2616.989
2614.276
2611.564
2608.851
2606.139
2603.426
2600.714
2598.001
2595.289
2592.576
2589.864
2587.151
2584.439
2581.726
2579.014
2576.301
2573.589
2570.876
2568.164
2565.451
2562.739
2560.026
2557.314
2554.601
2551.889
2549.176
2546.464
2543.751
2541.039
2538.326
2535.614
2532.901
2530.189
2527.476
2524.764
2522.051
2519.339
2516.626
2513.914
2511.201
2508.489
2505.776
2503.064
2500.351
2497.639
2494.926
2492.214
2489.501
2486.789
2484.076
2481.364
2478.651
2475.939
2473.226
2470.514
2467.801
2465.089
2462.376
2459.664
2456.951
2454.239
2451.526
2448.814
2446.101
2443.389
2440.676
2437.964
2435.251
2432.539
2429.826
2427.114
2424.401
2421.689
2418.976
2416.264
2413.551
2410.839
2408.126
2405.414
2402.701
2399.989
2397.276
2394.564
2391.851
2389.139
2386.426
2383.714
2381.001
2378.289
2375.576
2372.864
2370.151
2367.439
2364.726
2362.014
2359.301
2356.589
2353.876
2351.164
2348.451
2345.739
2343.026
2340.314
2337.601
2334.889
2332.176
2329.464
2326.751
2324.039
2321.326
2318.614
2315.901
2313.189
2310.476
2307.764
2305.051
2302.339
2299.626
2296.914
2294.201
2291.489
2288.776
2286.064
2283.351
2280.639
2277.926
2275.214
2272.501
2269.789
2267.076
2264.364
2261.651
2258.939
2256.226
2253.514
2250.801
2248.089
2245.376
2242.664
2239.951
2237.239
2234.526
2231.814
2229.101
2226.389
2223.676
2220.964
2218.251
2215.539
2212.826
2210.114
2207.401
2204.689
2201.976
2199.264
2196.551
2193.839
2191.126
2188.414
2185.701
2182.989
2180.276
2177.564
2174.851
2172.139
2169.426
2166.714
2164.001
2161.289
2158.576
2155.864
2153.151
2150.439
2147.726
2145.014
2142.301
2139.589
2136.876
2134.164
2131.451
2128.739
2126.026
2123.314
2120.601
2117.889
2115.176
2116.080
2116.984
2117.888
2118.792
2119.696
2120.600
2121.504
2122.408
2123.312
2124.216
2125.120
2126.024
2126.928
2127.832
2128.736
2129.640
2130.544
2131.448
2132.352
2133.256
2134.160
2135.064
2135.968
2136.872
2137.776
2138.680
2139.584
2140.488
2141.392
2142.296
2143.200
2144.104
2145.008
2145.912
2146.816
2147.720
2148.624
2149.528
2150.432
2151.336
2152.240
2153.144
2154.048
2154.952
2155.856
2156.760
2157.664
2158.568
2159.472
2160.376
2161.280
2162.184
2163.088
2163.992
2164.896
2165.800
2166.704
2167.608
2168.512
2169.416
2170.320
2171.224
2172.128
2173.032
2173.936
2174.840
2175.744
2176.648
2177.552
2178.456
2179.360
2180.264
2181.168
2182.072
2182.976
2183.880
2184.784
2185.688
2186.592
2187.496
2188.400
2189.304
2190.208
2191.112
2192.016
2192.920
2193.824
2194.728
2195.632
2196.536
2197.440
2198.344
2199.248
2200.152
2201.056
2201.960
2202.864
2203.768
2204.672
2205.576
2206.480
2207.384
2208.288
2209.192
2210.096
2211.000
2211.904
2212.808
2213.712
2214.616
2215.520
2216.424
2217.328
2218.232
2219.136
2220.040
2220.944
2221.848
2222.752
2223.656
2224.560
2225.464
2226.368
2227.272
2228.176
2229.080
2229.984
2230.888
2231.792
2232.696
2233.600
2234.504
2235.408
2236.312
2237.216
2238.120
2239.024
2239.928
2240.832
2241.736
2242.640
2243.544
2244.448
2245.352
2246.256
2247.160
2248.064
2248.968
2249.872
2250.776
2251.680
2252.584
2253.488
2254.392
2255.296
2256.200
2257.104
2258.008
2258.912
2259.816
2260.720
2261.624
2262.528
2263.432
2264.336
2265.240
2266.144
2267.048
2267.952
2268.856
2269.760
2270.664
2271.568
2272.472
2273.376
2274.280
2275.184
2276.088
2276.992
2277.896
2278.800
2279.704
2280.608
2281.512
2282.416
2283.320
2284.224
2285.128
2286.032
2286.936
2287.840
2288.744
2289.648
2290.552
2291.456
2292.360
2293.264
2294.168
2295.072
2295.976
2294.754
2293.532
2292.310
2291.088
2289.866
2288.644
2287.422
2286.200
2284.978
2283.756
2282.534
2281.312
2280.090
2278.868
2277.646
2276.424
2275.202
2273.980
2272.758
2271.536
2270.314
2269.092
2267.870
2266.648
2265.426
2264.204
2262.982
2261.760
2260.538
2259.316
2258.094
2256.872
2255.650
2254.428
2253.206
2251.984
2250.762
2249.540
2248.318
2247.096
2245.874
2244.652
2243.430
2242.208
2240.986
2239.764
2238.542
2237.320
2236.098
2234.876
2233.654
2232.432
2231.210
2229.988
2228.766
2227.544
2226.322
2225.100
2223.878
2222.656
2221.434
2220.212
2218.990
2217.768
2216.546
2215.324
2214.102
2212.880
2211.658
2210.436
2209.214
2207.992
2206.770
2205.548
2204.326
2203.104
2201.882
2200.660
2199.438
2198.216
2196.994
2195.772
2194.550
2193.328
2192.106
2190.884
2189.662
2188.440
2187.218
2185.996
2184.774
2183.552
2182.330
2181.108
2179.886
2178.664
2177.442
2176.220
2174.998
2173.776
2172.554
2171.332
2170.110
2168.888
2167.666
2166.444
2165.222
2164.000
2162.778
2161.556
2160.334
2159.112
2157.890
2156.668
2155.446
2154.224
2153.002
2151.780
2150.558
2149.336
2148.114
2146.892
2145.670
2144.448
2143.226
2142.004
2140.782
2139.560
2138.338
2137.116
2135.894
2134.672
2133.450
2132.228
2131.006
2129.784
2128.562
2127.340
2126.118
2124.896
2123.674
2122.452
2121.230
2120.008
2118.786
2117.564
2116.342
2115.120
2113.898
2112.676
2111.454
2110.232
2109.010
2107.788
2106.566
2105.344
2104.122
2102.900
2101.678
2100.456
2099.234
2098.012
2096.790
2095.568
2094.346
2093.124
2091.902
2090.680
2089.458
2088.236
2087.014
2085.792
2084.570
2083.348
2082.126
2080.904
2079.682
2078.460
2077.238
2076.016
2074.794
2073.572
2072.350
2071.128
2069.906
2068.684
2067.462
