96.591
96.591
96.591
96.591
96.591
96.591
96.591
96.591
96.591
96.591
96.591
96.591
96.591
96.591
96.591
96.591
96.591
96.591
96.591
96.591
96.591
96.591
96.591
96.591
96.591
96.591
96.591
96.591
96.591
96.591
96.591
96.591
96.591
96.591
96.591
96.591
96.591
96.591
96.591
96.591
96.591
96.591
96.591
96.591
96.591
96.591
96.591
96.591
96.591
96.591
96.591
96.591
96.591
96.591
96.591
96.591
96.591
96.591
96.591
96.591
96.591
96.591
96.591
96.591
96.591
96.591
96.591
96.591
96.591
96.591
96.591
96.591
96.591
96.591
96.591
96.591
96.591
96.591
96.591
96.591
96.591
96.591
96.591
96.591
96.591
96.591
96.591
96.591
96.591
96.591
96.591
96.591
96.591
96.591
96.591
96.591
96.591
96.591
96.591
96.591
96.591
96.591
96.591
96.591
96.591
96.591
96.591
96.591
96.591
96.591
96.591
96.591
96.591
96.591
96.591
96.591
96.591
96.591
96.591
96.591
96.591
96.591
96.591
96.591
96.591
96.591
96.591
96.591
96.591
96.591
96.591
96.591
96.591
96.591
96.591
96.591
96.591
96.591
96.591
96.591
96.591
96.591
96.591
96.591
96.591
96.591
96.591
96.591
96.591
96.591
96.591
96.591
96.591
96.591
96.591
96.591
96.591
96.591
96.591
96.591
96.591
96.591
96.591
96.591
96.591
96.591
96.591
96.591
96.591
96.591
96.591
96.591
96.591
96.591
96.591
96.591
96.591
96.591
96.591
96.591
96.591
96.591
96.591
96.591
96.591
96.591
96.591
96.591
96.591
96.591
96.591
96.591
96.591
96.591
96.591
96.591
96.591
96.591
96.591
96.591
96.591
96.591
96.591
96.591
96.591
96.591
96.591
96.591
96.591
96.591
96.591
96.591
96.591
96.591
96.591
96.591
96.591
96.591
96.591
96.591
96.591
96.591
96.591
96.591
96.591
96.591
96.591
96.591
96.591
96.591
96.591
96.591
96.591
96.591
96.591
96.591
96.591
96.591
96.591
96.591
96.591
96.591
96.591
96.591
96.591
96.591
96.591
96.591
96.591
96.591
96.591
96.591
96.591
96.591
96.591
96.591
96.591
96.591
96.591
96.591
96.591
96.591
96.591
96.591
96.591
96.591
96.591
96.591
96.591
96.591
96.591
96.591
96.591
96.591
96.591
96.591
96.591
96.591
96.591
96.591
96.591
96.591
96.591
96.591
96.591
96.591
96.591
96.591
96.591
96.591
96.591
96.591
96.591
96.591
96.591
96.591
96.591
96.591
96.591
96.591
96.591
96.591
96.591
96.591
96.591
96.591
96.591
96.591
96.591
96.591
96.591
96.591
96.591
96.591
96.591
96.591
96.591
96.591
96.591
96.591
96.591
96.591
96.591
96.591
96.591
96.591
96.591
96.591
96.591
96.591
96.591
96.591
96.591
96.591
96.591
96.591
96.591
96.591
96.591
96.591
96.591
96.591
96.591
96.591
96.591
96.591
96.591
96.591
96.591
96.591
96.591
96.591
96.591
96.591
96.591
96.591
96.591
96.591
96.591
96.591
96.591
96.591
96.591
96.591
96.591
96.591
96.591
96.591
96.591
96.591
96.591
96.591
96.591
96.591
96.591
96.591
96.591
96.591
96.591
96.591
96.591
96.591
96.591
96.591
96.591
96.591
96.591
96.591
96.591
96.591
96.591
96.591
96.591
96.591
96.591
96.591
96.591
96.591
96.591
96.591
96.591
96.591
96.591
96.591
96.591
96.591
96.591
96.591
96.591
96.591
96.591
96.591
96.591
96.591
96.591
96.591
96.591
96.591
96.591
96.591
96.591
96.591
96.591
96.591
96.591
96.591
96.591
96.591
96.591
96.591
96.591
96.591
96.591
96.591
96.591
96.591
96.591
96.591
96.591
96.591
96.591
96.591
96.591
96.591
96.591
96.591
96.591
96.591
96.591
96.591
96.591
96.591
96.591
96.591
96.591
96.591
96.591
1245.091
1249.759
1254.427
1259.095
1263.763
1268.431
1273.099
1277.767
1282.435
1287.103
1291.771
1296.439
1301.107
1305.775
1310.443
1315.111
1319.779
1324.447
1329.115
1333.783
1338.451
1343.119
1347.787
1352.455
1357.123
1361.791
1366.459
1371.127
1375.795
1380.463
1385.131
1389.799
1394.467
1399.135
1403.803
1408.471
1413.139
1417.807
1422.475
1427.143
1431.811
1436.479
1441.147
1445.815
1450.483
1455.151
1459.819
1464.487
1469.155
1473.823
1478.491
1483.159
1487.827
1492.495
1497.163
1501.831
1506.499
1511.167
1515.835
1520.503
1525.171
1529.839
1534.507
1539.175
1543.843
1548.511
1553.179
1557.847
1562.515
1567.183
1571.851
1576.519
1581.187
1585.855
1590.523
1595.191
1599.859
1604.527
1609.195
1613.863
1618.531
1623.199
1627.867
1632.535
1637.203
1641.871
1646.539
1651.207
1655.875
1660.543
1665.211
1669.879
1674.547
1679.215
1683.883
1688.551
1693.219
1697.887
1702.555
1707.223
1711.891
1716.559
1721.227
1725.895
1730.563
1735.231
1739.899
1744.567
1749.235
1753.903
1758.571
1763.239
1767.907
1772.575
1777.243
1781.911
1786.579
1791.247
1795.915
1800.583
1805.251
1809.919
1814.587
1819.255
1823.923
1828.591
1833.259
1837.927
1842.595
1847.263
1851.931
1856.599
1861.267
1865.935
1870.603
1875.271
1879.939
1884.607
1889.275
1893.943
1898.611
1903.279
1907.947
1912.615
1917.283
1921.951
1926.619
1931.287
1935.955
1940.623
1945.291
1949.959
1954.627
1959.295
1963.963
1968.631
1973.299
1977.967
1982.635
1987.303
1991.971
1996.639
2001.307
2005.975
2010.643
2015.311
2019.979
2024.647
2029.315
2033.983
2038.651
2043.319
2047.987
2052.655
2057.323
2061.991
2066.659
2071.327
2075.995
2080.663
2085.331
2089.999
2094.667
2099.335
2104.003
2108.671
2113.339
2118.007
2122.675
2127.343
2132.011
2136.679
2141.347
2146.015
2150.683
2155.351
2160.019
2164.687
2169.355
2174.023
2178.691
2179.033
2179.375
2179.717
2180.059
2180.401
2180.743
2181.085
2181.427
2181.769
2182.111
2182.453
2182.795
2183.137
2183.479
2183.821
2184.163
2184.505
2184.847
2185.189
2185.531
2185.873
2186.215
2186.557
2186.899
2187.241
2187.583
2187.925
2188.267
2188.609
2188.951
2189.293
2189.635
2189.977
2190.319
2190.661
2191.003
2191.345
2191.687
2192.029
2192.371
2192.713
2193.055
2193.397
2193.739
2194.081
2194.423
2194.765
2195.107
2195.449
2195.791
2196.133
2196.475
2196.817
2197.159
2197.501
2197.843
2198.185
2198.527
2198.869
2199.211
2199.553
2199.895
2200.237
2200.579
2200.921
2201.263
2201.605
2201.947
2202.289
2202.631
2202.973
2203.315
2203.657
2203.999
2204.341
2204.683
2205.025
2205.367
2205.709
2206.051
2206.393
2206.735
2207.077
2207.419
2207.761
2208.103
2208.445
2208.787
2209.129
2209.471
2209.813
2210.155
2210.497
2210.839
2211.181
2211.523
2211.865
2212.207
2212.549
2212.891
2213.233
2213.575
2213.917
2214.259
2214.601
2214.943
2215.285
2215.627
2215.969
2216.311
2216.653
2216.995
2217.337
2217.679
2218.021
2218.363
2218.705
2219.047
2219.389
2219.731
2220.073
2220.415
2220.757
2221.099
2221.441
2221.783
2222.125
2222.467
2222.809
2223.151
2223.493
2223.835
2224.177
2224.519
2224.861
2225.203
2225.545
2225.887
2226.229
2226.571
2226.913
2227.255
2227.597
2227.939
2228.281
2228.623
2228.965
2229.307
2229.649
2229.991
2230.333
2230.675
2231.017
2231.359
2231.701
2232.043
2232.385
2232.727
2233.069
2233.411
2233.753
2234.095
2234.437
2234.779
2235.121
2235.463
2235.805
2236.147
2236.489
2236.831
2237.173
2237.515
2237.857
2238.199
2238.541
2238.883
2239.225
2239.567
2239.909
2240.251
2240.593
2240.935
2241.277
2241.619
2241.961
2242.303
2242.645
2242.987
2243.329
2243.671
2244.013
2244.355
2244.697
2245.039
2245.381
2245.723
2246.065
2246.407
2246.749
2247.091
2243.963
2240.835
2237.707
2234.579
2231.451
2228.323
2225.195
2222.067
2218.939
2215.811
2212.683
2209.555
2206.427
2203.299
2200.171
2197.043
2193.915
2190.787
2187.659
2184.531
2181.403
2178.275
2175.147
2172.019
2168.891
2165.763
2162.635
2159.507
2156.379
2153.251
2150.123
2146.995
2143.867
2140.739
2137.611
2134.483
2131.355
2128.227
2125.099
2121.971
2118.843
2115.715
2112.587
2109.459
2106.331
2103.203
2100.075
2096.947
2093.819
2090.691
2087.563
2084.435
2081.307
2078.179
2075.051
2071.923
2068.795
2065.667
2062.539
2059.411
2056.283
2053.155
2050.027
2046.899
2043.771
2040.643
2037.515
2034.387
2031.259
2028.131
2025.003
2021.875
2018.747
2015.619
2012.491
2009.363
2006.235
2003.107
1999.979
1996.851
1993.723
1990.595
1987.467
1984.339
1981.211
1978.083
1974.955
1971.827
1968.699
1965.571
1962.443
1959.315
1956.187
1953.059
1949.931
1946.803
1943.675
1940.547
1937.419
1934.291
1931.163
1928.035
1924.907
1921.779
1918.651
1915.523
1912.395
1909.267
1906.139
1903.011
1899.883
1896.755
1893.627
1890.499
1887.371
1884.243
1881.115
1877.987
1874.859
1871.731
1868.603
1865.475
1862.347
1859.219
1856.091
1852.963
1849.835
1846.707
1843.579
1840.451
1837.323
1834.195
1831.067
1827.939
1824.811
1821.683
1818.555
1815.427
1812.299
1809.171
1806.043
1802.915
1799.787
1796.659
1793.531
1790.403
1787.275
1784.147
1781.019
1777.891
1774.763
1771.635
1768.507
1765.379
1762.251
1759.123
1755.995
1752.867
1749.739
1746.611
1743.483
1740.355
1737.227
1734.099
1730.971
1727.843
1724.715
1721.587
1718.459
1715.331
1712.203
1709.075
1705.947
1702.819
1699.691
1696.563
1693.435
1690.307
1687.179
1684.051
1680.923
1677.795
1674.667
1671.539
1668.411
1665.283
1662.155
1659.027
1655.899
1652.771
1649.643
1646.515
1643.387
1640.259
1637.131
1634.003
1630.875
1627.747
1624.619
1621.491
1625.499
1629.507
1633.515
1637.523
1641.531
1645.539
1649.547
1653.555
1657.563
1661.571
1665.579
1669.587
1673.595
1677.603
1681.611
1685.619
1689.627
1693.635
1697.643
1701.651
1705.659
1709.667
1713.675
1717.683
1721.691
1725.699
1729.707
1733.715
1737.723
1741.731
1745.739
1749.747
1753.755
1757.763
1761.771
1765.779
1769.787
1773.795
1777.803
1781.811
1785.819
1789.827
1793.835
1797.843
1801.851
1805.859
1809.867
1813.875
1817.883
1821.891
1825.899
1829.907
1833.915
1837.923
1841.931
1845.939
1849.947
1853.955
1857.963
1861.971
1865.979
1869.987
1873.995
1878.003
1882.011
1886.019
1890.027
1894.035
1898.043
1902.051
1906.059
1910.067
1914.075
1918.083
1922.091
1926.099
1930.107
1934.115
1938.123
1942.131
1946.139
1950.147
1954.155
1958.163
1962.171
1966.179
1970.187
1974.195
1978.203
1982.211
1986.219
1990.227
1994.235
1998.243
2002.251
2006.259
2010.267
2014.275
2018.283
2022.291
2026.299
2030.307
2034.315
2038.323
2042.331
2046.339
2050.347
2054.355
2058.363
2062.371
2066.379
2070.387
2074.395
2078.403
2082.411
2086.419
2090.427
2094.435
2098.443
2102.451
2106.459
2110.467
2114.475
2118.483
2122.491
2126.499
2130.507
2134.515
2138.523
2142.531
2146.539
2150.547
2154.555
2158.563
2162.571
2166.579
2170.587
2174.595
2178.603
2182.611
2186.619
2190.627
2194.635
2198.643
2202.651
2206.659
2210.667
2214.675
2218.683
2222.691
2226.699
2230.707
2234.715
2238.723
2242.731
2246.739
2250.747
2254.755
2258.763
2262.771
2266.779
2270.787
2274.795
2278.803
2282.811
2286.819
2290.827
2294.835
2298.843
2302.851
2306.859
2310.867
2314.875
2318.883
2322.891
2326.899
2330.907
2334.915
2338.923
2342.931
2346.939
2350.947
2354.955
2358.963
2362.971
2366.979
2370.987
2374.995
2379.003
2383.011
2387.019
2391.027
2395.035
2399.043
2403.051
2407.059
2411.067
2415.075
2419.083
2423.091
2420.623
2418.154
2415.686
2413.217
2410.749
2408.280
2405.812
2403.343
2400.875
2398.406
2395.938
2393.469
2391.001
2388.532
2386.064
2383.595
2381.127
2378.658
2376.190
2373.721
2371.253
2368.784
2366.316
2363.847
2361.379
2358.910
2356.442
2353.973
2351.505
2349.036
2346.568
2344.099
2341.631
2339.162
2336.694
2334.225
2331.757
2329.288
2326.820
2324.351
2321.883
2319.414
2316.946
2314.477
2312.009
2309.540
2307.072
2304.603
2302.135
2299.666
2297.198
2294.729
2292.261
2289.792
2287.324
2284.855
2282.387
2279.918
2277.450
2274.981
2272.513
2270.044
2267.576
2265.107
2262.639
2260.170
2257.702
2255.233
2252.765
2250.296
2247.828
2245.359
2242.891
2240.422
2237.954
2235.485
2233.017
2230.548
2228.080
2225.611
2223.143
2220.674
2218.206
2215.737
2213.269
2210.800
2208.332
2205.863
2203.395
2200.926
2198.458
2195.989
2193.521
2191.052
2188.584
2186.115
2183.647
2181.178
2178.710
2176.241
2173.773
2171.304
2168.836
2166.367
2163.899
2161.430
2158.962
2156.493
2154.025
2151.556
2149.088
2146.619
2144.151
2141.682
2139.214
2136.745
2134.277
2131.808
2129.340
2126.871
2124.403
2121.934
2119.466
2116.997
2114.529
2112.060
2109.592
2107.123
2104.655
2102.186
2099.718
2097.249
2094.781
2092.312
2089.844
2087.375
2084.907
2082.438
2079.970
2077.501
2075.033
2072.564
2070.096
2067.627
2065.159
2062.690
2060.222
2057.753
2055.285
2052.816
2050.348
2047.879
2045.411
2042.942
2040.474
2038.005
2035.537
2033.068
2030.600
2028.131
2025.663
2023.194
2020.726
2018.257
2015.789
2013.320
2010.852
2008.383
2005.915
2003.446
2000.978
1998.509
1996.041
1993.572
1991.104
1988.635
1986.167
1983.698
1981.230
1978.761
1976.293
1973.824
1971.356
1968.887
1966.419
1963.950
1961.482
1959.013
1956.545
1954.076
1951.608
1949.139
1946.671
1944.202
1941.734
1939.265
1936.797
1934.328
1931.860
1929.391
1928.218
1927.045
1925.872
1924.699
1923.526
1922.353
1921.180
1920.007
1918.834
1917.661
1916.488
1915.315
1914.142
1912.969
1911.796
1910.623
1909.450
1908.277
1907.104
1905.931
1904.758
1903.585
1902.412
1901.239
1900.066
1898.893
1897.720
1896.547
1895.374
1894.201
1893.028
1891.855
1890.682
1889.509
1888.336
1887.163
1885.990
1884.817
1883.644
1882.471
1881.298
1880.125
1878.952
1877.779
1876.606
1875.433
1874.260
1873.087
1871.914
1870.741
1869.568
1868.395
1867.222
1866.049
1864.876
1863.703
1862.530
1861.357
1860.184
1859.011
1857.838
1856.665
1855.492
1854.319
1853.146
1851.973
1850.800
1849.627
1848.454
1847.281
1846.108
1844.935
1843.762
1842.589
1841.416
1840.243
1839.070
1837.897
1836.724
1835.551
1834.378
1833.205
1832.032
1830.859
1829.686
1828.513
1827.340
1826.167
1824.994
1823.821
1822.648
1821.475
1820.302
1819.129
1817.956
1816.783
1815.610
1814.437
1813.264
1812.091
1810.918
1809.745
1808.572
1807.399
1806.226
1805.053
1803.880
1802.707
1801.534
1800.361
1799.188
1798.015
1796.842
1795.669
1794.496
1793.323
1792.150
1790.977
1789.804
1788.631
1787.458
1786.285
1785.112
1783.939
1782.766
1781.593
1780.420
1779.247
1778.074
1776.901
1775.728
1774.555
1773.382
1772.209
1771.036
1769.863
1768.690
1767.517
1766.344
1765.171
1763.998
1762.825
1761.652
1760.479
1759.306
1758.133
1756.960
1755.787
1754.614
1753.441
1752.268
1751.095
1749.922
1748.749
1747.576
1746.403
1745.230
1744.057
1742.884
1741.711
1740.538
1739.365
1738.192
1737.019
1735.846
1734.673
1733.500
1732.327
1731.154
1729.981
1728.808
1727.635
1726.462
1725.289
1724.116
1722.943
1721.770
1720.597
1719.424
1718.251
1717.078
1715.905
1714.732
1713.559
1712.386
1711.213
1710.040
1708.867
1707.694
1706.521
1705.348
1704.175
1703.002
1701.829
1700.656
1699.483
1698.310
1697.137
1695.964
1694.791
1691.737
1688.682
1685.628
1682.573
1679.519
1676.464
1673.410
1670.355
1667.301
1664.246
1661.192
1658.137
1655.083
1652.028
1648.974
1645.919
1642.865
1639.810
1636.756
1633.701
1630.647
1627.592
1624.538
1621.483
1618.429
1615.374
1612.320
1609.265
1606.211
1603.156
1600.102
1597.047
1593.993
1590.938
1587.884
1584.829
1581.775
1578.720
1575.666
1572.611
1569.557
1566.502
1563.448
1560.393
1557.339
1554.284
1551.230
1548.175
1545.121
1542.066
1539.012
1535.957
1532.903
1529.848
1526.794
1523.739
1520.685
1517.630
1514.576
1511.521
1508.467
1505.412
1502.358
1499.303
1496.249
1493.194
1490.140
1487.085
1484.031
1480.976
1477.922
1474.867
1471.813
1468.758
1465.704
1462.649
1459.595
1456.540
1453.486
1450.431
1447.377
1444.322
1441.268
1438.213
1435.159
1432.104
1429.050
1425.995
1422.941
1419.886
1416.832
1413.777
1410.723
1407.668
1404.614
1401.559
1398.505
1395.450
1392.396
1389.341
1386.287
1383.232
1380.178
1377.123
1374.069
1371.014
1367.960
1364.905
1361.851
1358.796
1355.742
1352.687
1349.633
1346.578
1343.524
1340.469
1337.415
1334.360
1331.306
1328.251
1325.197
1322.142
1319.088
1316.033
1312.979
1309.924
1306.870
1303.815
1300.761
1297.706
1294.652
1291.597
1288.543
1285.488
1282.434
1279.379
1276.325
1273.270
1270.216
1267.161
1264.107
1261.052
1257.998
1254.943
1251.889
1248.834
1245.780
1242.725
1239.671
1236.616
1233.562
1230.507
1227.453
1224.398
1221.344
1218.289
1215.235
1212.180
1209.126
1206.071
1203.017
1199.962
1196.908
1193.853
1190.799
1187.744
1184.690
1181.635
1178.581
1175.526
1172.472
1169.417
1166.363
1163.308
1160.254
1157.199
1154.145
1151.090
1148.036
1144.981
1141.927
1138.872
1135.818
1132.763
1129.709
1126.654
1123.600
1120.545
1117.491
1114.436
1111.382
1108.327
1105.273
1102.218
1099.164
1096.109
1093.055
1090.000
1086.946
1083.891
1087.361
1090.831
1094.301
1097.771
1101.241
1104.711
1108.181
1111.651
1115.121
1118.591
1122.061
1125.531
1129.001
1132.471
1135.941
1139.411
1142.881
1146.351
1149.821
1153.291
1156.761
1160.231
1163.701
1167.171
1170.641
1174.111
1177.581
1181.051
1184.521
1187.991
1191.461
1194.931
1198.401
1201.871
1205.341
1208.811
1212.281
1215.751
1219.221
1222.691
1226.161
1229.631
1233.101
1236.571
1240.041
1243.511
1246.981
1250.451
1253.921
1257.391
1260.861
1264.331
1267.801
1271.271
1274.741
1278.211
1281.681
1285.151
1288.621
1292.091
1295.561
1299.031
1302.501
1305.971
1309.441
1312.911
1316.381
1319.851
1323.321
1326.791
1330.261
1333.731
1337.201
1340.671
1344.141
1347.611
1351.081
1354.551
1358.021
1361.491
1364.961
1368.431
1371.901
1375.371
1378.841
1382.311
1385.781
1389.251
1392.721
1396.191
1399.661
1403.131
1406.601
1410.071
1413.541
1417.011
1420.481
1423.951
1427.421
1430.891
1434.361
1437.831
1441.301
1444.771
1448.241
1451.711
1455.181
1458.651
1462.121
1465.591
1469.061
1472.531
1476.001
1479.471
1482.941
1486.411
1489.881
1493.351
1496.821
1500.291
1503.761
1507.231
1510.701
1514.171
1517.641
1521.111
1524.581
1528.051
1531.521
1534.991
1538.461
1541.931
1545.401
1548.871
1552.341
1555.811
1559.281
1562.751
1566.221
1569.691
1573.161
1576.631
