102.210
102.210
102.210
102.210
102.210
102.210
102.210
102.210
102.210
102.210
102.210
102.210
102.210
102.210
102.210
102.210
102.210
102.210
102.210
102.210
102.210
102.210
102.210
102.210
102.210
102.210
102.210
102.210
102.210
102.210
102.210
102.210
102.210
102.210
102.210
102.210
102.210
102.210
102.210
102.210
102.210
102.210
102.210
102.210
102.210
102.210
102.210
102.210
102.210
102.210
102.210
102.210
102.210
102.210
102.210
102.210
102.210
102.210
102.210
102.210
102.210
102.210
102.210
102.210
102.210
102.210
102.210
102.210
102.210
102.210
102.210
102.210
102.210
102.210
102.210
102.210
102.210
102.210
102.210
102.210
102.210
102.210
102.210
102.210
102.210
102.210
102.210
102.210
102.210
102.210
102.210
102.210
102.210
102.210
102.210
102.210
102.210
102.210
102.210
102.210
102.210
102.210
102.210
102.210
102.210
102.210
102.210
102.210
102.210
102.210
102.210
102.210
102.210
102.210
102.210
102.210
102.210
102.210
102.210
102.210
102.210
102.210
102.210
102.210
102.210
102.210
102.210
102.210
102.210
102.210
102.210
102.210
102.210
102.210
102.210
102.210
102.210
102.210
102.210
102.210
102.210
102.210
102.210
102.210
102.210
102.210
102.210
102.210
102.210
102.210
102.210
102.210
102.210
102.210
102.210
102.210
102.210
102.210
102.210
102.210
102.210
102.210
102.210
102.210
102.210
102.210
102.210
102.210
102.210
102.210
102.210
102.210
102.210
102.210
102.210
102.210
102.210
102.210
102.210
102.210
102.210
102.210
102.210
102.210
102.210
102.210
102.210
102.210
102.210
102.210
102.210
102.210
102.210
102.210
102.210
102.210
102.210
102.210
102.210
102.210
102.210
102.210
102.210
102.210
102.210
102.210
102.210
102.210
102.210
102.210
102.210
102.210
102.210
102.210
102.210
102.210
102.210
102.210
102.210
102.210
102.210
102.210
102.210
102.210
102.210
102.210
102.210
102.210
102.210
102.210
102.210
102.210
102.210
102.210
102.210
102.210
102.210
102.210
102.210
102.210
102.210
102.210
102.210
102.210
102.210
102.210
102.210
102.210
102.210
102.210
102.210
102.210
102.210
102.210
102.210
102.210
102.210
102.210
102.210
102.210
102.210
102.210
102.210
102.210
102.210
102.186
102.161
102.137
102.112
102.088
102.063
102.039
102.014
101.990
101.965
101.941
101.916
101.892
101.867
101.843
101.818
101.794
101.769
101.745
101.720
101.696
101.671
101.647
101.622
101.598
101.573
101.549
101.524
101.500
101.475
101.451
101.426
101.402
101.377
101.353
101.328
101.304
101.279
101.255
101.230
101.206
101.181
101.157
101.132
101.108
101.083
101.059
101.034
101.010
100.985
100.961
100.936
100.912
100.887
100.863
100.838
100.814
100.789
100.765
100.740
100.716
100.691
100.667
100.642
100.618
100.593
100.569
100.544
100.520
100.495
100.471
100.446
100.422
100.397
100.373
100.348
100.324
100.299
100.275
100.250
100.226
100.201
100.177
100.152
100.128
100.103
100.079
100.054
100.030
100.005
99.981
99.956
99.932
99.907
99.883
99.858
99.834
99.809
99.785
99.760
99.736
99.711
99.687
99.662
99.638
99.613
99.589
99.564
99.540
99.515
99.491
99.466
99.442
99.417
99.393
99.368
99.344
99.319
99.295
99.270
99.246
99.221
99.197
99.172
99.148
99.123
99.099
99.074
99.050
99.025
99.001
98.976
98.952
98.927
98.903
98.878
98.854
98.829
98.805
98.780
98.756
98.731
98.707
98.682
98.658
98.633
98.609
98.584
98.560
98.535
98.511
98.486
98.462
98.437
98.413
98.388
98.364
98.339
98.315
98.290
98.266
98.241
98.217
98.192
98.168
98.143
98.119
98.094
98.070
98.045
98.021
97.996
97.972
97.947
97.923
97.898
97.874
97.849
97.825
97.800
97.776
97.751
97.727
97.702
97.678
97.653
97.629
97.604
97.580
97.555
97.531
97.506
97.482
97.457
97.433
97.408
97.384
97.359
97.335
97.310
97.383
97.456
97.529
97.602
97.675
97.748
97.821
97.894
97.967
98.040
98.113
98.186
98.259
98.332
98.405
98.478
98.551
98.624
98.697
98.770
98.843
98.916
98.989
99.062
99.135
99.208
99.281
99.354
99.427
99.500
99.573
99.646
99.719
99.792
99.865
99.938
100.011
100.084
100.157
100.230
100.303
100.376
100.449
100.522
100.595
100.668
100.741
100.814
100.887
100.960
101.033
101.106
101.179
101.252
101.325
101.398
101.471
101.544
101.617
101.690
101.763
101.836
101.909
101.982
102.055
102.128
102.201
102.274
102.347
102.420
102.493
102.566
102.639
102.712
102.785
102.858
102.931
103.004
103.077
103.150
103.223
103.296
103.369
103.442
103.515
103.588
103.661
103.734
103.807
103.880
103.953
104.026
104.099
104.172
104.245
104.318
104.391
104.464
104.537
104.610
104.683
104.756
104.829
104.902
104.975
105.048
105.121
105.194
105.267
105.340
105.413
105.486
105.559
105.632
105.705
105.778
105.851
105.924
105.997
106.070
106.143
106.216
106.289
106.362
106.435
106.508
106.581
106.654
106.727
106.800
106.873
106.946
107.019
107.092
107.165
107.238
107.311
107.384
107.457
107.530
107.603
107.676
107.749
107.822
107.895
107.968
108.041
108.114
108.187
108.260
108.333
108.406
108.479
108.552
108.625
108.698
108.771
108.844
108.917
108.990
109.063
109.136
109.209
109.282
109.355
109.428
109.501
109.574
109.647
109.720
109.793
109.866
109.939
110.012
110.085
110.158
110.231
110.304
110.377
110.450
110.523
110.596
110.669
110.742
110.815
110.888
110.961
111.034
111.107
111.180
111.253
111.326
111.399
111.472
111.545
111.618
111.691
111.764
111.837
111.910
111.862
111.813
111.765
111.716
111.668
111.619
111.571
111.522
111.474
111.425
111.377
111.328
111.280
111.231
111.183
111.134
111.086
111.037
110.989
110.940
110.892
110.843
110.795
110.746
110.698
110.649
110.601
110.552
110.504
110.455
110.407
110.358
110.310
110.261
110.213
110.164
110.116
110.067
110.019
109.970
109.922
109.873
109.825
109.776
109.728
109.679
109.631
109.582
109.534
109.485
109.437
109.388
109.340
109.291
109.243
109.194
109.146
109.097
109.049
109.000
108.952
108.903
108.855
108.806
108.758
108.709
108.661
108.612
108.564
108.515
108.467
108.418
108.370
108.321
108.273
108.224
108.176
108.127
108.079
108.030
107.982
107.933
107.885
107.836
107.788
107.739
107.691
107.642
107.594
107.545
107.497
107.448
107.400
107.351
107.303
107.254
107.206
107.157
107.109
107.060
107.012
106.963
106.915
106.866
106.818
106.769
106.721
106.672
106.624
106.575
106.527
106.478
106.430
106.381
106.333
106.284
106.236
106.187
106.139
106.090
106.042
105.993
105.945
105.896
105.848
105.799
105.751
105.702
105.654
105.605
105.557
105.508
105.460
105.411
105.363
105.314
105.266
105.217
105.169
105.120
105.072
105.023
104.975
104.926
104.878
104.829
104.781
104.732
104.684
104.635
104.587
104.538
104.490
104.441
104.393
104.344
104.296
104.247
104.199
104.150
104.102
104.053
104.005
103.956
103.908
103.859
103.811
103.762
103.714
103.665
103.617
103.568
103.520
103.471
103.423
103.374
103.326
103.277
103.229
103.180
103.132
103.083
103.035
102.986
102.938
102.889
102.841
102.792
102.744
102.695
102.647
102.598
102.550
102.501
102.453
102.404
102.356
102.307
102.259
102.210
102.210
102.210
102.210
102.210
102.210
102.210
102.210
102.210
102.210
102.210
102.210
102.210
102.210
102.210
102.210
102.210
102.210
102.210
102.210
102.210
102.210
102.210
102.210
102.210
102.210
102.210
102.210
102.210
102.210
102.210
102.210
102.210
102.210
102.210
102.210
102.210
102.210
102.210
102.210
102.210
102.210
102.210
102.210
102.210
102.210
102.210
102.210
102.210
102.210
102.210
102.210
102.210
102.210
102.210
102.210
102.210
102.210
102.210
102.210
102.210
102.210
102.210
102.210
102.210
102.210
102.210
102.210
102.210
102.210
102.210
102.210
102.210
102.210
102.210
102.210
102.210
102.210
102.210
102.210
102.210
102.210
102.210
102.210
102.210
102.210
102.210
102.210
102.210
102.210
102.210
102.210
102.210
102.210
102.210
102.210
102.210
102.210
102.210
102.210
102.210
102.210
102.210
102.210
102.210
102.210
102.210
102.210
102.210
102.210
102.210
102.210
102.210
102.210
102.210
102.210
102.210
102.210
102.210
102.210
102.210
102.210
102.210
102.210
102.210
102.210
102.210
102.210
102.210
102.210
102.210
102.210
102.210
102.210
102.210
102.210
102.210
102.210
102.210
102.210
102.210
102.210
102.210
102.210
102.210
102.210
102.210
102.210
102.210
102.210
102.210
102.210
102.210
102.210
102.210
102.210
102.210
102.210
102.210
102.210
102.210
102.210
102.210
102.210
102.210
102.210
102.210
102.210
102.210
102.210
102.210
102.210
102.210
102.210
102.210
102.210
102.210
102.210
102.210
102.210
102.210
102.210
102.210
102.210
102.210
102.210
102.210
102.210
102.210
102.210
102.210
102.210
102.210
102.210
102.210
102.210
102.210
102.210
102.210
102.210
1861.710
1865.669
1869.628
1873.587
1877.546
1881.505
1885.464
1889.423
1893.382
1897.341
1901.300
1905.259
1909.218
1913.177
1917.136
1921.095
1925.054
1929.013
1932.972
1936.931
1940.890
1944.849
1948.808
1952.767
1956.726
1960.685
1964.644
1968.603
1972.562
1976.521
1980.480
1984.439
1988.398
1992.357
1996.316
2000.275
2004.234
2008.193
2012.152
2016.111
2020.070
2024.029
2027.988
2031.947
2035.906
2039.865
2043.824
2047.783
2051.742
2055.701
2059.660
2063.619
2067.578
2071.537
2075.496
2079.455
2083.414
2087.373
2091.332
2095.291
2099.250
2103.209
2107.168
2111.127
2115.086
2119.045
2123.004
2126.963
2130.922
2134.881
2138.840
2142.799
2146.758
2150.717
2154.676
2158.635
2162.594
2166.553
2170.512
2174.471
2178.430
2182.389
2186.348
2190.307
2194.266
2198.225
2202.184
2206.143
2210.102
2214.061
2218.020
2221.979
2225.938
2229.897
2233.856
2237.815
2241.774
2245.733
2249.692
2253.651
2257.610
2261.569
2265.528
2269.487
2273.446
2277.405
2281.364
2285.323
2289.282
2293.241
2297.200
2301.159
2305.118
2309.077
2313.036
2316.995
2320.954
2324.913
2328.872
2332.831
2336.790
2340.749
2344.708
2348.667
2352.626
2356.585
2360.544
2364.503
2368.462
2372.421
2376.380
2380.339
2384.298
2388.257
2392.216
2396.175
2400.134
2404.093
2408.052
2412.011
2415.970
2419.929
2423.888
2427.847
2431.806
2435.765
2439.724
2443.683
2447.642
2451.601
2455.560
2459.519
2463.478
2467.437
2471.396
2475.355
2479.314
2483.273
2487.232
2491.191
2495.150
2499.109
2503.068
2507.027
2510.986
2514.945
2518.904
2522.863
2526.822
2530.781
2534.740
2538.699
2542.658
2546.617
2550.576
2554.535
2558.494
2562.453
2566.412
2570.371
2574.330
2578.289
2582.248
2586.207
2590.166
2594.125
2598.084
2602.043
2606.002
2609.961
2613.920
2617.879
2621.838
2625.797
2629.756
2633.715
2637.674
2641.633
2645.592
2649.551
2653.510
2653.657
2653.803
2653.950
2654.096
2654.243
2654.389
2654.536
2654.682
2654.829
2654.975
2655.122
2655.268
2655.415
2655.561
2655.708
2655.854
2656.001
2656.147
2656.294
2656.440
2656.587
2656.733
2656.880
2657.026
2657.173
2657.319
2657.466
2657.612
2657.759
2657.905
2658.052
2658.198
2658.345
2658.491
2658.638
2658.784
2658.931
2659.077
2659.224
2659.370
2659.517
2659.663
2659.810
2659.956
2660.103
2660.249
2660.396
2660.542
2660.689
2660.835
2660.982
2661.128
2661.275
2661.421
2661.568
2661.714
2661.861
2662.007
2662.154
2662.300
2662.447
2662.593
2662.740
2662.886
2663.033
2663.179
2663.326
2663.472
2663.619
2663.765
2663.912
2664.058
2664.205
2664.351
2664.498
2664.644
2664.791
2664.937
2665.084
2665.230
2665.377
2665.523
2665.670
2665.816
2665.963
2666.109
2666.256
2666.402
2666.549
2666.695
2666.842
2666.988
2667.135
2667.281
2667.428
2667.574
2667.721
2667.867
2668.014
2668.160
2668.307
2668.453
2668.600
2668.746
2668.893
2669.039
2669.186
2669.332
2669.479
2669.625
2669.772
2669.918
2670.065
2670.211
2670.358
2670.504
2670.651
2670.797
2670.944
2671.090
2671.237
2671.383
2671.530
2671.676
2671.823
2671.969
2672.116
2672.262
2672.409
2672.555
2672.702
2672.848
2672.995
2673.141
2673.288
2673.434
2673.581
2673.727
2673.874
2674.020
2674.167
2674.313
2674.460
2674.606
2674.753
2674.899
2675.046
2675.192
2675.339
2675.485
2675.632
2675.778
2675.925
2676.071
2676.218
2676.364
2676.511
2676.657
2676.804
2676.950
2677.097
2677.243
2677.390
2677.536
2677.683
2677.829
2677.976
2678.122
2678.269
2678.415
2678.562
2678.708
2678.855
2679.001
2679.148
2679.294
2679.441
2679.587
2679.734
2679.880
2680.027
2680.173
2680.320
2680.466
2680.613
2680.759
2680.906
2681.052
2681.199
2681.345
2681.492
2681.638
2681.785
2681.931
2682.078
2682.224
2682.371
2682.517
2682.664
2682.810
2680.098
2677.385
2674.673
2671.960
2669.248
2666.535
2663.823
2661.110
2658.398
2655.685
2652.973
2650.260
2647.548
2644.835
2642.123
2639.410
2636.698
2633.985
2631.273
2628.560
2625.848
2623.135
2620.423
2617.710
2614.998
2612.285
2609.573
2606.860
2604.148
2601.435
2598.723
2596.010
2593.298
2590.585
2587.873
2585.160
2582.448
2579.735
2577.023
2574.310
2571.598
2568.885
2566.173
2563.460
2560.748
2558.035
2555.323
2552.610
2549.898
2547.185
2544.473
2541.760
2539.048
2536.335
2533.623
2530.910
2528.198
2525.485
2522.773
2520.060
2517.348
2514.635
2511.923
2509.210
2506.498
2503.785
2501.073
2498.360
2495.648
2492.935
2490.223
2487.510
2484.798
2482.085
2479.373
2476.660
2473.948
2471.235
2468.523
2465.810
2463.098
2460.385
2457.673
2454.960
2452.248
2449.535
2446.823
2444.110
2441.398
2438.685
2435.973
2433.260
2430.548
2427.835
2425.123
2422.410
2419.698
2416.985
2414.273
2411.560
2408.848
2406.135
2403.423
2400.710
2397.998
2395.285
2392.573
2389.860
2387.148
2384.435
2381.723
2379.010
2376.298
2373.585
2370.873
2368.160
2365.448
2362.735
2360.023
2357.310
2354.598
2351.885
2349.173
2346.460
2343.748
2341.035
2338.323
2335.610
2332.898
2330.185
2327.473
2324.760
2322.048
2319.335
2316.623
2313.910
2311.198
2308.485
2305.773
2303.060
2300.348
2297.635
2294.923
2292.210
2289.498
2286.785
2284.073
2281.360
2278.648
2275.935
2273.223
2270.510
2267.798
2265.085
2262.373
2259.660
2256.948
2254.235
2251.523
2248.810
2246.098
2243.385
2240.673
2237.960
2235.248
2232.535
2229.823
2227.110
2224.398
2221.685
2218.973
2216.260
2213.548
2210.835
2208.123
2205.410
2202.698
2199.985
2197.273
2194.560
2191.848
2189.135
2186.423
2183.710
2180.998
2178.285
2175.573
2172.860
2170.148
2167.435
2164.723
2162.010
2159.298
2156.585
2153.873
2151.160
2148.448
2145.735
2143.023
2140.310
2141.214
2142.118
2143.022
2143.926
2144.830
2145.734
2146.638
2147.542
2148.446
2149.350
2150.254
2151.158
2152.062
2152.966
2153.870
2154.774
2155.678
2156.582
2157.486
2158.390
2159.294
2160.198
2161.102
2162.006
2162.910
2163.814
2164.718
2165.622
2166.526
2167.430
2168.334
2169.238
2170.142
2171.046
2171.950
2172.854
2173.758
2174.662
2175.566
2176.470
2177.374
2178.278
2179.182
2180.086
2180.990
2181.894
2182.798
2183.702
2184.606
2185.510
2186.414
2187.318
2188.222
2189.126
2190.030
2190.934
2191.838
2192.742
2193.646
2194.550
2195.454
2196.358
2197.262
2198.166
2199.070
2199.974
2200.878
2201.782
2202.686
2203.590
2204.494
2205.398
2206.302
2207.206
2208.110
2209.014
2209.918
2210.822
2211.726
2212.630
2213.534
2214.438
2215.342
2216.246
2217.150
2218.054
2218.958
2219.862
2220.766
2221.670
2222.574
2223.478
2224.382
2225.286
2226.190
2227.094
2227.998
2228.902
2229.806
2230.710
2231.614
2232.518
2233.422
2234.326
2235.230
2236.134
2237.038
2237.942
2238.846
2239.750
2240.654
2241.558
2242.462
2243.366
2244.270
2245.174
2246.078
2246.982
2247.886
2248.790
2249.694
2250.598
2251.502
2252.406
2253.310
2254.214
2255.118
2256.022
2256.926
2257.830
2258.734
2259.638
2260.542
2261.446
2262.350
2263.254
2264.158
2265.062
2265.966
2266.870
2267.774
2268.678
2269.582
2270.486
2271.390
2272.294
2273.198
2274.102
2275.006
2275.910
2276.814
2277.718
2278.622
2279.526
2280.430
2281.334
2282.238
2283.142
2284.046
2284.950
2285.854
2286.758
2287.662
2288.566
2289.470
2290.374
2291.278
2292.182
2293.086
2293.990
2294.894
2295.798
2296.702
2297.606
2298.510
2299.414
2300.318
2301.222
2302.126
2303.030
2303.934
2304.838
2305.742
2306.646
2307.550
2308.454
2309.358
2310.262
2311.166
2312.070
2312.974
2313.878
2314.782
2315.686
2316.590
2317.494
2318.398
2319.302
2320.206
2321.110
2319.888
2318.666
2317.444
2316.222
2315.000
2313.778
2312.556
2311.334
2310.112
2308.890
2307.668
2306.446
2305.224
2304.002
2302.780
2301.558
2300.336
2299.114
2297.892
2296.670
2295.448
2294.226
2293.004
2291.782
2290.560
2289.338
2288.116
2286.894
2285.672
2284.450
2283.228
2282.006
2280.784
2279.562
2278.340
2277.118
2275.896
2274.674
2273.452
2272.230
2271.008
2269.786
2268.564
2267.342
2266.120
2264.898
2263.676
2262.454
2261.232
2260.010
2258.788
2257.566
2256.344
2255.122
2253.900
2252.678
2251.456
2250.234
2249.012
2247.790
2246.568
2245.346
2244.124
2242.902
2241.680
2240.458
2239.236
2238.014
2236.792
2235.570
2234.348
2233.126
2231.904
2230.682
2229.460
2228.238
2227.016
2225.794
2224.572
2223.350
2222.128
2220.906
2219.684
2218.462
2217.240
2216.018
2214.796
2213.574
2212.352
2211.130
2209.908
2208.686
2207.464
2206.242
2205.020
2203.798
2202.576
2201.354
2200.132
2198.910
2197.688
2196.466
2195.244
2194.022
2192.800
2191.578
2190.356
2189.134
2187.912
2186.690
2185.468
2184.246
2183.024
2181.802
2180.580
2179.358
2178.136
2176.914
2175.692
2174.470
2173.248
2172.026
2170.804
2169.582
2168.360
2167.138
2165.916
2164.694
2163.472
2162.250
2161.028
2159.806
2158.584
2157.362
2156.140
