96.357
96.333
96.308
96.284
96.259
96.235
96.210
96.186
96.161
96.137
96.112
96.088
96.063
96.039
96.014
95.990
95.965
95.941
95.916
95.892
95.867
95.843
95.818
95.794
95.769
95.745
95.720
95.696
95.671
95.647
95.622
95.598
95.573
95.549
95.524
95.500
95.475
95.451
95.426
95.402
95.377
95.353
95.328
95.304
95.279
95.255
95.230
95.206
95.181
95.157
95.132
95.108
95.083
95.059
95.034
95.010
94.985
94.961
94.936
94.912
94.887
94.863
94.838
94.814
94.789
94.765
94.740
94.716
94.691
94.667
94.642
94.618
94.593
94.569
94.544
94.520
94.495
94.471
94.446
94.422
94.397
94.373
94.348
94.324
94.299
94.275
94.250
94.226
94.201
94.177
94.152
94.128
94.103
94.079
94.054
94.030
94.005
93.981
93.956
93.932
93.907
93.883
93.858
93.834
93.809
93.785
93.760
93.736
93.711
93.687
93.662
93.638
93.613
93.589
93.564
93.540
93.515
93.491
93.466
93.442
93.417
93.393
93.368
93.344
93.319
93.295
93.270
93.246
93.221
93.197
93.172
93.148
93.123
93.099
93.074
93.050
93.025
93.001
92.976
92.952
92.927
92.903
92.878
92.854
92.927
93.000
93.073
93.146
93.219
93.292
93.365
93.438
93.511
93.584
93.657
93.730
93.803
93.876
93.949
94.022
94.095
94.168
94.241
94.314
94.387
94.460
94.533
94.606
94.679
94.752
94.825
94.898
94.971
95.044
95.117
95.190
95.263
95.336
95.409
95.482
95.555
95.628
95.701
95.774
95.847
95.920
95.993
96.066
96.139
96.212
96.285
96.358
96.431
96.504
96.577
96.650
96.723
96.796
96.869
96.942
97.015
97.088
97.161
97.234
97.307
97.380
97.453
97.526
97.599
97.672
97.745
97.818
97.891
97.964
98.037
98.110
98.183
98.256
98.329
98.402
98.475
98.548
98.621
98.694
98.767
98.840
98.913
98.986
99.059
99.132
99.205
99.278
99.351
99.424
99.497
99.570
99.643
99.716
99.789
99.862
99.935
100.008
100.081
100.154
100.227
100.300
100.373
100.446
100.519
100.592
100.665
100.738
100.811
100.884
100.957
101.030
101.103
101.176
101.249
101.322
101.395
101.468
101.541
101.614
101.687
101.760
101.833
101.906
101.979
102.052
102.125
102.198
102.271
102.344
102.417
102.490
102.563
102.636
102.709
102.782
102.855
102.928
103.001
103.074
103.147
103.220
103.293
103.366
103.439
103.512
103.585
103.658
103.731
103.804
103.877
103.950
104.023
104.096
104.169
104.242
104.315
104.388
104.461
104.534
104.607
104.680
104.753
104.826
104.899
104.972
105.045
105.118
105.191
105.264
105.337
105.410
105.483
105.556
105.629
105.702
105.775
105.848
105.921
105.994
106.067
106.140
106.213
106.286
106.359
106.432
106.505
106.578
106.651
106.724
106.797
106.870
106.943
107.016
107.089
107.162
107.235
107.308
107.381
107.454
107.405
107.357
107.308
107.260
107.211
107.163
107.114
107.066
107.017
106.969
106.920
106.872
106.823
106.775
106.726
106.678
106.629
106.581
106.532
106.484
106.435
106.387
106.338
106.290
106.241
106.193
106.144
106.096
106.047
105.999
105.950
105.902
105.853
105.805
105.756
105.708
105.659
105.611
105.562
105.514
105.465
105.417
105.368
105.320
105.271
105.223
105.174
105.126
105.077
105.029
104.980
104.932
104.883
104.835
104.786
104.738
104.689
104.641
104.592
104.544
104.495
104.447
104.398
104.350
104.301
104.253
104.204
104.156
104.107
104.059
104.010
103.962
103.913
103.865
103.816
103.768
103.719
103.671
103.622
103.574
103.525
103.477
103.428
103.380
103.331
103.283
103.234
103.186
103.137
103.089
103.040
102.992
102.943
102.895
102.846
102.798
102.749
102.701
102.652
102.604
102.555
102.507
102.458
102.410
102.361
102.313
102.264
102.216
102.167
102.119
102.070
102.022
101.973
101.925
101.876
101.828
101.779
101.731
101.682
101.634
101.585
101.537
101.488
101.440
101.391
101.343
101.294
101.246
101.197
101.149
101.100
101.052
101.003
100.955
100.906
100.858
100.809
100.761
100.712
100.664
100.615
100.567
100.518
100.470
100.421
100.373
100.324
100.276
100.227
100.179
100.130
100.082
100.033
99.985
99.936
99.888
99.839
99.791
99.742
99.694
99.645
99.597
99.548
99.500
99.451
99.403
99.354
99.306
99.257
99.209
99.160
99.112
99.063
99.015
98.966
98.918
98.869
98.821
98.772
98.724
98.675
98.627
98.578
98.530
98.481
98.433
98.384
98.336
98.287
98.239
98.190
98.142
98.093
98.045
97.996
97.948
97.899
97.851
97.802
97.754
97.754
97.754
97.754
97.754
97.754
97.754
97.754
97.754
97.754
97.754
97.754
97.754
97.754
97.754
97.754
97.754
97.754
97.754
97.754
97.754
97.754
97.754
97.754
97.754
97.754
97.754
97.754
97.754
97.754
97.754
97.754
97.754
97.754
97.754
97.754
97.754
97.754
97.754
97.754
97.754
97.754
97.754
97.754
97.754
97.754
97.754
97.754
97.754
97.754
97.754
97.754
97.754
97.754
97.754
97.754
97.754
97.754
97.754
97.754
97.754
97.754
97.754
97.754
97.754
97.754
97.754
97.754
97.754
97.754
97.754
97.754
97.754
97.754
97.754
97.754
97.754
97.754
97.754
97.754
97.754
97.754
97.754
97.754
97.754
97.754
97.754
97.754
97.754
97.754
97.754
97.754
97.754
97.754
97.754
97.754
97.754
97.754
97.754
97.754
97.754
97.754
97.754
97.754
97.754
97.754
97.754
97.754
97.754
97.754
97.754
97.754
97.754
97.754
97.754
97.754
97.754
97.754
97.754
97.754
97.754
97.754
97.754
97.754
97.754
97.754
97.754
97.754
97.754
97.754
97.754
97.754
97.754
97.754
97.754
97.754
97.754
97.754
97.754
97.754
97.754
97.754
97.754
97.754
97.754
97.754
97.754
97.754
97.754
97.754
97.754
97.754
97.754
97.754
97.754
97.754
97.754
97.754
97.754
97.754
97.754
97.754
97.754
97.754
97.754
97.754
97.754
97.754
97.754
97.754
97.754
97.754
97.754
97.754
97.754
97.754
97.754
97.754
97.754
97.754
97.754
97.754
97.754
97.754
97.754
97.754
97.754
97.754
97.754
97.754
97.754
97.754
97.754
97.754
97.754
97.754
97.754
97.754
97.754
97.754
356.754
362.155
367.556
372.957
378.358
383.759
389.160
394.561
399.962
405.363
410.764
416.165
421.566
426.967
432.368
437.769
443.170
448.571
453.972
459.373
464.774
470.175
475.576
480.977
486.378
491.779
497.180
502.581
507.982
513.383
518.784
524.185
529.586
534.987
540.388
545.789
551.190
556.591
561.992
567.393
572.794
578.195
583.596
588.997
594.398
599.799
605.200
610.601
616.002
621.403
626.804
632.205
637.606
643.007
648.408
653.809
659.210
664.611
670.012
675.413
680.814
686.215
691.616
697.017
702.418
707.819
713.220
718.621
724.022
729.423
734.824
740.225
745.626
751.027
756.428
761.829
767.230
772.631
778.032
783.433
788.834
794.235
799.636
805.037
810.438
815.839
821.240
826.641
832.042
837.443
842.844
848.245
853.646
859.047
864.448
869.849
875.250
880.651
886.052
891.453
896.854
902.255
907.656
913.057
918.458
923.859
929.260
934.661
940.062
945.463
950.864
956.265
961.666
967.067
972.468
977.869
983.270
988.671
994.072
999.473
1004.874
1010.275
1015.676
1021.077
1026.478
1031.879
1037.280
1042.681
1048.082
1053.483
1058.884
1064.285
1069.686
1075.087
1080.488
1085.889
1091.290
1096.691
1102.092
1107.493
1112.894
1118.295
1123.696
1129.097
1134.498
1139.899
1145.300
1150.701
1156.102
1161.503
1166.904
1172.305
1177.706
1183.107
1188.508
1193.909
1199.310
1204.711
1210.112
1215.513
1220.914
1226.315
1231.716
1237.117
1242.518
1247.919
1253.320
1258.721
1264.122
1269.523
1274.924
1280.325
1285.726
1291.127
1296.528
1301.929
1307.330
1312.731
1318.132
1323.533
1328.934
1334.335
1339.736
1345.137
1350.538
1355.939
1361.340
1366.741
1372.142
1377.543
1382.944
1388.345
1393.746
1399.147
1404.548
1409.949
1415.350
1420.751
1426.152
1431.553
1436.954
1439.055
1441.157
1443.258
1445.360
1447.461
1449.563
1451.664
1453.766
1455.867
1457.969
1460.070
1462.172
1464.273
1466.375
1468.476
1470.578
1472.679
1474.781
1476.882
1478.984
1481.085
1483.187
1485.288
1487.390
1489.491
1491.593
1493.694
1495.796
1497.897
1499.999
1502.100
1504.202
1506.303
1508.405
1510.506
1512.608
1514.709
1516.811
1518.912
1521.014
1523.115
1525.217
1527.318
1529.420
1531.521
1533.623
1535.724
1537.826
1539.927
1542.029
1544.130
1546.232
1548.333
1550.435
1552.536
1554.638
1556.739
1558.841
1560.942
1563.044
1565.145
1567.247
1569.348
1571.450
1573.551
1575.653
1577.754
1579.856
1581.957
1584.059
1586.160
1588.262
1590.363
1592.465
1594.566
1596.668
1598.769
1600.871
1602.972
1605.074
1607.175
1609.277
1611.378
1613.480
1615.581
1617.683
1619.784
1621.886
1623.987
1626.089
1628.190
1630.292
1632.393
1634.495
1636.596
1638.698
1640.799
1642.901
1645.002
1647.104
1649.205
1651.307
1653.408
1655.510
1657.611
1659.713
1661.814
1663.916
1666.017
1668.119
1670.220
1672.322
1674.423
1676.525
1678.626
1680.728
1682.829
1684.931
1687.032
1689.134
1691.235
1693.337
1695.438
1697.540
1699.641
1701.743
1703.844
1705.946
1708.047
1710.149
1712.250
1714.352
1716.453
1718.555
1720.656
1722.758
1724.859
1726.961
1729.062
1731.164
1733.265
1735.367
1737.468
1739.570
1741.671
1743.773
1745.874
1747.976
1750.077
1752.179
1754.280
1756.382
1758.483
1760.585
1762.686
1764.788
1766.889
1768.991
1771.092
1773.194
1775.295
1777.397
1779.498
1781.600
1783.701
1785.803
1787.904
1790.006
1792.107
1794.209
1796.310
1798.412
1800.513
1802.615
1804.716
1806.818
1808.919
1811.021
1813.122
1815.224
1817.325
1819.427
1821.528
1823.630
1825.731
1827.833
1829.934
1832.036
1834.137
1836.239
1838.340
1840.442
1842.543
1844.645
1846.746
1848.848
1850.949
1853.051
1855.152
1857.254
1861.213
1865.172
1869.131
1873.090
1877.049
1881.008
1884.967
1888.926
1892.885
1896.844
1900.803
1904.762
1908.721
1912.680
1916.639
1920.598
1924.557
1928.516
1932.475
1936.434
1940.393
1944.352
1948.311
1952.270
1956.229
1960.188
1964.147
1968.106
1972.065
1976.024
1979.983
1983.942
1987.901
1991.860
1995.819
1999.778
2003.737
2007.696
2011.655
2015.614
2019.573
2023.532
2027.491
2031.450
2035.409
2039.368
2043.327
2047.286
2051.245
2055.204
2059.163
2063.122
2067.081
2071.040
2074.999
2078.958
2082.917
2086.876
2090.835
2094.794
2098.753
2102.712
2106.671
2110.630
2114.589
2118.548
2122.507
2126.466
2130.425
2134.384
2138.343
2142.302
2146.261
2150.220
2154.179
2158.138
2162.097
2166.056
2170.015
2173.974
2177.933
2181.892
2185.851
2189.810
2193.769
2197.728
2201.687
2205.646
2209.605
2213.564
2217.523
2221.482
2225.441
2229.400
2233.359
2237.318
2241.277
2245.236
2249.195
2253.154
2257.113
2261.072
2265.031
2268.990
2272.949
2276.908
2280.867
2284.826
2288.785
2292.744
2296.703
2300.662
2304.621
2308.580
2312.539
2316.498
2320.457
2324.416
2328.375
2332.334
2336.293
2340.252
2344.211
2348.170
2352.129
2356.088
2360.047
2364.006
2367.965
2371.924
2375.883
2379.842
2383.801
2387.760
2391.719
2395.678
2399.637
2403.596
2407.555
2411.514
2415.473
2419.432
2423.391
2427.350
2431.309
2435.268
2439.227
2443.186
2447.145
2451.104
2455.063
2459.022
2462.981
2466.940
2470.899
2474.858
2478.817
2482.776
2486.735
2490.694
2494.653
2498.612
2502.571
2506.530
2510.489
2514.448
2518.407
2522.366
2526.325
2530.284
2534.243
2538.202
2542.161
2546.120
2550.079
2554.038
2557.997
2561.956
2565.915
2569.874
2573.833
2577.792
2581.751
2585.710
2589.669
2593.628
2597.587
2601.546
2605.505
2609.464
2613.423
2617.382
2621.341
2625.300
2629.259
2633.218
2637.177
2641.136
2645.095
2649.054
2649.200
2649.347
2649.493
2649.640
2649.786
2649.933
2650.079
2650.226
2650.372
2650.519
2650.665
2650.812
2650.958
2651.105
2651.251
2651.398
2651.544
2651.691
2651.837
2651.984
2652.130
2652.277
2652.423
2652.570
2652.716
2652.863
2653.009
2653.156
2653.302
2653.449
2653.595
2653.742
2653.888
2654.035
2654.181
2654.328
2654.474
2654.621
2654.767
2654.914
2655.060
2655.207
2655.353
2655.500
2655.646
2655.793
2655.939
2656.086
2656.232
2656.379
2656.525
2656.672
2656.818
2656.965
2657.111
2657.258
2657.404
2657.551
2657.697
2657.844
2657.990
2658.137
2658.283
2658.430
2658.576
2658.723
2658.869
2659.016
2659.162
2659.309
2659.455
2659.602
2659.748
2659.895
2660.041
2660.188
2660.334
2660.481
2660.627
2660.774
2660.920
2661.067
2661.213
2661.360
2661.506
2661.653
2661.799
2661.946
2662.092
2662.239
2662.385
2662.532
2662.678
2662.825
2662.971
2663.118
2663.264
2663.411
2663.557
2663.704
2663.850
2663.997
2664.143
2664.290
2664.436
2664.583
2664.729
2664.876
2665.022
2665.169
2665.315
2665.462
2665.608
2665.755
2665.901
2666.048
2666.194
2666.341
2666.487
2666.634
2666.780
2666.927
2667.073
2667.220
2667.366
2667.513
2667.659
2667.806
2667.952
2668.099
2668.245
2668.392
2668.538
2668.685
2668.831
2668.978
2669.124
2669.271
2669.417
2669.564
2669.710
2669.857
2670.003
2670.150
2670.296
2670.443
2670.589
2670.736
2670.882
2671.029
2671.175
2671.322
2671.468
2671.615
2671.761
2671.908
2672.054
2672.201
2672.347
2672.494
2672.640
2672.787
2672.933
2673.080
2673.226
2673.373
2673.519
2673.666
2673.812
2673.959
2674.105
2674.252
2674.398
2674.545
2674.691
2674.838
2674.984
2675.131
2675.277
2675.424
2675.570
2675.717
2675.863
2676.010
2676.156
2676.303
2676.449
2676.596
2676.742
2676.889
2677.035
2677.182
2677.328
2677.475
2677.621
2677.768
2677.914
2678.061
2678.207
2678.354
2675.641
2672.929
2670.216
2667.504
2664.791
2662.079
2659.366
2656.654
2653.941
2651.229
2648.516
2645.804
2643.091
2640.379
2637.666
2634.954
2632.241
2629.529
2626.816
2624.104
2621.391
2618.679
2615.966
2613.254
2610.541
2607.829
2605.116
2602.404
2599.691
2596.979
2594.266
2591.554
2588.841
2586.129
2583.416
2580.704
2577.991
2575.279
2572.566
2569.854
2567.141
2564.429
2561.716
2559.004
2556.291
2553.579
2550.866
2548.154
2545.441
2542.729
2540.016
2537.304
2534.591
2531.879
2529.166
2526.454
2523.741
2521.029
2518.316
2515.604
2512.891
2510.179
2507.466
2504.754
2502.041
2499.329
2496.616
2493.904
2491.191
2488.479
2485.766
2483.054
2480.341
2477.629
2474.916
2472.204
2469.491
2466.779
2464.066
2461.354
2458.641
2455.929
2453.216
2450.504
2447.791
2445.079
2442.366
2439.654
2436.941
2434.229
2431.516
2428.804
2426.091
2423.379
2420.666
2417.954
2415.241
2412.529
2409.816
2407.104
2404.391
2401.679
2398.966
2396.254
2393.541
2390.829
2388.116
2385.404
2382.691
2379.979
2377.266
2374.554
2371.841
2369.129
2366.416
2363.704
2360.991
2358.279
2355.566
2352.854
2350.141
2347.429
2344.716
2342.004
2339.291
2336.579
2333.866
2331.154
2328.441
2325.729
2323.016
2320.304
2317.591
2314.879
2312.166
2309.454
2306.741
2304.029
2301.316
2298.604
2295.891
2293.179
2290.466
2287.754
2285.041
2282.329
2279.616
2276.904
2274.191
2271.479
2268.766
2266.054
2263.341
2260.629
2257.916
2255.204
2252.491
2249.779
2247.066
2244.354
2241.641
2238.929
2236.216
2233.504
2230.791
2228.079
2225.366
2222.654
2219.941
2217.229
2214.516
2211.804
2209.091
2206.379
2203.666
2200.954
2198.241
2195.529
2192.816
2190.104
2187.391
2184.679
2181.966
2179.254
2176.541
2173.829
2171.116
2168.404
2165.691
2162.979
2160.266
2157.554
2154.841
2152.129
2149.416
2146.704
2143.991
2141.279
2138.566
2135.854
2136.758
2137.662
2138.566
2139.470
2140.374
2141.278
2142.182
2143.086
2143.990
2144.894
2145.798
2146.702
2147.606
2148.510
2149.414
2150.318
2151.222
2152.126
2153.030
2153.934
2154.838
2155.742
2156.646
2157.550
2158.454
2159.358
2160.262
2161.166
2162.070
2162.974
2163.878
2164.782
2165.686
2166.590
2167.494
2168.398
2169.302
2170.206
2171.110
2172.014
2172.918
2173.822
2174.726
2175.630
2176.534
2177.438
2178.342
2179.246
2180.150
2181.054
2181.958
2182.862
2183.766
2184.670
2185.574
2186.478
2187.382
2188.286
2189.190
2190.094
2190.998
2191.902
2192.806
2193.710
2194.614
2195.518
2196.422
2197.326
2198.230
2199.134
2200.038
2200.942
2201.846
2202.750
2203.654
2204.558
2205.462
2206.366
2207.270
2208.174
2209.078
2209.982
2210.886
2211.790
2212.694
2213.598
2214.502
2215.406
2216.310
2217.214
2218.118
2219.022
2219.926
2220.830
2221.734
2222.638
2223.542
2224.446
2225.350
2226.254
2227.158
2228.062
2228.966
2229.870
2230.774
2231.678
2232.582
2233.486
2234.390
2235.294
2236.198
2237.102
2238.006
2238.910
2239.814
2240.718
2241.622
2242.526
2243.430
2244.334
2245.238
2246.142
2247.046
2247.950
2248.854
2249.758
2250.662
2251.566
2252.470
2253.374
2254.278
2255.182
2256.086
2256.990
2257.894
2258.798
2259.702
2260.606
2261.510
2262.414
2263.318
2264.222
2265.126
2266.030
2266.934
2267.838
2268.742
2269.646
2270.550
2271.454
2272.358
2273.262
2274.166
2275.070
2275.974
2276.878
2277.782
2278.686
2279.590
2280.494
2281.398
2282.302
2283.206
2284.110
2285.014
2285.918
2286.822
2287.726
2288.630
2289.534
2290.438
2291.342
2292.246
2293.150
2294.054
2294.958
2295.862
2296.766
2297.670
2298.574
2299.478
2300.382
2301.286
2302.190
2303.094
2303.998
2304.902
2305.806
2306.710
2307.614
2308.518
2309.422
2310.326
2311.230
2312.134
2313.038
2313.942
2314.846
2315.750
2316.654
2315.432
2314.210
2312.988
2311.766
2310.544
2309.322
2308.100
2306.878
2305.656
2304.434
2303.212
2301.990
2300.768
2299.546
2298.324
2297.102
2295.880
2294.658
2293.436
2292.214
2290.992
2289.770
2288.548
2287.326
2286.104
2284.882
2283.660
2282.438
2281.216
2279.994
2278.772
2277.550
2276.328
2275.106
2273.884
2272.662
2271.440
2270.218
2268.996
2267.774
2266.552
2265.330
2264.108
2262.886
2261.664
2260.442
2259.220
2257.998
2256.776
2255.554
2254.332
2253.110
2251.888
2250.666
2249.444
2248.222
