94.800
94.825
94.849
94.874
94.898
94.923
94.947
94.972
94.996
95.021
95.045
95.070
95.094
95.119
95.143
95.168
95.192
95.217
95.241
95.266
95.290
95.315
95.339
95.364
95.388
95.413
95.437
95.462
95.486
95.511
95.535
95.560
95.584
95.609
95.633
95.658
95.682
95.707
95.731
95.756
95.780
95.805
95.829
95.854
95.878
95.903
95.927
95.952
95.976
96.001
96.025
96.050
96.074
96.099
96.099
96.099
96.099
96.099
96.099
96.099
96.099
96.099
96.099
96.099
96.099
96.099
96.099
96.099
96.099
96.099
96.099
96.099
96.099
96.099
96.099
96.099
96.099
96.099
96.099
96.099
96.099
96.099
96.099
96.099
96.099
96.099
96.099
96.099
96.099
96.099
96.099
96.099
96.099
96.099
96.099
96.099
96.099
96.099
96.099
96.099
96.099
96.099
96.099
96.099
96.099
96.099
96.099
96.099
96.099
96.099
96.099
96.099
96.099
96.099
96.099
96.099
96.099
96.099
96.099
96.099
96.099
96.099
96.099
96.099
96.099
96.099
96.099
96.099
96.099
96.099
96.099
96.099
96.099
96.099
96.099
96.099
96.099
96.099
96.099
96.099
96.099
96.099
96.099
96.099
96.099
96.099
96.099
96.099
96.099
96.099
96.099
96.099
96.099
96.099
96.099
96.099
96.099
96.099
96.099
96.099
96.099
96.099
96.099
96.099
96.099
96.099
96.099
96.099
96.099
96.099
96.099
96.099
96.099
96.099
96.099
96.099
96.099
96.099
96.099
96.099
96.099
96.099
96.099
96.099
96.099
96.099
96.099
96.099
96.099
96.099
96.099
96.099
96.099
96.099
96.099
96.099
96.099
96.099
96.099
96.099
96.099
96.099
96.099
96.099
96.099
96.099
96.099
96.099
96.099
96.099
96.099
96.099
96.099
96.099
96.099
96.099
96.099
96.099
96.099
96.099
96.099
96.099
96.099
96.099
96.099
96.099
96.099
96.099
96.099
96.099
96.099
96.099
96.099
96.099
96.099
96.099
96.099
96.099
96.099
96.099
96.099
96.099
96.099
96.099
96.099
96.099
96.099
96.099
96.099
96.099
96.099
96.099
96.099
96.099
96.074
96.050
96.025
96.001
95.976
95.952
95.927
95.903
95.878
95.854
95.829
95.805
95.780
95.756
95.731
95.707
95.682
95.658
95.633
95.609
95.584
95.560
95.535
95.511
95.486
95.462
95.437
95.413
95.388
95.364
95.339
95.315
95.290
95.266
95.241
95.217
95.192
95.168
95.143
95.119
95.094
95.070
95.045
95.021
94.996
94.972
94.947
94.923
94.898
94.874
94.849
94.825
94.800
94.776
94.751
94.727
94.702
94.678
94.653
94.629
94.604
94.580
94.555
94.531
94.506
94.482
94.457
94.433
94.408
94.384
94.359
94.335
94.310
94.286
94.261
94.237
94.212
94.188
94.163
94.139
94.114
94.090
94.065
94.041
94.016
93.992
93.967
93.943
93.918
93.894
93.869
93.845
93.820
93.796
93.771
93.747
93.722
93.698
93.673
93.649
93.624
93.600
93.575
93.551
93.526
93.502
93.477
93.453
93.428
93.404
93.379
93.355
93.330
93.306
93.281
93.257
93.232
93.208
93.183
93.159
93.134
93.110
93.085
93.061
93.036
93.012
92.987
92.963
92.938
92.914
92.889
92.865
92.840
92.816
92.791
92.767
92.742
92.718
92.693
92.669
92.644
92.620
92.595
92.571
92.546
92.522
92.497
92.473
92.448
92.424
92.399
92.375
92.350
92.326
92.301
92.277
92.252
92.228
92.203
92.179
92.154
92.130
92.105
92.081
92.056
92.032
92.007
91.983
91.958
91.934
91.909
91.885
91.860
91.836
91.811
91.787
91.762
91.738
91.713
91.689
91.664
91.640
91.615
91.591
91.566
91.542
91.517
91.493
91.468
91.444
91.419
91.395
91.370
91.346
91.321
91.297
91.272
91.248
91.223
91.199
91.223
91.248
91.272
91.297
91.321
91.346
91.370
91.395
91.419
91.444
91.468
91.493
91.517
91.542
91.566
91.591
91.615
91.640
91.664
91.689
91.713
91.738
91.762
91.787
91.811
91.836
91.860
91.885
91.909
91.934
91.958
91.983
92.007
92.032
92.056
92.081
92.105
92.130
92.154
92.179
92.203
92.228
92.252
92.277
92.301
92.326
92.350
92.375
92.399
92.424
92.448
92.473
92.497
92.522
92.546
92.571
92.595
92.620
92.644
92.669
92.693
92.718
92.742
92.767
92.791
92.816
92.840
92.865
92.889
92.914
92.938
92.963
92.987
93.012
93.036
93.061
93.085
93.110
93.134
93.159
93.183
93.208
93.232
93.257
93.281
93.306
93.330
93.355
93.379
93.404
93.428
93.453
93.477
93.502
93.526
93.551
93.575
93.600
93.624
93.649
93.673
93.698
93.722
93.747
93.771
93.796
93.820
93.845
93.869
93.894
93.918
93.943
93.967
93.992
94.016
94.041
94.065
94.090
94.114
94.139
94.163
94.188
94.212
94.237
94.261
94.286
94.310
94.335
94.359
94.384
94.408
94.433
94.457
94.482
94.506
94.531
94.555
94.580
94.604
94.629
94.653
94.678
94.702
94.727
94.751
94.776
94.800
94.825
94.849
94.874
94.898
94.923
94.947
94.972
94.996
95.021
95.045
95.070
95.094
95.119
95.143
95.168
95.192
95.217
95.241
95.266
95.290
95.315
95.339
95.364
95.388
95.413
95.437
95.462
95.486
95.511
95.535
95.560
95.584
95.609
95.633
95.658
95.682
95.707
95.731
95.756
95.780
95.805
95.829
95.854
95.878
95.903
95.927
95.952
95.976
96.001
96.025
96.050
96.074
96.099
96.099
96.099
96.099
96.099
96.099
96.099
96.099
96.099
96.099
96.099
96.099
96.099
96.099
96.099
96.099
96.099
96.099
96.099
96.099
96.099
96.099
96.099
96.099
96.099
96.099
96.099
96.099
96.099
96.099
96.099
96.099
96.099
96.099
96.099
96.099
96.099
96.099
96.099
96.099
96.099
96.099
96.099
96.099
96.099
96.099
96.099
96.099
96.099
96.099
96.099
96.099
96.099
96.099
96.099
96.099
96.099
96.099
96.099
96.099
96.099
96.099
96.099
96.099
96.099
96.099
96.099
96.099
96.099
96.099
96.099
96.099
96.099
96.099
96.099
96.099
96.099
96.099
96.099
96.099
96.099
96.099
96.099
96.099
96.099
96.099
96.099
96.099
96.099
96.099
96.099
96.099
96.099
96.099
96.099
96.099
96.099
96.099
96.099
96.099
96.099
96.099
96.099
96.099
96.099
96.099
96.099
96.099
96.099
96.099
96.099
96.099
96.099
96.099
96.099
96.099
96.099
96.099
96.099
96.099
96.099
96.099
96.099
96.099
96.099
96.099
96.099
96.099
96.099
96.099
96.099
96.099
96.099
96.099
96.099
96.099
96.099
96.099
96.099
96.099
96.099
96.099
96.099
96.099
96.099
96.099
96.099
96.099
96.099
96.099
96.099
96.099
96.099
96.099
96.099
96.099
96.099
96.099
96.099
96.099
96.099
96.099
96.099
96.099
96.099
96.099
96.099
96.099
96.099
96.099
96.099
96.099
96.099
96.099
96.099
96.099
96.099
96.099
96.099
96.099
96.099
96.099
96.099
96.099
96.099
96.099
96.099
96.099
96.099
96.099
96.099
96.099
96.099
96.099
96.099
96.099
96.099
96.099
96.099
96.099
96.099
96.099
96.099
96.099
96.099
96.099
96.099
96.099
96.099
96.099
96.099
96.099
96.099
96.099
96.099
96.099
96.099
96.099
96.099
96.099
96.099
96.099
96.099
96.099
96.099
96.099
96.099
96.099
96.099
96.099
96.099
96.099
96.099
96.099
96.099
96.099
96.099
96.099
96.099
96.099
96.099
96.099
96.099
96.099
96.099
96.099
96.099
96.099
96.099
96.099
96.099
96.099
96.099
96.099
96.099
96.099
96.099
96.099
96.099
96.099
96.099
96.099
96.099
96.099
96.099
96.099
96.099
96.099
96.099
96.099
96.099
96.099
96.099
96.099
96.099
96.099
96.099
96.099
96.099
96.099
96.099
96.099
96.099
96.099
96.099
96.099
96.099
96.099
96.099
96.099
96.099
96.099
96.099
96.099
96.099
96.099
96.099
96.099
96.099
96.099
96.099
96.099
96.099
96.099
96.099
96.099
96.099
96.099
96.099
96.099
96.099
96.099
96.099
96.099
96.099
96.099
96.099
96.099
96.099
96.099
96.099
96.099
96.099
96.099
96.099
96.099
96.099
96.099
96.099
96.099
96.099
96.099
96.099
96.099
96.099
96.099
96.099
96.099
96.099
96.099
96.099
96.099
96.099
96.099
96.099
96.099
96.099
96.099
96.099
96.099
96.099
96.099
96.099
96.099
96.099
96.099
96.099
96.099
96.099
96.099
96.099
96.099
96.099
96.099
96.099
96.099
96.099
96.099
96.099
96.099
96.099
96.099
96.099
96.099
96.099
96.099
96.099
96.099
96.099
96.099
96.099
96.099
96.099
96.099
96.099
96.099
96.099
96.099
96.099
96.099
96.099
96.099
96.099
96.099
96.099
96.099
96.099
96.099
96.099
96.099
912.299
914.132
915.965
917.798
919.631
921.464
923.297
925.130
926.963
928.796
930.629
932.462
934.295
936.128
937.961
939.794
941.627
943.460
945.293
947.126
948.959
950.792
952.625
954.458
956.291
958.124
959.957
961.790
963.623
965.456
967.289
969.122
970.955
972.788
974.621
976.454
978.287
980.120
981.953
983.786
985.619
987.452
989.285
991.118
992.951
994.784
996.617
998.450
1000.283
1002.116
1003.949
1005.782
1007.615
1009.448
1011.281
1013.114
1014.947
1016.780
1018.613
1020.446
1022.279
1024.112
1025.945
1027.778
1029.611
1031.444
1033.277
1035.110
1036.943
1038.776
1040.609
1042.442
1044.275
1046.108
1047.941
1049.774
1051.607
1053.440
1055.273
1057.106
1058.939
1060.772
1062.605
1064.438
1066.271
1068.104
1069.937
1071.770
1073.603
1075.436
1077.269
1079.102
1080.935
1082.768
1084.601
1086.434
1088.267
1090.100
1091.933
1093.766
1095.599
1097.432
1099.265
1101.098
1102.931
1104.764
1106.597
1108.430
1110.263
1112.096
1113.929
1115.762
1117.595
1119.428
1121.261
1123.094
1124.927
1126.760
1128.593
1130.426
1132.259
1134.092
1135.925
1137.758
1139.591
1141.424
1143.257
1145.090
1146.923
1148.756
1150.589
1152.422
1154.255
1156.088
1157.921
1159.754
1161.587
1163.420
1165.253
1167.086
1168.919
1170.752
1172.585
1174.418
1176.251
1178.084
1179.917
1181.750
1183.583
1185.416
1187.249
1189.082
1190.915
1192.748
1194.581
1196.414
1198.247
1200.080
1201.913
1203.746
1205.579
1207.412
1209.245
1211.078
1212.911
1214.744
1216.577
1218.410
1220.243
1222.076
1223.909
1225.742
1227.575
1229.408
1231.241
1233.074
1234.907
1236.740
1238.573
1240.406
1242.239
1244.072
1245.905
1247.738
1249.571
1251.404
1253.237
1255.070
1256.903
1258.736
1260.569
1262.402
1264.235
1266.068
1267.901
1269.734
1271.567
1273.400
1275.233
1277.066
1278.899
1284.617
1290.336
1296.054
1301.773
1307.491
1313.210
1318.928
1324.647
1330.365
1336.084
1341.802
1347.521
1353.239
1358.958
1364.676
1370.395
1376.113
1381.832
1387.550
1393.269
1398.987
1404.706
1410.424
1416.143
1421.861
1427.580
1433.298
1439.017
1444.735
1450.454
1456.172
1461.891
1467.609
1473.328
1479.046
1484.765
1490.483
1496.202
1501.920
1507.639
1513.357
1519.076
1524.794
1530.513
1536.231
1541.950
1547.668
1553.387
1559.105
1564.824
1570.542
1576.261
1581.979
1587.698
1593.416
1599.135
1604.853
1610.572
1616.290
1622.009
1627.727
1633.446
1639.164
1644.883
1650.601
1656.320
1662.038
1667.757
1673.475
1679.194
1684.912
1690.631
1696.349
1702.068
1707.786
1713.505
1719.223
1724.942
1730.660
1736.379
1742.097
1747.816
1753.534
1759.253
1764.971
1770.690
1776.408
1782.127
1787.845
1793.564
1799.282
1805.001
1810.719
1816.438
1822.156
1827.875
1833.593
1839.312
1845.030
1850.749
1856.467
1862.186
1867.904
1873.623
1879.341
1885.060
1890.778
1896.497
1902.215
1907.934
1913.652
1919.371
1925.089
1930.808
1936.526
1942.245
1947.963
1953.682
1959.400
1965.119
1970.837
1976.556
1982.274
1987.993
1993.711
1999.430
2005.148
2010.867
2016.585
2022.304
2028.022
2033.741
2039.459
2045.178
2050.896
2056.615
2062.333
2068.052
2073.770
2079.489
2085.207
2090.926
2096.644
2102.363
2108.081
2113.800
2119.518
2125.237
2130.955
2136.674
2142.392
2148.111
2153.829
2159.548
2165.266
2170.985
2176.703
2182.422
2188.140
2193.859
2199.577
2205.296
2211.014
2216.733
2222.451
2228.170
2233.888
2239.607
2245.325
2251.044
2256.762
2262.481
2268.199
2273.918
2279.636
2285.355
2291.073
2296.792
2302.510
2308.229
2313.947
2319.666
2325.384
2331.103
2336.821
2342.540
2348.258
2353.977
2359.695
2365.414
2371.132
2376.851
2382.569
2388.288
2394.006
2399.725
2405.443
2411.162
2416.880
2422.599
2418.933
2415.267
2411.601
2407.935
2404.269
2400.603
2396.937
2393.271
2389.605
2385.939
2382.273
2378.607
2374.941
2371.275
2367.609
2363.943
2360.277
2356.611
2352.945
2349.279
2345.613
2341.947
2338.281
2334.615
2330.949
2327.283
2323.617
2319.951
2316.285
2312.619
2308.953
2305.287
2301.621
2297.955
2294.289
2290.623
2286.957
2283.291
2279.625
2275.959
2272.293
2268.627
2264.961
2261.295
2257.629
2253.963
2250.297
2246.631
2242.965
2239.299
2235.633
2231.967
2228.301
2224.635
2220.969
2217.303
2213.637
2209.971
2206.305
2202.639
2198.973
2195.307
2191.641
2187.975
2184.309
2180.643
2176.977
2173.311
2169.645
2165.979
2162.313
2158.647
2154.981
2151.315
2147.649
2143.983
2140.317
2136.651
2132.985
2129.319
2125.653
2121.987
2118.321
2114.655
2110.989
2107.323
2103.657
2099.991
2096.325
2092.659
2088.993
2085.327
2081.661
2077.995
2074.329
2070.663
2066.997
2063.331
2059.665
2055.999
2052.333
2048.667
2045.001
2041.335
2037.669
2034.003
2030.337
2026.671
2023.005
2019.339
2015.673
2012.007
2008.341
2004.675
2001.009
1997.343
1993.677
1990.011
1986.345
1982.679
1979.013
1975.347
1971.681
1968.015
1964.349
1960.683
1957.017
1953.351
1949.685
1946.019
1942.353
1938.687
1935.021
1931.355
1927.689
1924.023
1920.357
1916.691
1913.025
1909.359
1905.693
1902.027
1898.361
1894.695
1891.029
1887.363
1883.697
1880.031
1876.365
1872.699
1869.033
1865.367
1861.701
1858.035
1854.369
1850.703
1847.037
1843.371
1839.705
1836.039
1832.373
1828.707
1825.041
1821.375
1817.709
1814.043
1810.377
1806.711
1803.045
1799.379
1795.713
1792.047
1788.381
1784.715
1781.049
1777.383
1773.717
1770.051
1766.385
1762.719
1759.053
1755.387
1751.721
1748.055
1744.389
1740.723
1737.057
1733.391
1729.725
1726.059
1722.393
1718.727
1715.061
1711.395
1707.729
1704.063
1700.397
1696.731
1693.065
1689.399
1691.427
1693.456
1695.484
1697.513
1699.541
1701.570
1703.598
1705.627
1707.655
1709.684
1711.712
1713.741
1715.769
1717.798
1719.826
1721.855
1723.883
1725.912
1727.940
1729.969
1731.997
1734.026
1736.054
1738.083
1740.111
1742.140
1744.168
1746.197
1748.225
1750.254
1752.282
1754.311
1756.339
1758.368
1760.396
1762.425
1764.453
1766.482
1768.510
1770.539
1772.567
1774.596
1776.624
1778.653
1780.681
1782.710
1784.738
1786.767
1788.795
1790.824
1792.852
1794.881
1796.909
1798.938
1800.966
1802.995
1805.023
1807.052
1809.080
1811.109
1813.137
1815.166
1817.194
1819.223
1821.251
1823.280
1825.308
1827.337
1829.365
1831.394
1833.422
1835.451
1837.479
1839.508
1841.536
1843.565
1845.593
1847.622
1849.650
1851.679
1853.707
1855.736
1857.764
1859.793
1861.821
1863.850
1865.878
1867.907
1869.935
1871.964
1873.992
1876.021
1878.049
1880.078
1882.106
1884.135
1886.163
1888.192
1890.220
1892.249
1894.277
1896.306
1898.334
1900.363
1902.391
1904.420
1906.448
1908.477
1910.505
1912.534
1914.562
1916.591
1918.619
1920.648
1922.676
1924.705
1926.733
1928.762
1930.790
1932.819
1934.847
1936.876
1938.904
1940.933
1942.961
1944.990
1947.018
1949.047
1951.075
1953.104
1955.132
1957.161
1959.189
1961.218
1963.246
1965.275
1967.303
1969.332
1971.360
1973.389
1975.417
1977.446
1979.474
1981.503
1983.531
1985.560
1987.588
1989.617
1991.645
1993.674
1995.702
1997.731
1999.759
2001.788
2003.816
2005.845
2007.873
2009.902
2011.930
2013.959
2015.987
2018.016
2020.044
2022.073
2024.101
2026.130
2028.158
2030.187
2032.215
2034.244
2036.272
2038.301
2040.329
2042.358
2044.386
2046.415
2048.443
2050.472
2052.500
2054.529
2056.557
2058.586
2060.614
2062.643
2064.671
2066.700
2068.728
2070.757
2072.785
2074.814
2076.842
2078.871
2080.899
2082.928
2084.956
2086.985
2089.013
2091.042
2093.070
2095.099
2096.174
2097.249
2098.324
2099.399
2100.474
2101.549
2102.624
2103.699
2104.774
2105.849
2106.924
2107.999
2109.074
2110.149
2111.224
2112.299
2113.374
2114.449
2115.524
2116.599
2117.674
2118.749
2119.824
2120.899
2121.974
2123.049
2124.124
2125.199
2126.274
2127.349
2128.424
2129.499
2130.574
2131.649
2132.724
2133.799
2134.874
2135.949
2137.024
2138.099
2139.174
2140.249
2141.324
2142.399
2143.474
2144.549
2145.624
2146.699
2147.774
2148.849
2149.924
2150.999
2152.074
2153.149
2154.224
2155.299
2156.374
2157.449
2158.524
2159.599
2160.674
2161.749
2162.824
2163.899
2164.974
2166.049
2167.124
2168.199
2169.274
2170.349
2171.424
2172.499
2173.574
2174.649
2175.724
2176.799
2177.874
2178.949
2180.024
2181.099
2182.174
2183.249
2184.324
2185.399
2186.474
2187.549
2188.624
2189.699
2190.774
2191.849
2192.924
2193.999
2195.074
2196.149
2197.224
2198.299
2199.374
2200.449
2201.524
2202.599
2203.674
2204.749
2205.824
2206.899
2207.974
2209.049
2210.124
2211.199
2212.274
2213.349
2214.424
2215.499
2216.574
2217.649
2218.724
2219.799
2220.874
2221.949
2223.024
2224.099
2225.174
2226.249
2227.324
2228.399
2229.474
2230.549
2231.624
2232.699
2233.774
2234.849
2235.924
2236.999
2238.074
2239.149
2240.224
2241.299
2242.374
2243.449
2244.524
2245.599
2246.674
2247.749
2248.824
2249.899
2250.974
2252.049
