111.500
111.500
111.500
111.500
111.500
111.500
111.500
111.500
111.500
111.500
111.500
111.500
111.500
111.500
111.500
111.500
111.500
111.500
111.500
111.500
111.500
111.500
111.500
111.500
111.500
111.500
111.500
111.500
111.500
111.500
111.500
111.500
111.500
111.500
111.500
111.500
111.500
111.500
111.500
111.500
111.500
111.500
111.500
111.500
111.500
111.500
111.500
111.500
111.500
111.500
111.500
111.500
111.500
111.500
111.500
111.500
111.500
111.500
111.500
111.500
111.500
111.500
111.500
111.500
111.500
111.500
111.500
111.500
111.500
111.500
111.500
111.500
111.500
111.500
111.500
111.500
111.500
111.500
111.500
111.500
111.500
111.500
111.500
111.500
111.500
111.500
111.500
111.500
111.500
111.500
111.500
111.500
111.500
111.500
111.500
111.500
111.500
111.500
111.500
111.500
111.500
111.500
111.500
111.500
111.500
111.500
111.500
111.500
111.500
111.500
111.500
111.500
111.500
111.500
111.500
111.500
111.500
111.500
111.500
111.500
111.500
111.500
111.500
111.500
111.500
111.500
111.500
111.500
111.500
111.500
111.500
111.500
111.500
111.500
111.500
111.500
111.500
111.500
111.500
111.500
111.500
111.500
111.500
111.500
111.500
111.500
111.500
111.500
111.500
111.500
111.500
111.500
111.500
111.500
111.500
111.500
111.500
111.500
111.500
111.500
111.500
111.500
111.500
111.500
111.500
111.500
111.500
111.500
111.500
111.500
111.500
111.500
111.500
111.500
111.500
111.500
111.500
111.500
111.500
111.500
111.500
111.500
111.500
111.500
111.500
111.500
111.500
111.500
111.500
111.500
111.500
111.500
111.500
111.500
111.500
111.500
111.500
111.500
111.500
111.500
111.500
111.500
111.500
111.500
111.500
111.500
111.500
111.500
111.500
111.500
111.500
111.500
111.500
111.500
111.500
111.500
111.500
111.500
111.500
111.500
111.500
111.500
111.500
111.500
111.500
111.500
111.500
111.500
111.500
111.500
111.500
111.500
111.500
111.500
111.500
111.500
111.500
111.500
111.500
111.500
111.500
111.500
111.500
111.500
111.500
111.500
111.500
111.500
111.500
111.500
111.500
111.500
111.500
111.500
111.500
111.500
111.500
111.500
111.500
111.500
111.500
111.500
111.500
111.500
111.500
111.500
111.500
111.500
111.500
111.500
111.500
111.500
111.500
111.500
111.500
111.500
111.500
111.500
111.500
111.500
111.500
111.500
111.500
111.500
111.500
111.500
111.500
111.500
111.500
111.500
111.500
111.500
111.500
111.500
111.500
111.500
111.500
111.500
111.500
111.500
111.500
111.500
111.500
111.500
111.500
111.500
111.500
111.500
111.500
111.500
111.500
111.500
111.500
111.500
111.500
111.500
111.500
111.500
111.500
111.500
111.500
111.500
111.500
111.500
111.500
111.500
111.500
111.500
111.500
111.500
111.500
111.500
111.500
111.500
111.500
111.500
111.500
111.500
111.500
111.500
111.500
111.500
111.500
111.500
111.500
111.500
111.500
111.500
111.500
111.500
111.500
111.500
111.500
111.500
111.500
111.500
111.500
111.500
111.500
111.500
111.500
111.500
111.500
111.500
111.500
111.500
111.500
111.500
111.500
111.500
111.500
111.500
111.500
111.500
111.500
111.500
111.500
111.500
111.500
111.500
111.500
111.500
111.500
111.500
111.500
111.500
111.500
111.500
111.500
111.500
111.500
111.500
111.500
111.500
111.500
111.500
111.500
111.500
111.500
111.500
111.500
111.500
111.500
111.500
111.500
111.500
111.500
111.500
111.500
111.500
111.500
111.500
111.500
111.500
111.500
111.500
111.500
111.500
111.500
111.500
111.500
111.500
111.500
111.500
111.500
111.500
111.500
111.500
111.500
111.500
111.500
111.500
111.500
111.500
111.500
111.500
111.500
111.500
111.500
111.500
111.500
111.500
111.500
111.500
111.500
111.500
111.500
111.500
111.500
111.500
111.500
111.500
111.500
111.500
111.500
111.500
111.500
111.500
111.500
111.500
111.500
111.500
111.500
111.500
111.500
111.500
111.500
111.500
111.500
111.500
111.500
111.500
111.500
111.500
111.500
111.500
111.500
111.500
111.500
111.500
111.500
111.500
111.500
111.500
111.500
111.500
111.500
111.500
111.500
111.500
111.500
111.500
111.500
111.500
111.500
111.500
111.500
111.500
111.500
111.500
111.500
111.500
111.500
111.500
111.500
111.500
111.500
111.500
111.500
111.500
111.500
111.500
111.500
111.500
111.500
111.500
111.500
111.500
111.500
111.500
111.500
111.500
111.500
111.500
111.500
111.500
111.500
111.500
111.500
111.500
111.500
111.500
111.500
111.500
111.500
111.500
111.500
111.500
111.500
111.500
111.500
111.500
111.500
111.500
111.500
111.500
111.500
111.500
111.500
111.500
111.500
111.500
111.500
111.500
111.500
111.500
111.500
111.500
111.500
111.500
111.500
111.500
111.500
111.500
111.500
111.500
111.500
111.500
111.500
111.500
111.500
111.500
111.500
111.500
111.500
111.500
111.500
111.500
111.500
111.500
111.500
111.500
111.500
111.500
111.500
111.500
111.500
111.500
111.500
111.500
111.500
111.500
111.500
111.500
111.500
111.500
111.500
111.500
111.500
111.500
111.500
111.500
111.500
111.500
111.500
111.500
111.500
111.500
111.500
111.500
111.500
111.500
111.500
111.500
111.500
111.500
111.500
111.500
111.500
111.500
111.500
111.500
111.500
111.500
111.500
111.500
111.500
111.500
111.500
111.500
111.500
111.500
111.500
111.500
111.500
111.500
111.500
111.500
111.500
111.500
111.500
111.500
111.500
111.500
111.500
111.500
111.500
111.500
111.500
111.500
111.500
111.500
111.500
111.500
111.500
111.500
111.500
111.500
111.500
111.500
111.500
111.500
111.500
111.500
111.500
111.500
111.500
111.500
111.500
111.500
111.500
111.500
111.500
111.500
111.500
111.500
111.500
111.500
111.500
111.500
111.500
111.500
111.500
111.500
111.500
111.500
111.500
111.500
111.500
111.500
111.500
111.500
111.500
111.500
111.500
111.500
111.500
111.500
111.500
111.500
111.500
111.500
111.500
111.500
111.500
111.500
111.500
111.500
111.500
111.500
111.500
111.500
111.500
111.500
111.500
111.500
111.500
111.500
111.500
111.500
111.500
111.500
111.500
111.500
111.500
111.500
111.500
111.500
111.500
111.500
111.500
111.500
111.500
111.500
111.500
111.500
111.500
111.500
111.500
111.500
111.500
111.500
111.500
111.500
111.500
111.500
111.500
111.500
111.500
111.500
111.500
111.500
111.500
111.500
111.500
111.500
111.500
111.500
111.500
111.500
111.500
111.500
111.500
111.500
111.500
111.500
111.500
111.500
111.500
111.500
111.500
111.500
111.500
111.500
111.500
111.500
111.500
111.500
111.500
111.500
111.500
111.500
111.500
111.500
111.500
111.500
111.500
111.500
111.500
111.500
111.500
111.500
111.500
111.500
111.500
111.500
111.500
111.500
111.500
111.500
111.500
111.500
111.500
111.500
111.500
106.600
106.576
106.551
106.527
106.502
106.478
106.453
106.429
106.404
106.380
106.355
106.331
106.306
106.282
106.257
106.233
106.208
106.184
106.159
106.135
106.110
106.086
106.061
106.037
106.012
105.988
105.963
105.939
105.914
105.890
105.865
105.841
105.816
105.792
105.767
105.743
105.718
105.694
105.669
105.645
105.620
105.596
105.571
105.547
105.522
105.498
105.473
105.449
105.424
105.400
105.375
105.351
105.326
105.302
105.277
105.253
105.228
105.204
105.179
105.155
105.130
105.106
105.081
105.057
105.032
105.008
104.983
104.959
104.934
104.910
104.885
104.861
104.836
104.812
104.787
104.763
104.738
104.714
104.689
104.665
104.640
104.616
104.591
104.567
104.542
104.518
104.493
104.469
104.444
104.420
104.395
104.371
104.346
104.322
104.297
104.273
104.248
104.224
104.199
104.175
104.150
104.126
104.101
104.077
104.052
104.028
104.003
103.979
103.954
103.930
103.905
103.881
103.856
103.832
103.807
103.783
103.758
103.734
103.709
103.685
103.660
103.636
103.611
103.587
103.562
103.538
103.513
103.489
103.464
103.440
103.415
103.391
103.366
103.342
103.317
103.293
103.268
103.244
103.219
103.195
103.170
103.146
103.121
103.097
103.072
103.048
103.023
102.999
102.974
102.950
102.925
102.901
102.876
102.852
102.827
102.803
102.778
102.754
102.729
102.705
102.680
102.656
102.631
102.607
102.582
102.558
102.533
102.509
102.484
102.460
102.435
102.411
102.386
102.362
102.337
102.313
102.288
102.264
102.239
102.215
102.190
102.166
102.141
102.117
102.092
102.068
102.043
102.019
101.994
101.970
101.945
101.921
101.896
101.872
101.847
101.823
101.798
101.774
101.749
101.725
101.700
101.700
101.700
101.700
101.700
101.700
101.700
101.700
101.700
101.700
101.700
101.700
101.700
101.700
101.700
101.700
101.700
101.700
101.700
101.700
101.700
101.700
101.700
101.700
101.700
101.700
101.700
101.700
101.700
101.700
101.700
101.700
101.700
101.700
101.700
101.700
101.700
101.700
101.700
101.700
101.700
101.700
101.700
101.700
101.700
101.700
101.700
101.700
101.700
101.700
101.700
101.700
101.700
101.700
101.700
101.700
101.700
101.700
101.700
101.700
101.700
101.700
101.700
101.700
101.700
101.700
101.700
101.700
101.700
101.700
101.700
101.700
101.700
101.700
101.700
101.700
101.700
101.700
101.700
101.700
101.700
101.700
101.700
101.700
101.700
101.700
101.700
101.700
101.700
101.700
101.700
101.700
101.700
101.700
101.700
101.700
101.700
101.700
101.700
101.700
101.700
101.700
101.700
101.700
101.700
101.700
101.700
101.700
101.700
101.700
101.700
101.700
101.700
101.700
101.700
101.700
101.700
101.700
101.700
101.700
101.700
101.700
101.700
101.700
101.700
101.700
101.700
101.700
101.700
101.700
101.700
101.700
101.700
101.700
101.700
101.700
101.700
101.700
101.700
101.700
101.700
101.700
101.700
101.700
101.700
101.700
101.700
101.700
101.700
101.700
101.700
101.700
101.700
101.700
101.700
101.700
101.700
101.700
101.700
101.700
101.700
101.700
101.700
101.700
101.700
101.700
101.700
101.700
101.700
101.700
101.700
101.700
101.700
101.700
101.700
101.700
101.700
101.700
101.700
101.700
101.700
101.700
101.700
101.700
101.700
101.700
101.700
101.700
101.700
101.700
101.700
101.700
101.700
101.700
101.700
101.700
101.700
101.700
101.700
101.700
1445.800
1447.902
1450.003
1452.105
1454.206
1456.308
1458.409
1460.511
1462.612
1464.714
1466.815
1468.917
1471.018
1473.120
1475.221
1477.323
1479.424
1481.526
1483.627
1485.729
1487.830
1489.932
1492.033
1494.135
1496.236
1498.338
1500.439
1502.541
1504.642
1506.744
1508.845
1510.947
1513.048
1515.150
1517.251
1519.353
1521.454
1523.556
1525.657
1527.759
1529.860
1531.962
1534.063
1536.165
1538.266
1540.368
1542.469
1544.571
1546.672
1548.774
1550.875
1552.977
1555.078
1557.180
1559.281
1561.383
1563.484
1565.586
1567.687
1569.789
1571.890
1573.992
1576.093
1578.195
1580.296
1582.398
1584.499
1586.601
1588.702
1590.804
1592.905
1595.007
1597.108
1599.210
1601.311
1603.413
1605.514
1607.616
1609.717
1611.819
1613.920
1616.022
1618.123
1620.225
1622.326
1624.428
1626.529
1628.631
1630.732
1632.834
1634.935
1637.037
1639.138
1641.240
1643.341
1645.443
1647.544
1649.646
1651.747
1653.849
1655.950
1658.052
1660.153
1662.255
1664.356
1666.458
1668.559
1670.661
1672.762
1674.864
1676.965
1679.067
1681.168
1683.270
1685.371
1687.473
1689.574
1691.676
1693.777
1695.879
1697.980
1700.082
1702.183
1704.285
1706.386
1708.488
1710.589
1712.691
1714.792
1716.894
1718.995
1721.097
1723.198
1725.300
1727.401
1729.503
1731.604
1733.706
1735.807
1737.909
1740.010
1742.112
1744.213
1746.315
1748.416
1750.518
1752.619
1754.721
1756.822
1758.924
1761.025
1763.127
1765.228
1767.330
1769.431
1771.533
1773.634
1775.736
1777.837
1779.939
1782.040
1784.142
1786.243
1788.345
1790.446
1792.548
1794.649
1796.751
1798.852
1800.954
1803.055
1805.157
1807.258
1809.360
1811.461
1813.563
1815.664
1817.766
1819.867
1821.969
1824.070
1826.172
1828.273
1830.375
1832.476
1834.578
1836.679
1838.781
1840.882
1842.984
1845.085
1847.187
1849.288
1851.390
1853.491
1855.593
1857.694
1859.796
1861.897
1863.999
1866.100
1870.059
1874.018
1877.977
1881.936
1885.895
1889.854
1893.813
1897.772
1901.731
1905.690
1909.649
1913.608
1917.567
1921.526
1925.485
1929.444
1933.403
1937.362
1941.321
1945.280
1949.239
1953.198
1957.157
1961.116
1965.075
1969.034
1972.993
1976.952
1980.911
1984.870
1988.829
1992.788
1996.747
2000.706
2004.665
2008.624
2012.583
2016.542
2020.501
2024.460
2028.419
2032.378
2036.337
2040.296
2044.255
2048.214
2052.173
2056.132
2060.091
2064.050
2068.009
2071.968
2075.927
2079.886
2083.845
2087.804
2091.763
2095.722
2099.681
2103.640
2107.599
2111.558
2115.517
2119.476
2123.435
2127.394
2131.353
2135.312
2139.271
2143.230
2147.189
2151.148
2155.107
2159.066
2163.025
2166.984
2170.943
2174.902
2178.861
2182.820
2186.779
2190.738
2194.697
2198.656
2202.615
2206.574
2210.533
2214.492
2218.451
2222.410
2226.369
2230.328
2234.287
2238.246
2242.205
2246.164
2250.123
2254.082
2258.041
2262.000
2265.959
2269.918
2273.877
2277.836
2281.795
2285.754
2289.713
2293.672
2297.631
2301.590
2305.549
2309.508
2313.467
2317.426
2321.385
2325.344
2329.303
2333.262
2337.221
2341.180
2345.139
2349.098
2353.057
2357.016
2360.975
2364.934
2368.893
2372.852
2376.811
2380.770
2384.729
2388.688
2392.647
2396.606
2400.565
2404.524
2408.483
2412.442
2416.401
2420.360
2424.319
2428.278
2432.237
2436.196
2440.155
2444.114
2448.073
2452.032
2455.991
2459.950
2463.909
2467.868
2471.827
2475.786
2479.745
2483.704
2487.663
2491.622
2495.581
2499.540
2503.499
2507.458
2511.417
2515.376
2519.335
2523.294
2527.253
2531.212
2535.171
2539.130
2543.089
2547.048
2551.007
2554.966
2558.925
2562.884
2566.843
2570.802
2574.761
2578.720
2582.679
2586.638
2590.597
2594.556
2598.515
2602.474
2606.433
2610.392
2614.351
2618.310
2622.269
2626.228
2630.187
2634.146
2638.105
2642.064
2646.023
2649.982
2653.941
2657.900
2658.047
2658.193
2658.340
2658.486
2658.633
2658.779
2658.926
2659.072
2659.219
2659.365
2659.512
2659.658
2659.805
2659.951
2660.098
2660.244
2660.391
2660.537
2660.684
2660.830
2660.977
2661.123
2661.270
2661.416
2661.563
2661.709
2661.856
2662.002
2662.149
2662.295
2662.442
2662.588
2662.735
2662.881
2663.028
2663.174
2663.321
2663.467
2663.614
2663.760
2663.907
2664.053
2664.200
2664.346
2664.493
2664.639
2664.786
2664.932
2665.079
2665.225
2665.372
2665.518
2665.665
2665.811
2665.958
2666.104
2666.251
2666.397
2666.544
2666.690
2666.837
2666.983
2667.130
2667.276
2667.423
2667.569
2667.716
2667.862
2668.009
2668.155
2668.302
2668.448
2668.595
2668.741
2668.888
2669.034
2669.181
2669.327
2669.474
2669.620
2669.767
2669.913
2670.060
2670.206
2670.353
2670.499
2670.646
2670.792
2670.939
2671.085
2671.232
2671.378
2671.525
2671.671
2671.818
2671.964
2672.111
2672.257
2672.404
2672.550
2672.697
2672.843
2672.990
2673.136
2673.283
2673.429
2673.576
2673.722
2673.869
2674.015
2674.162
2674.308
2674.455
2674.601
2674.748
2674.894
2675.041
2675.187
2675.334
2675.480
2675.627
2675.773
2675.920
2676.066
2676.213
2676.359
2676.506
2676.652
2676.799
2676.945
2677.092
2677.238
2677.385
2677.531
2677.678
2677.824
2677.971
2678.117
2678.264
2678.410
2678.557
2678.703
2678.850
2678.996
2679.143
2679.289
2679.436
2679.582
2679.729
2679.875
2680.022
2680.168
2680.315
2680.461
2680.608
2680.754
2680.901
2681.047
2681.194
2681.340
2681.487
2681.633
2681.780
2681.926
2682.073
2682.219
2682.366
2682.512
2682.659
2682.805
2682.952
2683.098
2683.245
2683.391
2683.538
2683.684
2683.831
2683.977
2684.124
2684.270
2684.417
2684.563
2684.710
2684.856
2685.003
2685.149
2685.296
2685.442
2685.589
2685.735
2685.882
2686.028
2686.175
2686.321
2686.468
2686.614
2686.761
2686.907
2687.054
2687.200
2684.488
2681.775
2679.063
2676.350
2673.638
2670.925
2668.213
2665.500
2662.788
2660.075
2657.363
2654.650
2651.938
2649.225
2646.513
2643.800
2641.088
2638.375
2635.663
2632.950
2630.238
2627.525
2624.813
2622.100
2619.388
2616.675
2613.963
2611.250
2608.538
2605.825
2603.113
2600.400
2597.688
2594.975
2592.263
2589.550
2586.838
2584.125
2581.413
2578.700
2575.988
2573.275
2570.563
2567.850
2565.138
2562.425
2559.713
2557.000
2554.288
2551.575
2548.863
2546.150
2543.438
2540.725
2538.013
2535.300
2532.588
2529.875
2527.163
2524.450
2521.738
2519.025
2516.313
2513.600
2510.888
2508.175
2505.463
2502.750
2500.038
2497.325
2494.613
2491.900
2489.188
2486.475
2483.763
2481.050
2478.338
2475.625
2472.913
2470.200
2467.488
2464.775
2462.063
2459.350
2456.638
2453.925
2451.213
2448.500
2445.788
2443.075
2440.363
2437.650
2434.938
2432.225
2429.513
2426.800
2424.088
2421.375
2418.663
2415.950
2413.238
2410.525
2407.813
2405.100
2402.388
2399.675
2396.963
2394.250
2391.538
2388.825
2386.113
2383.400
2380.688
2377.975
2375.263
2372.550
2369.838
2367.125
2364.413
2361.700
2358.988
2356.275
2353.563
2350.850
2348.138
2345.425
2342.713
2340.000
2337.288
2334.575
2331.863
2329.150
2326.438
2323.725
2321.013
2318.300
2315.588
2312.875
2310.163
2307.450
2304.738
2302.025
2299.313
2296.600
2293.888
2291.175
2288.463
2285.750
2283.038
2280.325
2277.613
2274.900
2272.188
2269.475
2266.763
2264.050
2261.338
2258.625
2255.913
2253.200
2250.488
2247.775
2245.063
2242.350
2239.638
2236.925
2234.213
2231.500
2228.788
2226.075
2223.363
2220.650
2217.938
2215.225
2212.513
2209.800
2207.088
2204.375
2201.663
2198.950
2196.238
2193.525
2190.813
2188.100
2185.388
2182.675
2179.963
2177.250
2174.538
2171.825
2169.113
2166.400
2163.688
2160.975
