96.146
96.171
96.195
96.220
96.244
96.269
96.293
96.318
96.342
96.367
96.391
96.416
96.440
96.465
96.489
96.514
96.538
96.563
96.587
96.612
96.636
96.661
96.685
96.710
96.734
96.759
96.783
96.808
96.832
96.857
96.881
96.906
96.930
96.955
96.979
97.004
97.028
97.053
97.077
97.102
97.126
97.151
97.175
97.200
97.224
97.249
97.273
97.298
97.322
97.347
97.371
97.396
97.420
97.445
97.469
97.494
97.518
97.543
97.567
97.592
97.616
97.641
97.665
97.690
97.714
97.739
97.763
97.788
97.812
97.837
97.861
97.886
97.910
97.935
97.959
97.984
98.008
98.033
98.057
98.082
98.106
98.131
98.155
98.180
98.204
98.229
98.253
98.278
98.302
98.327
98.351
98.376
98.400
98.425
98.449
98.449
98.449
98.449
98.449
98.449
98.449
98.449
98.449
98.449
98.449
98.449
98.449
98.449
98.449
98.449
98.449
98.449
98.449
98.449
98.449
98.449
98.449
98.449
98.449
98.449
98.449
98.449
98.449
98.449
98.449
98.449
98.449
98.449
98.449
98.449
98.449
98.449
98.449
98.449
98.449
98.449
98.449
98.449
98.449
98.449
98.449
98.449
98.449
98.449
98.449
98.449
98.449
98.449
98.449
98.449
98.449
98.449
98.449
98.449
98.449
98.449
98.449
98.449
98.449
98.449
98.449
98.449
98.449
98.449
98.449
98.449
98.449
98.449
98.449
98.449
98.449
98.449
98.449
98.449
98.449
98.449
98.449
98.449
98.449
98.449
98.449
98.449
98.449
98.449
98.449
98.449
98.449
98.449
98.449
98.449
98.449
98.449
98.449
98.449
98.449
98.449
98.449
98.449
98.449
98.449
98.449
98.449
98.449
98.449
98.449
98.449
98.449
98.449
98.449
98.449
98.449
98.449
98.449
98.449
98.449
98.449
98.449
98.449
98.449
98.449
98.449
98.449
98.449
98.449
98.449
98.449
98.449
98.449
98.449
98.449
98.449
98.449
98.449
98.449
98.449
98.449
98.449
98.449
98.449
98.449
98.449
98.449
98.449
98.449
98.449
98.449
98.449
98.449
98.449
98.449
98.449
98.449
98.449
98.449
98.449
98.449
98.449
98.449
98.449
98.449
98.449
98.449
98.449
98.449
98.449
98.449
98.449
98.449
98.449
98.449
98.449
98.449
98.449
98.449
98.449
98.449
98.449
98.449
98.449
98.449
98.449
98.449
98.449
98.449
98.449
98.449
98.449
98.449
98.449
98.449
98.449
98.449
98.449
98.449
98.449
98.425
98.400
98.376
98.351
98.327
98.302
98.278
98.253
98.229
98.204
98.180
98.155
98.131
98.106
98.082
98.057
98.033
98.008
97.984
97.959
97.935
97.910
97.886
97.861
97.837
97.812
97.788
97.763
97.739
97.714
97.690
97.665
97.641
97.616
97.592
97.567
97.543
97.518
97.494
97.469
97.445
97.420
97.396
97.371
97.347
97.322
97.298
97.273
97.249
97.224
97.200
97.175
97.151
97.126
97.102
97.077
97.053
97.028
97.004
96.979
96.955
96.930
96.906
96.881
96.857
96.832
96.808
96.783
96.759
96.734
96.710
96.685
96.661
96.636
96.612
96.587
96.563
96.538
96.514
96.489
96.465
96.440
96.416
96.391
96.367
96.342
96.318
96.293
96.269
96.244
96.220
96.195
96.171
96.146
96.122
96.097
96.073
96.048
96.024
95.999
95.975
95.950
95.926
95.901
95.877
95.852
95.828
95.803
95.779
95.754
95.730
95.705
95.681
95.656
95.632
95.607
95.583
95.558
95.534
95.509
95.485
95.460
95.436
95.411
95.387
95.362
95.338
95.313
95.289
95.264
95.240
95.215
95.191
95.166
95.142
95.117
95.093
95.068
95.044
95.019
94.995
94.970
94.946
94.921
94.897
94.872
94.848
94.823
94.799
94.774
94.750
94.725
94.701
94.676
94.652
94.627
94.603
94.578
94.554
94.529
94.505
94.480
94.456
94.431
94.407
94.382
94.358
94.333
94.309
94.284
94.260
94.235
94.211
94.186
94.162
94.137
94.113
94.088
94.064
94.039
94.015
93.990
93.966
93.941
93.917
93.892
93.868
93.843
93.819
93.794
93.770
93.745
93.721
93.696
93.672
93.647
93.623
93.598
93.574
93.549
93.574
93.598
93.623
93.647
93.672
93.696
93.721
93.745
93.770
93.794
93.819
93.843
93.868
93.892
93.917
93.941
93.966
93.990
94.015
94.039
94.064
94.088
94.113
94.137
94.162
94.186
94.211
94.235
94.260
94.284
94.309
94.333
94.358
94.382
94.407
94.431
94.456
94.480
94.505
94.529
94.554
94.578
94.603
94.627
94.652
94.676
94.701
94.725
94.750
94.774
94.799
94.823
94.848
94.872
94.897
94.921
94.946
94.970
94.995
95.019
95.044
95.068
95.093
95.117
95.142
95.166
95.191
95.215
95.240
95.264
95.289
95.313
95.338
95.362
95.387
95.411
95.436
95.460
95.485
95.509
95.534
95.558
95.583
95.607
95.632
95.656
95.681
95.705
95.730
95.754
95.779
95.803
95.828
95.852
95.877
95.901
95.926
95.950
95.975
95.999
96.024
96.048
96.073
96.097
96.122
96.146
96.171
96.195
96.220
96.244
96.269
96.293
96.318
96.342
96.367
96.391
96.416
96.440
96.465
96.489
96.514
96.538
96.563
96.587
96.612
96.636
96.661
96.685
96.710
96.734
96.759
96.783
96.808
96.832
96.857
96.881
96.906
96.930
96.955
96.979
97.004
97.028
97.053
97.077
97.102
97.126
97.151
97.175
97.200
97.224
97.249
97.273
97.298
97.322
97.347
97.371
97.396
97.420
97.445
97.469
97.494
97.518
97.543
97.567
97.592
97.616
97.641
97.665
97.690
97.714
97.739
97.763
97.788
97.812
97.837
97.861
97.886
97.910
97.935
97.959
97.984
98.008
98.033
98.057
98.082
98.106
98.131
98.155
98.180
98.204
98.229
98.253
98.278
98.302
98.327
98.351
98.376
98.400
98.425
98.449
98.449
98.449
98.449
98.449
98.449
98.449
98.449
98.449
98.449
98.449
98.449
98.449
98.449
98.449
98.449
98.449
98.449
98.449
98.449
98.449
98.449
98.449
98.449
98.449
98.449
98.449
98.449
98.449
98.449
98.449
98.449
98.449
98.449
98.449
98.449
98.449
98.449
98.449
98.449
98.449
98.449
98.449
98.449
98.449
98.449
98.449
98.449
98.449
98.449
98.449
98.449
98.449
98.449
98.449
98.449
98.449
98.449
98.449
98.449
98.449
98.449
98.449
98.449
98.449
98.449
98.449
98.449
98.449
98.449
98.449
98.449
98.449
98.449
98.449
98.449
98.449
98.449
98.449
98.449
98.449
98.449
98.449
98.449
98.449
98.449
98.449
98.449
98.449
98.449
98.449
98.449
98.449
98.449
98.449
98.449
98.449
98.449
98.449
98.449
98.449
98.449
98.449
98.449
98.449
98.449
98.449
98.449
98.449
98.449
98.449
98.449
98.449
98.449
98.449
98.449
98.449
98.449
98.449
98.449
98.449
98.449
98.449
98.449
98.449
98.449
98.449
98.449
98.449
98.449
98.449
98.449
98.449
98.449
98.449
98.449
98.449
98.449
98.449
98.449
98.449
98.449
98.449
98.449
98.449
98.449
98.449
98.449
98.449
98.449
98.449
98.449
98.449
98.449
98.449
98.449
98.449
98.449
98.449
98.449
98.449
98.449
98.449
98.449
98.449
98.449
98.449
98.449
98.449
98.449
98.449
98.449
98.449
98.449
98.449
98.449
98.449
98.449
98.449
98.449
98.449
98.449
98.449
98.449
98.449
98.449
98.449
98.449
98.449
98.449
98.449
98.449
98.449
98.449
98.449
98.449
98.449
98.449
98.449
98.449
1339.849
1342.269
1344.688
1347.108
1349.527
1351.947
1354.366
1356.786
1359.205
1361.625
1364.044
1366.464
1368.883
1371.303
1373.722
1376.142
1378.561
1380.981
1383.400
1385.820
1388.239
1390.659
1393.078
1395.498
1397.917
1400.337
1402.756
1405.176
1407.595
1410.015
1412.434
1414.854
1417.273
1419.693
1422.112
1424.532
1426.951
1429.371
1431.790
1434.210
1436.629
1439.049
1441.468
1443.888
1446.307
1448.727
1451.146
1453.566
1455.985
1458.405
1460.824
1463.244
1465.663
1468.083
1470.502
1472.922
1475.341
1477.761
1480.180
1482.600
1485.019
1487.439
1489.858
1492.278
1494.697
1497.117
1499.536
1501.956
1504.375
1506.795
1509.214
1511.634
1514.053
1516.473
1518.892
1521.312
1523.731
1526.151
1528.570
1530.990
1533.409
1535.829
1538.248
1540.668
1543.087
1545.507
1547.926
1550.346
1552.765
1555.185
1557.604
1560.024
1562.443
1564.863
1567.282
1569.702
1572.121
1574.541
1576.960
1579.380
1581.799
1584.219
1586.638
1589.058
1591.477
1593.897
1596.316
1598.736
1601.155
1603.575
1605.994
1608.414
1610.833
1613.253
1615.672
1618.092
1620.511
1622.931
1625.350
1627.770
1630.189
1632.609
1635.028
1637.448
1639.867
1642.287
1644.706
1647.126
1649.545
1651.965
1654.384
1656.804
1659.223
1661.643
1664.062
1666.482
1668.901
1671.321
1673.740
1676.160
1678.579
1680.999
1683.418
1685.838
1688.257
1690.677
1693.096
1695.516
1697.935
1700.355
1702.774
1705.194
1707.613
1710.033
1712.452
1714.872
1717.291
1719.711
1722.130
1724.550
1726.969
1729.389
1731.808
1734.228
1736.647
1739.067
1741.486
1743.906
1746.325
1748.745
1751.164
1753.584
1756.003
1758.423
1760.842
1763.262
1765.681
1768.101
1770.520
1772.940
1775.359
1777.779
1780.198
1782.618
1785.037
1787.457
1789.876
1792.296
1794.715
1797.135
1799.554
1801.974
1804.393
1806.813
1809.232
1811.652
1814.071
1816.491
1818.910
1821.330
1823.749
1824.556
1825.362
1826.169
1826.975
1827.782
1828.588
1829.395
1830.201
1831.008
1831.814
1832.621
1833.427
1834.234
1835.040
1835.847
1836.653
1837.460
1838.266
1839.073
1839.879
1840.686
1841.492
1842.299
1843.105
1843.912
1844.718
1845.525
1846.331
1847.138
1847.944
1848.751
1849.557
1850.364
1851.170
1851.977
1852.783
1853.590
1854.396
1855.203
1856.009
1856.816
1857.622
1858.429
1859.235
1860.042
1860.848
1861.655
1862.461
1863.268
1864.074
1864.881
1865.687
1866.494
1867.300
1868.107
1868.913
1869.720
1870.526
1871.333
1872.139
1872.946
1873.752
1874.559
1875.365
1876.172
1876.978
1877.785
1878.591
1879.398
1880.204
1881.011
1881.817
1882.624
1883.430
1884.237
1885.043
1885.850
1886.656
1887.463
1888.269
1889.076
1889.882
1890.689
1891.495
1892.302
1893.108
1893.915
1894.721
1895.528
1896.334
1897.141
1897.947
1898.754
1899.560
1900.367
1901.173
1901.980
1902.786
1903.593
1904.399
1905.206
1906.012
1906.819
1907.625
1908.432
1909.238
1910.045
1910.851
1911.658
1912.464
1913.271
1914.077
1914.884
1915.690
1916.497
1917.303
1918.110
1918.916
1919.723
1920.529
1921.336
1922.142
1922.949
1923.755
1924.562
1925.368
1926.175
1926.981
1927.788
1928.594
1929.401
1930.207
1931.014
1931.820
1932.627
1933.433
1934.240
1935.046
1935.853
1936.659
1937.466
1938.272
1939.079
1939.885
1940.692
1941.498
1942.305
1943.111
1943.918
1944.724
1945.531
1946.337
1947.144
1947.950
1948.757
1949.563
1950.370
1951.176
1951.983
1952.789
1953.596
1954.402
1955.209
1956.015
1956.822
1957.628
1958.435
1959.241
1960.048
1960.854
1961.661
1962.467
1963.274
1964.080
1964.887
1965.693
1966.500
1967.306
1968.113
1968.919
1969.726
1970.532
1971.339
1972.145
1972.952
1973.758
1974.565
1975.371
1976.178
1976.984
1977.791
1978.597
1979.404
1980.210
1981.017
1981.823
1982.630
1983.436
1984.243
1985.049
1986.124
1987.199
1988.274
1989.349
1990.424
1991.499
1992.574
1993.649
1994.724
1995.799
1996.874
1997.949
1999.024
2000.099
2001.174
2002.249
2003.324
2004.399
2005.474
2006.549
2007.624
2008.699
2009.774
2010.849
2011.924
2012.999
2014.074
2015.149
2016.224
2017.299
2018.374
2019.449
2020.524
2021.599
2022.674
2023.749
2024.824
2025.899
2026.974
2028.049
2029.124
2030.199
2031.274
2032.349
2033.424
2034.499
2035.574
2036.649
2037.724
2038.799
2039.874
2040.949
2042.024
2043.099
2044.174
2045.249
2046.324
2047.399
2048.474
2049.549
2050.624
2051.699
2052.774
2053.849
2054.924
2055.999
2057.074
2058.149
2059.224
2060.299
2061.374
2062.449
2063.524
2064.599
2065.674
2066.749
2067.824
2068.899
2069.974
2071.049
2072.124
2073.199
2074.274
2075.349
2076.424
2077.499
2078.574
2079.649
2080.724
2081.799
2082.874
2083.949
2085.024
2086.099
2087.174
2088.249
2089.324
2090.399
2091.474
2092.549
2093.624
2094.699
2095.774
2096.849
2097.924
2098.999
2100.074
2101.149
2102.224
2103.299
2104.374
2105.449
2106.524
2107.599
2108.674
2109.749
2110.824
2111.899
2112.974
2114.049
2115.124
2116.199
2117.274
2118.349
2119.424
2120.499
2121.574
2122.649
2123.724
2124.799
2125.874
2126.949
2128.024
2129.099
2130.174
2131.249
2132.324
2133.399
2134.474
2135.549
2136.624
2137.699
2138.774
2139.849
2140.924
2141.999
2143.074
2144.149
2145.224
2146.299
2147.374
2148.449
2149.524
2150.599
2151.674
2152.749
2153.824
2154.899
2155.974
2157.049
2158.124
2159.199
2160.274
2161.349
2162.424
2163.499
2164.574
2165.649
2166.724
2167.799
2168.874
2169.949
2171.024
2172.099
2173.174
2174.249
2175.324
2176.399
2177.474
2178.549
2179.624
2180.699
2181.774
2182.849
2183.924
2184.999
2186.074
2187.149
2188.224
2189.299
2190.374
2191.449
2192.524
2193.599
2194.674
2195.749
2196.824
2197.899
2198.974
2200.049
2199.658
2199.267
2198.876
2198.485
2198.094
2197.703
2197.312
2196.921
2196.530
2196.139
2195.748
2195.357
2194.966
2194.575
2194.184
2193.793
2193.402
2193.011
2192.620
2192.229
2191.838
2191.447
2191.056
2190.665
2190.274
2189.883
2189.492
2189.101
2188.710
2188.319
2187.928
2187.537
2187.146
2186.755
2186.364
2185.973
2185.582
2185.191
2184.800
2184.409
2184.018
2183.627
2183.236
2182.845
2182.454
2182.063
2181.672
2181.281
2180.890
2180.499
2180.108
2179.717
2179.326
2178.935
2178.544
2178.153
2177.762
2177.371
2176.980
2176.589
2176.198
2175.807
2175.416
2175.025
2174.634
2174.243
2173.852
2173.461
2173.070
2172.679
2172.288
2171.897
2171.506
2171.115
2170.724
2170.333
2169.942
2169.551
2169.160
2168.769
2168.378
2167.987
2167.596
2167.205
2166.814
2166.423
2166.032
2165.641
2165.250
2164.859
2164.468
2164.077
2163.686
2163.295
2162.904
2162.513
2162.122
2161.731
2161.340
2160.949
2160.558
2160.167
2159.776
2159.385
2158.994
2158.603
2158.212
2157.821
2157.430
2157.039
2156.648
2156.257
2155.866
2155.475
2155.084
2154.693
2154.302
2153.911
2153.520
2153.129
2152.738
2152.347
2151.956
2151.565
2151.174
2150.783
2150.392
2150.001
2149.610
2149.219
2148.828
2148.437
2148.046
2147.655
2147.264
2146.873
2146.482
2146.091
2145.700
2145.309
2144.918
2144.527
2144.136
2143.745
2143.354
2142.963
2142.572
2142.181
2141.790
2141.399
2141.008
2140.617
2140.226
2139.835
2139.444
2139.053
2138.662
2138.271
2137.880
2137.489
2137.098
2136.707
2136.316
2135.925
2135.534
2135.143
2134.752
2134.361
2133.970
2133.579
2133.188
2132.797
2132.406
2132.015
2131.624
2131.233
2130.842
2130.451
2130.060
2129.669
2129.278
2128.887
2128.496
2128.105
2127.714
2127.323
2126.932
2126.541
2126.150
2125.759
2125.368
2124.977
2124.586
2124.195
2123.804
2123.413
2123.022
2122.631
2122.240
2121.849
2121.116
2120.383
2119.650
2118.917
2118.184
2117.451
2116.718
2115.985
2115.252
2114.519
2113.786
2113.053
2112.320
2111.587
2110.854
2110.121
2109.388
2108.655
2107.922
2107.189
2106.456
2105.723
2104.990
2104.257
2103.524
2102.791
2102.058
2101.325
2100.592
2099.859
2099.126
2098.393
2097.660
2096.927
2096.194
2095.461
2094.728
2093.995
2093.262
2092.529
2091.796
2091.063
2090.330
2089.597
2088.864
2088.131
2087.398
2086.665
2085.932
2085.199
2084.466
2083.733
2083.000
2082.267
2081.534
2080.801
2080.068
2079.335
2078.602
2077.869
2077.136
2076.403
2075.670
2074.937
2074.204
2073.471
2072.738
2072.005
2071.272
2070.539
2069.806
2069.073
2068.340
2067.607
2066.874
2066.141
2065.408
2064.675
2063.942
2063.209
2062.476
2061.743
2061.010
2060.277
2059.544
2058.811
2058.078
2057.345
2056.612
2055.879
2055.146
2054.413
2053.680
2052.947
2052.214
2051.481
2050.748
2050.015
2049.282
2048.549
2047.816
2047.083
2046.350
2045.617
2044.884
2044.151
2043.418
2042.685
2041.952
2041.219
2040.486
2039.753
2039.020
2038.287
2037.554
2036.821
2036.088
2035.355
2034.622
2033.889
2033.156
2032.423
2031.690
2030.957
2030.224
2029.491
2028.758
2028.025
2027.292
2026.559
2025.826
2025.093
2024.360
2023.627
2022.894
2022.161
2021.428
2020.695
2019.962
2019.229
2018.496
2017.763
2017.030
2016.297
2015.564
2014.831
2014.098
2013.365
2012.632
2011.899
2011.166
2010.433
2009.700
2008.967
2008.234
2007.501
2006.768
2006.035
2005.302
2004.569
2003.836
2003.103
2002.370
2001.637
2000.904
2000.171
1999.438
1998.705
1997.972
1997.239
1996.506
1995.773
1995.040
1994.307
1993.574
1992.841
1992.108
1991.375
1990.642
1989.909
1989.176
1988.443
1987.710
1986.977
1986.244
1985.511
1984.778
1984.045
1983.312
1982.579
1981.846
1981.113
1980.380
1979.647
1978.914
1978.181
1977.448
1976.715
1975.982
1975.249
1973.343
1971.437
1969.531
1967.625
1965.719
1963.813
1961.907
1960.001
1958.095
1956.189
1954.283
1952.377
1950.471
1948.565
1946.659
1944.753
1942.847
1940.941
1939.035
1937.129
1935.223
1933.317
1931.411
1929.505
1927.599
1925.693
1923.787
1921.881
1919.975
1918.069
1916.163
1914.257
1912.351
1910.445
1908.539
1906.633
1904.727
1902.821
1900.915
1899.009
1897.103
1895.197
1893.291
1891.385
1889.479
1887.573
1885.667
1883.761
1881.855
1879.949
1878.043
1876.137
1874.231
1872.325
1870.419
1868.513
1866.607
1864.701
1862.795
1860.889
1858.983
1857.077
1855.171
1853.265
1851.359
1849.453
1847.547
1845.641
1843.735
1841.829
1839.923
1838.017
1836.111
1834.205
1832.299
1830.393
1828.487
1826.581
1824.675
1822.769
1820.863
1818.957
1817.051
1815.145
1813.239
1811.333
1809.427
1807.521
1805.615
1803.709
1801.803
1799.897
1797.991
1796.085
1794.179
1792.273
1790.367
1788.461
1786.555
1784.649
1782.743
1780.837
1778.931
1777.025
1775.119
