84.833
84.808
84.784
84.759
84.735
84.710
84.686
84.661
84.637
84.612
84.588
84.563
84.539
84.514
84.490
84.465
84.441
84.416
84.392
84.367
84.343
84.318
84.294
84.269
84.245
84.220
84.196
84.171
84.147
84.122
84.098
84.073
84.049
84.024
84.000
83.975
83.951
83.926
83.902
83.877
83.853
83.828
83.804
83.779
83.755
83.730
83.706
83.681
83.657
83.632
83.608
83.583
83.559
83.534
83.510
83.485
83.461
83.436
83.412
83.387
83.363
83.338
83.314
83.289
83.265
83.240
83.216
83.191
83.167
83.142
83.118
83.093
83.069
83.044
83.020
82.995
82.971
82.946
82.922
82.897
82.873
82.848
82.824
82.799
82.775
82.750
82.726
82.701
82.677
82.652
82.628
82.603
82.579
82.554
82.530
82.505
82.481
82.456
82.432
82.407
82.383
82.358
82.334
82.309
82.285
82.260
82.236
82.211
82.187
82.162
82.138
82.113
82.089
82.064
82.040
82.015
81.991
81.966
81.942
81.917
81.893
81.868
81.844
81.819
81.795
81.770
81.746
81.721
81.697
81.672
81.648
81.623
81.599
81.574
81.550
81.525
81.501
81.476
81.452
81.427
81.403
81.378
81.354
81.329
81.305
81.280
81.256
81.231
81.207
81.182
81.158
81.182
81.207
81.231
81.256
81.280
81.305
81.329
81.354
81.378
81.403
81.427
81.452
81.476
81.501
81.525
81.550
81.574
81.599
81.623
81.648
81.672
81.697
81.721
81.746
81.770
81.795
81.819
81.844
81.868
81.893
81.917
81.942
81.966
81.991
82.015
82.040
82.064
82.089
82.113
82.138
82.162
82.187
82.211
82.236
82.260
82.285
82.309
82.334
82.358
82.383
82.407
82.432
82.456
82.481
82.505
82.530
82.554
82.579
82.603
82.628
82.652
82.677
82.701
82.726
82.750
82.775
82.799
82.824
82.848
82.873
82.897
82.922
82.946
82.971
82.995
83.020
83.044
83.069
83.093
83.118
83.142
83.167
83.191
83.216
83.240
83.265
83.289
83.314
83.338
83.363
83.387
83.412
83.436
83.461
83.485
83.510
83.534
83.559
83.583
83.608
83.632
83.657
83.681
83.706
83.730
83.755
83.779
83.804
83.828
83.853
83.877
83.902
83.926
83.951
83.975
84.000
84.024
84.049
84.073
84.098
84.122
84.147
84.171
84.196
84.220
84.245
84.269
84.294
84.318
84.343
84.367
84.392
84.416
84.441
84.465
84.490
84.514
84.539
84.563
84.588
84.612
84.637
84.661
84.686
84.710
84.735
84.759
84.784
84.808
84.833
84.857
84.882
84.906
84.931
84.955
84.980
85.004
85.029
85.053
85.078
85.102
85.127
85.151
85.176
85.200
85.225
85.249
85.274
85.298
85.323
85.347
85.372
85.396
85.421
85.445
85.470
85.494
85.519
85.543
85.568
85.592
85.617
85.641
85.666
85.690
85.715
85.739
85.764
85.788
85.813
85.837
85.862
85.886
85.911
85.935
85.960
85.984
86.009
86.033
86.058
86.058
86.058
86.058
86.058
86.058
86.058
86.058
86.058
86.058
86.058
86.058
86.058
86.058
86.058
86.058
86.058
86.058
86.058
86.058
86.058
86.058
86.058
86.058
86.058
86.058
86.058
86.058
86.058
86.058
86.058
86.058
86.058
86.058
86.058
86.058
86.058
86.058
86.058
86.058
86.058
86.058
86.058
86.058
86.058
86.058
86.058
86.058
86.058
86.058
86.058
86.058
86.058
86.058
86.058
86.058
86.058
86.058
86.058
86.058
86.058
86.058
86.058
86.058
86.058
86.058
86.058
86.058
86.058
86.058
86.058
86.058
86.058
86.058
86.058
86.058
86.058
86.058
86.058
86.058
86.058
86.058
86.058
86.058
86.058
86.058
86.058
86.058
86.058
86.058
86.058
86.058
86.058
86.058
86.058
86.058
86.058
86.058
86.058
86.058
86.058
86.058
86.058
86.058
86.058
86.058
86.058
86.058
86.058
86.058
86.058
86.058
86.058
86.058
86.058
86.058
86.058
86.058
86.058
86.058
86.058
86.058
86.058
86.058
86.058
86.058
86.058
86.058
86.058
86.058
86.058
86.058
86.058
86.058
86.058
86.058
86.058
86.058
86.058
86.058
86.058
86.058
86.058
86.058
86.058
86.058
86.058
86.058
86.058
86.058
86.058
86.058
86.058
86.058
86.058
86.058
86.058
86.058
86.058
86.058
86.058
86.058
86.058
86.058
86.058
86.058
86.058
86.058
86.058
86.058
86.058
86.058
86.058
86.058
86.058
86.058
86.058
86.058
86.058
86.058
86.058
86.058
86.058
86.058
86.058
86.058
86.058
86.058
86.058
86.058
86.058
86.058
86.058
86.058
86.058
86.058
86.058
86.058
86.058
86.058
1107.558
1110.001
1112.445
1114.888
1117.332
1119.775
1122.219
1124.662
1127.106
1129.549
1131.993
1134.436
1136.880
1139.323
1141.767
1144.210
1146.654
1149.097
1151.541
1153.984
1156.428
1158.871
1161.315
1163.758
1166.202
1168.645
1171.089
1173.532
1175.976
1178.419
1180.863
1183.306
1185.750
1188.193
1190.637
1193.080
1195.524
1197.967
1200.411
1202.854
1205.298
1207.741
1210.185
1212.628
1215.072
1217.515
1219.959
1222.402
1224.846
1227.289
1229.733
1232.176
1234.620
1237.063
1239.507
1241.950
1244.394
1246.837
1249.281
1251.724
1254.168
1256.611
1259.055
1261.498
1263.942
1266.385
1268.829
1271.272
1273.716
1276.159
1278.603
1281.046
1283.490
1285.933
1288.377
1290.820
1293.264
1295.707
1298.151
1300.594
1303.038
1305.481
1307.925
1310.368
1312.812
1315.255
1317.699
1320.142
1322.586
1325.029
1327.473
1329.916
1332.360
1334.803
1337.247
1339.690
1342.134
1344.577
1347.021
1349.464
1351.908
1354.351
1356.795
1359.238
1361.682
1364.125
1366.569
1369.012
1371.456
1373.899
1376.343
1378.786
1381.230
1383.673
1386.117
1388.560
1391.004
1393.447
1395.891
1398.334
1400.778
1403.221
1405.665
1408.108
1410.552
1412.995
1415.439
1417.882
1420.326
1422.769
1425.213
1427.656
1430.100
1432.543
1434.987
1437.430
1439.874
1442.317
1444.761
1447.204
1449.648
1452.091
1454.535
1456.978
1459.422
1461.865
1464.309
1466.752
1469.196
1471.639
1474.083
1476.526
1478.970
1481.413
1483.857
1486.300
1488.744
1491.187
1493.631
1496.074
1498.518
1500.961
1503.405
1505.848
1508.292
1510.735
1513.179
1515.622
1518.066
1520.509
1522.953
1525.396
1527.840
1530.283
1532.727
1535.170
1537.614
1540.057
1542.501
1544.944
1547.388
1549.831
1552.275
1554.718
1557.162
1559.605
1562.049
1564.492
1566.936
1569.379
1571.823
1574.266
1576.710
1579.153
1581.597
1584.040
1586.484
1588.927
1591.371
1593.814
1596.258
1598.360
1600.462
1602.564
1604.666
1606.768
1608.870
1610.972
1613.074
1615.176
1617.278
1619.380
1621.482
1623.584
1625.686
1627.788
1629.890
1631.992
1634.094
1636.196
1638.298
1640.400
1642.502
1644.604
1646.706
1648.808
1650.910
1653.012
1655.114
1657.216
1659.318
1661.420
1663.522
1665.624
1667.726
1669.828
1671.930
1674.032
1676.134
1678.236
1680.338
1682.440
1684.542
1686.644
1688.746
1690.848
1692.950
1695.052
1697.154
1699.256
1701.358
1703.460
1705.562
1707.664
1709.766
1711.868
1713.970
1716.072
1718.174
1720.276
1722.378
1724.480
1726.582
1728.684
1730.786
1732.888
1734.990
1737.092
1739.194
1741.296
1743.398
1745.500
1747.602
1749.704
1751.806
1753.908
1756.010
1758.112
1760.214
1762.316
1764.418
1766.520
1768.622
1770.724
1772.826
1774.928
1777.030
1779.132
1781.234
1783.336
1785.438
1787.540
1789.642
1791.744
1793.846
1795.948
1798.050
1800.152
1802.254
1804.356
1806.458
1808.560
1810.662
1812.764
1814.866
1816.968
1819.070
1821.172
1823.274
1825.376
1827.478
1829.580
1831.682
1833.784
1835.886
1837.988
1840.090
1842.192
1844.294
1846.396
1848.498
1850.600
1852.702
1854.804
1856.906
1859.008
1861.110
1863.212
1865.314
1867.416
1869.518
1871.620
1873.722
1875.824
1877.926
1880.028
1882.130
1884.232
1886.334
1888.436
1890.538
1892.640
1894.742
1896.844
1898.946
1901.048
1903.150
1905.252
1907.354
1909.456
1911.558
1913.660
1915.762
1917.864
1919.966
1922.068
1924.170
1926.272
1928.374
1930.476
1932.578
1934.680
1936.782
1938.884
1940.986
1943.088
1945.190
1947.292
1949.394
1951.496
1953.598
1955.700
1957.802
1959.904
1962.006
1964.108
1966.210
1968.312
1970.414
1972.516
1974.618
1976.720
1978.822
1980.924
1983.026
1985.128
1987.230
1989.332
1991.434
1993.536
1995.638
1997.740
1999.842
2001.944
2004.046
2006.148
2008.250
2010.352
2012.454
2014.556
2016.658
2017.171
2017.684
2018.197
2018.710
2019.223
2019.736
2020.249
2020.762
2021.275
2021.788
2022.301
2022.814
2023.327
2023.840
2024.353
2024.866
2025.379
2025.892
2026.405
2026.918
2027.431
2027.944
2028.457
2028.970
2029.483
2029.996
2030.509
2031.022
2031.535
2032.048
2032.561
2033.074
2033.587
2034.100
2034.613
2035.126
2035.639
2036.152
2036.665
2037.178
2037.691
2038.204
2038.717
2039.230
2039.743
2040.256
2040.769
2041.282
2041.795
2042.308
2042.821
2043.334
2043.847
2044.360
2044.873
2045.386
2045.899
2046.412
2046.925
2047.438
2047.951
2048.464
2048.977
2049.490
2050.003
2050.516
2051.029
2051.542
2052.055
2052.568
2053.081
2053.594
2054.107
2054.620
2055.133
2055.646
2056.159
2056.672
2057.185
2057.698
2058.211
2058.724
2059.237
2059.750
2060.263
2060.776
2061.289
2061.802
2062.315
2062.828
2063.341
2063.854
2064.367
2064.880
2065.393
2065.906
2066.419
2066.932
2067.445
2067.958
2068.471
2068.984
2069.497
2070.010
2070.523
2071.036
2071.549
2072.062
2072.575
2073.088
2073.601
2074.114
2074.627
2075.140
2075.653
2076.166
2076.679
2077.192
2077.705
2078.218
2078.731
2079.244
2079.757
2080.270
2080.783
2081.296
2081.809
2082.322
2082.835
2083.348
2083.861
2084.374
2084.887
2085.400
2085.913
2086.426
2086.939
2087.452
2087.965
2088.478
2088.991
2089.504
2090.017
2090.530
2091.043
2091.556
2092.069
2092.582
2093.095
2093.608
2094.121
2094.634
2095.147
2095.660
2096.173
2096.686
2097.199
2097.712
2098.225
2098.738
2099.251
2099.764
2100.277
2100.790
2101.303
2101.816
2102.329
2102.842
2103.355
2103.868
2104.381
2104.894
2105.407
2105.920
2106.433
2106.946
2107.459
2107.972
2108.485
2108.998
2109.511
2110.024
2110.537
2111.050
2111.563
2112.076
2112.589
2113.102
2113.615
2114.128
2114.641
2115.154
2115.667
2116.180
2116.693
2117.206
2117.719
2118.232
2118.745
2119.258
2117.816
2116.374
2114.932
2113.490
2112.048
2110.606
2109.164
2107.722
2106.280
2104.838
2103.396
2101.954
2100.512
2099.070
2097.628
2096.186
2094.744
2093.302
2091.860
2090.418
2088.976
2087.534
2086.092
2084.650
2083.208
2081.766
2080.324
2078.882
2077.440
2075.998
2074.556
2073.114
2071.672
2070.230
2068.788
2067.346
2065.904
2064.462
2063.020
2061.578
2060.136
2058.694
2057.252
2055.810
2054.368
2052.926
2051.484
2050.042
2048.600
2047.158
2045.716
2044.274
2042.832
2041.390
2039.948
2038.506
2037.064
2035.622
2034.180
2032.738
2031.296
2029.854
2028.412
2026.970
2025.528
2024.086
2022.644
2021.202
2019.760
2018.318
2016.876
2015.434
2013.992
2012.550
2011.108
2009.666
2008.224
2006.782
2005.340
2003.898
2002.456
2001.014
1999.572
1998.130
1996.688
1995.246
1993.804
1992.362
1990.920
1989.478
1988.036
1986.594
1985.152
1983.710
1982.268
1980.826
1979.384
1977.942
1976.500
1975.058
1973.616
1972.174
1970.732
1969.290
1967.848
1966.406
1964.964
1963.522
1962.080
1960.638
1959.196
1957.754
1956.312
1954.870
1953.428
1951.986
1950.544
1949.102
1947.660
1946.218
1944.776
1943.334
1941.892
1940.450
1939.008
1937.566
1936.124
1934.682
1933.240
1931.798
1930.356
1928.914
1927.472
1926.030
1924.588
1923.146
1921.704
1920.262
1918.820
1917.378
1915.936
1914.494
1913.052
1911.610
1910.168
1908.726
1907.284
1905.842
1904.400
1902.958
1901.516
1900.074
1898.632
1897.190
1895.748
1894.306
1892.864
1891.422
1889.980
1888.538
1887.096
1885.654
1884.212
1882.770
1881.328
1879.886
1878.444
1877.002
1875.560
1874.118
1872.676
1871.234
1869.792
1868.350
1866.908
1865.466
1864.024
1862.582
1861.140
1859.698
1858.256
1856.814
1855.372
1853.930
1852.488
1851.046
1849.604
1848.162
1846.720
1845.278
1843.836
1842.394
1840.952
1839.510
1838.068
1836.626
1835.184
1833.742
1832.300
1830.858
1833.228
1835.599
1837.969
1840.340
1842.710
1845.081
1847.451
1849.822
1852.192
1854.563
1856.933
1859.304
1861.674
1864.045
1866.415
1868.786
1871.156
1873.527
1875.897
1878.268
1880.638
1883.009
1885.379
1887.750
1890.120
1892.491
1894.861
1897.232
1899.602
1901.973
1904.343
1906.714
1909.084
1911.455
1913.825
1916.196
1918.566
1920.937
1923.307
1925.678
1928.048
1930.419
1932.789
1935.160
1937.530
1939.901
1942.271
1944.642
1947.012
1949.383
1951.753
1954.124
1956.494
1958.865
1961.235
1963.606
1965.976
1968.347
1970.717
1973.088
1975.458
1977.829
1980.199
1982.570
1984.940
1987.311
1989.681
1992.052
1994.422
1996.793
1999.163
2001.534
2003.904
2006.275
2008.645
2011.016
2013.386
2015.757
2018.127
2020.498
2022.868
2025.239
2027.609
2029.980
2032.350
2034.721
2037.091
2039.462
2041.832
2044.203
2046.573
2048.944
2051.314
2053.685
2056.055
2058.426
2060.796
2063.167
2065.537
2067.908
2070.278
2072.649
2075.019
2077.390
2079.760
2082.131
2084.501
2086.872
2089.242
2091.613
2093.983
2096.354
2098.724
2101.095
2103.465
2105.836
2108.206
2110.577
2112.947
2115.318
2117.688
2120.059
2122.429
2124.800
2127.170
2129.541
2131.911
2134.282
2136.652
2139.023
2141.393
2143.764
2146.134
2148.505
2150.875
2153.246
2155.616
2157.987
2160.357
2162.728
2165.098
2167.469
2169.839
2172.210
2174.580
2176.951
2179.321
2181.692
2184.062
2186.433
2188.803
2191.174
2193.544
2195.915
2198.285
2200.656
2203.026
2205.397
2207.767
2210.138
2212.508
2214.879
2217.249
2219.620
2221.990
2224.361
2226.731
2229.102
2231.472
2233.843
2236.213
2238.584
2240.954
2243.325
2245.695
2248.066
2250.436
2252.807
2255.177
2257.548
2259.918
2262.289
2264.659
2267.030
2269.400
2271.771
2274.141
2276.512
2278.882
2281.253
2283.623
2285.994
2288.364
2290.735
2293.105
2295.476
2297.846
2300.217
2302.587
2304.958
2304.103
2303.248
2302.393
2301.538
2300.683
2299.828
2298.973
2298.118
2297.263
2296.408
2295.553
2294.698
2293.843
2292.988
2292.133
2291.278
2290.423
2289.568
2288.713
2287.858
2287.003
2286.148
2285.293
2284.438
2283.583
2282.728
2281.873
2281.018
2280.163
2279.308
2278.453
2277.598
2276.743
2275.888
2275.033
2274.178
2273.323
2272.468
2271.613
2270.758
2269.903
2269.048
2268.193
2267.338
2266.483
2265.628
2264.773
2263.918
2263.063
2262.208
2261.353
2260.498
2259.643
2258.788
2257.933
2257.078
2256.223
2255.368
2254.513
2253.658
2252.803
2251.948
2251.093
2250.238
2249.383
2248.528
2247.673
2246.818
2245.963
2245.108
2244.253
2243.398
2242.543
2241.688
2240.833
2239.978
2239.123
2238.268
2237.413
2236.558
2235.703
2234.848
2233.993
2233.138
2232.283
2231.428
2230.573
2229.718
2228.863
2228.008
2227.153
2226.298
2225.443
2224.588
2223.733
2222.878
2222.023
2221.168
2220.313
2219.458
2218.603
2217.748
2216.893
2216.038
2215.183
2214.328
2213.473
2212.618
2211.763
2210.908
2210.053
2209.198
2208.343
2207.488
2206.633
2205.778
2204.923
2204.068
2203.213
2202.358
2201.503
2200.648
2199.793
2198.938
2198.083
2197.228
2196.373
2195.518
2194.663
2193.808
2192.953
2192.098
2191.243
2190.388
2189.533
2188.678
2187.823
2186.968
2186.113
2185.258
2184.403
2183.548
2182.693
2181.838
2180.983
2180.128
2179.273
2178.418
2177.563
2176.708
2175.853
2174.998
2174.143
2173.288
2172.433
2171.578
2170.723
2169.868
2169.013
2168.158
2167.303
2166.448
2165.593
2164.738
2163.883
2163.028
2162.173
2161.318
2160.463
2159.608
2158.753
2157.898
2157.043
2156.188
2155.333
2154.478
2153.623
2152.768
2151.913
2151.058
2150.203
2149.348
2148.493
2147.638
2146.783
2145.928
2145.073
2144.218
2143.363
2142.508
2141.653
2140.798
2139.943
2139.088
2138.233
2137.378
2136.523
2135.668
2134.813
2133.958
2131.734
2129.510
2127.286
2125.062
2122.838
2120.614
2118.390
2116.166
2113.942
2111.718
2109.494
2107.270
2105.046
2102.822
2100.598
2098.374
2096.150
2093.926
2091.702
2089.478
2087.254
2085.030
2082.806
2080.582
2078.358
2076.134
2073.910
2071.686
2069.462
2067.238
2065.014
2062.790
2060.566
2058.342
2056.118
2053.894
2051.670
2049.446
2047.222
2044.998
2042.774
2040.550
2038.326
2036.102
2033.878
2031.654
2029.430
2027.206
2024.982
2022.758
2020.534
2018.310
2016.086
2013.862
2011.638
2009.414
2007.190
2004.966
2002.742
2000.518
1998.294
1996.070
1993.846
1991.622
1989.398
1987.174
1984.950
1982.726
1980.502
1978.278
1976.054
1973.830
1971.606
1969.382
1967.158
1964.934
1962.710
1960.486
1958.262
1956.038
1953.814
1951.590
1949.366
1947.142
1944.918
1942.694
1940.470
1938.246
1936.022
1933.798
1931.574
1929.350
1927.126
1924.902
1922.678
1920.454
1918.230
1916.006
1913.782
1911.558
1909.334
1907.110
1904.886
1902.662
1900.438
1898.214
1895.990
1893.766
1891.542
1889.318
1887.094
1884.870
1882.646
1880.422
1878.198
1875.974
1873.750
1871.526
1869.302
1867.078
1864.854
1862.630
1860.406
1858.182
1855.958
1853.734
1851.510
1849.286
1847.062
1844.838
1842.614
1840.390
1838.166
1835.942
1833.718
1831.494
1829.270
1827.046
1824.822
1822.598
1820.374
1818.150
1815.926
1813.702
1811.478
1809.254
1807.030
1804.806
1802.582
1800.358
1798.134
1795.910
1793.686
1791.462
1789.238
1787.014
1784.790
1782.566
1780.342
1778.118
1775.894
1773.670
1771.446
1769.222
1766.998
1764.774
1762.550
1760.326
1758.102
1755.878
1753.654
1751.430
1749.206
1746.982
1744.758
1742.534
1740.310
1738.086
1735.862
1733.638
1731.414
1729.190
1726.966
1724.742
1722.518
1720.294
1718.070
1715.846
1713.622
1711.398
1709.174
1706.950
1704.726
1702.502
1700.278
1698.054
1695.830
1693.606
1691.382
1689.158
1691.479
1693.801
1696.122
1698.444
1700.765
1703.087
1705.408
1707.730
1710.051
1712.373
1714.694
1717.016
1719.337
1721.659
1723.980
1726.302
1728.623
1730.945
1733.266
1735.588
1737.909
1740.231
1742.552
1744.874
1747.195
1749.517
1751.838
1754.160
1756.481
1758.803
1761.124
1763.446
1765.767
1768.089
1770.410
1772.732
1775.053
1777.375
1779.696
1782.018
1784.339
1786.661
1788.982
1791.304
1793.625
1795.947
1798.268
1800.590
1802.911
