99.865
99.865
99.865
99.865
99.865
99.865
99.865
99.865
99.865
99.865
99.865
99.865
99.865
99.865
99.865
99.865
99.865
99.865
99.865
99.865
99.865
99.865
99.865
99.865
99.865
99.865
99.865
99.865
99.865
99.865
99.865
99.865
99.865
99.865
99.865
99.865
99.865
99.865
99.865
99.865
99.865
99.865
99.865
99.865
99.865
99.865
99.865
99.865
99.865
99.865
99.865
99.865
99.865
99.865
99.865
99.865
99.865
99.865
99.865
99.865
99.865
99.865
99.865
99.865
99.865
99.865
99.865
99.865
99.865
99.865
99.865
99.865
99.865
99.865
99.865
99.865
99.865
99.865
99.865
99.865
99.865
99.865
99.865
99.865
99.865
99.865
99.865
99.865
99.865
99.865
99.865
99.865
99.865
99.865
99.865
99.865
99.865
99.865
99.865
99.865
99.865
99.865
99.865
99.865
99.865
99.865
99.865
99.865
99.865
99.865
99.865
99.865
99.865
99.865
99.865
99.865
99.865
99.865
99.865
99.865
99.865
99.865
99.865
99.865
99.865
99.865
99.865
99.865
99.865
99.865
99.865
99.865
99.865
99.865
99.865
99.865
99.865
99.865
99.865
99.865
99.865
99.865
99.865
99.865
99.865
99.865
99.865
99.865
99.865
99.865
99.865
99.865
99.865
99.865
99.865
99.865
99.865
99.865
99.865
99.865
99.865
99.865
99.865
99.865
99.865
99.865
99.865
99.865
99.865
99.865
99.865
99.865
99.865
99.865
99.865
99.865
99.865
99.865
99.865
99.865
99.865
99.865
99.865
99.865
99.865
99.865
99.865
99.865
99.865
99.865
99.865
99.865
99.865
99.865
99.865
99.865
99.865
99.865
99.865
99.865
99.865
99.865
99.865
99.865
99.865
99.865
99.865
99.865
99.865
99.865
99.865
99.865
99.865
99.865
99.865
99.865
99.865
99.865
99.865
99.865
99.865
99.865
99.865
99.865
99.865
99.865
99.865
99.865
99.865
99.865
99.865
99.865
99.865
99.865
99.865
99.865
99.865
99.865
99.865
99.865
99.865
99.865
99.865
99.865
99.865
99.865
99.865
99.865
99.865
99.865
99.865
99.865
99.865
99.865
99.865
99.865
99.865
99.865
99.865
99.865
99.865
99.865
99.865
99.865
99.865
99.865
99.865
99.865
99.865
99.865
99.865
99.865
99.865
99.865
99.865
99.865
99.865
99.865
99.865
99.865
99.865
99.865
99.865
99.865
99.865
99.865
99.865
99.865
99.865
99.865
99.865
99.865
99.865
99.865
99.865
99.865
99.865
99.865
99.865
99.865
99.865
99.865
94.965
94.989
95.014
95.038
95.063
95.087
95.112
95.136
95.161
95.185
95.210
95.234
95.259
95.283
95.308
95.332
95.357
95.381
95.406
95.430
95.455
95.479
95.504
95.528
95.553
95.577
95.602
95.626
95.651
95.675
95.700
95.724
95.749
95.773
95.798
95.822
95.847
95.871
95.896
95.920
95.945
95.969
95.994
96.018
96.043
96.067
96.092
96.116
96.141
96.165
96.190
96.214
96.239
96.263
96.288
96.312
96.337
96.361
96.386
96.410
96.435
96.459
96.484
96.508
96.533
96.557
96.582
96.606
96.631
96.655
96.680
96.704
96.729
96.753
96.778
96.802
96.827
96.851
96.876
96.900
96.925
96.949
96.974
96.998
97.023
97.047
97.072
97.096
97.121
97.145
97.170
97.194
97.219
97.243
97.268
97.292
97.317
97.341
97.366
97.390
97.415
97.439
97.464
97.488
97.513
97.537
97.562
97.586
97.611
97.635
97.660
97.684
97.709
97.733
97.758
97.782
97.807
97.831
97.856
97.880
97.905
97.929
97.954
97.978
98.003
98.027
98.052
98.076
98.101
98.125
98.150
98.174
98.199
98.223
98.248
98.272
98.297
98.321
98.346
98.370
98.395
98.419
98.444
98.468
98.493
98.517
98.542
98.566
98.591
98.615
98.640
98.664
98.689
98.713
98.738
98.762
98.787
98.811
98.836
98.860
98.885
98.909
98.934
98.958
98.983
99.007
99.032
99.056
99.081
99.105
99.130
99.154
99.179
99.203
99.228
99.252
99.277
99.301
99.326
99.350
99.375
99.399
99.424
99.448
99.473
99.497
99.522
99.546
99.571
99.595
99.620
99.644
99.669
99.693
99.718
99.742
99.767
99.791
99.816
99.840
515.265
518.295
521.326
524.356
527.387
530.417
533.448
536.478
539.509
542.539
545.570
548.600
551.631
554.661
557.692
560.722
563.753
566.783
569.814
572.844
575.875
578.905
581.936
584.966
587.997
591.027
594.058
597.088
600.119
603.149
606.180
609.210
612.241
615.271
618.302
621.332
624.363
627.393
630.424
633.454
636.485
639.515
642.546
645.576
648.607
651.637
654.668
657.698
660.729
663.759
666.790
669.820
672.851
675.881
678.912
681.942
684.973
688.003
691.034
694.064
697.095
700.125
703.156
706.186
709.217
712.247
715.278
718.308
721.339
724.369
727.400
730.430
733.461
736.491
739.522
742.552
745.583
748.613
751.644
754.674
757.705
760.735
763.766
766.796
769.827
772.857
775.888
778.918
781.949
784.979
788.010
791.040
794.071
797.101
800.132
803.162
806.193
809.223
812.254
815.284
818.315
821.345
824.376
827.406
830.437
833.467
836.498
839.528
842.559
845.589
848.620
851.650
854.681
857.711
860.742
863.772
866.803
869.833
872.864
875.894
878.925
881.955
884.986
888.016
891.047
894.077
897.108
900.138
903.169
906.199
909.230
912.260
915.291
918.321
921.352
924.382
927.413
930.443
933.474
936.504
939.535
942.565
945.596
948.626
951.657
954.687
957.718
960.748
963.779
966.809
969.840
972.870
975.901
978.931
981.962
984.992
988.023
991.053
994.084
997.114
1000.145
1003.175
1006.206
1009.236
1012.267
1015.297
1018.328
1021.358
1024.389
1027.419
1030.450
1033.480
1036.511
1039.541
1042.572
1045.602
1048.633
1051.663
1054.694
1057.724
1060.755
1063.785
1066.816
1069.846
1072.877
1075.907
1078.938
1081.968
1084.999
1088.029
1091.060
1094.090
1097.121
1100.151
1103.182
1106.212
1109.243
1112.273
1115.304
1118.334
1121.365
1123.808
1126.252
1128.695
1131.139
1133.582
1136.026
1138.469
1140.913
1143.356
1145.800
1148.243
1150.687
1153.130
1155.574
1158.017
1160.461
1162.904
1165.348
1167.791
1170.235
1172.678
1175.122
1177.565
1180.009
1182.452
1184.896
1187.339
1189.783
1192.226
1194.670
1197.113
1199.557
1202.000
1204.444
1206.887
1209.331
1211.774
1214.218
1216.661
1219.105
1221.548
1223.992
1226.435
1228.879
1231.322
1233.766
1236.209
1238.653
1241.096
1243.540
1245.983
1248.427
1250.870
1253.314
1255.757
1258.201
1260.644
1263.088
1265.531
1267.975
1270.418
1272.862
1275.305
1277.749
1280.192
1282.636
1285.079
1287.523
1289.966
1292.410
1294.853
1297.297
1299.740
1302.184
1304.627
1307.071
1309.514
1311.958
1314.401
1316.845
1319.288
1321.732
1324.175
1326.619
1329.062
1331.506
1333.949
1336.393
1338.836
1341.280
1343.723
1346.167
1348.610
1351.054
1353.497
1355.941
1358.384
1360.828
1363.271
1365.715
1368.158
1370.602
1373.045
1375.489
1377.932
1380.376
1382.819
1385.263
1387.706
1390.150
1392.593
1395.037
1397.480
1399.924
1402.367
1404.811
1407.254
1409.698
1412.141
1414.585
1417.028
1419.472
1421.915
1424.359
1426.802
1429.246
1431.689
1434.133
1436.576
1439.020
1441.463
1443.907
1446.350
1448.794
1451.237
1453.681
1456.124
1458.568
1461.011
1463.455
1465.898
1468.342
1470.785
1473.229
1475.672
1478.116
1480.559
1483.003
1485.446
1487.890
1490.333
1492.777
1495.220
1497.664
1500.107
1502.551
1504.994
1507.438
1509.881
1512.325
1514.768
1517.212
1519.655
1522.099
1524.542
1526.986
1529.429
1531.873
1534.316
1536.760
1539.203
1541.647
1544.090
1546.534
1548.977
1551.421
1553.864
1556.308
1558.751
1561.195
1563.638
1566.082
1568.525
1570.969
1573.412
1575.856
1578.299
1580.743
1583.186
1585.630
1588.073
1590.517
1592.960
1595.404
1597.847
1600.291
1602.734
1605.178
1607.621
1610.065
1612.167
1614.269
1616.371
1618.473
1620.575
1622.677
1624.779
1626.881
1628.983
1631.085
1633.187
1635.289
1637.391
1639.493
1641.595
1643.697
1645.799
1647.901
1650.003
1652.105
1654.207
1656.309
1658.411
1660.513
1662.615
1664.717
1666.819
1668.921
1671.023
1673.125
1675.227
1677.329
1679.431
1681.533
1683.635
1685.737
1687.839
1689.941
1692.043
1694.145
1696.247
1698.349
1700.451
1702.553
1704.655
1706.757
1708.859
1710.961
1713.063
1715.165
1717.267
1719.369
1721.471
1723.573
1725.675
1727.777
1729.879
1731.981
1734.083
1736.185
1738.287
1740.389
1742.491
1744.593
1746.695
1748.797
1750.899
1753.001
1755.103
1757.205
1759.307
1761.409
1763.511
1765.613
1767.715
1769.817
1771.919
1774.021
1776.123
1778.225
1780.327
1782.429
1784.531
1786.633
1788.735
1790.837
1792.939
1795.041
1797.143
1799.245
1801.347
1803.449
1805.551
1807.653
1809.755
1811.857
1813.959
1816.061
1818.163
1820.265
1822.367
1824.469
1826.571
1828.673
1830.775
1832.877
1834.979
1837.081
1839.183
1841.285
1843.387
1845.489
1847.591
1849.693
1851.795
1853.897
1855.999
1858.101
1860.203
1862.305
1864.407
1866.509
1868.611
1870.713
1872.815
1874.917
1877.019
1879.121
1881.223
1883.325
1885.427
1887.529
1889.631
1891.733
1893.835
1895.937
1898.039
1900.141
1902.243
1904.345
1906.447
1908.549
1910.651
1912.753
1914.855
1916.957
1919.059
1921.161
1923.263
1925.365
1927.467
1929.569
1931.671
1933.773
1935.875
1937.977
1940.079
1942.181
1944.283
1946.385
1948.487
1950.589
1952.691
1954.793
1956.895
1958.997
1961.099
1963.201
1965.303
1967.405
1969.507
1971.609
1973.711
1975.813
1977.915
1980.017
1982.119
1984.221
1986.323
1988.425
1990.527
1992.629
1994.731
1996.833
1998.935
2001.037
2003.139
2005.241
2007.343
2009.445
2011.547
2013.649
2015.751
2017.853
2019.955
2022.057
2024.159
2026.261
2028.363
2030.465
2030.978
2031.491
2032.004
2032.517
2033.030
2033.543
2034.056
2034.569
2035.082
2035.595
2036.108
2036.621
2037.134
2037.647
2038.160
2038.673
2039.186
2039.699
2040.212
2040.725
2041.238
2041.751
2042.264
2042.777
2043.290
2043.803
2044.316
2044.829
2045.342
2045.855
2046.368
2046.881
2047.394
2047.907
2048.420
2048.933
2049.446
2049.959
2050.472
2050.985
2051.498
2052.011
2052.524
2053.037
2053.550
2054.063
2054.576
2055.089
2055.602
2056.115
2056.628
2057.141
2057.654
2058.167
2058.680
2059.193
2059.706
2060.219
2060.732
2061.245
2061.758
2062.271
2062.784
2063.297
2063.810
2064.323
2064.836
2065.349
2065.862
2066.375
2066.888
2067.401
2067.914
2068.427
2068.940
2069.453
2069.966
2070.479
2070.992
2071.505
2072.018
2072.531
2073.044
2073.557
2074.070
2074.583
2075.096
2075.609
2076.122
2076.635
2077.148
2077.661
2078.174
2078.687
2079.200
2079.713
2080.226
2080.739
2081.252
2081.765
2082.278
2082.791
2083.304
2083.817
2084.330
2084.843
2085.356
2085.869
2086.382
2086.895
2087.408
2087.921
2088.434
2088.947
2089.460
2089.973
2090.486
2090.999
2091.512
2092.025
2092.538
2093.051
2093.564
2094.077
2094.590
2095.103
2095.616
2096.129
2096.642
2097.155
2097.668
2098.181
2098.694
2099.207
2099.720
2100.233
2100.746
2101.259
2101.772
2102.285
2102.798
2103.311
2103.824
2104.337
2104.850
2105.363
2105.876
2106.389
2106.902
2107.415
2107.928
2108.441
2108.954
2109.467
2109.980
2110.493
2111.006
2111.519
2112.032
2112.545
2113.058
2113.571
2114.084
2114.597
2115.110
2115.623
2116.136
2116.649
2117.162
2117.675
2118.188
2118.701
2119.214
2119.727
2120.240
2120.753
2121.266
2121.779
2122.292
2122.805
2123.318
2123.831
2124.344
2124.857
2125.370
2125.883
2126.396
2126.909
2127.422
2127.935
2128.448
2128.961
2129.474
2129.987
2130.500
2131.013
2131.526
2132.039
2132.552
2133.065
2131.623
2130.181
2128.739
2127.297
2125.855
2124.413
2122.971
2121.529
2120.087
2118.645
2117.203
2115.761
2114.319
2112.877
2111.435
2109.993
2108.551
2107.109
2105.667
2104.225
2102.783
2101.341
2099.899
2098.457
2097.015
2095.573
2094.131
2092.689
2091.247
2089.805
2088.363
2086.921
2085.479
2084.037
2082.595
2081.153
2079.711
2078.269
2076.827
2075.385
2073.943
2072.501
2071.059
2069.617
2068.175
2066.733
2065.291
2063.849
2062.407
2060.965
2059.523
2058.081
2056.639
2055.197
2053.755
2052.313
2050.871
2049.429
2047.987
2046.545
2045.103
2043.661
2042.219
2040.777
2039.335
2037.893
2036.451
2035.009
2033.567
2032.125
2030.683
2029.241
2027.799
2026.357
2024.915
2023.473
2022.031
2020.589
2019.147
2017.705
2016.263
2014.821
2013.379
2011.937
2010.495
2009.053
2007.611
2006.169
2004.727
2003.285
2001.843
2000.401
1998.959
1997.517
1996.075
1994.633
1993.191
1991.749
1990.307
1988.865
1987.423
1985.981
1984.539
1983.097
1981.655
1980.213
1978.771
1977.329
1975.887
1974.445
1973.003
1971.561
1970.119
1968.677
1967.235
1965.793
1964.351
1962.909
1961.467
1960.025
1958.583
1957.141
1955.699
1954.257
1952.815
1951.373
1949.931
1948.489
1947.047
1945.605
1944.163
1942.721
1941.279
1939.837
1938.395
1936.953
1935.511
1934.069
1932.627
1931.185
1929.743
1928.301
1926.859
1925.417
1923.975
1922.533
1921.091
1919.649
1918.207
1916.765
1915.323
1913.881
1912.439
1910.997
1909.555
1908.113
1906.671
1905.229
1903.787
1902.345
1900.903
1899.461
1898.019
1896.577
1895.135
1893.693
1892.251
1890.809
1889.367
1887.925
1886.483
1885.041
1883.599
1882.157
1880.715
1879.273
1877.831
1876.389
1874.947
1873.505
1872.063
1870.621
1869.179
1867.737
1866.295
1864.853
1863.411
1861.969
1860.527
1859.085
1857.643
1856.201
1854.759
1853.317
1851.875
1850.433
1848.991
1847.549
1846.107
1844.665
1847.035
1849.406
1851.776
1854.147
1856.517
1858.888
1861.258
1863.629
1865.999
1868.370
1870.740
1873.111
1875.481
1877.852
1880.222
1882.593
1884.963
1887.334
1889.704
1892.075
1894.445
1896.816
1899.186
1901.557
1903.927
1906.298
1908.668
1911.039
1913.409
1915.780
1918.150
1920.521
1922.891
1925.262
1927.632
1930.003
1932.373
1934.744
1937.114
1939.485
1941.855
1944.226
1946.596
1948.967
1951.337
1953.708
1956.078
1958.449
1960.819
1963.190
1965.560
1967.931
1970.301
1972.672
1975.042
1977.413
1979.783
1982.154
1984.524
1986.895
1989.265
1991.636
1994.006
1996.377
1998.747
2001.118
2003.488
2005.859
2008.229
2010.600
2012.970
2015.341
2017.711
2020.082
2022.452
2024.823
2027.193
2029.564
2031.934
2034.305
2036.675
2039.046
2041.416
2043.787
2046.157
2048.528
2050.898
2053.269
2055.639
2058.010
2060.380
2062.751
2065.121
2067.492
2069.862
2072.233
2074.603
2076.974
2079.344
2081.715
2084.085
2086.456
2088.826
2091.197
2093.567
2095.938
2098.308
2100.679
2103.049
2105.420
2107.790
2110.161
2112.531
2114.902
2117.272
2119.643
2122.013
2124.384
2126.754
2129.125
2131.495
2133.866
2136.236
2138.607
2140.977
2143.348
2145.718
2148.089
2150.459
2152.830
2155.200
2157.571
2159.941
2162.312
2164.682
2167.053
2169.423
2171.794
2174.164
2176.535
2178.905
2181.276
2183.646
2186.017
2188.387
2190.758
2193.128
2195.499
2197.869
2200.240
2202.610
2204.981
2207.351
2209.722
2212.092
2214.463
2216.833
2219.204
2221.574
2223.945
2226.315
2228.686
2231.056
2233.427
2235.797
2238.168
2240.538
2242.909
2245.279
2247.650
2250.020
2252.391
2254.761
2257.132
2259.502
2261.873
2264.243
2266.614
2268.984
2271.355
2273.725
2276.096
2278.466
2280.837
2283.207
2285.578
2287.948
2290.319
2292.689
2295.060
2297.430
2299.801
2302.171
2304.542
2306.912
2309.283
2311.653
2314.024
2316.394
2318.765
2317.910
2317.055
2316.200
2315.345
2314.490
2313.635
2312.780
2311.925
2311.070
2310.215
2309.360
2308.505
2307.650
2306.795
2305.940
2305.085
2304.230
2303.375
2302.520
2301.665
2300.810
2299.955
2299.100
2298.245
2297.390
2296.535
2295.680
2294.825
2293.970
2293.115
2292.260
2291.405
2290.550
2289.695
2288.840
2287.985
2287.130
2286.275
2285.420
2284.565
2283.710
2282.855
2282.000
2281.145
2280.290
2279.435
2278.580
2277.725
2276.870
2276.015
2275.160
2274.305
2273.450
2272.595
2271.740
2270.885
2270.030
2269.175
2268.320
2267.465
2266.610
2265.755
2264.900
2264.045
2263.190
2262.335
2261.480
2260.625
2259.770
2258.915
2258.060
2257.205
2256.350
2255.495
2254.640
2253.785
2252.930
2252.075
2251.220
2250.365
2249.510
2248.655
2247.800
2246.945
2246.090
2245.235
2244.380
2243.525
2242.670
2241.815
2240.960
2240.105
2239.250
2238.395
2237.540
2236.685
2235.830
2234.975
2234.120
2233.265
2232.410
2231.555
2230.700
2229.845
2228.990
2228.135
2227.280
2226.425
2225.570
2224.715
2223.860
2223.005
2222.150
2221.295
2220.440
2219.585
2218.730
2217.875
2217.020
2216.165
2215.310
2214.455
2213.600
2212.745
2211.890
2211.035
2210.180
2209.325
2208.470
2207.615
2206.760
2205.905
2205.050
2204.195
2203.340
2202.485
2201.630
2200.775
2199.920
2199.065
2198.210
2197.355
2196.500
2195.645
2194.790
2193.935
2193.080
2192.225
2191.370
2190.515
2189.660
2188.805
2187.950
2187.095
2186.240
2185.385
2184.530
2183.675
2182.820
2181.965
2181.110
2180.255
2179.400
2178.545
2177.690
2176.835
2175.980
2175.125
2174.270
2173.415
2172.560
2171.705
2170.850
2169.995
2169.140
2168.285
2167.430
2166.575
2165.720
2164.865
2164.010
2163.155
2162.300
2161.445
2160.590
2159.735
2158.880
2158.025
2157.170
2156.315
2155.460
2154.605
2153.750
2152.895
2152.040
2151.185
2150.330
2149.475
2148.620
2147.765
2145.541
2143.317
2141.093
2138.869
2136.645
2134.421
2132.197
2129.973
2127.749
2125.525
2123.301
2121.077
2118.853
2116.629
2114.405
2112.181
2109.957
2107.733
2105.509
2103.285
2101.061
2098.837
2096.613
2094.389
2092.165
2089.941
2087.717
2085.493
2083.269
2081.045
2078.821
2076.597
2074.373
2072.149
2069.925
2067.701
2065.477
2063.253
2061.029
2058.805
2056.581
2054.357
2052.133
2049.909
2047.685
2045.461
2043.237
2041.013
2038.789
2036.565
2034.341
2032.117
2029.893
2027.669
2025.445
2023.221
2020.997
2018.773
2016.549
2014.325
2012.101
2009.877
2007.653
2005.429
2003.205
2000.981
1998.757
1996.533
1994.309
1992.085
1989.861
1987.637
1985.413
1983.189
1980.965
1978.741
1976.517
1974.293
1972.069
1969.845
1967.621
1965.397
1963.173
1960.949
1958.725
1956.501
1954.277
1952.053
1949.829
1947.605
1945.381
1943.157
1940.933
1938.709
1936.485
1934.261
1932.037
