116.514
116.587
116.660
116.733
116.806
116.879
116.952
117.025
117.098
117.171
117.244
117.317
117.390
117.463
117.536
117.609
117.682
117.755
117.828
117.901
117.974
118.047
118.120
118.193
118.266
118.339
118.412
118.485
118.558
118.631
118.704
118.777
118.850
118.923
118.996
119.069
119.142
119.215
119.288
119.361
119.434
119.507
119.580
119.653
119.726
119.799
119.872
119.945
120.018
120.091
120.164
120.237
120.310
120.383
120.456
120.529
120.602
120.675
120.748
120.821
120.894
120.967
121.040
121.113
121.186
121.259
121.332
121.405
121.478
121.551
121.624
121.697
121.770
121.843
121.916
121.989
122.062
122.135
122.208
122.281
122.354
122.427
122.500
122.573
122.524
122.476
122.427
122.379
122.330
122.282
122.233
122.185
122.136
122.088
122.039
121.991
121.942
121.894
121.845
121.797
121.748
121.700
121.651
121.603
121.554
121.506
121.457
121.409
121.360
121.312
121.263
121.215
121.166
121.118
121.069
121.021
120.972
120.924
120.875
120.827
120.778
120.730
120.681
120.633
120.584
120.536
120.487
120.439
120.390
120.342
120.293
120.245
120.196
120.148
120.099
120.051
120.002
119.954
119.905
119.857
119.808
119.760
119.711
119.663
119.614
119.566
119.517
119.469
119.420
119.372
119.323
119.275
119.226
119.178
119.129
119.081
119.032
118.984
118.935
118.887
118.838
118.790
118.741
118.693
118.644
118.596
118.547
118.499
118.450
118.402
118.353
118.305
118.256
118.208
118.159
118.111
118.062
118.014
117.965
117.917
117.868
117.820
117.771
117.723
117.674
117.626
117.577
117.529
117.480
117.432
117.383
117.335
117.286
117.238
117.189
117.141
117.092
117.044
116.995
116.947
116.898
116.850
116.801
116.753
116.704
116.656
116.607
116.559
116.510
116.462
116.413
116.365
116.316
116.268
116.219
116.171
116.122
116.074
116.025
115.977
115.928
115.880
115.831
115.783
115.734
115.686
115.637
115.589
115.540
115.492
115.443
115.395
115.346
115.298
115.249
115.201
115.152
115.104
115.055
115.007
114.958
114.910
114.861
114.813
114.764
114.716
114.667
114.619
114.570
114.522
114.473
114.425
114.376
114.328
114.279
114.231
114.182
114.134
114.085
114.037
113.988
113.940
113.891
113.843
113.794
113.746
113.697
113.649
113.600
113.552
113.503
113.455
113.406
113.358
113.309
113.261
113.212
113.164
113.115
113.067
113.018
112.970
112.921
112.873
112.873
112.873
112.873
112.873
112.873
112.873
112.873
112.873
112.873
112.873
112.873
112.873
112.873
112.873
112.873
112.873
112.873
112.873
112.873
112.873
112.873
112.873
112.873
112.873
112.873
112.873
112.873
112.873
112.873
112.873
112.873
112.873
112.873
112.873
112.873
112.873
112.873
112.873
112.873
112.873
112.873
112.873
112.873
112.873
112.873
112.873
112.873
112.873
112.873
112.873
112.873
112.873
112.873
112.873
112.873
112.873
112.873
112.873
112.873
112.873
112.873
112.873
112.873
112.873
112.873
112.873
112.873
112.873
112.873
112.873
112.873
112.873
112.873
112.873
112.873
112.873
112.873
112.873
112.873
112.873
112.873
112.873
112.873
112.873
112.873
112.873
112.873
112.873
112.873
112.873
112.873
112.873
112.873
112.873
112.873
112.873
112.873
112.873
112.873
112.873
112.873
112.873
112.873
112.873
112.873
112.873
112.873
112.873
112.873
112.873
112.873
112.873
112.873
112.873
112.873
112.873
112.873
112.873
112.873
112.873
112.873
112.873
112.873
112.873
112.873
112.873
112.873
112.873
112.873
112.873
112.873
112.873
112.873
112.873
112.873
112.873
112.873
112.873
112.873
112.873
112.873
112.873
112.873
112.873
112.873
112.873
112.873
112.873
112.873
112.873
112.873
112.873
112.873
112.873
112.873
112.873
112.873
112.873
112.873
112.873
112.873
112.873
112.873
112.873
112.873
112.873
112.873
112.873
112.873
112.873
112.873
112.873
112.873
112.873
112.873
112.873
112.873
112.873
112.873
112.873
112.873
112.873
112.873
112.873
112.873
112.873
112.873
112.873
112.873
112.873
112.873
112.873
112.873
112.873
112.873
112.873
112.873
112.873
112.873
112.873
112.873
112.873
112.873
112.873
112.873
112.873
112.873
112.873
112.873
112.873
112.873
112.873
112.873
112.873
112.873
112.873
112.873
112.873
112.873
112.873
112.873
112.873
112.873
112.873
112.873
112.873
112.873
112.873
112.873
112.873
112.873
112.873
112.873
112.873
112.873
112.873
112.873
112.873
112.873
112.873
112.873
112.873
112.873
112.873
112.873
112.873
112.873
112.873
112.873
112.873
112.873
112.873
112.873
112.873
112.873
112.873
112.873
112.873
112.873
112.873
112.873
112.873
112.873
112.873
112.873
112.873
112.873
112.873
112.873
112.873
112.873
112.873
112.873
112.873
112.873
112.873
112.873
112.873
112.873
112.873
112.873
112.873
112.873
112.873
112.873
112.873
112.873
112.873
112.873
112.873
112.873
112.873
112.873
112.873
112.873
112.873
112.873
112.873
112.873
112.873
112.873
112.873
112.873
112.873
112.873
112.873
112.873
112.873
112.873
112.873
112.873
112.873
112.873
112.873
112.873
112.873
112.873
112.873
112.873
112.873
112.873
112.873
112.873
112.873
112.873
112.873
112.873
112.873
112.873
112.873
112.873
112.873
112.873
112.873
112.873
112.873
112.873
112.873
112.873
112.873
112.873
112.873
112.873
112.873
112.873
112.873
112.873
112.873
112.873
112.873
112.873
112.873
112.873
112.873
112.873
112.873
112.873
112.873
112.873
112.873
112.873
112.873
112.873
112.873
112.873
112.873
112.873
112.873
112.873
112.873
112.873
112.873
112.873
112.873
112.873
112.873
112.873
112.873
112.873
112.873
112.873
112.873
112.873
112.873
112.873
112.873
112.873
112.873
112.873
112.873
112.873
112.873
112.873
112.873
112.873
112.873
112.873
112.873
112.873
1339.573
1340.551
1341.529
1342.507
1343.485
1344.463
1345.441
1346.419
1347.397
1348.375
1349.353
1350.331
1351.309
1352.287
1353.265
1354.243
1355.221
1356.199
1357.177
1358.155
1359.133
1360.111
1361.089
1362.067
1363.045
1364.023
1365.001
1365.979
1366.957
1367.935
1368.913
1369.891
1370.869
1371.847
1372.825
1373.803
1374.781
1375.759
1376.737
1377.715
1378.693
1379.671
1380.649
1381.627
1382.605
1383.583
1384.561
1385.539
1386.517
1387.495
1388.473
1389.451
1390.429
1391.407
1392.385
1393.363
1394.341
1395.319
1396.297
1397.275
1398.253
1399.231
1400.209
1401.187
1402.165
1403.143
1404.121
1405.099
1406.077
1407.055
1408.033
1409.011
1409.989
1410.967
1411.945
1412.923
1413.901
1414.879
1415.857
1416.835
1417.813
1418.791
1419.769
1420.747
1421.725
1422.703
1423.681
1424.659
1425.637
1426.615
1427.593
1428.571
1429.549
1430.527
1431.505
1432.483
1433.461
1434.439
1435.417
1436.395
1437.373
1438.351
1439.329
1440.307
1441.285
1442.263
1443.241
1444.219
1445.197
1446.175
1447.153
1448.131
1449.109
1450.087
1451.065
1452.043
1453.021
1453.999
1454.977
1455.955
1456.933
1457.911
1458.889
1459.867
1460.845
1461.823
1462.801
1463.779
1464.757
1465.735
1466.713
1467.691
1468.669
1469.647
1470.625
1471.603
1472.581
1473.559
1474.537
1475.515
1476.493
1477.471
1478.449
1479.427
1480.405
1481.383
1482.361
1483.339
1484.317
1485.295
1486.273
1487.251
1488.229
1489.207
1490.185
1491.163
1492.141
1493.119
1494.097
1495.075
1496.053
1497.031
1498.009
1498.987
1499.965
1500.943
1501.921
1502.899
1503.877
1504.855
1505.833
1506.811
1507.789
1508.767
1509.745
1510.723
1511.701
1512.679
1513.657
1514.635
1515.613
1516.591
1517.569
1518.547
1519.525
1520.503
1521.481
1522.459
1523.437
1524.415
1525.393
1526.371
1527.349
1528.327
1529.305
1530.283
1531.261
1532.239
1533.217
1534.195
1535.173
1537.201
1539.229
1541.257
1543.285
1545.313
1547.341
1549.369
1551.397
1553.425
1555.453
1557.481
1559.509
1561.537
1563.565
1565.593
1567.621
1569.649
1571.677
1573.705
1575.733
1577.761
1579.789
1581.817
1583.845
1585.873
1587.901
1589.929
1591.957
1593.985
1596.013
1598.041
1600.069
1602.097
1604.125
1606.153
1608.181
1610.209
1612.237
1614.265
1616.293
1618.321
1620.349
1622.377
1624.405
1626.433
1628.461
1630.489
1632.517
1634.545
1636.573
1638.601
1640.629
1642.657
1644.685
1646.713
1648.741
1650.769
1652.797
1654.825
1656.853
1658.881
1660.909
1662.937
1664.965
1666.993
1669.021
1671.049
1673.077
1675.105
1677.133
1679.161
1681.189
1683.217
1685.245
1687.273
1689.301
1691.329
1693.357
1695.385
1697.413
1699.441
1701.469
1703.497
1705.525
1707.553
1709.581
1711.609
1713.637
1715.665
1717.693
1719.721
1721.749
1723.777
1725.805
1727.833
1729.861
1731.889
1733.917
1735.945
1737.973
1740.001
1742.029
1744.057
1746.085
1748.113
1750.141
1752.169
1754.197
1756.225
1758.253
1760.281
1762.309
1764.337
1766.365
1768.393
1770.421
1772.449
1774.477
1776.505
1778.533
1780.561
1782.589
1784.617
1786.645
1788.673
1790.701
1792.729
1794.757
1796.785
1798.813
1800.841
1802.869
1804.897
1806.925
1808.953
1810.981
1813.009
1815.037
1817.065
1819.093
1821.121
1823.149
1825.177
1827.205
1829.233
1831.261
1833.289
1835.317
1837.345
1839.373
1841.401
1843.429
1845.457
1847.485
1849.513
1851.541
1853.569
1855.597
1857.625
1859.653
1861.681
1863.709
1865.737
1867.765
1869.793
1871.821
1873.849
1875.877
1877.905
1879.933
1881.961
1883.989
1886.017
1888.045
1890.073
1892.101
1894.129
1896.157
1898.185
1900.213
1902.241
1904.269
1906.297
1908.325
1910.353
1912.381
1914.409
1916.437
1918.465
1920.493
1922.521
1924.549
1926.577
1928.605
1930.633
1932.661
1934.689
1936.717
1938.745
1940.773
1940.797
1940.822
1940.846
1940.871
1940.895
1940.920
1940.944
1940.969
1940.993
1941.018
1941.042
1941.067
1941.091
1941.116
1941.140
1941.165
1941.189
1941.214
1941.238
1941.263
1941.287
1941.312
1941.336
1941.361
1941.385
1941.410
1941.434
1941.459
1941.483
1941.508
1941.532
1941.557
1941.581
1941.606
1941.630
1941.655
1941.679
1941.704
1941.728
1941.753
1941.777
1941.802
1941.826
1941.851
1941.875
1941.900
1941.924
1941.949
1941.973
1941.998
1942.022
1942.047
1942.071
1942.096
1942.120
1942.145
1942.169
1942.194
1942.218
1942.243
1942.267
1942.292
1942.316
1942.341
1942.365
1942.390
1942.414
1942.439
1942.463
1942.488
1942.512
1942.537
1942.561
1942.586
1942.610
1942.635
1942.659
1942.684
1942.708
1942.733
1942.757
1942.782
1942.806
1942.831
1942.855
1942.880
1942.904
1942.929
1942.953
1942.978
1943.002
1943.027
1943.051
1943.076
1943.100
1943.125
1943.149
1943.174
1943.198
1943.223
1943.247
1943.272
1943.296
1943.321
1943.345
1943.370
1943.394
1943.419
1943.443
1943.468
1943.492
1943.517
1943.541
1943.566
1943.590
1943.615
1943.639
1943.664
1943.688
1943.713
1943.737
1943.762
1943.786
1943.811
1943.835
1943.860
1943.884
1943.909
1943.933
1943.958
1943.982
1944.007
1944.031
1944.056
1944.080
1944.105
1944.129
1944.154
1944.178
1944.203
1944.227
1944.252
1944.276
1944.301
1944.325
1944.350
1944.374
1944.399
1944.423
1944.448
1944.472
1944.497
1944.521
1944.546
1944.570
1944.595
1944.619
1944.644
1944.668
1944.693
1944.717
1944.742
1944.766
1944.791
1944.815
1944.840
1944.864
1944.889
1944.913
1944.938
1944.962
1944.987
1945.011
1945.036
1945.060
1945.085
1945.109
1945.134
1945.158
1945.183
1945.207
1945.232
1945.256
1945.281
1945.305
1945.330
1945.354
1945.379
1945.403
1945.428
1945.452
1945.477
1945.501
1945.526
1945.550
1945.575
1945.599
1945.624
1945.648
1945.673
1947.139
1948.606
1950.072
1951.539
1953.005
1954.472
1955.938
1957.405
1958.871
1960.338
1961.804
1963.271
1964.737
1966.204
1967.670
1969.137
1970.603
1972.070
1973.536
1975.003
1976.469
1977.936
1979.402
1980.869
1982.335
1983.802
1985.268
1986.735
1988.201
1989.668
1991.134
1992.601
1994.067
1995.534
1997.000
1998.467
1999.933
2001.400
2002.866
2004.333
2005.799
2007.266
2008.732
2010.199
2011.665
2013.132
2014.598
2016.065
2017.531
2018.998
2020.464
2021.931
2023.397
2024.864
2026.330
2027.797
2029.263
2030.730
2032.196
2033.663
2035.129
2036.596
2038.062
2039.529
2040.995
2042.462
2043.928
2045.395
2046.861
2048.328
2049.794
2051.261
2052.727
2054.194
2055.660
2057.127
2058.593
2060.060
2061.526
2062.993
2064.459
2065.926
2067.392
2068.859
2070.325
2071.792
2073.258
2074.725
2076.191
2077.658
2079.124
2080.591
2082.057
2083.524
2084.990
2086.457
2087.923
2089.390
2090.856
2092.323
2093.789
2095.256
2096.722
2098.189
2099.655
2101.122
2102.588
2104.055
2105.521
2106.988
2108.454
2109.921
2111.387
2112.854
2114.320
2115.787
2117.253
2118.720
2120.186
2121.653
2123.119
2124.586
2126.052
2127.519
2128.985
2130.452
2131.918
2133.385
2134.851
2136.318
2137.784
2139.251
2140.717
2142.184
2143.650
2145.117
2146.583
2148.050
2149.516
2150.983
2152.449
2153.916
2155.382
2156.849
2158.315
2159.782
2161.248
2162.715
2164.181
2165.648
2167.114
2168.581
2170.047
2171.514
2172.980
2174.447
2175.913
2177.380
2178.846
2180.313
2181.779
2183.246
2184.712
2186.179
2187.645
2189.112
2190.578
2192.045
2193.511
2194.978
2196.444
2197.911
2199.377
2200.844
2202.310
2203.777
2205.243
2206.710
2208.176
2209.643
2211.109
2212.576
2214.042
2215.509
2216.975
2218.442
2219.908
2221.375
2222.841
2224.308
2225.774
2227.241
2228.707
2230.174
2231.640
2233.107
2234.573
2236.040
2237.506
2238.973
2239.021
2239.070
2239.118
2239.167
2239.215
2239.264
2239.312
2239.361
2239.409
2239.458
2239.506
2239.555
2239.603
2239.652
2239.700
2239.749
2239.797
2239.846
2239.894
2239.943
2239.991
2240.040
2240.088
2240.137
2240.185
2240.234
2240.282
2240.331
2240.379
2240.428
2240.476
2240.525
2240.573
2240.622
2240.670
2240.719
2240.767
2240.816
2240.864
2240.913
2240.961
2241.010
2241.058
2241.107
2241.155
2241.204
2241.252
2241.301
2241.349
2241.398
2241.446
2241.495
2241.543
2241.592
2241.640
2241.689
2241.737
2241.786
2241.834
2241.883
2241.931
2241.980
2242.028
2242.077
2242.125
2242.174
2242.222
2242.271
2242.319
2242.368
2242.416
2242.465
2242.513
2242.562
2242.610
2242.659
2242.707
2242.756
2242.804
2242.853
2242.901
2242.950
2242.998
2243.047
2243.095
2243.144
2243.192
2243.241
2243.289
2243.338
2243.386
2243.435
2243.483
2243.532
2243.580
2243.629
2243.677
2243.726
2243.774
2243.823
2243.871
2243.920
2243.968
2244.017
2244.065
2244.114
2244.162
2244.211
2244.259
2244.308
2244.356
2244.405
2244.453
2244.502
2244.550
2244.599
2244.647
2244.696
2244.744
2244.793
2244.841
2244.890
2244.938
2244.987
2245.035
2245.084
2245.132
2245.181
2245.229
2245.278
2245.326
2245.375
2245.423
2245.472
2245.520
2245.569
2245.617
2245.666
2245.714
2245.763
2245.811
2245.860
2245.908
2245.957
2246.005
2246.054
2246.102
2246.151
2246.199
2246.248
2246.296
2246.345
2246.393
2246.442
2246.490
2246.539
2246.587
2246.636
2246.684
2246.733
2246.781
2246.830
2246.878
2246.927
2246.975
2247.024
2247.072
2247.121
2247.169
2247.218
2247.266
2247.315
2247.363
2247.412
2247.460
2247.509
2247.557
2247.606
2247.654
2247.703
2247.751
2247.800
2247.848
2247.897
2247.945
2247.994
2248.042
2248.091
2248.139
2248.188
2248.236
2248.285
2248.333
2248.382
2248.430
2248.479
2248.527
2248.576
2248.624
2248.673
2248.649
2248.625
2248.601
2248.577
2248.553
2248.529
2248.505
2248.481
2248.457
2248.433
2248.409
2248.385
2248.361
2248.337
2248.313
2248.289
2248.265
2248.241
2248.217
2248.193
2248.169
2248.145
2248.121
2248.097
2248.073
2248.049
2248.025
2248.001
2247.977
2247.953
2247.929
2247.905
2247.881
2247.857
2247.833
2247.809
2247.785
2247.761
2247.737
2247.713
2247.689
2247.665
2247.641
2247.617
2247.593
2247.569
2247.545
2247.521
2247.497
2247.473
2247.449
2247.425
2247.401
2247.377
2247.353
2247.329
2247.305
2247.281
2247.257
2247.233
2247.209
2247.185
2247.161
2247.137
2247.113
2247.089
2247.065
2247.041
2247.017
2246.993
2246.969
2246.945
2246.921
2246.897
2246.873
2246.849
2246.825
2246.801
2246.777
2246.753
2246.729
2246.705
2246.681
2246.657
2246.633
2246.609
2246.585
2246.561
2246.537
2246.513
2246.489
2246.465
2246.441
2246.417
2246.393
2246.369
2246.345
2246.321
2246.297
2246.273
2246.249
2246.225
2246.201
2246.177
2246.153
2246.129
2246.105
2246.081
2246.057
2246.033
2246.009
2245.985
2245.961
2245.937
2245.913
2245.889
2245.865
2245.841
2245.817
2245.793
2245.769
2245.745
2245.721
2245.697
2245.673
2245.649
2245.625
2245.601
2245.577
2245.553
2245.529
2245.505
2245.481
2245.457
2245.433
2245.409
2245.385
2245.361
2245.337
2245.313
2245.289
2245.265
2245.241
2245.217
2245.193
2245.169
2245.145
2245.121
2245.097
2245.073
2245.049
2245.025
2245.001
2244.977
2244.953
2244.929
2244.905
2244.881
2244.857
2244.833
2244.809
2244.785
2244.761
2244.737
2244.713
2244.689
2244.665
2244.641
2244.617
2244.593
2244.569
2244.545
2244.521
2244.497
2244.473
2244.449
2244.425
2244.401
2244.377
2244.353
2244.329
2244.305
2244.281
2244.257
2244.233
2244.209
2244.185
2244.161
2244.137
2244.113
2244.089
2244.065
2244.041
2244.017
2243.993
2243.969
2243.945
2243.921
2243.897
2243.873
2244.557
2245.241
2245.925
2246.609
2247.293
2247.977
2248.661
2249.345
2250.029
2250.713
2251.397
2252.081
2252.765
2253.449
2254.133
2254.817
2255.501
2256.185
2256.869
2257.553
2258.237
2258.921
2259.605
2260.289
2260.973
2261.657
2262.341
2263.025
2263.709
2264.393
2265.077
2265.761
2266.445
2267.129
2267.813
2268.497
2269.181
2269.865
2270.549
2271.233
2271.917
2272.601
2273.285
2273.969
2274.653
2275.337
2276.021
2276.705
2277.389
2278.073
2278.757
2279.441
2280.125
2280.809
2281.493
2282.177
2282.861
2283.545
2284.229
2284.913
2285.597
2286.281
2286.965
2287.649
2288.333
2289.017
2289.701
2290.385
2291.069
2291.753
2292.437
2293.121
2293.805
2294.489
2295.173
2295.857
2296.541
2297.225
2297.909
2298.593
2299.277
2299.961
2300.645
2301.329
2302.013
2302.697
2303.381
2304.065
2304.749
2305.433
2306.117
2306.801
2307.485
2308.169
2308.853
2309.537
2310.221
2310.905
2311.589
2312.273
2312.957
2313.641
2314.325
2315.009
2315.693
2316.377
2317.061
2317.745
2318.429
2319.113
2319.797
2320.481
2321.165
2321.849
2322.533
2323.217
