91.295
91.295
91.295
91.295
91.295
91.295
91.295
91.295
91.295
91.295
91.295
91.295
91.295
91.295
91.295
91.295
91.295
91.295
91.295
91.295
91.295
91.295
91.295
91.295
91.295
91.295
91.295
91.295
91.295
91.295
91.295
91.295
91.295
91.295
91.295
91.295
91.295
91.295
91.295
91.295
91.295
91.295
91.295
91.295
91.295
91.295
91.295
91.295
91.295
91.295
91.295
91.295
91.295
91.295
91.295
91.295
91.295
91.295
91.295
91.295
91.295
91.295
91.295
91.295
91.295
91.295
91.295
91.295
91.295
91.295
91.295
91.295
91.295
91.295
91.295
91.295
91.295
91.295
91.295
91.295
91.295
91.295
91.295
91.295
91.295
91.295
91.295
91.295
91.295
91.295
91.295
91.295
91.295
91.295
91.295
91.295
91.295
91.295
91.295
91.295
91.295
91.295
91.295
91.295
91.295
91.295
91.295
91.295
91.295
91.295
91.295
91.295
91.295
91.295
91.295
91.295
91.295
91.295
91.295
96.195
96.195
96.195
96.195
96.195
96.195
96.195
96.195
96.195
96.195
96.195
96.195
96.195
96.195
96.195
96.195
96.195
96.195
96.195
96.195
96.195
96.195
96.195
96.195
96.195
96.195
96.195
96.195
96.195
96.195
96.195
96.195
96.195
96.195
96.195
96.195
96.195
96.195
96.195
96.195
96.195
96.195
96.195
96.195
96.195
96.195
96.195
96.195
96.195
96.195
96.195
96.195
96.195
96.195
96.195
96.195
96.195
96.195
96.195
96.195
96.195
96.195
96.195
96.195
96.195
96.195
96.195
96.195
96.195
96.195
96.195
96.195
96.195
96.195
96.195
96.195
96.195
96.195
96.195
96.195
96.195
96.195
96.195
96.195
96.195
96.195
96.195
96.195
96.195
96.195
96.195
96.195
96.195
96.195
96.195
96.195
96.195
96.195
96.195
96.195
96.195
96.195
96.195
96.195
96.195
96.195
96.195
96.195
96.195
96.195
96.195
96.195
96.195
96.195
96.195
96.195
96.195
96.195
96.195
96.195
96.195
96.195
96.195
96.195
96.195
96.195
96.195
96.195
96.195
96.195
96.195
96.195
96.195
96.195
96.195
96.195
96.195
96.195
96.195
96.195
96.195
96.195
96.195
96.195
96.195
96.195
96.195
96.195
96.195
96.195
96.195
96.195
96.195
96.195
96.195
96.195
96.195
96.195
96.195
96.195
96.195
96.195
96.195
96.195
96.195
96.195
96.195
96.195
96.195
96.195
96.195
96.195
96.195
96.195
96.195
96.195
96.195
96.195
96.195
96.195
96.195
96.195
96.195
96.195
96.195
96.195
96.195
96.195
96.195
96.195
96.195
96.195
96.195
96.195
96.195
96.195
96.195
96.195
96.195
96.195
96.195
96.195
96.195
96.195
96.195
96.195
96.195
96.195
96.195
96.195
96.195
96.195
96.195
96.195
96.195
96.195
96.195
96.195
96.195
96.195
96.195
96.195
96.195
96.195
96.195
96.195
96.195
96.195
96.195
96.195
96.195
96.195
96.195
96.195
96.195
96.195
96.195
96.195
96.195
96.195
96.195
96.195
96.195
96.195
96.195
96.195
96.195
96.195
96.195
96.195
96.195
96.195
96.195
96.195
96.195
96.195
96.195
96.195
96.195
96.195
96.195
96.195
96.195
96.195
96.195
96.195
96.195
96.195
96.195
96.195
96.195
96.195
96.195
96.195
96.195
96.195
96.195
96.195
96.195
96.195
96.195
96.195
96.195
96.195
96.195
96.195
96.195
96.195
96.195
96.195
96.195
96.195
96.195
96.195
96.195
96.195
96.195
96.195
96.195
96.195
96.195
96.195
96.195
96.195
96.195
96.195
96.195
96.195
96.195
96.195
96.195
96.195
96.195
96.195
96.195
96.195
96.195
96.195
96.195
96.195
96.195
96.195
96.195
96.195
96.195
96.195
96.195
96.195
96.195
96.195
96.195
96.195
96.195
96.195
96.195
96.195
96.195
96.195
96.195
96.195
96.195
96.195
96.195
96.195
96.195
96.195
96.195
96.195
96.195
96.195
96.195
96.195
96.195
96.195
96.195
96.195
96.195
96.195
96.195
96.195
96.195
96.195
96.195
96.195
96.195
96.195
96.195
96.195
96.195
96.195
96.195
96.195
96.195
96.195
96.195
96.195
96.195
96.195
96.195
96.195
96.195
96.195
96.195
96.195
96.195
96.195
96.195
96.195
96.195
96.195
96.195
96.195
96.195
96.195
96.195
96.195
96.195
96.195
96.195
96.195
1112.795
1115.239
1117.682
1120.126
1122.569
1125.013
1127.456
1129.900
1132.343
1134.787
1137.230
1139.674
1142.117
1144.561
1147.004
1149.448
1151.891
1154.335
1156.778
1159.222
1161.665
1164.109
1166.552
1168.996
1171.439
1173.883
1176.326
1178.770
1181.213
1183.657
1186.100
1188.544
1190.987
1193.431
1195.874
1198.318
1200.761
1203.205
1205.648
1208.092
1210.535
1212.979
1215.422
1217.866
1220.309
1222.753
1225.196
1227.640
1230.083
1232.527
1234.970
1237.414
1239.857
1242.301
1244.744
1247.188
1249.631
1252.075
1254.518
1256.962
1259.405
1261.849
1264.292
1266.736
1269.179
1271.623
1274.066
1276.510
1278.953
1281.397
1283.840
1286.284
1288.727
1291.171
1293.614
1296.058
1298.501
1300.945
1303.388
1305.832
1308.275
1310.719
1313.162
1315.606
1318.049
1320.493
1322.936
1325.380
1327.823
1330.267
1332.710
1335.154
1337.597
1340.041
1342.484
1344.928
1347.371
1349.815
1352.258
1354.702
1357.145
1359.589
1362.032
1364.476
1366.919
1369.363
1371.806
1374.250
1376.693
1379.137
1381.580
1384.024
1386.467
1388.911
1391.354
1393.798
1396.241
1398.685
1401.128
1403.572
1406.015
1408.459
1410.902
1413.346
1415.789
1418.233
1420.676
1423.120
1425.563
1428.007
1430.450
1432.894
1435.337
1437.781
1440.224
1442.668
1445.111
1447.555
1449.998
1452.442
1454.885
1457.329
1459.772
1462.216
1464.659
1467.103
1469.546
1471.990
1474.433
1476.877
1479.320
1481.764
1484.207
1486.651
1489.094
1491.538
1493.981
1496.425
1498.868
1501.312
1503.755
1506.199
1508.642
1511.086
1513.529
1515.973
1518.416
1520.860
1523.303
1525.747
1528.190
1530.634
1533.077
1535.521
1537.964
1540.408
1542.851
1545.295
1547.738
1550.182
1552.625
1555.069
1557.512
1559.956
1562.399
1564.843
1567.286
1569.730
1572.173
1574.617
1577.060
1579.504
1581.947
1584.391
1586.834
1589.278
1591.721
1594.165
1596.608
1599.052
1601.495
1603.597
1605.699
1607.801
1609.903
1612.005
1614.107
1616.209
1618.311
1620.413
1622.515
1624.617
1626.719
1628.821
1630.923
1633.025
1635.127
1637.229
1639.331
1641.433
1643.535
1645.637
1647.739
1649.841
1651.943
1654.045
1656.147
1658.249
1660.351
1662.453
1664.555
1666.657
1668.759
1670.861
1672.963
1675.065
1677.167
1679.269
1681.371
1683.473
1685.575
1687.677
1689.779
1691.881
1693.983
1696.085
1698.187
1700.289
1702.391
1704.493
1706.595
1708.697
1710.799
1712.901
1715.003
1717.105
1719.207
1721.309
1723.411
1725.513
1727.615
1729.717
1731.819
1733.921
1736.023
1738.125
1740.227
1742.329
1744.431
1746.533
1748.635
1750.737
1752.839
1754.941
1757.043
1759.145
1761.247
1763.349
1765.451
1767.553
1769.655
1771.757
1773.859
1775.961
1778.063
1780.165
1782.267
1784.369
1786.471
1788.573
1790.675
1792.777
1794.879
1796.981
1799.083
1801.185
1803.287
1805.389
1807.491
1809.593
1811.695
1813.797
1815.899
1818.001
1820.103
1822.205
1824.307
1826.409
1828.511
1830.613
1832.715
1834.817
1836.919
1839.021
1841.123
1843.225
1845.327
1847.429
1849.531
1851.633
1853.735
1855.837
1857.939
1860.041
1862.143
1864.245
1866.347
1868.449
1870.551
1872.653
1874.755
1876.857
1878.959
1881.061
1883.163
1885.265
1887.367
1889.469
1891.571
1893.673
1895.775
1897.877
1899.979
1902.081
1904.183
1906.285
1908.387
1910.489
1912.591
1914.693
1916.795
1918.897
1920.999
1923.101
1925.203
1927.305
1929.407
1931.509
1933.611
1935.713
1937.815
1939.917
1942.019
1944.121
1946.223
1948.325
1950.427
1952.529
1954.631
1956.733
1958.835
1960.937
1963.039
1965.141
1967.243
1969.345
1971.447
1973.549
1975.651
1977.753
1979.855
1981.957
1984.059
1986.161
1988.263
1990.365
1992.467
1994.569
1996.671
1998.773
2000.875
2002.977
2005.079
2007.181
2009.283
2011.385
2013.487
2015.589
2017.691
2019.793
2021.895
2022.408
2022.921
2023.434
2023.947
2024.460
2024.973
2025.486
2025.999
2026.512
2027.025
2027.538
2028.051
2028.564
2029.077
2029.590
2030.103
2030.616
2031.129
2031.642
2032.155
2032.668
2033.181
2033.694
2034.207
2034.720
2035.233
2035.746
2036.259
2036.772
2037.285
2037.798
2038.311
2038.824
2039.337
2039.850
2040.363
2040.876
2041.389
2041.902
2042.415
2042.928
2043.441
2043.954
2044.467
2044.980
2045.493
2046.006
2046.519
2047.032
2047.545
2048.058
2048.571
2049.084
2049.597
2050.110
2050.623
2051.136
2051.649
2052.162
2052.675
2053.188
2053.701
2054.214
2054.727
2055.240
2055.753
2056.266
2056.779
2057.292
2057.805
2058.318
2058.831
2059.344
2059.857
2060.370
2060.883
2061.396
2061.909
2062.422
2062.935
2063.448
2063.961
2064.474
2064.987
2065.500
2066.013
2066.526
2067.039
2067.552
2068.065
2068.578
2069.091
2069.604
2070.117
2070.630
2071.143
2071.656
2072.169
2072.682
2073.195
2073.708
2074.221
2074.734
2075.247
2075.760
2076.273
2076.786
2077.299
2077.812
2078.325
2078.838
2079.351
2079.864
2080.377
2080.890
2081.403
2081.916
2082.429
2082.942
2083.455
2083.968
2084.481
2084.994
2085.507
2086.020
2086.533
2087.046
2087.559
2088.072
2088.585
2089.098
2089.611
2090.124
2090.637
2091.150
2091.663
2092.176
2092.689
2093.202
2093.715
2094.228
2094.741
2095.254
2095.767
2096.280
2096.793
2097.306
2097.819
2098.332
2098.845
2099.358
2099.871
2100.384
2100.897
2101.410
2101.923
2102.436
2102.949
2103.462
2103.975
2104.488
2105.001
2105.514
2106.027
2106.540
2107.053
2107.566
2108.079
2108.592
2109.105
2109.618
2110.131
2110.644
2111.157
2111.670
2112.183
2112.696
2113.209
2113.722
2114.235
2114.748
2115.261
2115.774
2116.287
2116.800
2117.313
2117.826
2118.339
2118.852
2119.365
2119.878
2120.391
2120.904
2121.417
2121.930
2122.443
2122.956
2123.469
2123.982
2124.495
2123.053
2121.611
2120.169
2118.727
2117.285
2115.843
2114.401
2112.959
2111.517
2110.075
2108.633
2107.191
2105.749
2104.307
2102.865
2101.423
2099.981
2098.539
2097.097
2095.655
2094.213
2092.771
2091.329
2089.887
2088.445
2087.003
2085.561
2084.119
2082.677
2081.235
2079.793
2078.351
2076.909
2075.467
2074.025
2072.583
2071.141
2069.699
2068.257
2066.815
2065.373
2063.931
2062.489
2061.047
2059.605
2058.163
2056.721
2055.279
2053.837
2052.395
2050.953
2049.511
2048.069
2046.627
2045.185
2043.743
2042.301
2040.859
2039.417
2037.975
2036.533
2035.091
2033.649
2032.207
2030.765
2029.323
2027.881
2026.439
2024.997
2023.555
2022.113
2020.671
2019.229
2017.787
2016.345
2014.903
2013.461
2012.019
2010.577
2009.135
2007.693
2006.251
2004.809
2003.367
2001.925
2000.483
1999.041
1997.599
1996.157
1994.715
1993.273
1991.831
1990.389
1988.947
1987.505
1986.063
1984.621
1983.179
1981.737
1980.295
1978.853
1977.411
1975.969
1974.527
1973.085
1971.643
1970.201
1968.759
1967.317
1965.875
1964.433
1962.991
1961.549
1960.107
1958.665
1957.223
1955.781
1954.339
1952.897
1951.455
1950.013
1948.571
1947.129
1945.687
1944.245
1942.803
1941.361
1939.919
1938.477
1937.035
1935.593
1934.151
1932.709
1931.267
1929.825
1928.383
1926.941
1925.499
1924.057
1922.615
1921.173
1919.731
1918.289
1916.847
1915.405
1913.963
1912.521
1911.079
1909.637
1908.195
1906.753
1905.311
1903.869
1902.427
1900.985
1899.543
1898.101
1896.659
1895.217
1893.775
1892.333
1890.891
1889.449
1888.007
1886.565
1885.123
1883.681
1882.239
1880.797
1879.355
1877.913
1876.471
1875.029
1873.587
1872.145
1870.703
1869.261
1867.819
1866.377
1864.935
1863.493
1862.051
1860.609
1859.167
1857.725
1856.283
1854.841
1853.399
1851.957
1850.515
1849.073
1847.631
1846.189
1844.747
1843.305
1841.863
1840.421
1838.979
1837.537
1836.095
1838.466
1840.836
1843.207
1845.577
1847.948
1850.318
1852.689
1855.059
1857.430
1859.800
1862.171
1864.541
1866.912
1869.282
1871.653
1874.023
1876.394
1878.764
1881.135
1883.505
1885.876
1888.246
1890.617
1892.987
1895.358
1897.728
1900.099
1902.469
1904.840
1907.210
1909.581
1911.951
1914.322
1916.692
1919.063
1921.433
1923.804
1926.174
1928.545
1930.915
1933.286
1935.656
1938.027
1940.397
1942.768
1945.138
1947.509
1949.879
1952.250
1954.620
1956.991
1959.361
1961.732
1964.102
1966.473
1968.843
1971.214
1973.584
1975.955
1978.325
1980.696
1983.066
1985.437
1987.807
1990.178
1992.548
1994.919
1997.289
1999.660
2002.030
2004.401
2006.771
2009.142
2011.512
2013.883
2016.253
2018.624
2020.994
2023.365
2025.735
2028.106
2030.476
2032.847
2035.217
2037.588
2039.958
2042.329
2044.699
2047.070
2049.440
2051.811
2054.181
2056.552
2058.922
2061.293
2063.663
2066.034
2068.404
2070.775
2073.145
2075.516
2077.886
2080.257
2082.627
2084.998
2087.368
2089.739
2092.109
2094.480
2096.850
2099.221
2101.591
2103.962
2106.332
2108.703
2111.073
2113.444
2115.814
2118.185
2120.555
2122.926
2125.296
2127.667
2130.037
2132.408
2134.778
2137.149
2139.519
2141.890
2144.260
2146.631
2149.001
2151.372
2153.742
2156.113
2158.483
2160.854
2163.224
2165.595
2167.965
2170.336
2172.706
2175.077
2177.447
2179.818
2182.188
2184.559
2186.929
2189.300
2191.670
2194.041
2196.411
2198.782
2201.152
2203.523
2205.893
2208.264
2210.634
2213.005
2215.375
2217.746
2220.116
2222.487
2224.857
2227.228
2229.598
2231.969
2234.339
2236.710
2239.080
2241.451
2243.821
2246.192
2248.562
2250.933
2253.303
2255.674
2258.044
2260.415
2262.785
2265.156
2267.526
2269.897
2272.267
2274.638
2277.008
2279.379
2281.749
2284.120
2286.490
2288.861
2291.231
2293.602
2295.972
2298.343
2300.713
2303.084
2305.454
2307.825
2310.195
2309.340
2308.485
2307.630
2306.775
2305.920
2305.065
2304.210
2303.355
2302.500
2301.645
2300.790
2299.935
2299.080
2298.225
2297.370
2296.515
2295.660
2294.805
2293.950
2293.095
2292.240
2291.385
2290.530
2289.675
2288.820
2287.965
2287.110
2286.255
2285.400
2284.545
2283.690
2282.835
2281.980
2281.125
2280.270
2279.415
2278.560
2277.705
2276.850
2275.995
2275.140
2274.285
2273.430
2272.575
2271.720
2270.865
2270.010
2269.155
2268.300
2267.445
2266.590
2265.735
2264.880
2264.025
2263.170
2262.315
2261.460
2260.605
2259.750
2258.895
2258.040
2257.185
2256.330
2255.475
2254.620
2253.765
2252.910
2252.055
2251.200
2250.345
2249.490
2248.635
2247.780
2246.925
2246.070
2245.215
2244.360
2243.505
2242.650
2241.795
2240.940
2240.085
2239.230
2238.375
2237.520
2236.665
2235.810
2234.955
2234.100
2233.245
2232.390
2231.535
2230.680
2229.825
2228.970
2228.115
2227.260
2226.405
2225.550
2224.695
2223.840
2222.985
2222.130
2221.275
2220.420
2219.565
2218.710
2217.855
2217.000
2216.145
2215.290
2214.435
2213.580
2212.725
2211.870
2211.015
2210.160
2209.305
2208.450
2207.595
2206.740
2205.885
2205.030
2204.175
2203.320
2202.465
2201.610
2200.755
2199.900
2199.045
2198.190
2197.335
2196.480
2195.625
2194.770
2193.915
2193.060
2192.205
2191.350
2190.495
2189.640
2188.785
2187.930
2187.075
2186.220
2185.365
2184.510
2183.655
2182.800
2181.945
2181.090
2180.235
2179.380
2178.525
2177.670
2176.815
2175.960
2175.105
2174.250
2173.395
2172.540
2171.685
2170.830
2169.975
2169.120
2168.265
2167.410
2166.555
2165.700
2164.845
2163.990
2163.135
2162.280
2161.425
2160.570
2159.715
2158.860
2158.005
2157.150
2156.295
2155.440
2154.585
2153.730
2152.875
2152.020
2151.165
2150.310
2149.455
2148.600
2147.745
2146.890
2146.035
2145.180
2144.325
2143.470
2142.615
2141.760
2140.905
2140.050
2139.195
2136.971
2134.747
2132.523
2130.299
2128.075
2125.851
2123.627
2121.403
2119.179
2116.955
2114.731
2112.507
2110.283
2108.059
2105.835
2103.611
2101.387
2099.163
2096.939
2094.715
2092.491
2090.267
2088.043
2085.819
2083.595
2081.371
2079.147
2076.923
2074.699
2072.475
2070.251
2068.027
2065.803
2063.579
2061.355
2059.131
2056.907
2054.683
2052.459
2050.235
2048.011
2045.787
2043.563
2041.339
2039.115
2036.891
2034.667
2032.443
2030.219
2027.995
2025.771
2023.547
2021.323
2019.099
2016.875
2014.651
2012.427
2010.203
2007.979
2005.755
2003.531
2001.307
1999.083
1996.859
1994.635
1992.411
1990.187
1987.963
1985.739
1983.515
1981.291
1979.067
1976.843
1974.619
1972.395
1970.171
1967.947
1965.723
1963.499
1961.275
1959.051
1956.827
1954.603
1952.379
1950.155
1947.931
1945.707
1943.483
1941.259
1939.035
1936.811
1934.587
1932.363
1930.139
1927.915
1925.691
1923.467
1921.243
1919.019
1916.795
1914.571
1912.347
1910.123
1907.899
1905.675
1903.451
1901.227
1899.003
1896.779
1894.555
1892.331
1890.107
1887.883
1885.659
1883.435
1881.211
1878.987
1876.763
1874.539
1872.315
1870.091
1867.867
1865.643
1863.419
1861.195
1858.971
1856.747
1854.523
1852.299
1850.075
1847.851
1845.627
1843.403
1841.179
1838.955
1836.731
1834.507
1832.283
1830.059
1827.835
1825.611
1823.387
1821.163
1818.939
1816.715
1814.491
1812.267
1810.043
1807.819
1805.595
1803.371
1801.147
1798.923
1796.699
1794.475
1792.251
1790.027
1787.803
1785.579
1783.355
1781.131
1778.907
1776.683
1774.459
1772.235
1770.011
1767.787
1765.563
1763.339
1761.115
1758.891
1756.667
1754.443
1752.219
1749.995
1747.771
1745.547
1743.323
1741.099
1738.875
1736.651
1734.427
1732.203
1729.979
1727.755
1725.531
1723.307
1721.083
1718.859
1716.635
1714.411
1712.187
1709.963
1707.739
1705.515
1703.291
1701.067
1698.843
1696.619
1694.395
1696.717
1699.038
1701.360
1703.681
1706.003
1708.324
1710.646
1712.967
1715.289
1717.610
1719.932
1722.253
1724.575
1726.896
1729.218
1731.539
1733.861
1736.182
1738.504
1740.825
1743.147
1745.468
1747.790
1750.111
1752.433
1754.754
1757.076
1759.397
1761.719
1764.040
1766.362
1768.683
1771.005
1773.326
1775.648
1777.969
1780.291
1782.612
1784.934
1787.255
1789.577
1791.898
1794.220
1796.541
1798.863
1801.184
1803.506
1805.827
1808.149
1810.470
1812.792
1815.113
1817.435
1819.756
1822.078
1824.399
1826.721
1829.042
1831.364
1833.685
1836.007
1838.328
1840.650
1842.971
1845.293
1847.614
1849.936
1852.257
1854.579
1856.900
1859.222
1861.543
1863.865
1866.186
1868.508
1870.829
1873.151
1875.472
1877.794
1880.115
