101.737
101.737
101.737
101.737
101.737
101.737
101.737
101.737
101.737
101.737
101.737
101.737
101.737
101.737
101.737
101.737
101.737
101.737
101.737
101.737
101.737
101.737
101.737
101.737
101.737
101.737
101.737
101.737
101.737
101.737
101.737
101.737
101.737
101.737
101.737
101.737
101.737
101.737
101.737
101.737
101.737
101.737
101.737
101.737
101.737
101.737
101.737
101.737
101.737
101.737
101.737
101.737
101.737
101.737
101.737
101.737
101.737
101.737
101.737
101.737
101.737
101.737
101.737
101.737
101.737
101.737
101.737
101.737
101.737
101.737
101.737
101.737
101.737
101.737
101.737
101.737
101.737
101.737
101.737
101.737
101.737
101.737
101.737
101.737
101.737
101.737
101.737
101.737
101.737
101.737
101.737
101.737
101.737
101.737
101.737
101.737
101.737
101.737
101.737
101.737
101.737
101.737
101.737
101.737
101.737
101.737
101.737
101.737
101.737
101.737
101.737
101.737
101.737
101.737
101.737
101.737
101.737
101.737
101.737
101.737
101.737
101.737
101.737
101.737
101.737
101.737
101.737
101.737
101.737
101.737
101.737
101.737
101.737
101.737
101.737
101.737
101.737
101.737
101.737
101.737
101.737
101.737
101.737
101.737
101.737
101.737
101.737
101.737
101.737
101.737
101.737
101.737
101.737
101.737
101.737
101.737
101.737
101.737
101.737
101.737
101.737
101.737
101.737
101.737
101.737
101.737
101.737
101.737
101.737
101.737
101.737
101.737
101.737
101.737
101.737
101.737
101.737
101.737
101.737
101.737
101.737
101.737
101.737
101.737
101.737
101.737
101.737
101.737
101.737
101.737
101.737
101.737
101.737
101.737
101.737
101.737
101.737
101.737
101.737
101.737
101.737
101.737
101.737
101.737
101.737
101.737
101.737
101.737
101.737
101.737
101.737
101.737
101.737
101.737
101.737
101.737
101.737
101.737
101.737
101.737
101.737
101.737
101.737
101.737
101.737
101.737
101.737
101.737
101.737
101.737
101.737
101.737
101.737
101.737
101.737
101.737
101.737
101.737
101.737
101.737
101.737
101.737
101.737
101.737
101.737
101.737
101.737
101.737
101.737
101.737
101.737
101.737
101.737
101.737
101.737
101.737
101.737
101.737
101.737
101.737
101.737
101.737
101.737
101.737
101.737
101.737
101.737
101.737
101.737
101.737
101.737
101.737
101.737
101.737
101.737
101.737
101.737
101.737
101.737
101.737
101.737
101.737
101.737
101.737
101.737
101.737
101.737
101.737
101.737
101.737
101.737
101.737
101.737
101.737
101.737
101.737
101.737
101.737
101.737
101.737
101.737
101.737
101.737
101.737
101.737
101.737
101.737
101.737
101.737
101.737
101.737
101.737
101.737
101.737
101.737
101.737
101.737
101.737
101.737
101.737
101.737
101.737
101.737
101.737
101.737
101.737
101.737
101.737
101.737
101.737
101.737
101.737
101.737
101.737
101.737
101.737
101.737
101.737
101.737
101.737
101.737
101.737
101.737
101.737
101.737
101.737
101.737
101.737
101.737
101.737
101.737
101.737
101.737
101.737
101.737
101.737
101.737
101.737
101.737
101.737
101.737
101.737
101.737
101.737
101.737
101.737
101.737
101.737
101.737
101.737
101.737
101.737
101.737
101.737
101.737
101.737
101.737
101.737
101.737
101.737
101.737
101.737
101.737
101.737
101.737
101.737
101.737
101.737
101.737
101.737
101.737
101.737
101.737
101.737
101.737
101.737
101.737
101.737
101.737
101.737
101.737
101.737
101.737
101.737
101.737
101.737
101.737
101.737
101.737
101.737
101.737
101.737
101.737
101.737
101.737
101.737
101.737
101.737
101.737
101.737
101.737
101.737
101.737
101.737
101.737
101.737
101.737
101.737
101.737
101.737
101.737
101.737
101.737
101.737
101.737
101.737
101.737
101.737
101.737
101.737
101.737
101.737
101.737
101.737
101.737
101.737
101.737
101.737
101.737
101.737
101.737
101.737
101.737
101.737
101.737
101.737
101.737
101.737
101.737
101.737
101.737
101.737
101.737
101.737
101.737
101.737
101.737
101.737
101.737
101.737
101.737
101.737
101.737
101.737
101.737
101.737
101.737
101.737
101.737
101.737
101.737
101.737
101.737
101.737
101.737
101.737
101.737
101.737
101.737
101.737
101.737
101.737
101.737
101.737
101.737
101.737
101.737
101.737
101.737
101.737
101.737
101.737
101.737
101.737
101.737
101.737
101.737
101.737
101.737
101.737
101.737
101.737
101.737
101.737
101.737
101.737
101.737
101.737
101.737
101.737
101.737
101.737
101.737
101.737
101.737
101.737
101.737
101.737
101.737
101.737
101.737
101.737
101.737
101.737
101.737
101.737
101.737
101.737
101.737
101.737
101.737
101.737
101.737
101.737
101.737
101.737
101.737
101.737
101.737
101.737
101.737
101.737
101.737
101.737
101.737
101.737
101.737
101.737
101.737
101.737
101.737
101.737
101.737
101.737
101.737
101.737
101.737
101.737
101.737
101.737
101.737
101.737
101.737
101.737
101.737
101.737
101.737
101.737
101.737
101.737
101.737
101.737
101.737
101.737
101.737
101.737
101.737
101.737
101.737
101.737
101.737
101.737
101.737
101.737
101.737
101.737
101.737
101.737
101.737
101.737
101.737
101.737
101.737
101.737
101.737
101.737
101.737
101.737
101.737
101.737
101.737
101.737
101.737
101.737
101.737
101.737
101.737
101.712
101.688
101.663
101.639
101.614
101.590
101.565
101.541
101.516
101.492
101.467
101.443
101.418
101.394
101.369
101.345
101.320
101.296
101.271
101.247
101.222
101.198
101.173
101.149
101.124
101.100
101.075
101.051
101.026
101.002
100.977
100.953
100.928
100.904
100.879
100.855
100.830
100.806
100.781
100.757
100.732
100.708
100.683
100.659
100.634
100.610
100.585
100.561
100.536
100.512
100.487
100.463
100.438
100.414
100.389
100.365
100.340
100.316
100.291
100.267
100.242
100.218
100.193
100.169
100.144
100.120
100.095
100.071
100.046
100.022
99.997
99.973
99.948
99.924
99.899
99.875
99.850
99.826
99.801
99.777
99.752
99.728
99.703
99.679
99.654
99.630
99.605
99.581
99.556
99.532
99.507
99.483
99.458
99.434
99.409
99.385
99.360
99.336
99.311
99.287
99.262
99.238
99.213
99.189
99.164
99.140
99.115
99.091
99.066
99.042
99.017
98.993
98.968
98.944
98.919
98.895
98.870
98.846
98.821
98.797
98.772
98.748
98.723
98.699
98.674
98.650
98.625
98.601
98.576
98.552
98.527
98.503
98.478
98.454
98.429
98.405
98.380
98.356
98.331
98.307
98.282
98.258
98.233
98.209
98.184
98.160
98.135
98.111
98.086
98.062
98.037
98.013
97.988
97.964
97.939
97.915
97.890
97.866
97.841
97.817
97.792
97.768
97.743
97.719
97.694
97.670
97.645
97.621
97.596
97.572
97.547
97.523
97.498
97.474
97.449
97.425
97.400
97.376
97.351
97.327
97.302
97.278
97.253
97.229
97.204
97.180
97.155
97.131
97.106
97.082
97.057
97.033
97.008
96.984
96.959
96.935
96.910
96.886
96.861
96.837
96.910
96.983
97.056
97.129
97.202
97.275
97.348
97.421
97.494
97.567
97.640
97.713
97.786
97.859
97.932
98.005
98.078
98.151
98.224
98.297
98.370
98.443
98.516
98.589
98.662
98.735
98.808
98.881
98.954
99.027
99.100
99.173
99.246
99.319
99.392
99.465
99.538
99.611
99.684
99.757
99.830
99.903
99.976
100.049
100.122
100.195
100.268
100.341
100.414
100.487
100.560
100.633
100.706
100.779
100.852
100.925
100.998
101.071
101.144
101.217
101.290
101.363
101.436
101.509
101.582
101.655
101.728
101.801
101.874
101.947
102.020
102.093
102.166
102.239
102.312
102.385
102.458
102.531
102.604
102.677
102.750
102.823
102.896
102.969
103.042
103.115
103.188
103.261
103.334
103.407
103.480
103.553
103.626
103.699
103.772
103.845
103.918
103.991
104.064
104.137
104.210
104.283
104.356
104.429
104.502
104.575
104.648
104.721
104.794
104.867
104.940
105.013
105.086
105.159
105.232
105.305
105.378
105.451
105.524
105.597
105.670
105.743
105.816
105.889
105.962
106.035
106.108
106.181
106.254
106.327
106.400
106.473
106.546
106.619
106.692
106.765
106.838
106.911
106.984
107.057
107.130
107.203
107.276
107.349
107.422
107.495
107.568
107.641
107.714
107.787
107.860
107.933
108.006
108.079
108.152
108.225
108.298
108.371
108.444
108.517
108.590
108.663
108.736
108.809
108.882
108.955
109.028
109.101
109.174
109.247
109.320
109.393
109.466
109.539
109.612
109.685
109.758
109.831
109.904
109.977
110.050
110.123
110.196
110.269
110.342
110.415
110.488
110.561
110.634
110.707
110.780
110.853
110.926
110.999
111.072
111.145
111.218
111.291
111.364
111.437
111.388
111.340
111.291
111.243
111.194
111.146
111.097
111.049
111.000
110.952
110.903
110.855
110.806
110.758
110.709
110.661
110.612
110.564
110.515
110.467
110.418
110.370
110.321
110.273
110.224
110.176
110.127
110.079
110.030
109.982
109.933
109.885
109.836
109.788
109.739
109.691
109.642
109.594
109.545
109.497
109.448
109.400
109.351
109.303
109.254
109.206
109.157
109.109
109.060
109.012
108.963
108.915
108.866
108.818
108.769
108.721
108.672
108.624
108.575
108.527
108.478
108.430
108.381
108.333
108.284
108.236
108.187
108.139
108.090
108.042
107.993
107.945
107.896
107.848
107.799
107.751
107.702
107.654
107.605
107.557
107.508
107.460
107.411
107.363
107.314
107.266
107.217
107.169
107.120
107.072
107.023
106.975
106.926
106.878
106.829
106.781
106.732
106.684
106.635
106.587
106.538
106.490
106.441
106.393
106.344
106.296
106.247
106.199
106.150
106.102
106.053
106.005
105.956
105.908
105.859
105.811
105.762
105.714
105.665
105.617
105.568
105.520
105.471
105.423
105.374
105.326
105.277
105.229
105.180
105.132
105.083
105.035
104.986
104.938
104.889
104.841
104.792
104.744
104.695
104.647
104.598
104.550
104.501
104.453
104.404
104.356
104.307
104.259
104.210
104.162
104.113
104.065
104.016
103.968
103.919
103.871
103.822
103.774
103.725
103.677
103.628
103.580
103.531
103.483
103.434
103.386
103.337
103.289
103.240
103.192
103.143
103.095
103.046
102.998
102.949
102.901
102.852
102.804
102.755
102.707
102.658
102.610
102.561
102.513
102.464
102.416
102.367
102.319
102.270
102.222
102.173
102.125
102.076
102.028
101.979
101.931
101.882
101.834
101.785
101.737
101.737
101.737
101.737
101.737
101.737
101.737
101.737
101.737
101.737
101.737
101.737
101.737
101.737
101.737
101.737
101.737
101.737
101.737
101.737
101.737
101.737
101.737
101.737
101.737
101.737
101.737
101.737
101.737
101.737
101.737
101.737
101.737
101.737
101.737
101.737
101.737
101.737
101.737
101.737
101.737
101.737
101.737
101.737
101.737
101.737
101.737
101.737
101.737
101.737
101.737
101.737
101.737
101.737
101.737
101.737
101.737
101.737
101.737
101.737
101.737
101.737
101.737
101.737
101.737
101.737
101.737
101.737
101.737
101.737
101.737
101.737
101.737
101.737
101.737
101.737
101.737
101.737
101.737
101.737
101.737
101.737
101.737
101.737
101.737
101.737
101.737
101.737
101.737
101.737
101.737
101.737
101.737
101.737
101.737
101.737
101.737
101.737
101.737
101.737
101.737
101.737
101.737
101.737
101.737
101.737
101.737
101.737
101.737
101.737
101.737
101.737
101.737
101.737
101.737
101.737
101.737
101.737
101.737
101.737
101.737
101.737
101.737
101.737
101.737
101.737
101.737
101.737
101.737
101.737
101.737
101.737
101.737
101.737
101.737
101.737
101.737
101.737
101.737
101.737
101.737
101.737
101.737
101.737
101.737
101.737
101.737
101.737
101.737
101.737
101.737
101.737
101.737
101.737
101.737
101.737
101.737
101.737
101.737
101.737
101.737
101.737
101.737
101.737
101.737
101.737
101.737
101.737
101.737
101.737
101.737
101.737
101.737
101.737
101.737
101.737
101.737
101.737
101.737
101.737
101.737
101.737
101.737
101.737
101.737
101.737
101.737
101.737
101.737
101.737
101.737
101.737
101.737
101.737
101.737
101.737
101.737
101.737
101.737
101.737
1480.037
1482.505
1484.973
1487.441
1489.909
1492.377
1494.845
1497.313
1499.781
1502.249
1504.717
1507.185
1509.653
1512.121
1514.589
1517.057
1519.525
1521.993
1524.461
1526.929
1529.397
1531.865
1534.333
1536.801
1539.269
1541.737
1544.205
1546.673
1549.141
1551.609
1554.077
1556.545
1559.013
1561.481
1563.949
1566.417
1568.885
1571.353
1573.821
1576.289
1578.757
1581.225
1583.693
1586.161
1588.629
1591.097
1593.565
1596.033
1598.501
1600.969
1603.437
1605.905
1608.373
1610.841
1613.309
1615.777
1618.245
1620.713
1623.181
1625.649
1628.117
1630.585
1633.053
1635.521
1637.989
1640.457
1642.925
1645.393
1647.861
1650.329
1652.797
1655.265
1657.733
1660.201
1662.669
1665.137
1667.605
1670.073
1672.541
1675.009
1677.477
1679.945
1682.413
1684.881
1687.349
1689.817
1692.285
1694.753
1697.221
1699.689
1702.157
1704.625
1707.093
1709.561
1712.029
1714.497
1716.965
1719.433
1721.901
1724.369
1726.837
1729.305
1731.773
1734.241
1736.709
1739.177
1741.645
1744.113
1746.581
1749.049
1751.517
1753.985
1756.453
1758.921
1761.389
1763.857
1766.325
1768.793
1771.261
1773.729
1776.197
1778.665
1781.133
1783.601
1786.069
1788.537
1791.005
1793.473
1795.941
1798.409
1800.877
1803.345
1805.813
1808.281
1810.749
1813.217
1815.685
1818.153
1820.621
1823.089
1825.557
1828.025
1830.493
1832.961
1835.429
1837.897
1840.365
1842.833
1845.301
1847.769
1850.237
1852.705
1855.173
1857.641
1860.109
1862.577
1865.045
1867.513
1869.981
1872.449
1874.917
1877.385
1879.853
1882.321
1884.789
1887.257
1889.725
1892.193
1894.661
1897.129
1899.597
1902.065
1904.533
1907.001
1909.469
1911.937
1914.405
1916.873
1919.341
1921.809
1924.277
1926.745
1929.213
1931.681
1934.149
1936.617
1939.085
1941.553
1944.021
1946.489
1948.957
1951.425
1953.893
1956.361
1958.829
1961.297
1963.765
1966.233
1968.701
1971.169
1973.637
1973.221
1972.806
1972.390
1971.975
1971.559
1971.144
1970.728
1970.313
1969.897
1969.482
1969.066
1968.651
1968.235
1967.820
1967.404
1966.989
1966.573
1966.158
1965.742
1965.327
1964.911
1964.496
1964.080
1963.665
1963.249
1962.834
1962.418
1962.003
1961.587
1961.172
1960.756
1960.341
1959.925
1959.510
1959.094
1958.679
1958.263
1957.848
1957.432
1957.017
1956.601
1956.186
1955.770
1955.355
1954.939
1954.524
1954.108
1953.693
1953.277
1952.862
1952.446
1952.031
1951.615
1951.200
1950.784
1950.369
1949.953
1949.538
1949.122
1948.707
1948.291
1947.876
1947.460
1947.045
1946.629
1946.214
1945.798
1945.383
1944.967
1944.552
1944.136
1943.721
1943.305
1942.890
1942.474
1942.059
1941.643
1941.228
1940.812
1940.397
1939.981
1939.566
1939.150
1938.735
1938.319
1937.904
1937.488
1937.073
1936.657
1936.242
1935.826
1935.411
1934.995
1934.580
1934.164
1933.749
1933.333
1932.918
1932.502
1932.087
1931.671
1931.256
1930.840
1930.425
1930.009
1929.594
1929.178
1928.763
1928.347
1927.932
1927.516
1927.101
1926.685
1926.270
1925.854
1925.439
1925.023
1924.608
1924.192
1923.777
1923.361
1922.946
1922.530
1922.115
1921.699
1921.284
1920.868
1920.453
1920.037
1919.622
1919.206
1918.791
1918.375
1917.960
1917.544
1917.129
1916.713
1916.298
1915.882
1915.467
1915.051
1914.636
1914.220
1913.805
1913.389
1912.974
1912.558
1912.143
1911.727
1911.312
1910.896
1910.481
1910.065
1909.650
1909.234
1908.819
1908.403
1907.988
1907.572
1907.157
1906.741
1906.326
1905.910
1905.495
1905.079
1904.664
1904.248
1903.833
1903.417
1903.002
1902.586
1902.171
1901.755
1901.340
1900.924
1900.509
1900.093
1899.678
1899.262
1898.847
1898.431
1898.016
1897.600
1897.185
1896.769
1896.354
1895.938
1895.523
1895.107
1894.692
1894.276
1893.861
1893.445
1893.030
1892.614
1892.199
1891.783
1891.368
1890.952
1890.537
1895.033
1899.530
1904.026
1908.523
1913.019
1917.516
1922.012
1926.509
1931.005
1935.502
1939.998
1944.495
1948.991
1953.488
1957.984
1962.481
1966.977
1971.474
1975.970
1980.467
1984.963
1989.460
1993.956
1998.453
2002.949
2007.446
2011.942
2016.439
2020.935
2025.432
2029.928
2034.425
2038.921
2043.418
2047.914
2052.411
2056.907
2061.404
2065.900
2070.397
2074.893
2079.390
2083.886
2088.383
2092.879
2097.376
2101.872
2106.369
2110.865
2115.362
2119.858
2124.355
2128.851
2133.348
2137.844
2142.341
2146.837
2151.334
2155.830
2160.327
2164.823
2169.320
2173.816
2178.313
2182.809
2187.306
2191.802
2196.299
2200.795
2205.292
2209.788
2214.285
2218.781
2223.278
2227.774
2232.271
2236.767
2241.264
2245.760
2250.257
2254.753
2259.250
2263.746
2268.243
2272.739
2277.236
2281.732
2286.229
2290.725
2295.222
2299.718
2304.215
2308.711
2313.208
2317.704
2322.201
2326.697
2331.194
2335.690
2340.187
2344.683
2349.180
2353.676
2358.173
2362.669
2367.166
2371.662
2376.159
2380.655
2385.152
2389.648
2394.145
2398.641
2403.138
2407.634
2412.131
2416.627
2421.124
2425.620
2430.117
2434.613
2439.110
2443.606
2448.103
2452.599
2457.096
2461.592
2466.089
2470.585
2475.082
2479.578
2484.075
2488.571
2493.068
2497.564
2502.061
2506.557
2511.054
2515.550
2520.047
2524.543
2529.040
2533.536
2538.033
2542.529
2547.026
2551.522
2556.019
2560.515
2565.012
2569.508
2574.005
2578.501
2582.998
2587.494
2591.991
2596.487
2600.984
2605.480
2609.977
2614.473
2618.970
2623.466
2627.963
2632.459
2636.956
2641.452
2645.949
2650.445
2654.942
2659.438
2663.935
2668.431
2672.928
2677.424
2681.921
2686.417
2690.914
2695.410
2699.907
2704.403
2708.900
2713.396
