102.639
102.639
102.639
102.639
102.639
102.639
102.639
102.639
102.639
102.639
102.639
102.639
102.639
102.639
102.639
102.639
102.639
102.639
102.639
102.639
102.639
102.639
102.639
102.639
102.639
102.639
102.639
102.639
102.639
102.639
102.639
102.639
102.639
102.639
102.639
102.639
102.639
102.639
102.639
102.639
102.639
102.639
102.639
102.639
102.639
102.639
102.639
102.639
102.639
102.639
102.639
102.639
102.639
102.639
102.639
102.639
102.639
102.639
102.639
102.639
102.639
102.639
102.639
102.639
102.639
102.639
102.639
102.639
102.639
102.639
102.639
102.639
102.639
102.639
102.639
102.639
102.639
102.639
102.639
102.639
102.639
102.639
102.639
102.639
102.639
102.639
102.639
102.639
102.639
102.639
102.639
102.639
102.639
102.639
102.639
102.639
102.639
102.639
102.639
102.639
102.639
102.639
102.639
102.639
102.639
102.639
102.639
102.639
102.639
102.639
102.639
102.639
102.639
102.639
102.639
102.639
102.639
102.639
102.639
102.639
102.639
102.639
102.639
102.639
102.639
102.639
102.639
102.639
102.639
102.639
102.639
102.639
102.639
102.639
102.639
102.639
102.639
102.639
102.639
102.639
102.639
102.639
102.639
102.639
102.639
102.639
102.639
102.639
102.639
102.639
102.639
102.639
102.639
102.639
102.639
102.639
102.639
102.639
102.639
102.639
102.639
102.639
102.639
102.639
102.639
102.639
102.639
102.639
102.639
102.639
102.639
102.639
102.639
102.639
102.639
102.639
102.639
102.639
102.639
102.639
102.639
102.639
102.639
102.639
102.639
102.639
102.639
102.639
102.639
102.639
102.639
102.639
102.639
102.639
102.639
102.639
102.639
102.639
102.639
102.639
102.639
102.639
102.639
102.639
102.639
102.639
102.639
102.639
102.639
102.639
102.639
102.639
102.639
102.639
102.639
102.639
102.639
102.639
102.639
102.639
102.639
102.639
102.639
102.639
102.639
102.639
102.639
102.639
102.639
102.639
102.639
102.639
102.639
102.639
102.639
102.639
102.639
102.639
102.639
102.639
102.639
102.639
102.639
102.639
102.639
102.639
102.639
102.639
102.639
102.639
102.639
102.639
102.639
102.639
102.639
102.639
102.639
102.639
102.639
102.639
102.639
102.639
102.639
102.639
102.639
102.639
102.639
102.639
102.639
102.639
102.639
102.639
102.639
102.639
102.639
102.639
102.639
102.639
102.639
102.639
102.639
102.639
102.639
102.639
102.639
102.639
102.639
102.639
102.639
102.639
102.639
102.639
102.639
102.639
102.639
102.639
102.639
102.639
102.639
102.639
102.639
102.639
102.639
102.639
102.639
102.639
102.639
102.639
102.639
102.639
102.639
102.639
102.639
102.639
102.639
102.639
102.639
102.639
102.639
102.639
102.639
102.639
102.639
102.639
102.639
102.639
102.639
102.639
102.639
102.639
102.639
102.639
102.639
102.639
102.639
102.639
102.639
102.639
102.639
102.639
102.639
102.639
102.639
102.639
102.639
102.639
102.639
102.639
102.639
102.639
102.639
102.639
102.639
102.639
102.639
102.639
102.639
102.639
102.639
102.639
102.639
102.639
102.639
102.639
102.639
102.639
102.639
102.639
102.639
102.639
102.639
102.639
102.639
102.639
102.639
102.639
102.639
102.639
102.639
102.639
102.639
102.639
102.639
102.639
102.639
102.639
102.639
102.639
102.639
102.639
102.639
102.639
102.639
102.639
102.639
102.639
102.639
102.639
102.639
102.639
102.639
102.639
102.639
102.639
102.639
102.639
102.639
102.639
102.639
102.639
102.639
102.639
102.639
102.639
102.639
102.639
102.639
102.639
102.639
102.639
102.639
102.639
102.639
102.639
102.639
102.639
102.639
102.639
102.639
102.639
102.639
102.639
102.639
102.639
102.639
102.639
102.639
102.639
102.639
102.639
102.639
102.639
102.639
102.639
102.639
102.639
102.639
102.639
102.639
102.639
102.639
102.639
102.639
102.639
102.639
102.639
102.639
102.639
102.639
102.639
102.639
102.639
102.639
102.639
102.639
102.639
102.639
102.639
102.639
102.639
102.639
102.639
102.639
102.639
102.639
102.639
102.639
102.639
102.639
102.639
102.639
102.639
102.639
102.639
102.639
102.639
102.639
102.639
102.639
102.639
102.639
102.639
102.639
102.639
102.639
102.639
102.639
102.639
102.639
102.639
102.639
102.639
102.639
102.639
102.639
102.639
102.639
102.639
102.639
102.639
102.639
102.639
102.639
102.639
102.639
102.639
102.639
102.639
102.639
102.639
102.639
102.639
102.639
102.639
102.639
102.639
102.639
102.639
1480.939
1483.407
1485.875
1488.343
1490.811
1493.279
1495.747
1498.215
1500.683
1503.151
1505.619
1508.087
1510.555
1513.023
1515.491
1517.959
1520.427
1522.895
1525.363
1527.831
1530.299
1532.767
1535.235
1537.703
1540.171
1542.639
1545.107
1547.575
1550.043
1552.511
1554.979
1557.447
1559.915
1562.383
1564.851
1567.319
1569.787
1572.255
1574.723
1577.191
1579.659
1582.127
1584.595
1587.063
1589.531
1591.999
1594.467
1596.935
1599.403
1601.871
1604.339
1606.807
1609.275
1611.743
1614.211
1616.679
1619.147
1621.615
1624.083
1626.551
1629.019
1631.487
1633.955
1636.423
1638.891
1641.359
1643.827
1646.295
1648.763
1651.231
1653.699
1656.167
1658.635
1661.103
1663.571
1666.039
1668.507
1670.975
1673.443
1675.911
1678.379
1680.847
1683.315
1685.783
1688.251
1690.719
1693.187
1695.655
1698.123
1700.591
1703.059
1705.527
1707.995
1710.463
1712.931
1715.399
1717.867
1720.335
1722.803
1725.271
1727.739
1730.207
1732.675
1735.143
1737.611
1740.079
1742.547
1745.015
1747.483
1749.951
1752.419
1754.887
1757.355
1759.823
1762.291
1764.759
1767.227
1769.695
1772.163
1774.631
1777.099
1779.567
1782.035
1784.503
1786.971
1789.439
1791.907
1794.375
1796.843
1799.311
1801.779
1804.247
1806.715
1809.183
1811.651
1814.119
1816.587
1819.055
1821.523
1823.991
1826.459
1828.927
1831.395
1833.863
1836.331
1838.799
1841.267
1843.735
1846.203
1848.671
1851.139
1853.607
1856.075
1858.543
1861.011
1863.479
1865.947
1868.415
1870.883
1873.351
1875.819
1878.287
1880.755
1883.223
1885.691
1888.159
1890.627
1893.095
1895.563
1898.031
1900.499
1902.967
1905.435
1907.903
1910.371
1912.839
1915.307
1917.775
1920.243
1922.711
1925.179
1927.647
1930.115
1932.583
1935.051
1937.519
1939.987
1942.455
1944.923
1947.391
1949.859
1952.327
1954.795
1957.263
1959.731
1962.199
1964.667
1967.135
1969.603
1972.071
1974.539
1974.124
1973.708
1973.293
1972.877
1972.462
1972.046
1971.631
1971.215
1970.800
1970.384
1969.969
1969.553
1969.138
1968.722
1968.307
1967.891
1967.476
1967.060
1966.645
1966.229
1965.814
1965.398
1964.983
1964.567
1964.152
1963.736
1963.321
1962.905
1962.490
1962.074
1961.659
1961.243
1960.828
1960.412
1959.997
1959.581
1959.166
1958.750
1958.335
1957.919
1957.504
1957.088
1956.673
1956.257
1955.842
1955.426
1955.011
1954.595
1954.180
1953.764
1953.349
1952.933
1952.518
1952.102
1951.687
1951.271
1950.856
1950.440
1950.025
1949.609
1949.194
1948.778
1948.363
1947.947
1947.532
1947.116
1946.701
1946.285
1945.870
1945.454
1945.039
1944.623
1944.208
1943.792
1943.377
1942.961
1942.546
1942.130
1941.715
1941.299
1940.884
1940.468
1940.053
1939.637
1939.222
1938.806
1938.391
1937.975
1937.560
1937.144
1936.729
1936.313
1935.898
1935.482
1935.067
1934.651
1934.236
1933.820
1933.405
1932.989
1932.574
1932.158
1931.743
1931.327
1930.912
1930.496
1930.081
1929.665
1929.250
1928.834
1928.419
1928.003
1927.588
1927.172
1926.757
1926.341
1925.926
1925.510
1925.095
1924.679
1924.264
1923.848
1923.433
1923.017
1922.602
1922.186
1921.771
1921.355
1920.940
1920.524
1920.109
1919.693
1919.278
1918.862
1918.447
1918.031
1917.616
1917.200
1916.785
1916.369
1915.954
1915.538
1915.123
1914.707
1914.292
1913.876
1913.461
1913.045
1912.630
1912.214
1911.799
1911.383
1910.968
1910.552
1910.137
1909.721
1909.306
1908.890
1908.475
1908.059
1907.644
1907.228
1906.813
1906.397
1905.982
1905.566
1905.151
1904.735
1904.320
1903.904
1903.489
1903.073
1902.658
1902.242
1901.827
1901.411
1900.996
1900.580
1900.165
1899.749
1899.334
1898.918
1898.503
1898.087
1897.672
1897.256
1896.841
1896.425
1896.010
1895.594
1895.179
1894.763
1894.348
1893.932
1893.517
1893.101
1892.686
1892.270
1891.855
1891.439
1895.936
1900.432
1904.929
1909.425
1913.922
1918.418
1922.915
1927.411
1931.908
1936.404
1940.901
1945.397
1949.894
1954.390
1958.887
1963.383
1967.880
1972.376
1976.873
1981.369
1985.866
1990.362
1994.859
1999.355
2003.852
2008.348
2012.845
2017.341
2021.838
2026.334
2030.831
2035.327
2039.824
2044.320
2048.817
2053.313
2057.810
2062.306
2066.803
2071.299
2075.796
2080.292
2084.789
2089.285
2093.782
2098.278
2102.775
2107.271
2111.768
2116.264
2120.761
2125.257
2129.754
2134.250
2138.747
2143.243
2147.740
2152.236
2156.733
2161.229
2165.726
2170.222
2174.719
2179.215
2183.712
2188.208
2192.705
2197.201
2201.698
2206.194
2210.691
2215.187
2219.684
2224.180
2228.677
2233.173
2237.670
2242.166
2246.663
2251.159
2255.656
2260.152
2264.649
2269.145
2273.642
2278.138
2282.635
2287.131
2291.628
2296.124
2300.621
2305.117
2309.614
2314.110
2318.607
2323.103
2327.600
2332.096
2336.593
2341.089
2345.586
2350.082
2354.579
2359.075
2363.572
2368.068
2372.565
2377.061
2381.558
2386.054
2390.551
2395.047
2399.544
2404.040
2408.537
2413.033
2417.530
2422.026
2426.523
2431.019
2435.516
2440.012
2444.509
2449.005
2453.502
2457.998
2462.495
2466.991
2471.488
2475.984
2480.481
2484.977
2489.474
2493.970
2498.467
2502.963
2507.460
2511.956
2516.453
2520.949
2525.446
2529.942
2534.439
2538.935
2543.432
2547.928
2552.425
2556.921
2561.418
2565.914
2570.411
2574.907
2579.404
2583.900
2588.397
2592.893
2597.390
2601.886
2606.383
2610.879
2615.376
2619.872
2624.369
2628.865
2633.362
2637.858
2642.355
2646.851
2651.348
2655.844
2660.341
2664.837
2669.334
2673.830
2678.327
2682.823
2687.320
2691.816
2696.313
2700.809
2705.306
2709.802
2714.299
2718.795
2723.292
2727.788
2732.285
2736.781
2741.278
2745.774
2750.271
2754.767
2759.264
2763.760
2768.257
2772.753
2777.250
2781.746
2786.243
2790.739
2786.096
2781.453
2776.810
2772.167
2767.524
2762.881
2758.238
2753.595
2748.952
2744.309
2739.666
2735.023
2730.380
2725.737
2721.094
2716.451
2711.808
2707.165
2702.522
2697.879
2693.236
2688.593
2683.950
2679.307
2674.664
2670.021
2665.378
2660.735
2656.092
2651.449
2646.806
2642.163
2637.520
2632.877
2628.234
2623.591
2618.948
2614.305
2609.662
2605.019
2600.376
2595.733
2591.090
2586.447
2581.804
2577.161
2572.518
2567.875
2563.232
2558.589
2553.946
2549.303
2544.660
2540.017
2535.374
2530.731
2526.088
2521.445
2516.802
2512.159
2507.516
2502.873
2498.230
2493.587
2488.944
2484.301
2479.658
2475.015
2470.372
2465.729
2461.086
2456.443
2451.800
2447.157
2442.514
2437.871
2433.228
2428.585
2423.942
2419.299
2414.656
2410.013
2405.370
2400.727
2396.084
2391.441
2386.798
2382.155
2377.512
2372.869
2368.226
2363.583
2358.940
2354.297
2349.654
2345.011
2340.368
2335.725
2331.082
2326.439
2321.796
2317.153
2312.510
2307.867
2303.224
2298.581
2293.938
2289.295
2284.652
2280.009
2275.366
2270.723
2266.080
2261.437
2256.794
2252.151
2247.508
2242.865
2238.222
2233.579
2228.936
2224.293
2219.650
2215.007
2210.364
2205.721
2201.078
2196.435
2191.792
2187.149
2182.506
2177.863
2173.220
2168.577
2163.934
2159.291
2154.648
2150.005
2145.362
2140.719
2136.076
2131.433
2126.790
2122.147
2117.504
2112.861
2108.218
2103.575
2098.932
2094.289
2089.646
2085.003
2080.360
2075.717
2071.074
2066.431
2061.788
2057.145
2052.502
2047.859
2043.216
2038.573
2033.930
2029.287
2024.644
2020.001
2015.358
2010.715
2006.072
2001.429
1996.786
1992.143
1987.500
1982.857
1978.214
1973.571
1968.928
1964.285
1959.642
1954.999
1950.356
1945.713
1941.070
1936.427
1931.784
1927.141
1922.498
1917.855
1913.212
1908.569
1903.926
1899.283
1894.640
1889.997
1885.354
1880.711
1876.068
1871.425
1866.782
1862.139
1864.461
1866.782
1869.104
1871.425
1873.747
1876.068
1878.390
1880.711
1883.033
1885.354
1887.676
1889.997
1892.319
1894.640
1896.962
1899.283
1901.605
1903.926
1906.248
1908.569
1910.891
1913.212
1915.534
1917.855
1920.177
1922.498
1924.820
1927.141
1929.463
1931.784
1934.106
1936.427
1938.749
1941.070
1943.392
1945.713
1948.035
1950.356
1952.678
1954.999
1957.321
1959.642
1961.964
1964.285
1966.607
1968.928
1971.250
1973.571
1975.893
1978.214
1980.536
1982.857
1985.179
1987.500
1989.822
1992.143
1994.465
1996.786
1999.108
2001.429
2003.751
2006.072
2008.394
2010.715
2013.037
2015.358
2017.680
2020.001
2022.323
2024.644
2026.966
2029.287
2031.609
2033.930
2036.252
2038.573
2040.895
2043.216
2045.538
2047.859
2050.181
2052.502
2054.824
2057.145
2059.467
2061.788
2064.110
2066.431
2068.753
2071.074
2073.396
2075.717
2078.039
2080.360
2082.682
2085.003
2087.325
2089.646
2091.968
2094.289
2096.611
2098.932
2101.254
2103.575
2105.897
2108.218
2110.540
2112.861
2115.183
2117.504
2119.826
2122.147
2124.469
2126.790
2129.112
2131.433
2133.755
2136.076
2138.398
2140.719
2143.041
2145.362
2147.684
2150.005
2152.327
2154.648
2156.970
2159.291
2161.613
2163.934
2166.256
2168.577
2170.899
2173.220
2175.542
2177.863
2180.185
2182.506
2184.828
2187.149
2189.471
2191.792
2194.114
2196.435
2198.757
2201.078
2203.400
2205.721
2208.043
2210.364
2212.686
2215.007
2217.329
2219.650
2221.972
2224.293
2226.615
2228.936
2231.258
2233.579
2235.901
2238.222
2240.544
2242.865
2245.187
2247.508
2249.830
2252.151
2254.473
2256.794
2259.116
2261.437
2263.759
2266.080
2268.402
2270.723
2273.045
2275.366
2277.688
2280.009
2282.331
2284.652
2286.974
2289.295
2291.617
2293.938
2296.260
2298.581
2300.903
2303.224
2305.546
2307.867
2310.189
2312.510
2314.832
2317.153
2319.475
2321.796
2324.118
2326.439
2326.342
2326.244
2326.147
2326.049
2325.952
2325.854
2325.757
2325.659
2325.562
2325.464
2325.367
2325.269
2325.172
2325.074
2324.977
2324.879
2324.782
2324.684
2324.587
2324.489
2324.392
2324.294
2324.197
2324.099
2324.002
2323.904
2323.807
2323.709
2323.612
2323.514
2323.417
2323.319
2323.222
2323.124
2323.027
2322.929
2322.832
2322.734
2322.637
2322.539
2322.442
2322.344
2322.247
2322.149
2322.052
2321.954
2321.857
2321.759
2321.662
2321.564
2321.467
2321.369
2321.272
2321.174
2321.077
2320.979
2320.882
2320.784
2320.687
2320.589
2320.492
2320.394
2320.297
2320.199
2320.102
2320.004
2319.907
2319.809
2319.712
2319.614
2319.517
2319.419
2319.322
2319.224
2319.127
2319.029
2318.932
2318.834
2318.737
2318.639
2318.542
2318.444
2318.347
2318.249
2318.152
2318.054
2317.957
2317.859
2317.762
2317.664
2317.567
2317.469
2317.372
2317.274
2317.177
2317.079
2316.982
2316.884
2316.787
2316.689
2316.592
2316.494
2316.397
2316.299
2316.202
2316.104
2316.007
2315.909
2315.812
2315.714
2315.617
2315.519
2315.422
2315.324
2315.227
2315.129
2315.032
2314.934
2314.837
2314.739
2314.642
2314.544
2314.447
2314.349
2314.252
2314.154
2314.057
2313.959
2313.862
2313.764
2313.667
2313.569
2313.472
2313.374
2313.277
2313.179
2313.082
2312.984
2312.887
2312.789
2312.692
2312.594
2312.497
2312.399
2312.302
2312.204
2312.107
2312.009
2311.912
2311.814
2311.717
2311.619
2311.522
2311.424
2311.327
2311.229
2311.132
2311.034
2310.937
2310.839
2310.742
2310.644
2310.547
2310.449
2310.352
2310.254
2310.157
2310.059
2309.962
2309.864
2309.767
2309.669
2309.572
2309.474
2309.377
2309.279
2309.182
2309.084
2308.987
2308.889
2308.792
2308.694
2308.597
2308.499
2308.402
2308.304
2308.207
2308.109
2308.012
2307.914
2307.817
2307.719
2307.622
2307.524
2307.427
2307.329
2307.232
2307.134
2307.037
2306.939
2303.347
2299.754
2296.162
2292.569
2288.977
2285.384
2281.792
2278.199
2274.607
2271.014
2267.422
2263.829
2260.237
2256.644
2253.052
2249.459
2245.867
2242.274
2238.682
2235.089
2231.497
2227.904
2224.312
2220.719
2217.127
2213.534
2209.942
2206.349
2202.757
2199.164
2195.572
2191.979
2188.387
2184.794
2181.202
2177.609
2174.017
2170.424
2166.832
2163.239
2159.647
2156.054
2152.462
2148.869
2145.277
2141.684
2138.092
2134.499
2130.907
2127.314
2123.722
2120.129
2116.537
2112.944
2109.352
2105.759
2102.167
2098.574
2094.982
2091.389
2087.797
2084.204
2080.612
2077.019
2073.427
2069.834
2066.242
2062.649
2059.057
2055.464
2051.872
2048.279
2044.687
2041.094
2037.502
2033.909
2030.317
2026.724
2023.132
2019.539
2015.947
2012.354
2008.762
2005.169
2001.577
1997.984
1994.392
1990.799
1987.207
1983.614
1980.022
1976.429
1972.837
1969.244
1965.652
1962.059
1958.467
1954.874
1951.282
1947.689
1944.097
1940.504
1936.912
1933.319
1929.727
1926.134
1922.542
1918.949
1915.357
1911.764
1908.172
1904.579
1900.987
1897.394
1893.802
1890.209
1886.617
1883.024
1879.432
1875.839
1872.247
1868.654
1865.062
1861.469
1857.877
1854.284
1850.692
1847.099
1843.507
1839.914
1836.322
1832.729
1829.137
1825.544
1821.952
1818.359
1814.767
1811.174
1807.582
1803.989
1800.397
1796.804
1793.212
1789.619
1786.027
1782.434
1778.842
1775.249
1771.657
1768.064
1764.472
1760.879
1757.287
1753.694
1750.102
1746.509
1742.917
1739.324
1735.732
1732.139
1728.547
1724.954
1721.362
1717.769
1714.177
1710.584
1706.992
1703.399
1699.807
1696.214
1692.622
1689.029
1685.437
1681.844
1678.252
1674.659
1671.067
1667.474
1663.882
1660.289
1656.697
1653.104
1649.512
1645.919
1642.327
1638.734
1635.142
1631.549
1627.957
1624.364
1620.772
1617.179
1613.587
1609.994
1606.402
1602.809
1599.217
1595.624
1592.032
1588.439
1590.199
1591.958
1593.718
1595.477
1597.237
1598.996
1600.756
1602.515
1604.275
1606.034
1607.794
1609.553
1611.313
1613.072
1614.832
1616.591
1618.351
1620.110
1621.870
1623.629
1625.389
1627.148
1628.908
1630.667
1632.427
1634.186
1635.946
1637.705
1639.465
1641.224
1642.984
1644.743
1646.503
1648.262
1650.022
1651.781
1653.541
1655.300
1657.060
1658.819
1660.579
1662.338
1664.098
1665.857
1667.617
1669.376
1671.136
1672.895
1674.655
1676.414
1678.174
1679.933
1681.693
1683.452
1685.212
1686.971
1688.731
1690.490
1692.250
1694.009
1695.769
1697.528
1699.288
1701.047
1702.807
1704.566
1706.326
1708.085
1709.845
1711.604
1713.364
