78.890
78.890
78.890
78.890
78.890
78.890
78.890
78.890
78.890
78.890
78.890
78.890
78.890
78.890
78.890
78.890
78.890
78.890
78.890
78.890
78.890
78.890
78.890
78.890
78.890
78.890
78.890
78.890
78.890
78.890
78.890
78.890
78.890
78.890
78.890
78.890
78.890
78.890
78.890
78.890
78.890
78.890
78.890
78.890
78.890
78.890
78.890
78.890
78.890
78.890
78.890
78.890
78.890
78.890
78.890
78.890
78.890
78.890
78.890
78.890
78.890
78.890
78.890
78.890
78.890
78.890
78.890
78.890
78.890
78.890
78.890
78.890
78.890
78.890
78.890
78.890
78.890
78.890
78.890
78.890
78.890
78.890
78.890
78.890
78.890
78.890
78.890
78.890
78.890
78.890
78.890
78.890
78.890
78.890
78.890
78.890
78.890
78.890
78.890
78.890
78.890
78.890
78.890
78.890
78.890
78.890
78.890
78.890
78.890
78.890
78.890
78.890
78.890
78.890
78.890
78.890
78.890
78.890
78.890
78.890
78.890
78.890
78.890
78.890
78.890
78.890
78.890
78.890
78.890
78.890
78.890
78.890
78.890
78.890
78.890
78.890
78.890
78.890
78.890
78.890
78.890
78.890
78.890
78.890
78.890
78.890
78.890
78.890
78.890
78.890
78.890
78.890
78.890
78.890
78.890
78.890
78.890
78.890
78.890
78.890
78.890
78.890
78.890
78.890
78.890
78.890
78.890
78.890
78.890
78.890
78.890
78.890
78.890
78.890
78.890
78.890
78.890
78.890
78.890
78.890
78.890
78.890
78.890
78.890
78.890
78.890
78.890
78.890
78.890
78.890
78.890
78.890
78.890
78.890
78.890
78.890
78.890
78.890
78.890
78.890
78.890
78.890
78.890
78.890
78.890
78.890
78.890
78.890
78.890
78.890
78.890
78.890
78.890
78.890
78.890
78.890
78.890
78.890
78.890
78.890
78.890
78.890
78.890
78.890
78.890
78.890
78.890
78.890
78.890
78.890
78.890
78.890
78.890
78.890
78.890
78.890
78.890
78.890
78.890
78.890
78.890
78.890
78.890
78.890
78.890
78.890
78.890
78.890
78.890
78.890
78.890
78.890
78.890
78.890
78.890
78.890
78.890
78.890
78.890
78.890
78.890
78.890
78.890
78.890
78.890
78.890
78.890
78.890
78.890
78.890
78.890
78.890
78.890
78.890
78.890
78.890
78.890
78.890
78.890
78.890
78.890
78.890
78.890
78.890
78.890
78.890
78.890
78.890
78.890
78.890
78.890
78.890
78.890
78.890
78.890
78.890
78.890
78.890
78.890
78.890
78.890
78.890
78.890
78.890
78.890
78.890
78.890
78.890
78.890
78.890
78.890
78.890
78.890
78.890
78.890
78.890
78.890
78.890
78.890
78.890
78.890
78.890
78.890
78.890
78.890
78.890
78.890
78.890
78.890
78.890
78.890
78.890
78.890
78.890
78.890
78.890
78.890
78.890
78.890
78.890
78.890
78.890
78.890
78.890
78.890
78.890
78.890
78.890
78.890
78.890
78.890
78.890
78.890
78.890
78.890
78.890
78.890
78.890
78.890
78.890
78.890
78.890
78.890
78.890
78.890
78.890
78.890
78.890
78.890
78.890
78.890
78.890
78.890
78.890
78.890
78.890
78.890
78.890
78.890
78.890
78.890
78.890
78.890
78.890
78.890
78.890
78.890
78.890
78.890
78.890
78.890
78.890
78.890
78.890
78.890
78.890
78.890
78.890
78.890
78.890
78.890
78.890
78.890
78.890
78.890
78.890
78.890
78.890
78.890
78.890
78.890
78.890
78.890
78.890
78.890
78.890
78.890
78.890
78.890
78.890
78.890
78.890
78.890
78.890
78.890
78.890
78.890
78.890
78.890
78.890
78.890
78.890
78.890
78.890
78.890
78.890
78.890
78.890
78.890
78.890
78.890
78.890
78.890
78.890
78.890
78.890
78.890
78.890
78.890
78.890
78.890
78.890
78.890
78.890
78.890
78.890
78.890
78.890
78.890
78.890
78.890
78.890
78.890
78.890
78.890
78.890
78.890
78.890
78.890
78.890
78.890
78.890
78.890
78.890
78.890
78.890
78.890
78.890
78.890
78.890
78.890
78.890
78.890
78.890
78.890
78.890
78.890
78.890
78.890
78.890
78.890
78.890
78.890
78.890
78.890
78.890
78.890
78.890
78.890
78.890
78.890
78.890
78.890
78.890
78.890
78.890
78.890
78.890
78.890
78.890
78.890
78.890
78.890
78.890
78.890
78.890
78.890
78.890
78.890
78.890
78.890
78.890
78.890
78.890
78.890
78.890
78.890
78.890
78.890
78.890
78.890
78.890
78.890
78.890
78.890
78.890
78.890
78.890
78.890
78.890
78.890
78.890
78.890
78.890
78.890
78.890
78.890
78.890
78.890
78.890
78.890
78.890
78.890
78.890
78.890
78.890
78.890
78.890
78.890
78.890
78.890
78.890
78.890
78.890
78.890
78.890
78.890
78.890
78.890
78.890
78.890
78.890
78.890
78.890
78.890
78.890
78.890
78.890
78.890
78.890
78.890
78.890
78.890
78.890
78.890
78.890
78.890
78.890
78.890
78.890
78.890
78.890
78.890
78.890
78.890
78.890
78.890
78.890
78.890
78.890
78.890
78.890
78.890
78.890
78.890
78.890
78.890
78.890
78.890
78.890
78.890
78.890
78.890
78.890
78.890
78.890
78.890
78.890
78.890
78.890
78.890
78.890
78.890
78.890
78.890
78.890
78.890
78.890
1740.590
1740.346
1740.102
1739.858
1739.614
1739.370
1739.126
1738.882
1738.638
1738.394
1738.150
1737.906
1737.662
1737.418
1737.174
1736.930
1736.686
1736.442
1736.198
1735.954
1735.710
1735.466
1735.222
1734.978
1734.734
1734.490
1734.246
1734.002
1733.758
1733.514
1733.270
1733.026
1732.782
1732.538
1732.294
1732.050
1731.806
1731.562
1731.318
1731.074
1730.830
1730.586
1730.342
1730.098
1729.854
1729.610
1729.366
1729.122
1728.878
1728.634
1728.390
1728.146
1727.902
1727.658
1727.414
1727.170
1726.926
1726.682
1726.438
1726.194
1725.950
1725.706
1725.462
1725.218
1724.974
1724.730
1724.486
1724.242
1723.998
1723.754
1723.510
1723.266
1723.022
1722.778
1722.534
1722.290
1722.046
1721.802
1721.558
1721.314
1721.070
1720.826
1720.582
1720.338
1720.094
1719.850
1719.606
1719.362
1719.118
1718.874
1718.630
1718.386
1718.142
1717.898
1717.654
1717.410
1717.166
1716.922
1716.678
1716.434
1716.190
1715.946
1715.702
1715.458
1715.214
1714.970
1714.726
1714.482
1714.238
1713.994
1713.750
1713.506
1713.262
1713.018
1712.774
1712.530
1712.286
1712.042
1711.798
1711.554
1711.310
1711.066
1710.822
1710.578
1710.334
1710.090
1709.846
1709.602
1709.358
1709.114
1708.870
1708.626
1708.382
1708.138
1707.894
1707.650
1707.406
1707.162
1706.918
1706.674
1706.430
1706.186
1705.942
1705.698
1705.454
1705.210
1704.966
1704.722
1704.478
1704.234
1703.990
1703.746
1703.502
1703.258
1703.014
1702.770
1702.526
1702.282
1702.038
1701.794
1701.550
1701.306
1701.062
1700.818
1700.574
1700.330
1700.086
1699.842
1699.598
1699.354
1699.110
1698.866
1698.622
1698.378
1698.134
1697.890
1697.646
1697.402
1697.158
1696.914
1696.670
1696.426
1696.182
1695.938
1695.694
1695.450
1695.206
1694.962
1694.718
1694.474
1694.230
1693.986
1693.742
1693.498
1693.254
1693.010
1692.766
1692.522
1692.278
1692.034
1691.790
1694.013
1696.237
1698.460
1700.684
1702.907
1705.131
1707.354
1709.578
1711.801
1714.025
1716.248
1718.472
1720.695
1722.919
1725.142
1727.366
1729.589
1731.813
1734.036
1736.260
1738.483
1740.707
1742.930
1745.154
1747.377
1749.601
1751.824
1754.048
1756.271
1758.495
1760.718
1762.942
1765.165
1767.389
1769.612
1771.836
1774.059
1776.283
1778.506
1780.730
1782.953
1785.177
1787.400
1789.624
1791.847
1794.071
1796.294
1798.518
1800.741
1802.965
1805.188
1807.412
1809.635
1811.859
1814.082
1816.306
1818.529
1820.753
1822.976
1825.200
1827.423
1829.647
1831.870
1834.094
1836.317
1838.541
1840.764
1842.988
1845.211
1847.435
1849.658
1851.882
1854.105
1856.329
1858.552
1860.776
1862.999
1865.223
1867.446
1869.670
1871.893
1874.117
1876.340
1878.564
1880.787
1883.011
1885.234
1887.458
1889.681
1891.905
1894.128
1896.352
1898.575
1900.799
1903.022
1905.246
1907.469
1909.693
1911.916
1914.140
1916.363
1918.587
1920.810
1923.034
1925.257
1927.481
1929.704
1931.928
1934.151
1936.375
1938.598
1940.822
1943.045
1945.269
1947.492
1949.716
1951.939
1954.163
1956.386
1958.610
1960.833
1963.057
1965.280
1967.504
1969.727
1971.951
1974.174
1976.398
1978.621
1980.845
1983.068
1985.292
1987.515
1989.739
1991.962
1994.186
1996.409
1998.633
2000.856
2003.080
2005.303
2007.527
2009.750
2011.974
2014.197
2016.421
2018.644
2020.868
2023.091
2025.315
2027.538
2029.762
2031.985
2034.209
2036.432
2038.656
2040.879
2043.103
2045.326
2047.550
2049.773
2051.997
2054.220
2056.444
2058.667
2060.891
2063.114
2065.338
2067.561
2069.785
2072.008
2074.232
2076.455
2078.679
2080.902
2083.126
2085.349
2087.573
2089.796
2092.020
2094.243
2096.467
2098.690
2100.914
2103.137
2105.361
2107.584
2109.808
2112.031
2114.255
2116.478
2118.702
2120.925
2123.149
2125.372
2127.596
2129.819
2132.043
2134.266
2136.490
2135.708
2134.926
2134.144
2133.362
2132.580
2131.798
2131.016
2130.234
2129.452
2128.670
2127.888
2127.106
2126.324
2125.542
2124.760
2123.978
2123.196
2122.414
2121.632
2120.850
2120.068
2119.286
2118.504
2117.722
2116.940
2116.158
2115.376
2114.594
2113.812
2113.030
2112.248
2111.466
2110.684
2109.902
2109.120
2108.338
2107.556
2106.774
2105.992
2105.210
2104.428
2103.646
2102.864
2102.082
2101.300
2100.518
2099.736
2098.954
2098.172
2097.390
2096.608
2095.826
2095.044
2094.262
2093.480
2092.698
2091.916
2091.134
2090.352
2089.570
2088.788
2088.006
2087.224
2086.442
2085.660
2084.878
2084.096
2083.314
2082.532
2081.750
2080.968
2080.186
2079.404
2078.622
2077.840
2077.058
2076.276
2075.494
2074.712
2073.930
2073.148
2072.366
2071.584
2070.802
2070.020
2069.238
2068.456
2067.674
2066.892
2066.110
2065.328
2064.546
2063.764
2062.982
2062.200
2061.418
2060.636
2059.854
2059.072
2058.290
2057.508
2056.726
2055.944
2055.162
2054.380
2053.598
2052.816
2052.034
2051.252
2050.470
2049.688
2048.906
2048.124
2047.342
2046.560
2045.778
2044.996
2044.214
2043.432
2042.650
2041.868
2041.086
2040.304
2039.522
2038.740
2037.958
2037.176
2036.394
2035.612
2034.830
2034.048
2033.266
2032.484
2031.702
2030.920
2030.138
2029.356
2028.574
2027.792
2027.010
2026.228
2025.446
2024.664
2023.882
2023.100
2022.318
2021.536
2020.754
2019.972
2019.190
2018.408
2017.626
2016.844
2016.062
2015.280
2014.498
2013.716
2012.934
2012.152
2011.370
2010.588
2009.806
2009.024
2008.242
2007.460
2006.678
2005.896
2005.114
2004.332
2003.550
2002.768
2001.986
2001.204
2000.422
1999.640
1998.858
1998.076
1997.294
1996.512
1995.730
1994.948
1994.166
1993.384
1992.602
1991.820
1991.038
1990.256
1989.474
1988.692
1987.910
1987.128
1986.346
1985.564
1984.782
1984.000
1983.218
1982.436
1981.654
1980.872
1980.090
1978.721
1977.353
1975.984
1974.616
1973.247
1971.879
1970.510
1969.142
1967.773
1966.405
1965.036
1963.668
1962.299
1960.931
1959.562
1958.194
1956.825
1955.457
1954.088
1952.720
1951.351
1949.983
1948.614
1947.246
1945.877
1944.509
1943.140
1941.772
1940.403
1939.035
1937.666
1936.298
1934.929
1933.561
1932.192
1930.824
1929.455
1928.087
1926.718
1925.350
1923.981
1922.613
1921.244
1919.876
1918.507
1917.139
1915.770
1914.402
1913.033
1911.665
1910.296
1908.928
1907.559
1906.191
1904.822
1903.454
1902.085
1900.717
1899.348
1897.980
1896.611
1895.243
1893.874
1892.506
1891.137
1889.769
1888.400
1887.032
1885.663
1884.295
1882.926
1881.558
1880.189
1878.821
1877.452
1876.084
1874.715
1873.347
1871.978
1870.610
1869.241
1867.873
1866.504
1865.136
1863.767
1862.399
1861.030
1859.662
1858.293
1856.925
1855.556
1854.188
1852.819
1851.451
1850.082
1848.714
1847.345
1845.977
1844.608
1843.240
1841.871
1840.503
1839.134
1837.766
1836.397
1835.029
1833.660
1832.292
1830.923
1829.555
1828.186
1826.818
1825.449
1824.081
1822.712
1821.344
1819.975
1818.607
1817.238
1815.870
1814.501
1813.133
1811.764
1810.396
1809.027
1807.659
1806.290
1804.922
1803.553
1802.185
1800.816
1799.448
1798.079
1796.711
1795.342
1793.974
1792.605
1791.237
1789.868
1788.500
1787.131
1785.763
1784.394
1783.026
1781.657
1780.289
1778.920
1777.552
1776.183
1774.815
1773.446
1772.078
1770.709
1769.341
1767.972
1766.604
1765.235
1763.867
1762.498
1761.130
1759.761
1758.393
1757.024
1755.656
1754.287
1752.919
1751.550
1750.182
1748.813
1747.445
1746.076
1744.708
1743.339
1741.971
1740.602
1739.234
1737.865
1736.497
1735.128
1733.760
1732.391
1731.023
1729.654
1728.286
1726.917
1725.549
1724.180
1722.812
1721.443
1720.075
1718.706
1717.338
1715.969
1714.601
1713.232
1711.864
1710.495
1709.127
1707.758
1706.390
1708.516
1710.643
1712.769
1714.896
1717.022
1719.149
1721.275
1723.402
1725.528
1727.655
1729.781
1731.908
1734.034
1736.161
1738.287
1740.414
1742.540
1744.667
1746.793
1748.920
1751.046
1753.173
1755.299
1757.426
1759.552
1761.679
1763.805
1765.932
1768.058
1770.185
1772.311
1774.438
1776.564
1778.691
1780.817
1782.944
1785.070
1787.197
1789.323
1791.450
1793.576
1795.703
1797.829
1799.956
1802.082
1804.209
1806.335
1808.462
1810.588
1812.715
1814.841
1816.968
1819.094
1821.221
1823.347
1825.474
1827.600
1829.727
1831.853
1833.980
1836.106
1838.233
1840.359
1842.486
1844.612
1846.739
1848.865
1850.992
1853.118
1855.245
1857.371
1859.498
1861.624
1863.751
1865.877
1868.004
1870.130
1872.257
1874.383
1876.510
1878.636
1880.763
1882.889
1885.016
1887.142
1889.269
1891.395
1893.522
1895.648
1897.775
1899.901
1902.028
1904.154
1906.281
1908.407
1910.534
1912.660
1914.787
1916.913
1919.040
1921.166
1923.293
1925.419
1927.546
1929.672
1931.799
1933.925
1936.052
1938.178
1940.305
1942.431
1944.558
1946.684
1948.811
1950.937
1953.064
1955.190
1957.317
1959.443
1961.570
1963.696
1965.823
1967.949
1970.076
1972.202
1974.329
1976.455
1978.582
1980.708
1982.835
1984.961
1987.088
1989.214
1991.341
1993.467
1995.594
1997.720
1999.847
2001.973
2004.100
2006.226
2008.353
2010.479
2012.606
2014.732
2016.859
2018.985
2021.112
2023.238
2025.365
2027.491
2029.618
2031.744
2033.871
2035.997
2038.124
2040.250
2042.377
2044.503
2046.630
2048.756
2050.883
2053.009
2055.136
2057.262
2059.389
2061.515
2063.642
2065.768
2067.895
2070.021
2072.148
2074.274
2076.401
2078.527
2080.654
2082.780
2084.907
2087.033
2089.160
2091.286
2093.413
2095.539
2097.666
2099.792
2101.919
2104.045
2106.172
2108.298
2110.425
2112.551
2114.678
2116.804
2118.931
2121.057
2123.184
2125.310
2127.437
2129.563
2131.690
2128.097
2124.505
2120.912
2117.320
2113.727
2110.135
2106.542
2102.950
2099.357
2095.765
2092.172
2088.580
2084.987
2081.395
2077.802
2074.210
2070.617
2067.025
2063.432
2059.840
2056.247
2052.655
2049.062
2045.470
2041.877
2038.285
2034.692
2031.100
2027.507
2023.915
2020.322
2016.730
2013.137
2009.545
2005.952
2002.360
1998.767
1995.175
1991.582
1987.990
1984.397
1980.805
1977.212
1973.620
1970.027
1966.435
1962.842
1959.250
1955.657
1952.065
1948.472
1944.880
1941.287
1937.695
1934.102
1930.510
1926.917
1923.325
1919.732
1916.140
1912.547
1908.955
1905.362
1901.770
1898.177
1894.585
1890.992
1887.400
1883.807
1880.215
1876.622
1873.030
1869.437
1865.845
1862.252
1858.660
1855.067
1851.475
1847.882
1844.290
1840.697
1837.105
1833.512
1829.920
1826.327
1822.735
1819.142
1815.550
1811.957
1808.365
1804.772
1801.180
1797.587
1793.995
1790.402
1786.810
1783.217
1779.625
1776.032
1772.440
1768.847
1765.255
1761.662
1758.070
1754.477
1750.885
1747.292
1743.700
1740.107
1736.515
1732.922
1729.330
1725.737
1722.145
1718.552
1714.960
1711.367
1707.775
1704.182
1700.590
1696.997
1693.405
1689.812
1686.220
1682.627
1679.035
1675.442
1671.850
1668.257
1664.665
1661.072
1657.480
1653.887
1650.295
1646.702
1643.110
1639.517
1635.925
1632.332
1628.740
1625.147
1621.555
1617.962
1614.370
1610.777
1607.185
1603.592
1600.000
1596.407
1592.815
1589.222
1585.630
1582.037
1578.445
1574.852
1571.260
1567.667
1564.075
1560.482
1556.890
1553.297
1549.705
1546.112
1542.520
1538.927
1535.335
1531.742
1528.150
1524.557
1520.965
1517.372
1513.780
1510.187
1506.595
1503.002
1499.410
1495.817
1492.225
1488.632
1485.040
1481.447
1477.855
1474.262
1470.670
1467.077
1463.485
1459.892
1456.300
1452.707
1449.115
1445.522
1441.930
1438.337
1434.745
1431.152
1427.560
1423.967
1420.375
1416.782
1413.190
1413.507
1413.825
1414.142
1414.460
1414.777
1415.095
1415.412
1415.730
1416.047
1416.365
1416.682
1417.000
1417.317
1417.635
1417.952
1418.270
1418.587
1418.905
1419.222
1419.540
1419.857
1420.175
1420.492
1420.810
1421.127
1421.445
1421.762
1422.080
1422.397
1422.715
1423.032
1423.350
1423.667
1423.985
1424.302
1424.620
1424.937
1425.255
1425.572
1425.890
1426.207
1426.525
1426.842
1427.160
1427.477
1427.795
1428.112
1428.430
1428.747
1429.065
1429.382
1429.700
1430.017
1430.335
1430.652
1430.970
1431.287
1431.605
1431.922
1432.240
1432.557
1432.875
1433.192
1433.510
1433.827
1434.145
1434.462
1434.780
1435.097
1435.415
1435.732
1436.050
1436.367
1436.685
1437.002
1437.320
1437.637
1437.955
1438.272
1438.590
1438.907
1439.225
1439.542
1439.860
1440.177
1440.495
1440.812
1441.130
1441.447
1441.765
1442.082
1442.400
1442.717
1443.035
1443.352
1443.670
1443.987
1444.305
1444.622
1444.940
1445.257
1445.575
1445.892
1446.210
1446.527
1446.845
1447.162
1447.480
1447.797
1448.115
1448.432
1448.750
1449.067
1449.385
1449.702
1450.020
1450.337
1450.655
1450.972
1451.290
1451.607
1451.925
1452.242
1452.560
1452.877
1453.195
1453.512
1453.830
1454.147
1454.465
1454.782
1455.100
1455.417
1455.735
1456.052
1456.370
1456.687
1457.005
1457.322
1457.640
1457.957
1458.275
1458.592
1458.910
1459.227
1459.545
1459.862
1460.180
1460.497
1460.815
1461.132
1461.450
1461.767
1462.085
1462.402
1462.720
1463.037
1463.355
1463.672
1463.990
1464.307
1464.625
1464.942
1465.260
1465.577
1465.895
1466.212
1466.530
1466.847
1467.165
1467.482
