82.771
82.747
82.722
82.698
82.673
82.649
82.624
82.600
82.575
82.551
82.526
82.502
82.477
82.453
82.428
82.404
82.379
82.355
82.330
82.306
82.281
82.257
82.232
82.208
82.183
82.159
82.134
82.110
82.085
82.061
82.036
82.012
81.987
81.963
81.938
81.914
81.889
81.865
81.840
81.816
81.791
81.767
81.742
81.718
81.693
81.669
81.644
81.620
81.595
81.571
81.546
81.522
81.497
81.473
81.448
81.424
81.399
81.375
81.350
81.326
81.301
81.277
81.252
81.228
81.203
81.179
81.154
81.130
81.105
81.081
81.056
81.032
81.007
80.983
80.958
80.934
80.909
80.885
80.860
80.836
80.811
80.787
80.762
80.738
80.713
80.689
80.664
80.640
80.615
80.591
80.566
80.542
80.517
80.493
80.468
80.444
80.419
80.395
80.370
80.346
80.321
80.297
80.272
80.248
80.223
80.199
80.174
80.150
80.125
80.101
80.076
80.052
80.027
80.003
79.978
79.954
79.929
79.905
79.880
79.880
79.880
79.880
79.880
79.880
79.880
79.880
79.880
79.880
79.880
79.880
79.880
79.880
79.880
79.880
79.880
79.880
79.880
79.880
79.880
79.880
79.880
79.880
79.880
79.880
79.880
79.880
79.880
79.880
79.880
79.880
79.880
79.880
79.880
79.880
79.880
79.880
79.880
79.880
79.880
79.880
79.880
79.880
79.880
79.880
79.880
79.880
79.880
79.880
79.880
79.880
79.880
79.880
79.880
79.880
79.880
79.880
79.880
79.880
79.880
79.880
79.880
79.880
79.880
79.880
79.880
79.880
79.880
79.880
79.880
79.880
79.880
79.880
79.880
79.880
79.880
79.880
79.880
79.880
79.880
79.880
79.880
79.880
79.880
79.880
79.880
79.880
79.880
79.880
79.880
79.880
79.880
79.880
79.880
79.880
79.880
79.880
79.880
79.880
79.880
79.880
79.880
79.880
79.880
79.880
79.880
79.880
79.880
79.880
79.880
79.880
79.880
79.880
79.880
79.880
79.880
79.880
79.880
79.880
79.880
79.880
79.880
79.880
79.880
79.880
79.880
79.880
79.880
79.880
79.880
79.880
79.880
79.880
79.880
79.880
79.880
79.880
79.880
79.880
79.880
79.880
79.880
79.880
79.880
79.880
79.880
79.880
79.880
79.880
79.880
79.880
79.880
79.880
79.880
79.880
79.880
79.880
79.880
79.880
79.880
79.880
79.880
79.880
79.880
79.880
79.880
79.880
79.880
79.880
79.880
79.880
79.880
79.880
79.880
79.880
79.880
79.880
79.880
79.880
79.880
79.880
79.880
79.880
79.880
79.880
79.880
79.880
79.880
79.880
79.880
79.880
79.880
79.880
79.880
79.880
79.880
79.880
79.880
79.880
79.880
79.880
79.880
79.880
79.880
79.880
79.880
79.880
79.880
79.880
79.880
79.880
79.880
79.880
79.880
79.880
79.880
79.880
79.880
79.880
79.880
79.880
79.880
79.880
79.880
79.880
79.880
79.880
79.880
79.880
79.880
79.880
79.880
79.880
79.880
79.880
79.880
79.880
79.880
79.880
79.880
79.880
79.880
79.880
79.880
79.880
79.880
79.880
79.880
79.880
79.880
79.880
79.880
79.880
79.880
79.880
79.880
79.880
79.880
79.880
79.880
79.880
79.880
79.880
79.880
79.880
79.880
79.880
79.880
79.880
79.880
79.880
79.880
79.880
79.880
79.880
79.880
79.880
79.880
79.880
79.880
79.880
79.880
79.880
79.880
79.880
79.880
79.880
79.880
79.880
79.880
79.880
79.880
79.880
79.880
79.880
79.880
79.880
79.880
79.880
79.880
79.880
79.880
79.880
79.880
79.880
79.880
79.880
79.880
79.880
79.880
79.880
79.880
79.880
79.880
79.880
79.880
79.880
79.880
79.880
79.880
79.880
79.880
79.880
79.880
79.880
79.880
79.880
79.880
79.880
79.880
79.880
79.880
79.880
79.880
79.880
79.880
79.880
79.880
79.880
79.880
79.880
79.880
79.880
79.880
79.880
79.880
79.880
79.880
79.880
79.880
79.880
79.880
79.880
79.880
79.880
79.880
79.880
79.880
79.880
79.880
79.880
79.880
79.880
79.880
79.880
79.880
79.880
79.880
79.880
79.880
79.880
79.880
79.880
79.880
79.880
79.880
79.880
79.880
79.880
79.880
79.880
79.880
79.880
79.880
79.880
79.880
79.880
79.880
79.880
79.880
79.880
79.880
79.880
79.880
79.880
79.880
79.880
79.880
79.880
79.880
79.880
79.880
79.880
79.880
79.880
79.880
79.880
79.880
79.880
79.880
79.880
79.880
79.880
79.880
79.880
79.880
79.880
79.880
79.880
79.880
79.880
79.880
79.880
79.880
79.880
79.880
79.880
79.880
79.880
79.880
79.880
79.880
79.880
79.880
79.880
79.880
79.880
79.880
79.880
79.880
79.880
79.880
79.880
79.880
79.880
79.880
79.880
79.880
79.880
79.880
79.880
79.880
79.880
79.880
79.880
79.880
79.880
79.880
79.880
79.880
79.880
79.880
79.880
79.880
79.880
79.880
79.880
79.880
79.880
79.880
79.880
79.880
79.880
79.880
79.880
79.880
79.880
79.880
79.880
79.880
79.880
79.880
79.880
79.880
79.880
79.880
79.880
79.880
79.880
79.880
79.880
79.880
79.880
79.880
79.880
79.880
79.880
79.880
79.880
79.880
79.880
79.880
79.880
79.880
79.880
79.880
79.880
79.880
79.880
79.880
79.880
79.880
79.880
79.880
79.880
79.880
79.880
79.880
79.880
79.880
79.880
79.880
79.880
79.880
79.880
79.880
79.880
79.880
79.880
79.880
79.880
79.880
79.880
79.880
79.880
79.880
79.880
79.880
79.880
79.880
79.880
79.880
79.880
79.880
79.880
79.880
79.880
79.880
79.880
79.880
79.880
79.880
79.880
79.880
79.880
79.880
79.880
79.880
79.880
79.880
79.880
79.880
79.880
79.880
79.880
79.880
79.880
79.880
79.880
79.880
79.880
79.880
79.880
79.880
79.880
79.880
79.880
79.880
79.880
79.880
79.880
79.880
79.880
79.880
79.880
79.880
79.880
79.880
79.880
79.880
79.880
79.880
79.880
79.880
79.880
79.880
79.880
79.880
79.880
79.880
79.856
79.831
79.807
79.782
79.758
79.733
79.709
79.684
79.660
79.635
79.611
79.586
79.562
79.537
79.513
79.488
79.464
79.439
79.415
79.390
79.366
79.341
79.317
79.292
79.268
79.243
79.219
79.194
79.170
79.145
79.121
79.096
79.072
79.047
79.023
78.998
78.974
78.949
78.925
78.900
78.876
78.851
78.827
78.802
78.778
78.753
78.729
78.704
78.680
78.655
78.631
78.606
78.582
78.557
78.533
78.508
78.484
78.459
78.435
78.410
78.386
78.361
78.337
78.312
78.288
78.263
78.239
78.214
78.190
78.165
78.141
78.116
78.092
78.067
78.043
78.018
77.994
77.969
77.945
77.920
77.896
77.871
77.847
77.822
77.798
77.773
77.749
77.724
77.700
77.675
77.651
77.626
77.602
77.577
77.553
77.528
77.504
77.479
77.455
77.430
77.406
77.381
77.357
77.332
77.308
77.283
77.259
77.234
77.210
77.185
77.161
77.136
77.112
77.087
77.063
77.038
77.014
76.989
76.965
76.940
76.916
76.891
76.867
76.842
76.818
76.793
76.769
76.744
76.720
76.695
76.671
76.646
76.622
76.597
76.573
76.548
76.524
76.499
76.475
76.450
76.426
76.401
76.377
76.352
76.328
76.303
76.279
76.254
76.230
76.205
76.181
76.156
76.132
76.107
76.083
76.058
76.034
76.009
75.985
75.960
75.936
75.911
75.887
75.862
75.838
75.813
75.789
75.764
75.740
75.715
75.691
75.666
75.642
75.617
75.593
75.568
75.544
75.519
75.495
75.470
75.446
75.421
75.397
75.372
75.348
75.323
75.299
75.274
75.250
75.225
75.201
75.176
75.152
75.127
75.103
75.078
75.054
75.029
75.005
74.980
75.005
75.029
75.054
75.078
75.103
75.127
75.152
75.176
75.201
75.225
75.250
75.274
75.299
75.323
75.348
75.372
75.397
75.421
75.446
75.470
75.495
75.519
75.544
75.568
75.593
75.617
75.642
75.666
75.691
75.715
75.740
75.764
75.789
75.813
75.838
75.862
75.887
75.911
75.936
75.960
75.985
76.009
76.034
76.058
76.083
76.107
76.132
76.156
76.181
76.205
76.230
76.254
76.279
76.303
76.328
76.352
76.377
76.401
76.426
76.450
76.475
76.499
76.524
76.548
76.573
76.597
76.622
76.646
76.671
76.695
76.720
76.744
76.769
76.793
76.818
76.842
76.867
76.891
76.916
76.940
76.965
76.989
77.014
77.038
77.063
77.087
77.112
77.136
77.161
77.185
77.210
77.234
77.259
77.283
77.308
77.332
77.357
77.381
77.406
77.430
77.455
77.479
77.504
77.528
77.553
77.577
77.602
77.626
77.651
77.675
77.700
77.724
77.749
77.773
77.798
77.822
77.847
77.871
77.896
77.920
77.945
77.969
77.994
78.018
78.043
78.067
78.092
78.116
78.141
78.165
78.190
78.214
78.239
78.263
78.288
78.312
78.337
78.361
78.386
78.410
78.435
78.459
78.484
78.508
78.533
78.557
78.582
78.606
78.631
78.655
78.680
78.704
78.729
78.753
78.778
78.802
78.827
78.851
78.876
78.900
78.925
78.949
78.974
78.998
79.023
79.047
79.072
79.096
79.121
79.145
79.170
79.194
79.219
79.243
79.268
79.292
79.317
79.341
79.366
79.390
79.415
79.439
79.464
79.488
79.513
79.537
79.562
79.586
79.611
79.635
79.660
79.684
79.709
79.733
79.758
79.782
79.807
79.831
79.856
79.880
79.880
79.880
79.880
79.880
79.880
79.880
79.880
79.880
79.880
79.880
79.880
79.880
79.880
79.880
79.880
79.880
79.880
79.880
79.880
79.880
79.880
79.880
79.880
79.880
79.880
79.880
79.880
79.880
79.880
79.880
79.880
79.880
79.880
79.880
79.880
79.880
79.880
79.880
79.880
79.880
79.880
79.880
79.880
79.880
79.880
79.880
79.880
79.880
79.880
79.880
79.880
79.880
79.880
79.880
79.880
79.880
79.880
79.880
79.880
79.880
79.880
79.880
79.880
79.880
79.880
79.880
79.880
79.880
79.880
79.880
79.880
79.880
79.880
79.880
79.880
79.880
79.880
79.880
79.880
79.880
79.880
79.880
79.880
79.880
79.880
79.880
79.880
79.880
79.880
79.880
79.880
79.880
79.880
79.880
79.880
79.880
79.880
79.880
79.880
79.880
79.880
79.880
79.880
79.880
79.880
79.880
79.880
79.880
79.880
79.880
79.880
79.880
79.880
79.880
79.880
79.880
79.880
79.880
79.880
79.880
79.880
79.880
79.880
79.880
79.880
79.880
79.880
79.880
79.880
79.880
79.880
79.880
79.880
79.880
79.880
79.880
79.880
79.880
79.880
79.880
79.880
79.880
79.880
79.880
79.880
79.880
79.880
79.880
79.880
79.880
79.880
79.880
79.880
79.880
79.880
79.880
79.880
79.880
79.880
79.880
79.880
79.880
79.880
79.880
79.880
79.880
79.880
79.880
79.880
79.880
79.880
79.880
79.880
79.880
79.880
79.880
79.880
79.880
79.880
79.880
79.880
79.880
79.880
79.880
79.880
79.880
79.880
79.880
79.880
79.880
79.880
79.880
79.880
79.880
79.880
79.880
79.880
79.880
79.880
79.880
79.880
79.880
79.880
79.880
79.880
79.880
79.880
79.880
79.880
79.880
79.880
79.880
79.880
79.880
79.880
79.880
79.880
79.880
79.880
79.880
79.880
79.880
79.880
79.880
79.880
79.880
79.880
79.880
79.880
79.880
79.880
79.880
79.880
79.880
79.880
79.880
79.880
79.880
79.880
79.880
79.880
79.880
79.880
79.880
79.880
79.880
79.880
79.880
79.880
79.880
79.880
79.880
79.880
79.880
79.880
79.880
79.880
79.880
79.880
79.880
79.880
79.880
79.880
79.880
79.880
79.880
79.880
79.880
79.880
79.880
79.880
79.880
79.880
79.880
79.880
79.880
79.880
79.880
79.880
79.880
79.880
79.880
79.880
79.880
79.880
79.880
79.880
79.880
79.880
79.880
79.880
79.880
79.880
79.880
79.880
79.880
79.880
79.880
79.880
79.880
79.880
79.880
79.880
79.880
79.880
79.880
79.880
79.880
79.880
79.880
79.880
79.880
79.880
79.880
79.880
79.880
79.880
79.880
79.880
79.880
79.880
79.880
79.880
79.880
79.880
79.880
79.880
79.880
79.880
79.880
79.880
79.880
79.880
79.880
79.880
79.880
79.880
79.880
79.880
79.880
79.880
79.880
79.880
79.880
79.880
79.880
79.880
79.880
79.880
79.880
79.880
79.880
79.880
79.880
79.880
79.880
79.880
79.880
79.880
79.880
79.880
79.880
79.880
79.880
79.880
79.880
79.880
79.880
79.880
79.880
79.880
79.880
79.880
79.880
79.880
79.880
79.880
79.880
79.880
79.880
79.880
79.880
79.880
79.880
79.880
79.880
79.880
79.880
79.880
79.880
79.880
79.880
79.880
79.880
79.880
79.880
79.880
79.880
79.880
1228.380
1233.048
1237.716
1242.384
1247.052
1251.720
1256.388
1261.056
1265.724
1270.392
1275.060
1279.728
1284.396
1289.064
1293.732
1298.400
1303.068
1307.736
1312.404
1317.072
1321.740
1326.408
1331.076
1335.744
1340.412
1345.080
1349.748
1354.416
1359.084
1363.752
1368.420
1373.088
1377.756
1382.424
1387.092
1391.760
1396.428
1401.096
1405.764
1410.432
1415.100
1419.768
1424.436
1429.104
1433.772
1438.440
1443.108
1447.776
1452.444
1457.112
1461.780
1466.448
1471.116
1475.784
1480.452
1485.120
1489.788
1494.456
1499.124
1503.792
1508.460
1513.128
1517.796
1522.464
1527.132
1531.800
1536.468
1541.136
1545.804
1550.472
1555.140
1559.808
1564.476
1569.144
1573.812
1578.480
1583.148
1587.816
1592.484
1597.152
1601.820
1606.488
1611.156
1615.824
1620.492
1625.160
1629.828
1634.496
1639.164
1643.832
1648.500
1653.168
1657.836
1662.504
1667.172
1671.840
1676.508
1681.176
1685.844
1690.512
1695.180
1699.848
1704.516
1709.184
1713.852
1718.520
1723.188
1727.856
1732.524
1737.192
1741.860
1746.528
1751.196
1755.864
1760.532
1765.200
1769.868
1774.536
1779.204
1783.872
1788.540
1793.208
1797.876
1802.544
1807.212
1811.880
1816.548
1821.216
1825.884
1830.552
1835.220
1839.888
1844.556
1849.224
1853.892
1858.560
1863.228
1867.896
1872.564
1877.232
1881.900
1886.568
1891.236
1895.904
1900.572
1905.240
1909.908
1914.576
1919.244
1923.912
1928.580
1933.248
1937.916
1942.584
1947.252
1951.920
1956.588
1961.256
1965.924
1970.592
1975.260
1979.928
1984.596
1989.264
1993.932
1998.600
2003.268
2007.936
2012.604
2017.272
2021.940
2026.608
2031.276
2035.944
2040.612
2045.280
2049.948
2054.616
2059.284
2063.952
2068.620
2073.288
2077.956
2082.624
2087.292
2091.960
2096.628
2101.296
2105.964
2110.632
2115.300
2119.968
2124.636
2129.304
2133.972
2138.640
2143.308
2147.976
2152.644
2157.312
2161.980
2162.322
2162.664
2163.006
2163.348
2163.690
2164.032
2164.374
2164.716
2165.058
2165.400
2165.742
2166.084
2166.426
2166.768
2167.110
2167.452
2167.794
2168.136
2168.478
2168.820
2169.162
2169.504
2169.846
2170.188
2170.530
2170.872
2171.214
2171.556
2171.898
2172.240
2172.582
2172.924
2173.266
2173.608
2173.950
2174.292
2174.634
2174.976
2175.318
2175.660
2176.002
2176.344
2176.686
2177.028
2177.370
2177.712
2178.054
2178.396
2178.738
2179.080
2179.422
2179.764
2180.106
2180.448
2180.790
2181.132
2181.474
2181.816
2182.158
2182.500
2182.842
2183.184
2183.526
2183.868
2184.210
2184.552
2184.894
2185.236
2185.578
2185.920
2186.262
2186.604
2186.946
2187.288
2187.630
2187.972
2188.314
2188.656
2188.998
2189.340
2189.682
2190.024
2190.366
2190.708
2191.050
2191.392
2191.734
2192.076
2192.418
2192.760
2193.102
2193.444
2193.786
2194.128
2194.470
2194.812
2195.154
2195.496
2195.838
2196.180
2196.522
2196.864
2197.206
2197.548
2197.890
2198.232
2198.574
2198.916
2199.258
2199.600
2199.942
2200.284
2200.626
2200.968
2201.310
2201.652
2201.994
2202.336
2202.678
2203.020
2203.362
2203.704
2204.046
2204.388
2204.730
2205.072
2205.414
2205.756
2206.098
2206.440
2206.782
2207.124
2207.466
2207.808
2208.150
2208.492
2208.834
2209.176
2209.518
2209.860
2210.202
2210.544
2210.886
2211.228
2211.570
2211.912
2212.254
2212.596
2212.938
2213.280
2213.622
2213.964
2214.306
2214.648
2214.990
2215.332
2215.674
2216.016
2216.358
2216.700
2217.042
2217.384
2217.726
2218.068
2218.410
2218.752
2219.094
2219.436
2219.778
2220.120
2220.462
2220.804
2221.146
2221.488
2221.830
2222.172
2222.514
2222.856
2223.198
2223.540
2223.882
2224.224
2224.566
2224.908
2225.250
2225.592
2225.934
2226.276
2226.618
2226.960
2227.302
2227.644
2227.986
2228.328
2228.670
2229.012
2229.354
2229.696
2230.038
2230.380
2227.252
2224.124
2220.996
2217.868
2214.740
2211.612
2208.484
2205.356
2202.228
2199.100
2195.972
2192.844
2189.716
2186.588
2183.460
2180.332
2177.204
2174.076
2170.948
2167.820
2164.692
2161.564
2158.436
2155.308
2152.180
2149.052
2145.924
2142.796
2139.668
2136.540
2133.412
2130.284
2127.156
2124.028
2120.900
2117.772
2114.644
2111.516
2108.388
2105.260
2102.132
2099.004
2095.876
2092.748
2089.620
2086.492
2083.364
2080.236
2077.108
2073.980
2070.852
2067.724
2064.596
2061.468
2058.340
2055.212
2052.084
2048.956
2045.828
2042.700
2039.572
2036.444
2033.316
2030.188
2027.060
2023.932
2020.804
2017.676
2014.548
2011.420
2008.292
2005.164
2002.036
1998.908
1995.780
1992.652
1989.524
1986.396
1983.268
1980.140
1977.012
