80.423
80.423
80.423
80.423
80.423
80.423
80.423
80.423
80.423
80.423
80.423
80.423
80.423
80.423
80.423
80.423
80.423
80.423
80.423
80.423
80.423
80.423
80.423
80.423
80.423
80.423
80.423
80.423
80.423
80.423
80.423
80.423
80.423
80.423
80.423
80.423
80.423
80.423
80.423
80.423
80.423
80.423
80.423
80.423
80.423
80.423
80.423
80.423
80.423
80.423
80.423
80.423
80.423
80.423
80.423
80.423
80.423
80.423
80.423
80.423
80.423
80.423
80.423
80.423
80.423
80.423
80.423
80.423
80.423
80.423
80.423
80.423
80.423
80.423
80.423
80.423
80.423
80.423
80.423
80.423
80.423
80.423
80.423
80.423
80.423
80.423
80.423
80.423
80.423
80.423
80.423
80.423
80.423
80.423
80.423
80.423
80.423
80.423
80.423
80.423
80.423
80.423
80.423
80.423
80.423
80.423
80.423
80.423
80.423
80.423
80.423
80.423
80.423
80.423
80.423
80.423
80.423
80.423
80.423
80.423
80.423
80.423
80.423
80.423
80.423
80.423
80.423
80.423
80.423
80.423
80.423
80.423
80.423
80.423
80.423
80.423
80.423
80.423
80.423
80.423
80.423
80.423
80.423
80.423
80.423
80.423
80.423
80.423
80.423
80.423
80.423
80.423
80.423
80.423
80.423
80.423
80.423
80.423
80.423
80.423
80.423
80.423
80.423
80.423
80.423
80.423
80.423
80.423
80.423
80.423
80.423
80.423
80.423
80.423
80.423
80.423
80.423
80.423
80.423
80.423
80.423
80.423
80.423
80.423
80.423
80.423
80.423
80.423
80.423
80.423
80.423
80.423
80.423
80.423
80.423
80.423
80.423
80.423
80.423
80.423
80.423
80.423
80.423
80.423
80.423
80.423
80.423
80.423
80.423
80.423
80.423
80.423
80.423
80.423
80.423
80.423
80.423
80.423
80.423
80.423
80.423
80.423
80.423
80.423
80.423
80.423
80.423
80.423
80.423
80.423
80.423
80.423
80.423
80.423
80.423
80.423
80.423
80.423
80.423
80.423
80.423
80.423
80.423
80.423
80.423
80.423
80.423
80.423
80.423
80.423
80.423
80.423
80.423
80.423
80.423
80.423
80.423
80.423
80.423
80.423
80.423
80.423
80.423
80.423
80.423
80.423
80.423
80.423
80.423
80.423
80.423
80.423
80.423
80.423
80.423
80.423
80.423
80.423
80.423
80.423
80.423
80.423
80.423
80.423
80.423
80.423
80.423
80.423
80.423
80.423
80.423
80.423
80.423
80.423
80.423
80.423
80.423
80.423
80.423
80.423
80.423
80.423
80.423
80.423
80.423
80.423
80.423
80.423
80.423
80.423
80.423
80.423
80.423
80.423
80.423
80.423
80.423
80.423
80.423
80.423
80.423
80.423
80.423
80.423
80.423
80.423
80.423
80.423
80.423
80.423
80.423
80.423
80.423
80.423
80.423
80.423
80.423
80.423
80.423
80.423
80.423
80.423
80.423
80.423
80.423
80.423
80.423
80.423
80.423
80.423
80.423
80.423
80.423
80.423
80.423
80.423
80.423
80.423
80.423
80.423
80.423
80.423
80.423
80.423
80.423
80.423
80.423
80.423
80.423
80.423
80.423
80.423
80.423
80.423
80.423
80.423
80.423
80.423
80.423
80.423
80.423
80.423
80.423
80.423
80.423
80.423
80.423
80.423
80.423
80.423
80.423
80.423
80.423
80.423
80.423
80.423
80.423
80.423
80.423
80.423
80.423
80.423
80.423
80.423
80.423
1101.923
1104.367
1106.810
1109.254
1111.697
1114.141
1116.584
1119.028
1121.471
1123.915
1126.358
1128.802
1131.245
1133.689
1136.132
1138.576
1141.019
1143.463
1145.906
1148.350
1150.793
1153.237
1155.680
1158.124
1160.567
1163.011
1165.454
1167.898
1170.341
1172.785
1175.228
1177.672
1180.115
1182.559
1185.002
1187.446
1189.889
1192.333
1194.776
1197.220
1199.663
1202.107
1204.550
1206.994
1209.437
1211.881
1214.324
1216.768
1219.211
1221.655
1224.098
1226.542
1228.985
1231.429
1233.872
1236.316
1238.759
1241.203
1243.646
1246.090
1248.533
1250.977
1253.420
1255.864
1258.307
1260.751
1263.194
1265.638
1268.081
1270.525
1272.968
1275.412
1277.855
1280.299
1282.742
1285.186
1287.629
1290.073
1292.516
1294.960
1297.403
1299.847
1302.290
1304.734
1307.177
1309.621
1312.064
1314.508
1316.951
1319.395
1321.838
1324.282
1326.725
1329.169
1331.612
1334.056
1336.499
1338.943
1341.386
1343.830
1346.273
1348.717
1351.160
1353.604
1356.047
1358.491
1360.934
1363.378
1365.821
1368.265
1370.708
1373.152
1375.595
1378.039
1380.482
1382.926
1385.369
1387.813
1390.256
1392.700
1395.143
1397.587
1400.030
1402.474
1404.917
1407.361
1409.804
1412.248
1414.691
1417.135
1419.578
1422.022
1424.465
1426.909
1429.352
1431.796
1434.239
1436.683
1439.126
1441.570
1444.013
1446.457
1448.900
1451.344
1453.787
1456.231
1458.674
1461.118
1463.561
1466.005
1468.448
1470.892
1473.335
1475.779
1478.222
1480.666
1483.109
1485.553
1487.996
1490.440
1492.883
1495.327
1497.770
1500.214
1502.657
1505.101
1507.544
1509.988
1512.431
1514.875
1517.318
1519.762
1522.205
1524.649
1527.092
1529.536
1531.979
1534.423
1536.866
1539.310
1541.753
1544.197
1546.640
1549.084
1551.527
1553.971
1556.414
1558.858
1561.301
1563.745
1566.188
1568.632
1571.075
1573.519
1575.962
1578.406
1580.849
1583.293
1585.736
1588.180
1590.623
1592.725
1594.827
1596.929
1599.031
1601.133
1603.235
1605.337
1607.439
1609.541
1611.643
1613.745
1615.847
1617.949
1620.051
1622.153
1624.255
1626.357
1628.459
1630.561
1632.663
1634.765
1636.867
1638.969
1641.071
1643.173
1645.275
1647.377
1649.479
1651.581
1653.683
1655.785
1657.887
1659.989
1662.091
1664.193
1666.295
1668.397
1670.499
1672.601
1674.703
1676.805
1678.907
1681.009
1683.111
1685.213
1687.315
1689.417
1691.519
1693.621
1695.723
1697.825
1699.927
1702.029
1704.131
1706.233
1708.335
1710.437
1712.539
1714.641
1716.743
1718.845
1720.947
1723.049
1725.151
1727.253
1729.355
1731.457
1733.559
1735.661
1737.763
1739.865
1741.967
1744.069
1746.171
1748.273
1750.375
1752.477
1754.579
1756.681
1758.783
1760.885
1762.987
1765.089
1767.191
1769.293
1771.395
1773.497
1775.599
1777.701
1779.803
1781.905
1784.007
1786.109
1788.211
1790.313
1792.415
1794.517
1796.619
1798.721
1800.823
1802.925
1805.027
1807.129
1809.231
1811.333
1813.435
1815.537
1817.639
1819.741
1821.843
1823.945
1826.047
1828.149
1830.251
1832.353
1834.455
1836.557
1838.659
1840.761
1842.863
1844.965
1847.067
1849.169
1851.271
1853.373
1855.475
1857.577
1859.679
1861.781
1863.883
1865.985
1868.087
1870.189
1872.291
1874.393
1876.495
1878.597
1880.699
1882.801
1884.903
1887.005
1889.107
1891.209
1893.311
1895.413
1897.515
1899.617
1901.719
1903.821
1905.923
1908.025
1910.127
1912.229
1914.331
1916.433
1918.535
1920.637
1922.739
1924.841
1926.943
1929.045
1931.147
1933.249
1935.351
1937.453
1939.555
1941.657
1943.759
1945.861
1947.963
1950.065
1952.167
1954.269
1956.371
1958.473
1960.575
1962.677
1964.779
1966.881
1968.983
1971.085
1973.187
1975.289
1977.391
1979.493
1981.595
1983.697
1985.799
1987.901
1990.003
1992.105
1994.207
1996.309
1998.411
2000.513
2002.615
2004.717
2006.819
2008.921
2011.023
2011.536
2012.049
2012.562
2013.075
2013.588
2014.101
2014.614
2015.127
2015.640
2016.153
2016.666
2017.179
2017.692
2018.205
2018.718
2019.231
2019.744
2020.257
2020.770
2021.283
2021.796
2022.309
2022.822
2023.335
2023.848
2024.361
2024.874
2025.387
2025.900
2026.413
2026.926
2027.439
2027.952
2028.465
2028.978
2029.491
2030.004
2030.517
2031.030
2031.543
2032.056
2032.569
2033.082
2033.595
2034.108
2034.621
2035.134
2035.647
2036.160
2036.673
2037.186
2037.699
2038.212
2038.725
2039.238
2039.751
2040.264
2040.777
2041.290
2041.803
2042.316
2042.829
2043.342
2043.855
2044.368
2044.881
2045.394
2045.907
2046.420
2046.933
2047.446
2047.959
2048.472
2048.985
2049.498
2050.011
2050.524
2051.037
2051.550
2052.063
2052.576
2053.089
2053.602
2054.115
2054.628
2055.141
2055.654
2056.167
2056.680
2057.193
2057.706
2058.219
2058.732
2059.245
2059.758
2060.271
2060.784
2061.297
2061.810
2062.323
2062.836
2063.349
2063.862
2064.375
2064.888
2065.401
2065.914
2066.427
2066.940
2067.453
2067.966
2068.479
2068.992
2069.505
2070.018
2070.531
2071.044
2071.557
2072.070
2072.583
2073.096
2073.609
2074.122
2074.635
2075.148
2075.661
2076.174
2076.687
2077.200
2077.713
2078.226
2078.739
2079.252
2079.765
2080.278
2080.791
2081.304
2081.817
2082.330
2082.843
2083.356
2083.869
2084.382
2084.895
2085.408
2085.921
2086.434
2086.947
2087.460
2087.973
2088.486
2088.999
2089.512
2090.025
2090.538
2091.051
2091.564
2092.077
2092.590
2093.103
2093.616
2094.129
2094.642
2095.155
2095.668
2096.181
2096.694
2097.207
2097.720
2098.233
2098.746
2099.259
2099.772
2100.285
2100.798
2101.311
2101.824
2102.337
2102.850
2103.363
2103.876
2104.389
2104.902
2105.415
2105.928
2106.441
2106.954
2107.467
2107.980
2108.493
2109.006
2109.519
2110.032
2110.545
2111.058
2111.571
2112.084
2112.597
2113.110
2113.623
2112.181
2110.739
2109.297
2107.855
2106.413
2104.971
2103.529
2102.087
2100.645
2099.203
2097.761
2096.319
2094.877
2093.435
2091.993
2090.551
2089.109
2087.667
2086.225
2084.783
2083.341
2081.899
2080.457
2079.015
2077.573
2076.131
2074.689
2073.247
2071.805
2070.363
2068.921
2067.479
2066.037
2064.595
2063.153
2061.711
2060.269
2058.827
2057.385
2055.943
2054.501
2053.059
2051.617
2050.175
2048.733
2047.291
2045.849
2044.407
2042.965
2041.523
2040.081
2038.639
2037.197
2035.755
2034.313
2032.871
2031.429
2029.987
2028.545
2027.103
2025.661
2024.219
2022.777
2021.335
2019.893
2018.451
2017.009
2015.567
2014.125
2012.683
2011.241
2009.799
2008.357
2006.915
2005.473
2004.031
2002.589
2001.147
1999.705
1998.263
1996.821
1995.379
1993.937
1992.495
1991.053
1989.611
1988.169
1986.727
1985.285
1983.843
1982.401
1980.959
1979.517
1978.075
1976.633
1975.191
1973.749
1972.307
1970.865
1969.423
1967.981
1966.539
1965.097
1963.655
1962.213
1960.771
1959.329
1957.887
1956.445
1955.003
1953.561
1952.119
1950.677
1949.235
1947.793
1946.351
1944.909
1943.467
1942.025
1940.583
1939.141
1937.699
1936.257
1934.815
1933.373
1931.931
1930.489
1929.047
1927.605
1926.163
1924.721
1923.279
1921.837
1920.395
1918.953
1917.511
1916.069
1914.627
1913.185
1911.743
1910.301
1908.859
1907.417
1905.975
1904.533
1903.091
1901.649
1900.207
1898.765
1897.323
1895.881
1894.439
1892.997
1891.555
1890.113
1888.671
1887.229
1885.787
1884.345
1882.903
1881.461
1880.019
1878.577
1877.135
1875.693
1874.251
1872.809
1871.367
1869.925
1868.483
1867.041
1865.599
1864.157
1862.715
1861.273
1859.831
1858.389
1856.947
1855.505
1854.063
1852.621
1851.179
1849.737
1848.295
1846.853
1845.411
1843.969
1842.527
1841.085
1839.643
1838.201
1836.759
1835.317
1833.875
1832.433
1830.991
1829.549
1828.107
1826.665
1825.223
1827.594
1829.964
1832.335
1834.705
1837.076
1839.446
1841.817
1844.187
1846.558
1848.928
1851.299
1853.669
1856.040
1858.410
1860.781
1863.151
1865.522
1867.892
1870.263
1872.633
1875.004
1877.374
1879.745
1882.115
1884.486
1886.856
1889.227
1891.597
1893.968
1896.338
1898.709
1901.079
1903.450
1905.820
1908.191
1910.561
1912.932
1915.302
1917.673
1920.043
1922.414
1924.784
1927.155
1929.525
1931.896
1934.266
1936.637
1939.007
1941.378
1943.748
1946.119
1948.489
1950.860
1953.230
1955.601
1957.971
1960.342
1962.712
1965.083
1967.453
1969.824
1972.194
1974.565
1976.935
1979.306
1981.676
1984.047
1986.417
1988.788
1991.158
1993.529
1995.899
1998.270
2000.640
2003.011
2005.381
2007.752
2010.122
2012.493
2014.863
2017.234
2019.604
2021.975
2024.345
2026.716
2029.086
2031.457
2033.827
2036.198
2038.568
2040.939
2043.309
2045.680
2048.050
2050.421
2052.791
2055.162
2057.532
2059.903
2062.273
2064.644
2067.014
2069.385
2071.755
2074.126
2076.496
2078.867
2081.237
2083.608
2085.978
2088.349
2090.719
2093.090
2095.460
2097.831
2100.201
2102.572
2104.942
2107.313
2109.683
2112.054
2114.424
2116.795
2119.165
2121.536
2123.906
2126.277
2128.647
2131.018
2133.388
2135.759
2138.129
2140.500
2142.870
2145.241
2147.611
2149.982
2152.352
2154.723
2157.093
2159.464
2161.834
2164.205
2166.575
2168.946
2171.316
2173.687
2176.057
2178.428
2180.798
2183.169
2185.539
2187.910
2190.280
2192.651
2195.021
2197.392
2199.762
2202.133
2204.503
2206.874
2209.244
2211.615
2213.985
2216.356
2218.726
2221.097
2223.467
2225.838
2228.208
2230.579
2232.949
2235.320
2237.690
2240.061
2242.431
2244.802
2247.172
2249.543
2251.913
2254.284
2256.654
2259.025
2261.395
2263.766
2266.136
2268.507
2270.877
2273.248
2275.618
2277.989
2280.359
2282.730
2285.100
2287.471
2289.841
2292.212
2294.582
2296.953
2299.323
2298.468
2297.613
2296.758
2295.903
2295.048
2294.193
2293.338
2292.483
2291.628
2290.773
2289.918
2289.063
2288.208
2287.353
2286.498
2285.643
2284.788
2283.933
2283.078
2282.223
2281.368
2280.513
2279.658
2278.803
2277.948
2277.093
2276.238
2275.383
2274.528
2273.673
2272.818
2271.963
2271.108
2270.253
2269.398
2268.543
2267.688
2266.833
2265.978
2265.123
2264.268
2263.413
2262.558
2261.703
2260.848
2259.993
2259.138
2258.283
2257.428
2256.573
2255.718
2254.863
2254.008
2253.153
2252.298
2251.443
2250.588
2249.733
2248.878
2248.023
2247.168
2246.313
2245.458
2244.603
2243.748
2242.893
2242.038
2241.183
2240.328
2239.473
2238.618
2237.763
2236.908
2236.053
2235.198
2234.343
2233.488
2232.633
2231.778
2230.923
2230.068
2229.213
2228.358
2227.503
2226.648
2225.793
2224.938
2224.083
2223.228
2222.373
2221.518
2220.663
2219.808
2218.953
2218.098
2217.243
2216.388
2215.533
2214.678
2213.823
2212.968
2212.113
2211.258
2210.403
2209.548
2208.693
2207.838
2206.983
2206.128
2205.273
2204.418
2203.563
2202.708
2201.853
2200.998
2200.143
2199.288
2198.433
2197.578
2196.723
2195.868
2195.013
2194.158
2193.303
2192.448
2191.593
2190.738
2189.883
2189.028
2188.173
2187.318
2186.463
2185.608
2184.753
2183.898
2183.043
2182.188
2181.333
2180.478
2179.623
2178.768
2177.913
2177.058
2176.203
2175.348
2174.493
2173.638
2172.783
2171.928
2171.073
2170.218
2169.363
2168.508
2167.653
2166.798
2165.943
2165.088
2164.233
2163.378
2162.523
2161.668
2160.813
2159.958
2159.103
2158.248
2157.393
2156.538
2155.683
2154.828
2153.973
2153.118
2152.263
2151.408
2150.553
2149.698
2148.843
2147.988
2147.133
2146.278
2145.423
2144.568
2143.713
2142.858
2142.003
2141.148
2140.293
2139.438
2138.583
2137.728
2136.873
2136.018
2135.163
2134.308
2133.453
2132.598
2131.743
2130.888
2130.033
2129.178
2128.323
2126.099
2123.875
2121.651
2119.427
2117.203
2114.979
2112.755
2110.531
2108.307
2106.083
2103.859
2101.635
2099.411
2097.187
2094.963
2092.739
2090.515
2088.291
2086.067
2083.843
2081.619
2079.395
2077.171
2074.947
2072.723
2070.499
2068.275
2066.051
2063.827
2061.603
2059.379
2057.155
2054.931
2052.707
2050.483
2048.259
2046.035
2043.811
2041.587
2039.363
2037.139
2034.915
2032.691
2030.467
2028.243
2026.019
2023.795
2021.571
2019.347
2017.123
2014.899
2012.675
2010.451
2008.227
2006.003
2003.779
2001.555
1999.331
1997.107
1994.883
1992.659
1990.435
1988.211
1985.987
1983.763
1981.539
1979.315
1977.091
1974.867
1972.643
1970.419
1968.195
1965.971
1963.747
1961.523
1959.299
1957.075
1954.851
1952.627
1950.403
1948.179
1945.955
1943.731
1941.507
1939.283
1937.059
1934.835
1932.611
1930.387
1928.163
1925.939
1923.715
1921.491
1919.267
1917.043
1914.819
1912.595
1910.371
1908.147
1905.923
1903.699
1901.475
1899.251
1897.027
1894.803
1892.579
1890.355
1888.131
1885.907
1883.683
1881.459
1879.235
1877.011
1874.787
1872.563
1870.339
1868.115
1865.891
1863.667
1861.443
1859.219
1856.995
1854.771
1852.547
1850.323
1848.099
1845.875
1843.651
1841.427
1839.203
1836.979
1834.755
1832.531
1830.307
1828.083
1825.859
1823.635
1821.411
1819.187
1816.963
1814.739
1812.515
1810.291
1808.067
1805.843
1803.619
1801.395
1799.171
1796.947
1794.723
1792.499
1790.275
1788.051
1785.827
1783.603
1781.379
1779.155
1776.931
1774.707
1772.483
1770.259
1768.035
1765.811
1763.587
1761.363
1759.139
1756.915
1754.691
1752.467
1750.243
1748.019
1745.795
1743.571
1741.347
1739.123
1736.899
1734.675
1732.451
1730.227
1728.003
1725.779
1723.555
1721.331
1719.107
1716.883
1714.659
1712.435
1710.211
1707.987
1705.763
1703.539
1701.315
1699.091
1696.867
1694.643
1692.419
1690.195
1687.971
1685.747
1683.523
1685.845
1688.166
1690.488
1692.809
1695.131
1697.452
1699.774
1702.095
1704.417
1706.738
1709.060
1711.381
1713.703
1716.024
1718.346
1720.667
1722.989
1725.310
1727.632
1729.953
1732.275
1734.596
1736.918
1739.239
1741.561
1743.882
1746.204
1748.525
1750.847
1753.168
1755.490
1757.811
1760.133
1762.454
1764.776
1767.097
1769.419
1771.740
1774.062
1776.383
1778.705
1781.026
1783.348
1785.669
1787.991
1790.312
1792.634
1794.955
1797.277
1799.598
1801.920
1804.241
1806.563
1808.884
1811.206
1813.527
1815.849
1818.170
1820.492
1822.813
1825.135
1827.456
1829.778
1832.099
1834.421
1836.742
1839.064
1841.385
1843.707
1846.028
1848.350
1850.671
1852.993
1855.314
1857.636
1859.957
1862.279
1864.600
1866.922
1869.243
1871.565
1873.886
1876.208
1878.529
1880.851
1883.172
1885.494
1887.815
1890.137
1892.458
1894.780
1897.101
1899.423
1901.744
1904.066
1906.387
1908.709
1911.030
1913.352
1915.673
1917.995
1920.316
1922.638
1924.959
1927.281
1929.602
1931.924
1934.245
1936.567
1938.888
1941.210
1943.531
1945.853
1948.174
1950.496
1952.817
1955.139
1957.460
1959.782
1962.103
1964.425
1966.746
1969.068
1971.389
1973.711
1976.032
1978.354
1980.675
1982.997
1985.318
1987.640
1989.961
1992.283
1994.604
1996.926
1999.247
2001.569
2003.890
2006.212
2008.533
2010.855
2013.176
2015.498
2017.819
2020.141
2022.462
2024.784
2027.105
2029.427
2031.748
2034.070
2036.391
2038.713
2041.034
2043.356
2045.677
2047.999
2050.320
2052.642
2054.963
2057.285
2059.606
2061.928
2064.249
2066.571
2068.892
2071.214
2073.535
2075.857
2078.178
2080.500
2082.821
2085.143
2087.464
2089.786
2092.107
2094.429
2096.750
2099.072
2101.393
2103.715
2106.036
2108.358
2110.679
2113.001
2115.322
2117.644
2119.965
2122.287
2124.608
2126.930
2129.251
2131.573
2133.894
