113.584
113.559
113.535
113.510
113.486
113.461
113.437
113.412
113.388
113.363
113.339
113.314
113.290
113.265
113.241
113.216
113.192
113.167
113.143
113.118
113.094
113.069
113.045
113.020
112.996
112.971
112.947
112.922
112.898
112.873
112.849
112.824
112.800
112.775
112.751
112.726
112.702
112.677
112.653
112.628
112.604
112.579
112.555
112.530
112.506
112.481
112.457
112.432
112.408
112.383
112.359
112.334
112.310
112.285
112.261
112.236
112.212
112.187
112.163
112.138
112.114
112.089
112.065
112.040
112.016
111.991
111.967
111.942
111.918
111.893
111.869
111.844
111.820
111.795
111.771
111.746
111.722
111.697
111.673
111.648
111.624
111.599
111.575
111.550
111.526
111.501
111.477
111.452
111.428
111.403
111.379
111.354
111.330
111.305
111.281
111.256
111.232
111.207
111.183
111.158
111.134
111.109
111.085
111.060
111.036
111.011
110.987
110.962
110.938
110.913
110.889
110.864
110.840
110.815
110.791
110.766
110.742
110.717
110.693
110.668
110.644
110.619
110.595
110.570
110.546
110.521
110.497
110.472
110.448
110.423
110.399
110.374
110.350
110.325
110.301
110.276
110.252
110.227
110.203
110.178
110.154
110.129
110.105
110.080
110.056
110.031
110.007
109.982
109.958
109.933
109.909
109.884
109.860
109.835
109.811
109.786
109.762
109.737
109.713
109.688
109.664
109.664
109.664
109.664
109.664
109.664
109.664
109.664
109.664
109.664
109.664
109.664
109.664
109.664
109.664
109.664
109.664
109.664
109.664
109.664
109.664
109.664
109.664
109.664
109.664
109.664
109.664
109.664
109.664
109.664
109.664
109.664
109.664
109.664
109.664
109.664
109.664
109.664
109.664
109.664
109.664
109.664
109.664
109.664
109.664
109.664
109.664
109.664
109.664
109.664
109.664
109.664
109.664
109.664
109.664
109.664
109.664
109.664
109.664
109.664
109.664
109.664
109.664
109.664
109.664
109.664
109.664
109.664
109.664
109.664
109.664
109.664
109.664
109.664
109.664
109.664
109.664
109.664
109.664
109.664
109.664
109.664
109.664
109.664
109.664
109.664
109.664
109.664
109.664
109.664
109.664
109.664
109.664
109.664
109.664
109.664
109.664
109.664
109.664
109.664
109.664
109.664
109.664
109.664
109.664
109.664
109.664
109.664
109.664
109.664
109.664
109.664
109.664
109.664
109.664
109.664
109.664
109.664
109.664
109.664
109.664
109.664
109.664
109.664
109.664
109.664
109.664
109.664
109.664
109.664
109.664
109.664
109.664
109.664
109.664
109.664
109.664
109.664
109.664
109.664
109.664
109.664
109.664
109.664
109.664
109.664
109.664
109.664
109.664
109.664
109.664
109.664
109.664
109.664
109.664
109.664
109.664
109.664
109.664
109.664
109.664
109.664
109.664
109.664
109.664
109.664
109.664
109.664
109.664
109.664
109.664
109.664
109.664
109.664
109.664
109.664
109.664
109.664
109.664
109.664
109.664
109.664
109.664
109.664
109.664
109.664
109.664
109.664
109.664
109.664
109.664
109.664
109.664
109.664
109.664
109.664
109.664
109.664
109.664
109.664
925.864
927.697
929.530
931.363
933.196
935.029
936.862
938.695
940.528
942.361
944.194
946.027
947.860
949.693
951.526
953.359
955.192
957.025
958.858
960.691
962.524
964.357
966.190
968.023
969.856
971.689
973.522
975.355
977.188
979.021
980.854
982.687
984.520
986.353
988.186
990.019
991.852
993.685
995.518
997.351
999.184
1001.017
1002.850
1004.683
1006.516
1008.349
1010.182
1012.015
1013.848
1015.681
1017.514
1019.347
1021.180
1023.013
1024.846
1026.679
1028.512
1030.345
1032.178
1034.011
1035.844
1037.677
1039.510
1041.343
1043.176
1045.009
1046.842
1048.675
1050.508
1052.341
1054.174
1056.007
1057.840
1059.673
1061.506
1063.339
1065.172
1067.005
1068.838
1070.671
1072.504
1074.337
1076.170
1078.003
1079.836
1081.669
1083.502
1085.335
1087.168
1089.001
1090.834
1092.667
1094.500
1096.333
1098.166
1099.999
1101.832
1103.665
1105.498
1107.331
1109.164
1110.997
1112.830
1114.663
1116.496
1118.329
1120.162
1121.995
1123.828
1125.661
1127.494
1129.327
1131.160
1132.993
1134.826
1136.659
1138.492
1140.325
1142.158
1143.991
1145.824
1147.657
1149.490
1151.323
1153.156
1154.989
1156.822
1158.655
1160.488
1162.321
1164.154
1165.987
1167.820
1169.653
1171.486
1173.319
1175.152
1176.985
1178.818
1180.651
1182.484
1184.317
1186.150
1187.983
1189.816
1191.649
1193.482
1195.315
1197.148
1198.981
1200.814
1202.647
1204.480
1206.313
1208.146
1209.979
1211.812
1213.645
1215.478
1217.311
1219.144
1220.977
1222.810
1224.643
1226.476
1228.309
1230.142
1231.975
1233.808
1235.641
1237.474
1239.307
1241.140
1242.973
1244.806
1246.639
1248.472
1250.305
1252.138
1253.971
1255.804
1257.637
1259.470
1261.303
1263.136
1264.969
1266.802
1268.635
1270.468
1272.301
1274.134
1275.967
1277.800
1279.633
1281.466
1283.299
1285.132
1286.965
1288.798
1290.631
1292.464
1298.182
1303.901
1309.619
1315.338
1321.056
1326.775
1332.493
1338.212
1343.930
1349.649
1355.367
1361.086
1366.804
1372.523
1378.241
1383.960
1389.678
1395.397
1401.115
1406.834
1412.552
1418.271
1423.989
1429.708
1435.426
1441.145
1446.863
1452.582
1458.300
1464.019
1469.737
1475.456
1481.174
1486.893
1492.611
1498.330
1504.048
1509.767
1515.485
1521.204
1526.922
1532.641
1538.359
1544.078
1549.796
1555.515
1561.233
1566.952
1572.670
1578.389
1584.107
1589.826
1595.544
1601.263
1606.981
1612.700
1618.418
1624.137
1629.855
1635.574
1641.292
1647.011
1652.729
1658.448
1664.166
1669.885
1675.603
1681.322
1687.040
1692.759
1698.477
1704.196
1709.914
1715.633
1721.351
1727.070
1732.788
1738.507
1744.225
1749.944
1755.662
1761.381
1767.099
1772.818
1778.536
1784.255
1789.973
1795.692
1801.410
1807.129
1812.847
1818.566
1824.284
1830.003
1835.721
1841.440
1847.158
1852.877
1858.595
1864.314
1870.032
1875.751
1881.469
1887.188
1892.906
1898.625
1904.343
1910.062
1915.780
1921.499
1927.217
1932.936
1938.654
1944.373
1950.091
1955.810
1961.528
1967.247
1972.965
1978.684
1984.402
1990.121
1995.839
2001.558
2007.276
2012.995
2018.713
2024.432
2030.150
2035.869
2041.587
2047.306
2053.024
2058.743
2064.461
2070.180
2075.898
2081.617
2087.335
2093.054
2098.772
2104.491
2110.209
2115.928
2121.646
2127.365
2133.083
2138.802
2144.520
2150.239
2155.957
2161.676
2167.394
2173.113
2178.831
2184.550
2190.268
2195.987
2201.705
2207.424
2213.142
2218.861
2224.579
2230.298
2236.016
2241.735
2247.453
2253.172
2258.890
2264.609
2270.327
2276.046
2281.764
2287.483
2293.201
2298.920
2304.638
2310.357
2316.075
2321.794
2327.512
2333.231
2338.949
2344.668
2350.386
2356.105
2361.823
2367.542
2373.260
2378.979
2384.697
2390.416
2396.134
2401.853
2407.571
2413.290
2419.008
2424.727
2430.445
2436.164
2432.498
2428.832
2425.166
2421.500
2417.834
2414.168
2410.502
2406.836
2403.170
2399.504
2395.838
2392.172
2388.506
2384.840
2381.174
2377.508
2373.842
2370.176
2366.510
2362.844
2359.178
2355.512
2351.846
2348.180
2344.514
2340.848
2337.182
2333.516
2329.850
2326.184
2322.518
2318.852
2315.186
2311.520
2307.854
2304.188
2300.522
2296.856
2293.190
2289.524
2285.858
2282.192
2278.526
2274.860
2271.194
2267.528
2263.862
2260.196
2256.530
2252.864
2249.198
2245.532
2241.866
2238.200
2234.534
2230.868
2227.202
2223.536
2219.870
2216.204
2212.538
2208.872
2205.206
2201.540
2197.874
2194.208
2190.542
2186.876
2183.210
2179.544
2175.878
2172.212
2168.546
2164.880
2161.214
2157.548
2153.882
2150.216
2146.550
2142.884
2139.218
2135.552
2131.886
2128.220
2124.554
2120.888
2117.222
2113.556
2109.890
2106.224
2102.558
2098.892
2095.226
2091.560
2087.894
2084.228
2080.562
2076.896
2073.230
2069.564
2065.898
2062.232
2058.566
2054.900
2051.234
2047.568
2043.902
2040.236
2036.570
2032.904
2029.238
2025.572
2021.906
2018.240
2014.574
2010.908
2007.242
2003.576
1999.910
1996.244
1992.578
1988.912
1985.246
1981.580
1977.914
1974.248
1970.582
1966.916
1963.250
1959.584
1955.918
1952.252
1948.586
1944.920
1941.254
1937.588
1933.922
1930.256
1926.590
1922.924
1919.258
1915.592
1911.926
1908.260
1904.594
1900.928
1897.262
1893.596
1889.930
1886.264
1882.598
1878.932
1875.266
1871.600
1867.934
1864.268
1860.602
1856.936
1853.270
1849.604
1845.938
1842.272
1838.606
1834.940
1831.274
1827.608
1823.942
1820.276
1816.610
1812.944
1809.278
1805.612
1801.946
1798.280
1794.614
1790.948
1787.282
1783.616
1779.950
1776.284
1772.618
1768.952
1765.286
1761.620
1757.954
1754.288
1750.622
1746.956
1743.290
1739.624
1735.958
1732.292
1728.626
1724.960
1721.294
1717.628
1713.962
1710.296
1706.630
1702.964
1704.992
1707.021
1709.049
1711.078
1713.106
1715.135
1717.163
1719.192
1721.220
1723.249
1725.277
1727.306
1729.334
1731.363
1733.391
1735.420
1737.448
1739.477
1741.505
1743.534
1745.562
1747.591
1749.619
1751.648
1753.676
1755.705
1757.733
1759.762
1761.790
1763.819
1765.847
1767.876
1769.904
1771.933
1773.961
1775.990
1778.018
1780.047
1782.075
1784.104
1786.132
1788.161
1790.189
1792.218
1794.246
1796.275
1798.303
1800.332
1802.360
1804.389
1806.417
1808.446
1810.474
1812.503
1814.531
1816.560
1818.588
1820.617
1822.645
1824.674
1826.702
1828.731
1830.759
1832.788
1834.816
1836.845
1838.873
1840.902
1842.930
1844.959
1846.987
1849.016
1851.044
1853.073
1855.101
1857.130
1859.158
1861.187
1863.215
1865.244
1867.272
1869.301
1871.329
1873.358
1875.386
1877.415
1879.443
1881.472
1883.500
1885.529
1887.557
1889.586
1891.614
1893.643
1895.671
1897.700
1899.728
1901.757
1903.785
1905.814
1907.842
1909.871
1911.899
1913.928
1915.956
1917.985
1920.013
1922.042
1924.070
1926.099
1928.127
1930.156
1932.184
1934.213
1936.241
1938.270
1940.298
1942.327
1944.355
1946.384
1948.412
1950.441
1952.469
1954.498
1956.526
1958.555
1960.583
1962.612
1964.640
1966.669
1968.697
1970.726
1972.754
1974.783
1976.811
1978.840
1980.868
1982.897
1984.925
1986.954
1988.982
1991.011
1993.039
1995.068
1997.096
1999.125
2001.153
2003.182
2005.210
2007.239
2009.267
2011.296
2013.324
2015.353
2017.381
2019.410
2021.438
2023.467
2025.495
2027.524
2029.552
2031.581
2033.609
2035.638
2037.666
2039.695
2041.723
2043.752
2045.780
2047.809
2049.837
2051.866
2053.894
2055.923
2057.951
2059.980
2062.008
2064.037
2066.065
2068.094
2070.122
2072.151
2074.179
2076.208
2078.236
2080.265
2082.293
2084.322
2086.350
2088.379
2090.407
2092.436
2094.464
2096.493
2098.521
2100.550
2102.578
2104.607
2106.635
2108.664
2109.739
2110.814
2111.889
2112.964
2114.039
2115.114
2116.189
2117.264
2118.339
2119.414
2120.489
2121.564
2122.639
2123.714
2124.789
2125.864
2126.939
2128.014
2129.089
2130.164
2131.239
2132.314
2133.389
2134.464
2135.539
2136.614
2137.689
2138.764
2139.839
2140.914
2141.989
2143.064
2144.139
2145.214
2146.289
2147.364
2148.439
2149.514
2150.589
2151.664
2152.739
2153.814
2154.889
2155.964
2157.039
2158.114
2159.189
2160.264
2161.339
2162.414
2163.489
2164.564
2165.639
2166.714
2167.789
2168.864
2169.939
2171.014
2172.089
2173.164
2174.239
2175.314
2176.389
2177.464
2178.539
2179.614
2180.689
2181.764
2182.839
2183.914
2184.989
2186.064
2187.139
2188.214
2189.289
2190.364
2191.439
2192.514
2193.589
2194.664
2195.739
2196.814
2197.889
2198.964
2200.039
2201.114
2202.189
2203.264
2204.339
2205.414
2206.489
2207.564
2208.639
2209.714
2210.789
2211.864
2212.939
2214.014
2215.089
2216.164
2217.239
2218.314
2219.389
2220.464
2221.539
2222.614
2223.689
2224.764
2225.839
2226.914
2227.989
2229.064
2230.139
2231.214
2232.289
2233.364
2234.439
2235.514
2236.589
2237.664
2238.739
2239.814
2240.889
2241.964
2243.039
2244.114
2245.189
2246.264
2247.339
2248.414
2249.489
2250.564
2251.639
2252.714
2253.789
2254.864
2255.939
2257.014
2258.089
2259.164
2260.239
2261.314
2262.389
2263.464
2264.539
2265.614
2266.689
2267.764
2268.839
2269.914
2270.989
2272.064
2273.139
2274.214
2275.289
2276.364
2277.439
2278.514
2279.589
2280.664
2281.739
2282.814
2283.889
2284.964
2286.039
2287.114
2288.189
2289.264
2290.339
2291.414
2292.489
2293.564
2294.639
2295.714
2296.789
2297.864
2298.939
2300.014
2301.089
2302.164
2303.239
2304.314
2305.389
2306.464
2307.539
2308.614
2309.689
2310.764
2311.839
2312.914
2313.989
2315.064
2316.139
2317.214
2318.289
2319.364
2320.439
2321.514
2322.589
2323.664
2325.423
2327.183
2328.942
2330.702
2332.461
2334.221
2335.980
2337.740
2339.499
2341.259
2343.018
2344.778
2346.537
2348.297
2350.056
2351.816
2353.575
2355.335
2357.094
2358.854
2360.613
2362.373
2364.132
2365.892
2367.651
2369.411
2371.170
2372.930
2374.689
2376.449
2378.208
2379.968
2381.727
2383.487
2385.246
2387.006
2388.765
2390.525
2392.284
2394.044
2395.803
2397.563
2399.322
2401.082
2402.841
2404.601
2406.360
2408.120
2409.879
2411.639
2413.398
2415.158
2416.917
2418.677
2420.436
2422.196
2423.955
2425.715
2427.474
2429.234
2430.993
2432.753
2434.512
2436.272
2438.031
2439.791
2441.550
2443.310
2445.069
2446.829
2448.588
2450.348
2452.107
2453.867
2455.626
2457.386
2459.145
2460.905
2462.664
2464.424
2466.183
2467.943
2469.702
2471.462
2473.221
2474.981
2476.740
2478.500
2480.259
2482.019
2483.778
2485.538
2487.297
2489.057
2490.816
2492.576
2494.335
2496.095
2497.854
2499.614
2501.373
2503.133
2504.892
2506.652
2508.411
2510.171
2511.930
2513.690
2515.449
2517.209
2518.968
2520.728
2522.487
2524.247
2526.006
2527.766
2529.525
2531.285
2533.044
2534.804
2536.563
2538.323
2540.082
2541.842
2543.601
2545.361
2547.120
2548.880
2550.639
2552.399
2554.158
2555.918
2557.677
2559.437
2561.196
2562.956
2564.715
2566.475
2568.234
2569.994
2571.753
2573.513
2575.272
2577.032
2578.791
2580.551
2582.310
2584.070
2585.829
2587.589
2589.348
2591.108
2592.867
2594.627
2596.386
2598.146
2599.905
2601.665
2603.424
2605.184
2606.943
2608.703
2610.462
2612.222
2613.981
2615.741
2617.500
2619.260
2621.019
2622.779
2624.538
2626.298
2628.057
2629.817
2631.576
2633.336
2635.095
2636.855
2638.614
2640.374
2642.133
2643.893
2645.652
2647.412
2649.171
2650.931
2652.690
2654.450
2656.209
2657.969
2659.728
2661.488
2663.247
2665.007
2666.766
2668.526
2670.285
2672.045
2673.804
2675.564
2671.801
2668.038
2664.275
2660.512
2656.749
2652.986
2649.223
2645.460
2641.697
2637.934
2634.171
2630.408
2626.645
2622.882
2619.119
2615.356
2611.593
2607.830
2604.067
2600.304
2596.541
2592.778
2589.015
2585.252
2581.489
2577.726
2573.963
2570.200
2566.437
2562.674
2558.911
2555.148
2551.385
2547.622
2543.859
2540.096
2536.333
2532.570
2528.807
2525.044
2521.281
2517.518
2513.755
2509.992
2506.229
2502.466
2498.703
2494.940
2491.177
2487.414
2483.651
2479.888
2476.125
2472.362
2468.599
2464.836
2461.073
2457.310
2453.547
2449.784
2446.021
2442.258
2438.495
2434.732
2430.969
2427.206
2423.443
2419.680
2415.917
2412.154
2408.391
2404.628
2400.865
2397.102
2393.339
2389.576
2385.813
2382.050
2378.287
2374.524
2370.761
2366.998
2363.235
2359.472
2355.709
2351.946
2348.183
2344.420
2340.657
2336.894
2333.131
2329.368
2325.605
2321.842
2318.079
2314.316
2310.553
2306.790
2303.027
2299.264
2295.501
2291.738
2287.975
2284.212
2280.449
2276.686
2272.923
2269.160
2265.397
2261.634
2257.871
2254.108
2250.345
2246.582
2242.819
2239.056
2235.293
2231.530
2227.767
2224.004
2220.241
2216.478
2212.715
2208.952
2205.189
2201.426
2197.663
2193.900
2190.137
2186.374
2182.611
2178.848
2175.085
2171.322
2167.559
2163.796
2160.033
2156.270
2152.507
2148.744
2144.981
2141.218
2137.455
2133.692
2129.929
2126.166
2122.403
2118.640
2114.877
2111.114
2107.351
2103.588
2099.825
2096.062
2092.299
2088.536
2084.773
2081.010
2077.247
2073.484
2069.721
2065.958
2062.195
2058.432
2054.669
2050.906
2047.143
2043.380
2039.617
2035.854
2032.091
2028.328
2024.565
2020.802
2017.039
2013.276
2009.513
2005.750
2001.987
1998.224
1994.461
1990.698
1986.935
1983.172
1979.409
1975.646
1971.883
1968.120
1964.357
1960.594
1956.831
1953.068
1949.305
1945.542
1941.779
1938.016
1934.253
1930.490
1926.727
1922.964
1921.228
1919.493
1917.757
1916.022
1914.286
1912.551
1910.815
1909.080
1907.344
1905.609
1903.873
1902.138
1900.402
1898.667
1896.931
1895.196
1893.460
1891.725
1889.989
1888.254
1886.518
1884.783
1883.047
1881.312
1879.576
1877.841
1876.105
1874.370
1872.634
1870.899
1869.163
1867.428
1865.692
1863.957
1862.221
1860.486
1858.750
1857.015
1855.279
1853.544
1851.808
1850.073
1848.337
1846.602
1844.866
1843.131
1841.395
1839.660
1837.924
1836.189
1834.453
1832.718
1830.982
1829.247
1827.511
1825.776
1824.040
1822.305
1820.569
1818.834
1817.098
1815.363
1813.627
1811.892
1810.156
1808.421
1806.685
1804.950
1803.214
1801.479
1799.743
1798.008
1796.272
1794.537
1792.801
1791.066
1789.330
1787.595
1785.859
1784.124
1782.388
1780.653
1778.917
1777.182
1775.446
1773.711
1771.975
1770.240
1768.504
1766.769
1765.033
1763.298
1761.562
1759.827
1758.091
1756.356
1754.620
1752.885
1751.149
1749.414
1747.678
1745.943
1744.207
1742.472
1740.736
1739.001
1737.265
1735.530
1733.794
1732.059
1730.323
1728.588
1726.852
1725.117
1723.381
1721.646
1719.910
1718.175
1716.439
1714.704
1712.968
1711.233
1709.497
1707.762
1706.026
1704.291
1702.555
1700.820
1699.084
1697.349
1695.613
1693.878
1692.142
1690.407
1688.671
1686.936
1685.200
1683.465
1681.729
1679.994
1678.258
1676.523
1674.787
1673.052
1671.316
1669.581
1667.845
1666.110
1664.374
1662.639
1660.903
1659.168
1657.432
1655.697
1653.961
1652.226
1650.490
1648.755
1647.019
1645.284
1643.548
1641.813
1640.077
1638.342
1636.606
1634.871
1633.135
1631.400
1629.664
1627.929
1626.193
1624.458
1622.722
1620.987
1619.251
1617.516
1615.780
1614.045
1612.309
1610.574
1608.838
1607.103
1605.367
1603.632
1601.896
1600.161
1598.425
1596.690
1594.954
1593.219
1591.483
1589.748
1588.012
1586.277
1584.541
1582.806
1581.070
1579.335
1577.599
1575.864
1578.601
1581.338
1584.075
1586.812
1589.549
1592.286
1595.023
1597.760
1600.497
1603.234
1605.971
1608.708
1611.445
1614.182
1616.919
1619.656
1622.393
1625.130
1627.867
1630.604
1633.341
1636.078
1638.815
1641.552
1644.289
1647.026
1649.763
1652.500
1655.237
1657.974
1660.711
1663.448
1666.185
1668.922
1671.659
1674.396
1677.133
1679.870
1682.607
