96.552
96.527
96.503
96.478
96.454
96.429
96.405
96.380
96.356
96.331
96.307
96.282
96.258
96.233
96.209
96.184
96.160
96.135
96.111
96.086
96.062
96.037
96.013
95.988
95.964
95.939
95.915
95.890
95.866
95.841
95.817
95.792
95.768
95.743
95.719
95.694
95.670
95.645
95.621
95.596
95.572
95.547
95.523
95.498
95.474
95.449
95.425
95.400
95.376
95.351
95.327
95.302
95.278
95.253
95.229
95.204
95.180
95.155
95.131
95.106
95.082
95.057
95.033
95.008
94.984
94.959
94.935
94.910
94.886
94.861
94.837
94.812
94.788
94.763
94.739
94.714
94.690
94.665
94.641
94.616
94.592
94.567
94.543
94.518
94.494
94.469
94.445
94.420
94.396
94.371
94.347
94.322
94.298
94.273
94.249
94.224
94.200
94.175
94.151
94.126
94.102
94.077
94.053
94.028
94.004
93.979
93.955
93.930
93.906
93.881
93.857
93.832
93.808
93.783
93.759
93.734
93.710
93.685
93.661
93.636
93.612
93.587
93.563
93.538
93.514
93.489
93.465
93.440
93.465
93.489
93.514
93.538
93.563
93.587
93.612
93.636
93.661
93.685
93.710
93.734
93.759
93.783
93.808
93.832
93.857
93.881
93.906
93.930
93.955
93.979
94.004
94.028
94.053
94.077
94.102
94.126
94.151
94.175
94.200
94.224
94.249
94.273
94.298
94.322
94.347
94.371
94.396
94.420
94.445
94.469
94.494
94.518
94.543
94.567
94.592
94.616
94.641
94.665
94.690
94.714
94.739
94.763
94.788
94.812
94.837
94.861
94.886
94.910
94.935
94.959
94.984
95.008
95.033
95.057
95.082
95.106
95.131
95.155
95.180
95.204
95.229
95.253
95.278
95.302
95.327
95.351
95.376
95.400
95.425
95.449
95.474
95.498
95.523
95.547
95.572
95.596
95.621
95.645
95.670
95.694
95.719
95.743
95.768
95.792
95.817
95.841
95.866
95.890
95.915
95.939
95.964
95.988
96.013
96.037
96.062
96.086
96.111
96.135
96.160
96.184
96.209
96.233
96.258
96.282
96.307
96.331
96.356
96.380
96.405
96.429
96.454
96.478
96.503
96.527
96.552
96.576
96.601
96.625
96.650
96.674
96.699
96.723
96.748
96.772
96.797
96.821
96.846
96.870
96.895
96.919
96.944
96.968
96.993
97.017
97.042
97.066
97.091
97.115
97.140
97.164
97.189
97.213
97.238
97.262
97.287
97.311
97.336
97.360
97.385
97.409
97.434
97.458
97.483
97.507
97.532
97.556
97.581
97.605
97.630
97.654
97.679
97.703
97.728
97.752
97.777
97.801
97.826
97.850
97.875
97.899
97.924
97.948
97.973
97.997
98.022
98.046
98.071
98.095
98.120
98.144
98.169
98.193
98.218
98.242
98.267
98.291
98.316
1325.040
1326.018
1326.996
1327.974
1328.952
1329.930
1330.908
1331.886
1332.864
1333.842
1334.820
1335.798
1336.776
1337.754
1338.732
1339.710
1340.688
1341.666
1342.644
1343.622
1344.600
1345.578
1346.556
1347.534
1348.512
1349.490
1350.468
1351.446
1352.424
1353.402
1354.380
1355.358
1356.336
1357.314
1358.292
1359.270
1360.248
1361.226
1362.204
1363.182
1364.160
1365.138
1366.116
1367.094
1368.072
1369.050
1370.028
1371.006
1371.984
1372.962
1373.940
1374.918
1375.896
1376.874
1377.852
1378.830
1379.808
1380.786
1381.764
1382.742
1383.720
1384.698
1385.676
1386.654
1387.632
1388.610
1389.588
1390.566
1391.544
1392.522
1393.500
1394.478
1395.456
1396.434
1397.412
1398.390
1399.368
1400.346
1401.324
1402.302
1403.280
1404.258
1405.236
1406.214
1407.192
1408.170
1409.148
1410.126
1411.104
1412.082
1413.060
1414.038
1415.016
1415.994
1416.972
1417.950
1418.928
1419.906
1420.884
1421.862
1422.840
1423.818
1424.796
1425.774
1426.752
1427.730
1428.708
1429.686
1430.664
1431.642
1432.620
1433.598
1434.576
1435.554
1436.532
1437.510
1438.488
1439.466
1440.444
1441.422
1442.400
1443.378
1444.356
1445.334
1446.312
1447.290
1448.268
1449.246
1450.224
1451.202
1452.180
1453.158
1454.136
1455.114
1456.092
1457.070
1458.048
1459.026
1460.004
1460.982
1461.960
1462.938
1463.916
1464.894
1465.872
1466.850
1467.828
1468.806
1469.784
1470.762
1471.740
1472.718
1473.696
1474.674
1475.652
1476.630
1477.608
1478.586
1479.564
1480.542
1481.520
1482.498
1483.476
1484.454
1485.432
1486.410
1487.388
1488.366
1489.344
1490.322
1491.300
1492.278
1493.256
1494.234
1495.212
1496.190
1497.168
1498.146
1499.124
1500.102
1501.080
1502.058
1503.036
1504.014
1504.992
1505.970
1506.948
1507.926
1508.904
1509.882
1510.860
1511.838
1512.816
1513.794
1514.772
1515.750
1516.728
1517.706
1518.684
1519.662
1520.640
1522.668
1524.696
1526.724
1528.752
1530.780
1532.808
1534.836
1536.864
1538.892
1540.920
1542.948
1544.976
1547.004
1549.032
1551.060
1553.088
1555.116
1557.144
1559.172
1561.200
1563.228
1565.256
1567.284
1569.312
1571.340
1573.368
1575.396
1577.424
1579.452
1581.480
1583.508
1585.536
1587.564
1589.592
1591.620
1593.648
1595.676
1597.704
1599.732
1601.760
1603.788
1605.816
1607.844
1609.872
1611.900
1613.928
1615.956
1617.984
1620.012
1622.040
1624.068
1626.096
1628.124
1630.152
1632.180
1634.208
1636.236
1638.264
1640.292
1642.320
1644.348
1646.376
1648.404
1650.432
1652.460
1654.488
1656.516
1658.544
1660.572
1662.600
1664.628
1666.656
1668.684
1670.712
1672.740
1674.768
1676.796
1678.824
1680.852
1682.880
1684.908
1686.936
1688.964
1690.992
1693.020
1695.048
1697.076
1699.104
1701.132
1703.160
1705.188
1707.216
1709.244
1711.272
1713.300
1715.328
1717.356
1719.384
1721.412
1723.440
1725.468
1727.496
1729.524
1731.552
1733.580
1735.608
1737.636
1739.664
1741.692
1743.720
1745.748
1747.776
1749.804
1751.832
1753.860
1755.888
1757.916
1759.944
1761.972
1764.000
1766.028
1768.056
1770.084
1772.112
1774.140
1776.168
1778.196
1780.224
1782.252
1784.280
1786.308
1788.336
1790.364
1792.392
1794.420
1796.448
1798.476
1800.504
1802.532
1804.560
1806.588
1808.616
1810.644
1812.672
1814.700
1816.728
1818.756
1820.784
1822.812
1824.840
1826.868
1828.896
1830.924
1832.952
1834.980
1837.008
1839.036
1841.064
1843.092
1845.120
1847.148
1849.176
1851.204
1853.232
1855.260
1857.288
1859.316
1861.344
1863.372
1865.400
1867.428
1869.456
1871.484
1873.512
1875.540
1877.568
1879.596
1881.624
1883.652
1885.680
1887.708
1889.736
1891.764
1893.792
1895.820
1897.848
1899.876
1901.904
1903.932
1905.960
1907.988
1910.016
1912.044
1914.072
1916.100
1918.128
1920.156
1922.184
1924.212
1926.240
1926.265
1926.289
1926.314
1926.338
1926.363
1926.387
1926.412
1926.436
1926.461
1926.485
1926.510
1926.534
1926.559
1926.583
1926.608
1926.632
1926.657
1926.681
1926.706
1926.730
1926.755
1926.779
1926.804
1926.828
1926.853
1926.877
1926.902
1926.926
1926.951
1926.975
1927.000
1927.024
1927.049
1927.073
1927.098
1927.122
1927.147
1927.171
1927.196
1927.220
1927.245
1927.269
1927.294
1927.318
1927.343
1927.367
1927.392
1927.416
1927.441
1927.465
1927.490
1927.514
1927.539
1927.563
1927.588
1927.612
1927.637
1927.661
1927.686
1927.710
1927.735
1927.759
1927.784
1927.808
1927.833
1927.857
1927.882
1927.906
1927.931
1927.955
1927.980
1928.004
1928.029
1928.053
1928.078
1928.102
1928.127
1928.151
1928.176
1928.200
1928.225
1928.249
1928.274
1928.298
1928.323
1928.347
1928.372
1928.396
1928.421
1928.445
1928.470
1928.494
1928.519
1928.543
1928.568
1928.592
1928.617
1928.641
1928.666
1928.690
1928.715
1928.739
1928.764
1928.788
1928.813
1928.837
1928.862
1928.886
1928.911
1928.935
1928.960
1928.984
1929.009
1929.033
1929.058
1929.082
1929.107
1929.131
1929.156
1929.180
1929.205
1929.229
1929.254
1929.278
1929.303
1929.327
1929.352
1929.376
1929.401
1929.425
1929.450
1929.474
1929.499
1929.523
1929.548
1929.572
1929.597
1929.621
1929.646
1929.670
1929.695
1929.719
1929.744
1929.768
1929.793
1929.817
1929.842
1929.866
1929.891
1929.915
1929.940
1929.964
1929.989
1930.013
1930.038
1930.062
1930.087
1930.111
1930.136
1930.160
1930.185
1930.209
1930.234
1930.258
1930.283
1930.307
1930.332
1930.356
1930.381
1930.405
1930.430
1930.454
1930.479
1930.503
1930.528
1930.552
1930.577
1930.601
1930.626
1930.650
1930.675
1930.699
1930.724
1930.748
1930.773
1930.797
1930.822
1930.846
1930.871
1930.895
1930.920
1930.944
1930.969
1930.993
1931.018
1931.042
1931.067
1931.091
1931.116
1931.140
1932.607
1934.073
1935.540
1937.006
1938.473
1939.939
1941.406
1942.872
1944.339
1945.805
1947.272
1948.738
1950.205
1951.671
1953.138
1954.604
1956.071
1957.537
1959.004
1960.470
1961.937
1963.403
1964.870
1966.336
1967.803
1969.269
1970.736
1972.202
1973.669
1975.135
1976.602
1978.068
1979.535
1981.001
1982.468
1983.934
1985.401
1986.867
1988.334
1989.800
1991.267
1992.733
1994.200
1995.666
1997.133
1998.599
2000.066
2001.532
2002.999
2004.465
2005.932
2007.398
2008.865
2010.331
2011.798
2013.264
2014.731
2016.197
2017.664
2019.130
2020.597
2022.063
2023.530
2024.996
2026.463
2027.929
2029.396
2030.862
2032.329
2033.795
2035.262
2036.728
2038.195
2039.661
2041.128
2042.594
2044.061
2045.527
2046.994
2048.460
2049.927
2051.393
2052.860
2054.326
2055.793
2057.259
2058.726
2060.192
2061.659
2063.125
2064.592
2066.058
2067.525
2068.991
2070.458
2071.924
2073.391
2074.857
2076.324
2077.790
2079.257
2080.723
2082.190
2083.656
2085.123
2086.589
2088.056
2089.522
2090.989
2092.455
2093.922
2095.388
2096.855
2098.321
2099.788
2101.254
2102.721
2104.187
2105.654
2107.120
2108.587
2110.053
2111.520
2112.986
2114.453
2115.919
2117.386
2118.852
2120.319
2121.785
2123.252
2124.718
2126.185
2127.651
2129.118
2130.584
2132.051
2133.517
2134.984
2136.450
2137.917
2139.383
2140.850
2142.316
2143.783
2145.249
2146.716
2148.182
2149.649
2151.115
2152.582
2154.048
2155.515
2156.981
2158.448
2159.914
2161.381
2162.847
2164.314
2165.780
2167.247
2168.713
2170.180
2171.646
2173.113
2174.579
2176.046
2177.512
2178.979
2180.445
2181.912
2183.378
2184.845
2186.311
2187.778
2189.244
2190.711
2192.177
2193.644
2195.110
2196.577
2198.043
2199.510
2200.976
2202.443
2203.909
2205.376
2206.842
2208.309
2209.775
2211.242
2212.708
2214.175
2215.641
2217.108
2218.574
2220.041
2221.507
2222.974
2224.440
2224.489
2224.537
2224.586
2224.634
2224.683
2224.731
2224.780
2224.828
2224.877
2224.925
2224.974
2225.022
2225.071
2225.119
2225.168
2225.216
2225.265
2225.313
2225.362
2225.410
2225.459
2225.507
2225.556
2225.604
2225.653
2225.701
2225.750
2225.798
2225.847
2225.895
2225.944
2225.992
2226.041
2226.089
2226.138
2226.186
2226.235
2226.283
2226.332
2226.380
2226.429
2226.477
2226.526
2226.574
2226.623
2226.671
2226.720
2226.768
2226.817
2226.865
2226.914
2226.962
2227.011
2227.059
2227.108
2227.156
2227.205
2227.253
2227.302
2227.350
2227.399
2227.447
2227.496
2227.544
2227.593
2227.641
2227.690
2227.738
2227.787
2227.835
2227.884
2227.932
2227.981
2228.029
2228.078
2228.126
2228.175
2228.223
2228.272
2228.320
2228.369
2228.417
2228.466
2228.514
2228.563
2228.611
2228.660
2228.708
2228.757
2228.805
2228.854
2228.902
2228.951
2228.999
2229.048
2229.096
2229.145
2229.193
2229.242
2229.290
2229.339
2229.387
2229.436
2229.484
2229.533
2229.581
2229.630
2229.678
2229.727
2229.775
2229.824
2229.872
2229.921
2229.969
2230.018
2230.066
2230.115
2230.163
2230.212
2230.260
2230.309
2230.357
2230.406
2230.454
2230.503
2230.551
2230.600
2230.648
2230.697
2230.745
2230.794
2230.842
2230.891
2230.939
2230.988
2231.036
2231.085
2231.133
2231.182
2231.230
2231.279
2231.327
2231.376
2231.424
2231.473
2231.521
2231.570
2231.618
2231.667
2231.715
2231.764
2231.812
2231.861
2231.909
2231.958
2232.006
2232.055
2232.103
2232.152
2232.200
2232.249
2232.297
2232.346
2232.394
2232.443
2232.491
2232.540
2232.588
2232.637
2232.685
2232.734
2232.782
2232.831
2232.879
2232.928
2232.976
2233.025
2233.073
2233.122
2233.170
2233.219
2233.267
2233.316
2233.364
2233.413
2233.461
2233.510
2233.558
2233.607
2233.655
2233.704
2233.752
2233.801
2233.849
2233.898
2233.946
2233.995
2234.043
2234.092
2234.140
2234.116
2234.092
2234.068
2234.044
2234.020
2233.996
2233.972
2233.948
2233.924
2233.900
2233.876
2233.852
2233.828
2233.804
2233.780
2233.756
2233.732
2233.708
2233.684
2233.660
2233.636
2233.612
2233.588
2233.564
2233.540
2233.516
2233.492
2233.468
2233.444
2233.420
2233.396
2233.372
2233.348
2233.324
2233.300
2233.276
2233.252
2233.228
2233.204
2233.180
2233.156
2233.132
2233.108
2233.084
2233.060
2233.036
2233.012
2232.988
2232.964
2232.940
2232.916
2232.892
2232.868
2232.844
2232.820
2232.796
2232.772
2232.748
2232.724
2232.700
2232.676
2232.652
2232.628
2232.604
2232.580
2232.556
2232.532
2232.508
2232.484
2232.460
2232.436
2232.412
2232.388
2232.364
2232.340
2232.316
2232.292
2232.268
2232.244
2232.220
2232.196
2232.172
2232.148
2232.124
2232.100
2232.076
2232.052
2232.028
2232.004
2231.980
2231.956
2231.932
2231.908
2231.884
2231.860
2231.836
2231.812
2231.788
2231.764
2231.740
2231.716
2231.692
2231.668
2231.644
2231.620
2231.596
2231.572
2231.548
2231.524
2231.500
2231.476
2231.452
2231.428
2231.404
2231.380
2231.356
2231.332
2231.308
2231.284
2231.260
2231.236
2231.212
2231.188
2231.164
2231.140
2231.116
2231.092
2231.068
2231.044
2231.020
2230.996
2230.972
2230.948
2230.924
2230.900
2230.876
2230.852
2230.828
2230.804
2230.780
2230.756
2230.732
2230.708
2230.684
2230.660
2230.636
2230.612
2230.588
2230.564
2230.540
2230.516
2230.492
2230.468
2230.444
2230.420
2230.396
2230.372
2230.348
2230.324
2230.300
2230.276
2230.252
2230.228
2230.204
2230.180
2230.156
2230.132
2230.108
2230.084
2230.060
2230.036
2230.012
2229.988
2229.964
2229.940
2229.916
2229.892
2229.868
2229.844
2229.820
2229.796
2229.772
2229.748
2229.724
2229.700
2229.676
2229.652
2229.628
2229.604
2229.580
2229.556
2229.532
2229.508
2229.484
2229.460
2229.436
2229.412
2229.388
2229.364
2229.340
2230.024
2230.708
2231.392
2232.076
2232.760
2233.444
2234.128
2234.812
2235.496
2236.180
2236.864
2237.548
2238.232
2238.916
2239.600
2240.284
2240.968
2241.652
2242.336
2243.020
2243.704
2244.388
2245.072
2245.756
2246.440
2247.124
2247.808
2248.492
2249.176
2249.860
2250.544
2251.228
2251.912
2252.596
2253.280
2253.964
2254.648
2255.332
2256.016
2256.700
2257.384
2258.068
2258.752
2259.436
2260.120
2260.804
2261.488
2262.172
2262.856
2263.540
2264.224
2264.908
2265.592
2266.276
2266.960
2267.644
2268.328
2269.012
2269.696
2270.380
2271.064
2271.748
2272.432
2273.116
2273.800
2274.484
2275.168
2275.852
2276.536
2277.220
2277.904
2278.588
2279.272
2279.956
2280.640
2281.324
2282.008
2282.692
2283.376
2284.060
2284.744
2285.428
2286.112
2286.796
2287.480
2288.164
2288.848
2289.532
2290.216
2290.900
2291.584
2292.268
2292.952
2293.636
2294.320
2295.004
2295.688
2296.372
2297.056
2297.740
2298.424
2299.108
2299.792
2300.476
2301.160
2301.844
2302.528
2303.212
2303.896
2304.580
2305.264
2305.948
2306.632
2307.316
2308.000
2308.684
2309.368
2310.052
2310.736
2311.420
2312.104
2312.788
2313.472
2314.156
2314.840
2315.524
2316.208
2316.892
2317.576
2318.260
2318.944
2319.628
2320.312
2320.996
2321.680
2322.364
2323.048
2323.732
2324.416
2325.100
2325.784
2326.468
2327.152
2327.836
2328.520
2329.204
2329.888
2330.572
2331.256
2331.940
2332.624
2333.308
2333.992
2334.676
2335.360
2336.044
2336.728
2337.412
2338.096
2338.780
2339.464
2340.148
2340.832
2341.516
2342.200
2342.884
2343.568
2344.252
2344.936
2345.620
2346.304
2346.988
2347.672
2348.356
2349.040
2349.724
2350.408
2351.092
2351.776
2352.460
2353.144
2353.828
2354.512
2355.196
2355.880
2356.564
2357.248
2357.932
2358.616
2359.300
2359.984
2360.668
2361.352
2362.036
2362.720
2363.404
2364.088
2364.772
2365.456
2366.140
2364.747
2363.354
2361.961
2360.568
2359.175
2357.782
2356.389
2354.996
2353.603
2352.210
2350.817
2349.424
2348.031
2346.638
2345.245
2343.852
2342.459
2341.066
2339.673
2338.280
2336.887
2335.494
2334.101
2332.708
2331.315
2329.922
2328.529
2327.136
2325.743
2324.350
2322.957
2321.564
2320.171
2318.778
2317.385
2315.992
2314.599
2313.206
2311.813
2310.420
2309.027
2307.634
2306.241
2304.848
2303.455
2302.062
2300.669
2299.276
2297.883
2296.490
2295.097
2293.704
2292.311
2290.918
2289.525
2288.132
2286.739
2285.346
2283.953
2282.560
2281.167
2279.774
2278.381
2276.988
2275.595
2274.202
2272.809
2271.416
2270.023
2268.630
2267.237
2265.844
2264.451
2263.058
2261.665
2260.272
2258.879
2257.486
2256.093
2254.700
2253.307
2251.914
2250.521
2249.128
2247.735
2246.342
2244.949
2243.556
2242.163
2240.770
2239.377
2237.984
2236.591
2235.198
2233.805
2232.412
2231.019
2229.626
2228.233
2226.840
2225.447
2224.054
2222.661
2221.268
2219.875
2218.482
2217.089
2215.696
2214.303
2212.910
2211.517
2210.124
2208.731
2207.338
2205.945
2204.552
2203.159
2201.766
2200.373
2198.980
2197.587
2196.194
2194.801
2193.408
2192.015
2190.622
2189.229
2187.836
2186.443
2185.050
2183.657
2182.264
2180.871
2179.478
2178.085
2176.692
2175.299
2173.906
2172.513
2171.120
2169.727
2168.334
2166.941
2165.548
2164.155
2162.762
2161.369
2159.976
2158.583
2157.190
2155.797
2154.404
2153.011
2151.618
2150.225
2148.832
2147.439
2146.046
2144.653
2143.260
2141.867
2140.474
2139.081
2137.688
2136.295
2134.902
2133.509
2132.116
2130.723
2129.330
2127.937
2126.544
2125.151
2123.758
2122.365
2120.972
2119.579
2118.186
2116.793
2115.400
2114.007
2112.614
2111.221
2109.828
2108.435
2107.042
2105.649
2104.256
2102.863
2101.470
2100.077
2098.684
2097.291
2095.898
2094.505
2093.112
2091.719
2090.326
2088.933
2087.540
2087.247
2086.954
2086.661
2086.368
2086.075
2085.782
2085.489
2085.196
2084.903
2084.610
2084.317
2084.024
2083.731
2083.438
2083.145
2082.852
2082.559
2082.266
2081.973
2081.680
2081.387
2081.094
2080.801
2080.508
2080.215
2079.922
2079.629
2079.336
2079.043
2078.750
2078.457
2078.164
2077.871
2077.578
2077.285
2076.992
2076.699
2076.406
2076.113
2075.820
2075.527
2075.234
2074.941
2074.648
2074.355
2074.062
2073.769
2073.476
2073.183
2072.890
2072.597
2072.304
2072.011
2071.718
2071.425
2071.132
2070.839
2070.546
2070.253
2069.960
2069.667
2069.374
2069.081
2068.788
2068.495
2068.202
2067.909
2067.616
2067.323
2067.030
2066.737
2066.444
