87.858
87.810
87.761
87.713
87.664
87.616
87.567
87.519
87.470
87.422
87.373
87.325
87.276
87.228
87.179
87.131
87.082
87.034
86.985
86.937
86.888
86.840
86.791
86.743
86.694
86.646
86.597
86.549
86.500
86.452
86.403
86.355
86.306
86.258
86.209
86.161
86.112
86.064
86.015
85.967
85.918
85.870
85.821
85.773
85.724
85.676
85.627
85.579
85.530
85.482
85.433
85.385
85.336
85.288
85.239
85.191
85.142
85.094
85.045
85.045
85.045
85.045
85.045
85.045
85.045
85.045
85.045
85.045
85.045
85.045
85.045
85.045
85.045
85.045
85.045
85.045
85.045
85.045
85.045
85.045
85.045
85.045
85.045
85.045
85.045
85.045
85.045
85.045
85.045
85.045
85.045
85.045
85.045
85.045
85.045
85.045
85.045
85.045
85.045
85.045
85.045
85.045
85.045
85.045
85.045
85.045
85.045
85.045
85.045
85.045
85.045
85.045
85.045
85.045
85.045
85.045
85.045
85.045
85.045
85.045
85.045
85.045
85.045
85.045
85.045
85.045
85.045
85.045
85.045
85.045
85.045
85.045
85.045
85.045
85.045
85.045
85.045
85.045
85.045
85.045
85.045
85.045
85.045
85.045
85.045
85.045
85.045
85.045
85.045
85.045
85.045
85.045
85.045
85.045
85.045
85.045
85.045
85.045
85.045
85.045
85.045
85.045
85.045
85.045
85.045
85.045
85.045
85.045
85.045
85.045
85.045
85.045
85.045
85.045
85.045
85.045
85.045
85.045
85.045
85.045
85.045
85.045
85.045
85.045
85.045
85.045
85.045
85.045
85.045
85.045
85.045
85.045
85.045
85.045
85.045
85.045
85.045
85.045
85.045
85.045
85.045
85.045
85.045
85.045
85.045
85.045
85.045
85.045
85.045
85.045
85.045
85.045
85.045
85.045
85.045
85.045
85.045
85.045
85.045
85.045
85.045
85.045
85.045
85.045
85.045
85.045
85.045
85.045
85.045
85.045
85.045
85.045
85.045
85.045
85.045
85.045
85.045
85.045
85.045
85.045
85.045
85.045
85.045
85.045
85.045
85.045
85.045
85.045
85.045
85.045
85.045
85.045
85.045
85.045
85.045
85.045
85.045
85.045
1673.445
1679.286
1685.127
1690.968
1696.809
1702.650
1708.491
1714.332
1720.173
1726.014
1731.855
1737.696
1743.537
1749.378
1755.219
1761.060
1766.901
1772.742
1778.583
1784.424
1790.265
1796.106
1801.947
1807.788
1813.629
1819.470
1825.311
1831.152
1836.993
1842.834
1848.675
1854.516
1860.357
1866.198
1872.039
1877.880
1883.721
1889.562
1895.403
1901.244
1907.085
1912.926
1918.767
1924.608
1930.449
1936.290
1942.131
1947.972
1953.813
1959.654
1965.495
1971.336
1977.177
1983.018
1988.859
1994.700
2000.541
2006.382
2012.223
2018.064
2023.905
2029.746
2035.587
2041.428
2047.269
2053.110
2058.951
2064.792
2070.633
2076.474
2082.315
2088.156
2093.997
2099.838
2105.679
2111.520
2117.361
2123.202
2129.043
2134.884
2140.725
2146.566
2152.407
2158.248
2164.089
2169.930
2175.771
2181.612
2187.453
2193.294
2199.135
2204.976
2210.817
2216.658
2222.499
2228.340
2234.181
2240.022
2245.863
2251.704
2257.545
2263.386
2269.227
2275.068
2280.909
2286.750
2292.591
2298.432
2304.273
2310.114
2315.955
2321.796
2327.637
2333.478
2339.319
2345.160
2351.001
2356.842
2362.683
2368.524
2374.365
2380.206
2386.047
2391.888
2397.729
2403.570
2409.411
2415.252
2421.093
2426.934
2432.775
2438.616
2444.457
2450.298
2456.139
2461.980
2467.821
2473.662
2479.503
2485.344
2491.185
2497.026
2502.867
2508.708
2514.549
2520.390
2526.231
2532.072
2537.913
2543.754
2549.595
2555.436
2561.277
2567.118
2572.959
2578.800
2584.641
2590.482
2596.323
2602.164
2608.005
2613.846
2619.687
2625.528
2631.369
2637.210
2643.051
2648.892
2654.733
2660.574
2666.415
2672.256
2678.097
2683.938
2689.779
2695.620
2701.461
2707.302
2713.143
2718.984
2724.825
2730.666
2736.507
2742.348
2748.189
2754.030
2759.871
2765.712
2771.553
2777.394
2783.235
2789.076
2794.917
2800.758
2806.599
2812.440
2818.281
2824.122
2829.963
2835.804
2841.645
2840.814
2839.983
2839.152
2838.321
2837.490
2836.659
2835.828
2834.997
2834.166
2833.335
2832.504
2831.673
2830.842
2830.011
2829.180
2828.349
2827.518
2826.687
2825.856
2825.025
2824.194
2823.363
2822.532
2821.701
2820.870
2820.039
2819.208
2818.377
2817.546
2816.715
2815.884
2815.053
2814.222
2813.391
2812.560
2811.729
2810.898
2810.067
2809.236
2808.405
2807.574
2806.743
2805.912
2805.081
2804.250
2803.419
2802.588
2801.757
2800.926
2800.095
2799.264
2798.433
2797.602
2796.771
2795.940
2795.109
2794.278
2793.447
2792.616
2791.785
2790.954
2790.123
2789.292
2788.461
2787.630
2786.799
2785.968
2785.137
2784.306
2783.475
2782.644
2781.813
2780.982
2780.151
2779.320
2778.489
2777.658
2776.827
2775.996
2775.165
2774.334
2773.503
2772.672
2771.841
2771.010
2770.179
2769.348
2768.517
2767.686
2766.855
2766.024
2765.193
2764.362
2763.531
2762.700
2761.869
2761.038
2760.207
2759.376
2758.545
2757.714
2756.883
2756.052
2755.221
2754.390
2753.559
2752.728
2751.897
2751.066
2750.235
2749.404
2748.573
2747.742
2746.911
2746.080
2745.249
2744.418
2743.587
2742.756
2741.925
2741.094
2740.263
2739.432
2738.601
2737.770
2736.939
2736.108
2735.277
2734.446
2733.615
2732.784
2731.953
2731.122
2730.291
2729.460
2728.629
2727.798
2726.967
2726.136
2725.305
2724.474
2723.643
2722.812
2721.981
2721.150
2720.319
2719.488
2718.657
2717.826
2716.995
2716.164
2715.333
2714.502
2713.671
2712.840
2712.009
2711.178
2710.347
2709.516
2708.685
2707.854
2707.023
2706.192
2705.361
2704.530
2703.699
2702.868
2702.037
2701.206
2700.375
2699.544
2698.713
2697.882
2697.051
2696.220
2695.389
2694.558
2693.727
2692.896
2692.065
2691.234
2690.403
2689.572
2688.741
2687.910
2687.079
2686.248
2685.417
2684.586
2683.755
2682.924
2682.093
2681.262
2680.431
2679.600
2678.769
2677.938
2677.107
2676.276
2675.445
2669.702
2663.959
2658.216
2652.473
2646.730
2640.987
2635.244
2629.501
2623.758
2618.015
2612.272
2606.529
2600.786
2595.043
2589.300
2583.557
2577.814
2572.071
2566.328
2560.585
2554.842
2549.099
2543.356
2537.613
2531.870
2526.127
2520.384
2514.641
2508.898
2503.155
2497.412
2491.669
2485.926
2480.183
2474.440
2468.697
2462.954
2457.211
2451.468
2445.725
2439.982
2434.239
2428.496
2422.753
2417.010
2411.267
2405.524
2399.781
2394.038
2388.295
2382.552
2376.809
2371.066
2365.323
2359.580
2353.837
2348.094
2342.351
2336.608
2330.865
2325.122
2319.379
2313.636
2307.893
2302.150
2296.407
2290.664
2284.921
2279.178
2273.435
2267.692
2261.949
2256.206
2250.463
2244.720
2238.977
2233.234
2227.491
2221.748
2216.005
2210.262
2204.519
2198.776
2193.033
2187.290
2181.547
2175.804
2170.061
2164.318
2158.575
2152.832
2147.089
2141.346
2135.603
2129.860
2124.117
2118.374
2112.631
2106.888
2101.145
2095.402
2089.659
2083.916
2078.173
2072.430
2066.687
2060.944
2055.201
2049.458
2043.715
2037.972
2032.229
2026.486
2020.743
2015.000
2009.257
2003.514
1997.771
1992.028
1986.285
1980.542
1974.799
1969.056
1963.313
1957.570
1951.827
1946.084
1940.341
1934.598
1928.855
1923.112
1917.369
1911.626
1905.883
1900.140
1894.397
1888.654
1882.911
1877.168
1871.425
1865.682
1859.939
1854.196
1848.453
1842.710
1836.967
1831.224
1825.481
1819.738
1813.995
1808.252
1802.509
1796.766
1791.023
1785.280
1779.537
1773.794
1768.051
1762.308
1756.565
1750.822
1745.079
1739.336
1733.593
1727.850
1722.107
1716.364
1710.621
1704.878
1699.135
1693.392
1687.649
1681.906
1676.163
1670.420
1664.677
1658.934
1653.191
1647.448
1641.705
1635.962
1630.219
1624.476
1618.733
1612.990
1607.247
1601.504
1595.761
1590.018
1584.275
1578.532
1572.789
1567.046
1561.303
1555.560
1549.817
1544.074
1538.331
1532.588
1526.845
1529.460
1532.075
1534.690
1537.305
1539.920
1542.535
1545.150
1547.765
1550.380
1552.995
1555.610
1558.225
1560.840
1563.455
1566.070
1568.685
1571.300
1573.915
1576.530
1579.145
1581.760
1584.375
1586.990
1589.605
1592.220
1594.835
1597.450
1600.065
1602.680
1605.295
1607.910
1610.525
1613.140
1615.755
1618.370
1620.985
1623.600
1626.215
1628.830
1631.445
1634.060
1636.675
1639.290
1641.905
1644.520
1647.135
1649.750
1652.365
1654.980
1657.595
1660.210
1662.825
1665.440
1668.055
1670.670
1673.285
1675.900
1678.515
1681.130
1683.745
1686.360
1688.975
1691.590
1694.205
1696.820
1699.435
1702.050
1704.665
1707.280
1709.895
1712.510
1715.125
1717.740
1720.355
1722.970
1725.585
1728.200
1730.815
1733.430
1736.045
1738.660
1741.275
1743.890
1746.505
1749.120
1751.735
1754.350
1756.965
1759.580
1762.195
1764.810
1767.425
1770.040
1772.655
1775.270
1777.885
1780.500
1783.115
1785.730
1788.345
1790.960
1793.575
1796.190
1798.805
1801.420
1804.035
1806.650
1809.265
1811.880
1814.495
1817.110
1819.725
1822.340
1824.955
1827.570
1830.185
1832.800
1835.415
1838.030
1840.645
1843.260
1845.875
1848.490
1851.105
1853.720
1856.335
1858.950
1861.565
1864.180
1866.795
1869.410
1872.025
1874.640
1877.255
1879.870
1882.485
1885.100
1887.715
1890.330
1892.945
1895.560
1898.175
1900.790
1903.405
1906.020
1908.635
1911.250
1913.865
1916.480
1919.095
1921.710
1924.325
1926.940
1929.555
1932.170
1934.785
1937.400
1940.015
1942.630
1945.245
1947.860
1950.475
1953.090
1955.705
1958.320
1960.935
1963.550
1966.165
1968.780
1971.395
1974.010
1976.625
1979.240
1981.855
1984.470
1987.085
1989.700
1992.315
1994.930
1997.545
2000.160
2002.775
2005.390
2008.005
2010.620
2013.235
2015.850
2018.465
2021.080
2023.695
2026.310
2028.925
2031.540
2034.155
2036.770
2039.385
2042.000
2044.615
2047.230
2049.845
2051.434
2053.022
2054.611
2056.199
2057.788
2059.376
2060.965
2062.553
2064.142
2065.730
2067.319
2068.907
2070.496
2072.084
2073.673
2075.261
2076.850
2078.438
2080.027
2081.615
2083.204
2084.792
2086.381
2087.969
2089.558
2091.146
2092.735
2094.323
2095.912
2097.500
2099.089
2100.677
2102.266
2103.854
2105.443
2107.031
2108.620
2110.208
2111.797
2113.385
2114.974
2116.562
2118.151
2119.739
2121.328
2122.916
2124.505
2126.093
2127.682
2129.270
2130.859
2132.447
2134.036
2135.624
2137.213
2138.801
2140.390
2141.978
2143.567
2145.155
2146.744
2148.332
2149.921
2151.509
2153.098
2154.686
2156.275
2157.863
2159.452
2161.040
2162.629
2164.217
2165.806
2167.394
2168.983
2170.571
2172.160
2173.748
2175.337
2176.925
2178.514
2180.102
2181.691
2183.279
2184.868
2186.456
2188.045
2189.633
2191.222
2192.810
2194.399
2195.987
2197.576
2199.164
2200.753
2202.341
2203.930
2205.518
2207.107
2208.695
2210.284
2211.872
2213.461
2215.049
2216.638
2218.226
2219.815
2221.403
2222.992
2224.580
2226.169
2227.757
2229.346
2230.934
2232.523
2234.111
2235.700
2237.288
2238.877
2240.465
2242.054
2243.642
2245.231
2246.819
2248.408
2249.996
2251.585
2253.173
2254.762
2256.350
2257.939
2259.527
2261.116
2262.704
2264.293
2265.881
2267.470
2269.058
2270.647
2272.235
2273.824
2275.412
2277.001
2278.589
2280.178
2281.766
2283.355
2284.943
2286.532
2288.120
2289.709
2291.297
2292.886
2294.474
2296.063
2297.651
2299.240
2300.828
2302.417
2304.005
2305.594
2307.182
2308.771
2310.359
2311.948
2313.536
2315.125
2316.713
2318.302
2319.890
2321.479
2323.067
2324.656
2326.244
2327.833
2329.421
2331.010
2332.598
2334.187
2335.775
2337.364
2338.952
2340.541
2342.129
2343.718
2345.306
2346.895
2348.483
2350.072
2351.660
2353.249
2354.837
2356.426
2358.014
2359.603
2361.191
2362.780
2364.368
2365.957
2367.545
2365.810
2364.074
2362.339
2360.603
2358.868
2357.132
2355.397
2353.661
2351.926
2350.190
2348.455
2346.719
2344.984
2343.248
2341.513
2339.777
2338.042
2336.306
2334.571
2332.835
2331.100
2329.364
2327.629
2325.893
2324.158
2322.422
2320.687
2318.951
2317.216
2315.480
2313.745
2312.009
2310.274
2308.538
2306.803
2305.067
2303.332
2301.596
2299.861
2298.125
2296.390
2294.654
2292.919
2291.183
2289.448
2287.712
2285.977
2284.241
2282.506
2280.770
2279.035
2277.299
2275.564
2273.828
2272.093
2270.357
2268.622
2266.886
2265.151
2263.415
2261.680
2259.944
2258.209
2256.473
2254.738
2253.002
2251.267
2249.531
2247.796
2246.060
2244.325
2242.589
2240.854
2239.118
2237.383
2235.647
2233.912
2232.176
2230.441
2228.705
2226.970
2225.234
2223.499
2221.763
2220.028
2218.292
2216.557
2214.821
2213.086
2211.350
2209.615
2207.879
2206.144
2204.408
2202.673
2200.937
2199.202
2197.466
2195.731
2193.995
2192.260
2190.524
2188.789
2187.053
2185.318
2183.582
2181.847
2180.111
2178.376
2176.640
2174.905
2173.169
2171.434
2169.698
2167.963
2166.227
2164.492
2162.756
2161.021
2159.285
2157.550
2155.814
2154.079
2152.343
2150.608
2148.872
2147.137
2145.401
2143.666
2141.930
2140.195
2138.459
2136.724
2134.988
2133.253
2131.517
2129.782
2128.046
2126.311
2124.575
2122.840
2121.104
2119.369
2117.633
2115.898
2114.162
2112.427
2110.691
2108.956
2107.220
2105.485
2103.749
2102.014
2100.278
2098.543
2096.807
2095.072
2093.336
2091.601
2089.865
2088.130
2086.394
2084.659
2082.923
2081.188
2079.452
2077.717
2075.981
2074.246
2072.510
2070.775
2069.039
2067.304
2065.568
2063.833
2062.097
2060.362
2058.626
2056.891
2055.155
2053.420
2051.684
2049.949
2048.213
2046.478
2044.742
2043.007
2041.271
2039.536
2037.800
2036.065
2034.329
2032.594
2030.858
2029.123
2027.387
2025.652
2023.916
2022.181
2020.445
2024.331
2028.217
2032.103
2035.989
2039.875
2043.761
2047.647
2051.533
2055.419
2059.305
2063.191
2067.077
2070.963
2074.849
2078.735
2082.621
2086.507
2090.393
2094.279
2098.165
2102.051
2105.937
2109.823
2113.709
2117.595
2121.481
2125.367
2129.253
2133.139
2137.025
2140.911
2144.797
2148.683
2152.569
2156.455
2160.341
2164.227
2168.113
2171.999
2175.885
2179.771
2183.657
2187.543
2191.429
2195.315
2199.201
2203.087
2206.973
2210.859
2214.745
2218.631
2222.517
2226.403
2230.289
2234.175
2238.061
2241.947
2245.833
2249.719
2253.605
2257.491
2261.377
2265.263
2269.149
2273.035
2276.921
2280.807
2284.693
2288.579
2292.465
2296.351
2300.237
2304.123
2308.009
2311.895
2315.781
2319.667
2323.553
2327.439
2331.325
2335.211
2339.097
2342.983
2346.869
2350.755
2354.641
2358.527
2362.413
2366.299
2370.185
2374.071
2377.957
2381.843
2385.729
2389.615
2393.501
2397.387
2401.273
2405.159
2409.045
2412.931
2416.817
2420.703
2424.589
2428.475
2432.361
2436.247
2440.133
2444.019
2447.905
2451.791
2455.677
2459.563
2463.449
2467.335
2471.221
2475.107
2478.993
2482.879
2486.765
2490.651
2494.537
2498.423
2502.309
2506.195
2510.081
2513.967
2517.853
2521.739
2525.625
2529.511
2533.397
2537.283
2541.169
2545.055
2548.941
2552.827
2556.713
2560.599
2564.485
2568.371
2572.257
2576.143
2580.029
2583.915
2587.801
2591.687
2595.573
2599.459
2603.345
2607.231
2611.117
2615.003
2618.889
2622.775
2626.661
2630.547
2634.433
2638.319
2642.205
2646.091
2649.977
2653.863
2657.749
2661.635
2665.521
2669.407
2673.293
2677.179
2681.065
2684.951
2688.837
2692.723
2696.609
2700.495
2704.381
2708.267
2712.153
2716.039
2719.925
2723.811
2727.697
2731.583
2735.469
2739.355
2743.241
2747.127
2751.013
2754.899
2758.785
2762.671
2766.557
2770.443
2774.329
2778.215
2782.101
2785.987
2789.873
2793.759
2797.645
2796.154
2794.663
2793.172
2791.681
2790.190
2788.699
2787.208
2785.717
2784.226
2782.735
2781.244
2779.753
2778.262
2776.771
2775.280
2773.789
2772.298
2770.807
2769.316
2767.825
2766.334
2764.843
2763.352
2761.861
2760.370
2758.879
2757.388
2755.897
2754.406
2752.915
2751.424
2749.933
2748.442
2746.951
2745.460
2743.969
2742.478
2740.987
2739.496
2738.005
2736.514
2735.023
2733.532
2732.041
2730.550
2729.059
2727.568
2726.077
2724.586
2723.095
2721.604
2720.113
2718.622
2717.131
2715.640
2714.149
2712.658
2711.167
2709.676
2708.185
2706.694
2705.203
2703.712
2702.221
2700.730
2699.239
2697.748
2696.257
2694.766
2693.275
2691.784
2690.293
2688.802
2687.311
2685.820
2684.329
2682.838
2681.347
2679.856
2678.365
2676.874
2675.383
2673.892
2672.401
2670.910
2669.419
2667.928
2666.437
2664.946
2663.455
2661.964
2660.473
2658.982
2657.491
2656.000
2654.509
2653.018
2651.527
2650.036
2648.545
2647.054
2645.563
2644.072
2642.581
2641.090
2639.599
2638.108
2636.617
2635.126
2633.635
2632.144
2630.653
2629.162
2627.671
2626.180
2624.689
2623.198
2621.707
2620.216
2618.725
2617.234
2615.743
2614.252
2612.761
2611.270
2609.779
2608.288
2606.797
2605.306
2603.815
2602.324
2600.833
2599.342
2597.851
2596.360
2594.869
2593.378
2591.887
2590.396
2588.905
2587.414
2585.923
2584.432
2582.941
2581.450
2579.959
2578.468
2576.977
2575.486
2573.995
2572.504
2571.013
2569.522
2568.031
2566.540
2565.049
2563.558
2562.067
2560.576
2559.085
2557.594
2556.103
2554.612
2553.121
2551.630
2550.139
2548.648
2547.157
2545.666
2544.175
2542.684
2541.193
2539.702
2538.211
2536.720
2535.229
2533.738
2532.247
2530.756
2529.265
2527.774
2526.283
2524.792
2523.301
2521.810
2520.319
2518.828
2517.337
2515.846
2514.355
2512.864
2511.373
2509.882
2508.391
2506.900
2505.409
2503.918
2502.427
2500.936
2499.445
2496.635
2493.825
2491.015
2488.205
2485.395
2482.585
2479.775
2476.965
2474.155
2471.345
2468.535
2465.725
2462.915
2460.105
2457.295
2454.485
2451.675
2448.865
2446.055
2443.245
2440.435
2437.625
2434.815
2432.005
2429.195
2426.385
2423.575
2420.765
2417.955
2415.145
2412.335
2409.525
2406.715
2403.905
2401.095
2398.285
2395.475
2392.665
2389.855
2387.045
2384.235
2381.425
2378.615
2375.805
2372.995
2370.185
2367.375
2364.565
2361.755
2358.945
2356.135
2353.325
2350.515
2347.705
2344.895
2342.085
2339.275
2336.465
2333.655
2330.845
2328.035
2325.225
2322.415
2319.605
2316.795
2313.985
2311.175
2308.365
2305.555
2302.745
2299.935
2297.125
2294.315
2291.505
2288.695
2285.885
2283.075
2280.265
2277.455
2274.645
2271.835
2269.025
2266.215
2263.405
2260.595
2257.785
2254.975
2252.165
2249.355
2246.545
2243.735
2240.925
2238.115
2235.305
2232.495
2229.685
2226.875
2224.065
2221.255
2218.445
2215.635
2212.825
2210.015
2207.205
2204.395
2201.585
2198.775
2195.965
2193.155
2190.345
2187.535
2184.725
2181.915
2179.105
2176.295
2173.485
2170.675
2167.865
2165.055
2162.245
2159.435
2156.625
2153.815
2151.005
2148.195
2145.385
2142.575
2139.765
2136.955
2134.145
2131.335
2128.525
2125.715
2122.905
2120.095
2117.285
2114.475
2111.665
2108.855
2106.045
2103.235
