105.462
105.462
105.462
105.462
105.462
105.462
105.462
105.462
105.462
105.462
105.462
105.462
105.462
105.462
105.462
105.462
105.462
105.462
105.462
105.462
105.462
105.462
105.462
105.462
105.462
105.462
105.462
105.462
105.462
105.462
105.462
105.462
105.462
105.462
105.462
105.462
105.462
105.462
105.462
105.462
105.462
105.462
105.462
105.462
105.462
105.462
105.462
105.462
105.462
105.462
105.462
105.462
105.462
105.462
105.462
105.462
105.462
105.462
105.462
105.462
105.462
105.462
105.462
105.462
105.462
105.462
105.462
105.462
105.462
105.462
105.462
105.462
105.462
105.462
105.462
105.462
105.462
105.462
105.462
105.462
105.462
105.462
105.462
105.462
105.462
105.462
105.462
105.462
105.462
105.462
105.462
105.462
105.462
105.462
105.462
105.462
105.462
105.462
105.462
105.462
105.462
105.462
105.462
105.462
105.462
105.462
105.462
105.462
105.462
105.462
105.462
105.462
105.462
105.462
105.462
105.462
105.462
105.462
105.462
105.462
105.462
105.462
105.462
105.462
105.462
105.462
105.462
105.462
105.462
105.462
105.462
105.462
105.462
105.462
105.462
105.462
105.462
105.462
105.462
105.462
105.462
105.462
105.462
105.462
105.462
105.462
105.462
105.462
105.462
105.462
105.462
105.462
105.462
105.462
105.462
105.462
105.462
105.462
105.462
105.462
105.462
105.462
105.462
105.462
105.462
105.462
105.462
105.462
105.462
105.462
105.462
105.462
105.462
105.462
105.462
105.462
105.462
105.462
105.462
105.462
105.462
105.462
105.462
105.462
105.462
105.462
105.462
105.462
105.462
105.462
105.462
105.462
105.462
105.462
105.462
105.462
105.462
105.462
105.462
105.462
105.462
105.462
105.462
105.462
105.462
105.462
105.462
105.462
105.462
105.462
105.462
105.462
105.462
105.462
105.462
105.462
105.462
105.462
105.462
105.462
105.462
105.462
105.462
105.462
105.462
105.462
105.462
105.462
105.462
105.462
105.462
105.462
105.462
105.462
105.462
105.462
105.462
105.462
105.462
105.462
105.462
105.462
105.462
105.462
105.462
105.462
105.462
105.462
105.462
105.462
105.462
105.462
105.462
105.462
105.462
105.462
105.462
105.462
105.462
105.462
105.462
105.462
105.462
105.462
105.462
105.462
105.462
105.462
105.462
105.462
105.462
105.462
105.462
105.462
105.462
105.462
105.462
105.462
105.462
105.462
105.462
105.462
105.462
105.462
105.462
105.462
105.462
105.462
105.462
105.462
105.462
105.462
105.462
105.462
105.462
105.462
105.462
105.462
105.462
105.462
105.462
105.462
105.462
105.462
105.462
105.462
105.462
105.462
105.462
105.462
105.462
105.462
105.462
105.462
105.462
105.462
105.462
105.462
105.462
105.462
105.462
105.462
105.462
105.462
105.462
105.462
105.462
105.462
105.462
105.462
105.462
105.462
105.462
105.462
105.462
105.462
105.462
105.462
105.462
105.462
105.462
105.462
105.462
105.462
105.462
105.462
105.462
105.462
105.462
105.462
105.462
105.462
105.462
105.462
105.462
105.462
105.462
105.462
105.462
105.462
105.462
105.462
105.462
105.462
105.462
105.462
105.462
105.462
105.462
105.462
105.462
105.462
105.462
105.462
105.462
105.462
105.462
105.462
105.462
105.462
105.462
105.462
105.462
105.462
105.462
105.462
105.462
105.462
105.462
105.462
105.462
105.462
105.462
105.462
105.462
105.462
105.462
105.462
105.462
105.462
105.462
105.462
105.462
105.462
105.462
105.462
105.462
105.462
105.462
105.462
105.462
105.462
105.462
105.462
105.462
105.462
105.462
105.462
105.462
105.462
105.462
105.462
105.462
105.462
105.462
105.462
105.462
105.462
105.462
105.462
105.462
105.462
105.462
105.462
105.462
105.462
105.462
105.462
105.462
105.462
105.462
105.462
105.462
105.462
105.462
105.462
105.462
105.462
105.462
105.462
105.462
105.462
105.462
105.462
105.462
105.462
105.462
105.462
105.462
105.462
105.462
105.462
105.462
105.462
105.462
105.462
105.462
105.462
105.462
105.462
105.462
105.462
105.462
105.462
105.462
105.462
105.462
105.462
105.462
105.462
105.462
105.462
105.462
105.462
105.462
105.462
105.462
105.462
105.462
105.462
105.462
105.462
105.462
105.462
105.462
105.462
105.462
105.462
105.462
105.462
105.462
105.462
105.462
105.462
105.462
105.462
105.462
105.462
105.462
105.462
105.462
105.462
105.462
105.462
105.462
105.462
105.462
105.462
105.462
105.462
105.462
105.462
105.462
105.462
105.462
105.462
105.462
105.462
105.462
105.462
105.462
105.462
105.462
105.462
105.462
105.462
105.462
105.462
105.462
105.462
105.462
105.462
105.462
105.462
105.462
105.462
105.462
105.462
105.462
105.462
105.462
105.462
105.462
105.462
105.462
105.462
105.462
105.462
105.462
105.462
105.462
105.462
105.462
105.462
105.462
105.462
105.462
105.462
105.462
105.462
105.462
105.462
105.462
105.462
105.462
105.462
105.462
105.462
105.462
105.462
105.462
105.462
105.462
105.462
105.462
105.462
105.462
105.462
105.462
105.462
105.462
105.462
105.462
105.462
105.462
105.462
105.462
105.462
105.462
105.462
105.462
105.462
105.462
105.462
105.462
105.462
105.462
105.462
105.462
105.462
105.462
105.462
105.462
105.462
105.462
105.462
105.462
105.462
105.462
105.462
105.462
105.462
105.462
105.462
105.462
105.462
105.462
105.462
105.462
105.462
105.462
105.462
105.462
105.462
105.462
105.462
105.462
105.462
105.462
105.462
105.462
105.462
105.462
105.462
105.462
105.462
105.462
105.462
105.462
105.462
105.462
105.462
105.462
105.462
105.462
105.462
105.462
105.462
105.462
105.462
105.462
105.462
105.462
105.462
105.462
105.462
105.462
105.462
105.462
105.462
105.462
105.462
105.462
105.462
105.462
105.462
105.462
105.462
105.462
105.462
105.462
105.462
105.462
105.462
105.462
105.462
105.462
105.462
105.462
105.462
105.462
105.462
105.462
105.462
105.462
105.462
105.462
105.462
105.462
105.462
105.462
105.462
105.462
105.462
105.462
105.462
105.462
105.462
105.462
105.462
105.462
105.462
105.462
105.462
105.462
105.462
105.462
105.462
105.462
105.462
105.462
105.462
105.462
105.462
105.462
105.462
105.462
105.462
105.462
105.462
105.462
105.462
105.462
105.462
105.462
105.462
105.462
105.462
105.462
105.462
105.462
105.462
105.462
105.462
105.462
105.462
105.462
105.462
105.462
105.462
105.462
105.462
105.462
105.462
105.462
105.462
105.462
105.462
105.462
105.462
105.462
105.462
105.462
105.462
105.462
105.462
105.462
105.462
105.462
105.462
105.462
105.462
105.462
105.462
105.462
105.462
105.462
105.462
105.462
105.462
105.462
105.462
105.462
105.462
105.462
105.462
105.462
105.462
105.462
105.462
105.462
105.462
105.462
105.462
105.462
105.462
105.462
105.462
105.462
105.462
105.462
105.462
105.462
105.462
105.462
105.462
105.462
105.462
105.462
105.462
105.462
105.462
105.462
105.462
105.462
105.462
105.462
105.462
105.462
105.462
105.462
105.462
105.462
105.462
105.462
105.462
105.462
105.462
105.462
105.462
105.462
105.462
1615.662
1617.764
1619.866
1621.968
1624.070
1626.172
1628.274
1630.376
1632.478
1634.580
1636.682
1638.784
1640.886
1642.988
1645.090
1647.192
1649.294
1651.396
1653.498
1655.600
1657.702
1659.804
1661.906
1664.008
1666.110
1668.212
1670.314
1672.416
1674.518
1676.620
1678.722
1680.824
1682.926
1685.028
1687.130
1689.232
1691.334
1693.436
1695.538
1697.640
1699.742
1701.844
1703.946
1706.048
1708.150
1710.252
1712.354
1714.456
1716.558
1718.660
1720.762
1722.864
1724.966
1727.068
1729.170
1731.272
1733.374
1735.476
1737.578
1739.680
1741.782
1743.884
1745.986
1748.088
1750.190
1752.292
1754.394
1756.496
1758.598
1760.700
1762.802
1764.904
1767.006
1769.108
1771.210
1773.312
1775.414
1777.516
1779.618
1781.720
1783.822
1785.924
1788.026
1790.128
1792.230
1794.332
1796.434
1798.536
1800.638
1802.740
1804.842
1806.944
1809.046
1811.148
1813.250
1815.352
1817.454
1819.556
1821.658
1823.760
1825.862
1827.964
1830.066
1832.168
1834.270
1836.372
1838.474
1840.576
1842.678
1844.780
1846.882
1848.984
1851.086
1853.188
1855.290
1857.392
1859.494
1861.596
1863.698
1865.800
1867.902
1870.004
1872.106
1874.208
1876.310
1878.412
1880.514
1882.616
1884.718
1886.820
1888.922
1891.024
1893.126
1895.228
1897.330
1899.432
1901.534
1903.636
1905.738
1907.840
1909.942
1912.044
1914.146
1916.248
1918.350
1920.452
1922.554
1924.656
1926.758
1928.860
1930.962
1933.064
1935.166
1937.268
1939.370
1941.472
1943.574
1945.676
1947.778
1949.880
1951.982
1954.084
1956.186
1958.288
1960.390
1962.492
1964.594
1966.696
1968.798
1970.900
1973.002
1975.104
1977.206
1979.308
1981.410
1983.512
1985.614
1987.716
1989.818
1991.920
1994.022
1996.124
1998.226
2000.328
2002.430
2004.532
2006.634
2008.736
2010.838
2012.940
2015.042
2017.144
2019.246
2021.348
2023.450
2025.552
2027.654
2029.756
2031.858
2033.960
2036.062
2036.575
2037.088
2037.601
2038.114
2038.627
2039.140
2039.653
2040.166
2040.679
2041.192
2041.705
2042.218
2042.731
2043.244
2043.757
2044.270
2044.783
2045.296
2045.809
2046.322
2046.835
2047.348
2047.861
2048.374
2048.887
2049.400
2049.913
2050.426
2050.939
2051.452
2051.965
2052.478
2052.991
2053.504
2054.017
2054.530
2055.043
2055.556
2056.069
2056.582
2057.095
2057.608
2058.121
2058.634
2059.147
2059.660
2060.173
2060.686
2061.199
2061.712
2062.225
2062.738
2063.251
2063.764
2064.277
2064.790
2065.303
2065.816
2066.329
2066.842
2067.355
2067.868
2068.381
2068.894
2069.407
2069.920
2070.433
2070.946
2071.459
2071.972
2072.485
2072.998
2073.511
2074.024
2074.537
2075.050
2075.563
2076.076
2076.589
2077.102
2077.615
2078.128
2078.641
2079.154
2079.667
2080.180
2080.693
2081.206
2081.719
2082.232
2082.745
2083.258
2083.771
2084.284
2084.797
2085.310
2085.823
2086.336
2086.849
2087.362
2087.875
2088.388
2088.901
2089.414
2089.927
2090.440
2090.953
2091.466
2091.979
2092.492
2093.005
2093.518
2094.031
2094.544
2095.057
2095.570
2096.083
2096.596
2097.109
2097.622
2098.135
2098.648
2099.161
2099.674
2100.187
2100.700
2101.213
2101.726
2102.239
2102.752
2103.265
2103.778
2104.291
2104.804
2105.317
2105.830
2106.343
2106.856
2107.369
2107.882
2108.395
2108.908
2109.421
2109.934
2110.447
2110.960
2111.473
2111.986
2112.499
2113.012
2113.525
2114.038
2114.551
2115.064
2115.577
2116.090
2116.603
2117.116
2117.629
2118.142
2118.655
2119.168
2119.681
2120.194
2120.707
2121.220
2121.733
2122.246
2122.759
2123.272
2123.785
2124.298
2124.811
2125.324
2125.837
2126.350
2126.863
2127.376
2127.889
2128.402
2128.915
2129.428
2129.941
2130.454
2130.967
2131.480
2131.993
2132.506
2133.019
2133.532
2134.045
2134.558
2135.071
2135.584
2136.097
2136.610
2137.123
2137.636
2138.149
2138.662
2137.220
2135.778
2134.336
2132.894
2131.452
2130.010
2128.568
2127.126
2125.684
2124.242
2122.800
2121.358
2119.916
2118.474
2117.032
2115.590
2114.148
2112.706
2111.264
2109.822
2108.380
2106.938
2105.496
2104.054
2102.612
2101.170
2099.728
2098.286
2096.844
2095.402
2093.960
2092.518
2091.076
2089.634
2088.192
2086.750
2085.308
2083.866
2082.424
2080.982
2079.540
2078.098
2076.656
2075.214
2073.772
2072.330
2070.888
2069.446
2068.004
2066.562
2065.120
2063.678
2062.236
2060.794
2059.352
2057.910
2056.468
2055.026
2053.584
2052.142
2050.700
2049.258
2047.816
2046.374
2044.932
2043.490
2042.048
2040.606
2039.164
2037.722
2036.280
2034.838
2033.396
2031.954
2030.512
2029.070
2027.628
2026.186
2024.744
2023.302
2021.860
2020.418
2018.976
2017.534
2016.092
2014.650
2013.208
2011.766
2010.324
2008.882
2007.440
2005.998
2004.556
2003.114
2001.672
2000.230
1998.788
1997.346
1995.904
1994.462
1993.020
1991.578
1990.136
1988.694
1987.252
1985.810
1984.368
1982.926
1981.484
1980.042
1978.600
1977.158
1975.716
1974.274
1972.832
1971.390
1969.948
1968.506
1967.064
1965.622
1964.180
1962.738
1961.296
1959.854
1958.412
1956.970
1955.528
1954.086
1952.644
1951.202
1949.760
1948.318
1946.876
1945.434
1943.992
1942.550
1941.108
1939.666
1938.224
1936.782
1935.340
1933.898
1932.456
1931.014
1929.572
1928.130
1926.688
1925.246
1923.804
1922.362
1920.920
1919.478
1918.036
1916.594
1915.152
1913.710
1912.268
1910.826
1909.384
1907.942
1906.500
1905.058
1903.616
1902.174
1900.732
1899.290
1897.848
1896.406
1894.964
1893.522
1892.080
1890.638
1889.196
1887.754
1886.312
1884.870
1883.428
1881.986
1880.544
1879.102
1877.660
1876.218
1874.776
1873.334
1871.892
1870.450
1869.008
1867.566
1866.124
1864.682
1863.240
1861.798
1860.356
1858.914
1857.472
1856.030
1854.588
1853.146
1851.704
1850.262
1852.632
1855.003
1857.373
1859.744
1862.114
1864.485
1866.855
1869.226
1871.596
1873.967
1876.337
1878.708
1881.078
1883.449
1885.819
1888.190
1890.560
1892.931
1895.301
1897.672
1900.042
1902.413
1904.783
1907.154
1909.524
1911.895
1914.265
1916.636
1919.006
1921.377
1923.747
1926.118
1928.488
1930.859
1933.229
1935.600
1937.970
1940.341
1942.711
1945.082
1947.452
1949.823
1952.193
1954.564
1956.934
1959.305
1961.675
1964.046
1966.416
1968.787
1971.157
1973.528
1975.898
1978.269
1980.639
1983.010
1985.380
1987.751
1990.121
1992.492
1994.862
1997.233
1999.603
2001.974
2004.344
2006.715
2009.085
2011.456
2013.826
2016.197
2018.567
2020.938
2023.308
2025.679
2028.049
2030.420
2032.790
2035.161
2037.531
2039.902
2042.272
2044.643
2047.013
2049.384
2051.754
2054.125
2056.495
2058.866
2061.236
2063.607
2065.977
2068.348
2070.718
2073.089
2075.459
2077.830
2080.200
2082.571
2084.941
2087.312
2089.682
2092.053
2094.423
2096.794
2099.164
2101.535
2103.905
2106.276
2108.646
2111.017
2113.387
2115.758
2118.128
2120.499
2122.869
2125.240
2127.610
2129.981
2132.351
2134.722
2137.092
2139.463
2141.833
2144.204
2146.574
2148.945
2151.315
2153.686
2156.056
2158.427
2160.797
2163.168
2165.538
2167.909
2170.279
2172.650
2175.020
2177.391
2179.761
2182.132
2184.502
2186.873
2189.243
2191.614
2193.984
2196.355
2198.725
2201.096
2203.466
2205.837
2208.207
2210.578
2212.948
2215.319
2217.689
2220.060
2222.430
2224.801
2227.171
2229.542
2231.912
2234.283
2236.653
2239.024
2241.394
2243.765
2246.135
2248.506
2250.876
2253.247
2255.617
2257.988
2260.358
2262.729
2265.099
2267.470
2269.840
2272.211
2274.581
2276.952
2279.322
2281.693
2284.063
2286.434
2288.804
2291.175
2293.545
2295.916
2298.286
2300.657
2303.027
2305.398
2307.768
2310.139
2312.509
2314.880
2317.250
2319.621
2321.991
2324.362
2323.507
2322.652
2321.797
2320.942
2320.087
2319.232
2318.377
2317.522
2316.667
2315.812
2314.957
2314.102
2313.247
2312.392
2311.537
2310.682
2309.827
2308.972
2308.117
2307.262
2306.407
2305.552
2304.697
2303.842
2302.987
2302.132
2301.277
2300.422
2299.567
2298.712
2297.857
2297.002
2296.147
2295.292
2294.437
2293.582
2292.727
2291.872
2291.017
2290.162
2289.307
2288.452
2287.597
2286.742
2285.887
2285.032
2284.177
2283.322
2282.467
2281.612
2280.757
2279.902
2279.047
2278.192
2277.337
2276.482
2275.627
2274.772
2273.917
2273.062
2272.207
2271.352
2270.497
2269.642
2268.787
2267.932
2267.077
2266.222
2265.367
2264.512
2263.657
2262.802
2261.947
2261.092
2260.237
2259.382
2258.527
2257.672
2256.817
2255.962
2255.107
2254.252
2253.397
2252.542
2251.687
2250.832
2249.977
2249.122
2248.267
2247.412
2246.557
2245.702
2244.847
2243.992
2243.137
2242.282
2241.427
2240.572
2239.717
2238.862
2238.007
2237.152
2236.297
2235.442
2234.587
2233.732
2232.877
2232.022
2231.167
2230.312
2229.457
2228.602
2227.747
2226.892
2226.037
2225.182
2224.327
2223.472
2222.617
2221.762
2220.907
2220.052
2219.197
2218.342
2217.487
2216.632
2215.777
2214.922
2214.067
2213.212
2212.357
2211.502
2210.647
2209.792
2208.937
2208.082
2207.227
2206.372
2205.517
2204.662
2203.807
2202.952
2202.097
2201.242
2200.387
2199.532
2198.677
2197.822
2196.967
2196.112
2195.257
2194.402
2193.547
2192.692
2191.837
2190.982
2190.127
2189.272
2188.417
2187.562
2186.707
2185.852
2184.997
2184.142
2183.287
2182.432
2181.577
2180.722
2179.867
2179.012
2178.157
2177.302
2176.447
2175.592
2174.737
2173.882
2173.027
2172.172
2171.317
2170.462
2169.607
2168.752
2167.897
2167.042
2166.187
2165.332
2164.477
2163.622
2162.767
2161.912
2161.057
2160.202
2159.347
2158.492
2157.637
2156.782
2155.927
2155.072
2154.217
2153.362
2151.138
2148.914
2146.690
2144.466
2142.242
2140.018
2137.794
2135.570
2133.346
2131.122
2128.898
2126.674
2124.450
2122.226
2120.002
2117.778
2115.554
2113.330
2111.106
2108.882
2106.658
2104.434
2102.210
2099.986
2097.762
2095.538
2093.314
2091.090
2088.866
2086.642
2084.418
2082.194
2079.970
2077.746
2075.522
2073.298
2071.074
2068.850
2066.626
2064.402
2062.178
2059.954
2057.730
2055.506
2053.282
2051.058
2048.834
2046.610
2044.386
2042.162
2039.938
2037.714
2035.490
2033.266
2031.042
2028.818
2026.594
2024.370
2022.146
2019.922
2017.698
2015.474
2013.250
2011.026
2008.802
2006.578
2004.354
2002.130
1999.906
1997.682
1995.458
1993.234
1991.010
1988.786
1986.562
1984.338
1982.114
1979.890
1977.666
1975.442
1973.218
1970.994
1968.770
1966.546
1964.322
1962.098
1959.874
1957.650
1955.426
1953.202
1950.978
1948.754
1946.530
1944.306
1942.082
1939.858
1937.634
1935.410
1933.186
1930.962
1928.738
1926.514
1924.290
1922.066
1919.842
1917.618
1915.394
1913.170
1910.946
1908.722
1906.498
1904.274
1902.050
1899.826
1897.602
1895.378
1893.154
1890.930
1888.706
1886.482
1884.258
1882.034
1879.810
1877.586
1875.362
1873.138
1870.914
1868.690
1866.466
1864.242
1862.018
1859.794
1857.570
1855.346
1853.122
1850.898
1848.674
1846.450
1844.226
1842.002
1839.778
1837.554
1835.330
1833.106
1830.882
1828.658
1826.434
1824.210
1821.986
1819.762
1817.538
1815.314
1813.090
1810.866
1808.642
1806.418
1804.194
1801.970
1799.746
1797.522
1795.298
1793.074
1790.850
1788.626
1786.402
1784.178
1781.954
