96.484
96.484
96.484
96.484
96.484
96.484
96.484
96.484
96.484
96.484
96.484
96.484
96.484
96.484
96.484
96.484
96.484
96.484
96.484
96.484
96.484
96.484
96.484
96.484
96.484
96.484
96.484
96.484
96.484
96.484
96.484
96.484
96.484
96.484
96.484
96.484
96.484
96.484
96.484
96.484
96.484
96.484
96.484
96.484
96.484
96.484
96.484
96.484
96.484
96.484
96.484
96.484
96.484
96.484
96.484
96.484
96.484
96.484
96.484
96.484
96.484
96.484
96.484
96.484
96.484
96.484
96.484
96.484
96.484
96.484
96.484
96.484
96.484
96.484
96.484
96.484
96.484
96.484
96.484
96.484
96.484
96.484
96.484
96.484
96.484
96.484
96.484
96.484
96.484
96.484
96.484
96.484
96.484
96.484
96.484
96.484
96.484
96.484
96.484
96.484
96.484
96.484
96.484
96.484
96.484
96.484
96.484
96.484
96.484
96.484
96.484
96.484
96.484
96.484
96.484
96.484
96.484
96.484
96.484
96.484
96.484
96.484
96.484
96.484
96.484
96.484
96.484
96.484
96.484
96.484
96.484
96.484
96.484
96.484
96.484
96.484
96.484
96.484
96.484
96.484
96.484
96.484
96.484
96.484
96.484
96.484
96.484
96.484
96.484
96.484
96.484
96.484
96.484
96.484
96.484
96.484
96.484
96.484
96.484
96.484
96.484
96.484
96.484
96.484
96.484
96.484
96.484
96.484
96.484
96.484
96.484
96.484
96.484
96.484
96.484
96.484
96.484
96.484
96.484
96.484
96.484
96.484
96.484
96.484
96.484
96.484
96.484
96.484
96.484
96.484
96.484
96.484
96.484
96.484
96.484
96.484
96.484
96.484
96.484
96.484
96.484
96.484
96.484
96.484
96.484
96.484
96.484
96.484
96.484
96.484
96.484
96.484
96.484
96.484
96.484
96.484
96.484
96.484
96.484
96.484
96.484
96.484
96.484
96.484
96.484
96.484
96.484
96.484
96.484
96.484
96.484
96.484
96.484
96.484
96.484
96.484
96.484
96.484
96.484
96.484
96.484
96.484
96.484
96.484
96.484
96.484
96.484
96.484
96.484
96.484
96.484
96.484
96.484
96.484
96.484
96.484
96.484
96.484
96.484
96.484
96.484
96.484
96.484
96.484
96.484
96.484
96.484
96.484
96.484
96.484
96.484
96.484
96.484
96.484
96.484
96.484
96.484
96.484
96.484
96.484
96.484
96.484
96.484
96.484
96.484
96.484
96.484
96.484
96.484
96.484
96.484
96.484
96.484
96.484
96.484
96.484
96.484
96.484
96.484
96.484
96.484
96.484
96.484
96.484
96.484
96.484
96.484
96.484
96.484
96.484
96.484
96.484
96.484
96.484
96.484
96.484
96.484
96.484
96.484
96.484
96.484
96.484
96.484
96.484
96.484
96.484
96.484
96.484
96.484
96.484
96.484
96.484
96.484
96.484
96.484
96.484
96.484
96.484
96.484
96.484
96.484
96.484
96.484
1606.684
1608.786
1610.888
1612.990
1615.092
1617.194
1619.296
1621.398
1623.500
1625.602
1627.704
1629.806
1631.908
1634.010
1636.112
1638.214
1640.316
1642.418
1644.520
1646.622
1648.724
1650.826
1652.928
1655.030
1657.132
1659.234
1661.336
1663.438
1665.540
1667.642
1669.744
1671.846
1673.948
1676.050
1678.152
1680.254
1682.356
1684.458
1686.560
1688.662
1690.764
1692.866
1694.968
1697.070
1699.172
1701.274
1703.376
1705.478
1707.580
1709.682
1711.784
1713.886
1715.988
1718.090
1720.192
1722.294
1724.396
1726.498
1728.600
1730.702
1732.804
1734.906
1737.008
1739.110
1741.212
1743.314
1745.416
1747.518
1749.620
1751.722
1753.824
1755.926
1758.028
1760.130
1762.232
1764.334
1766.436
1768.538
1770.640
1772.742
1774.844
1776.946
1779.048
1781.150
1783.252
1785.354
1787.456
1789.558
1791.660
1793.762
1795.864
1797.966
1800.068
1802.170
1804.272
1806.374
1808.476
1810.578
1812.680
1814.782
1816.884
1818.986
1821.088
1823.190
1825.292
1827.394
1829.496
1831.598
1833.700
1835.802
1837.904
1840.006
1842.108
1844.210
1846.312
1848.414
1850.516
1852.618
1854.720
1856.822
1858.924
1861.026
1863.128
1865.230
1867.332
1869.434
1871.536
1873.638
1875.740
1877.842
1879.944
1882.046
1884.148
1886.250
1888.352
1890.454
1892.556
1894.658
1896.760
1898.862
1900.964
1903.066
1905.168
1907.270
1909.372
1911.474
1913.576
1915.678
1917.780
1919.882
1921.984
1924.086
1926.188
1928.290
1930.392
1932.494
1934.596
1936.698
1938.800
1940.902
1943.004
1945.106
1947.208
1949.310
1951.412
1953.514
1955.616
1957.718
1959.820
1961.922
1964.024
1966.126
1968.228
1970.330
1972.432
1974.534
1976.636
1978.738
1980.840
1982.942
1985.044
1987.146
1989.248
1991.350
1993.452
1995.554
1997.656
1999.758
2001.860
2003.962
2006.064
2008.166
2010.268
2012.370
2014.472
2016.574
2018.676
2020.778
2022.880
2024.982
2027.084
2027.597
2028.110
2028.623
2029.136
2029.649
2030.162
2030.675
2031.188
2031.701
2032.214
2032.727
2033.240
2033.753
2034.266
2034.779
2035.292
2035.805
2036.318
2036.831
2037.344
2037.857
2038.370
2038.883
2039.396
2039.909
2040.422
2040.935
2041.448
2041.961
2042.474
2042.987
2043.500
2044.013
2044.526
2045.039
2045.552
2046.065
2046.578
2047.091
2047.604
2048.117
2048.630
2049.143
2049.656
2050.169
2050.682
2051.195
2051.708
2052.221
2052.734
2053.247
2053.760
2054.273
2054.786
2055.299
2055.812
2056.325
2056.838
2057.351
2057.864
2058.377
2058.890
2059.403
2059.916
2060.429
2060.942
2061.455
2061.968
2062.481
2062.994
2063.507
2064.020
2064.533
2065.046
2065.559
2066.072
2066.585
2067.098
2067.611
2068.124
2068.637
2069.150
2069.663
2070.176
2070.689
2071.202
2071.715
2072.228
2072.741
2073.254
2073.767
2074.280
2074.793
2075.306
2075.819
2076.332
2076.845
2077.358
2077.871
2078.384
2078.897
2079.410
2079.923
2080.436
2080.949
2081.462
2081.975
2082.488
2083.001
2083.514
2084.027
2084.540
2085.053
2085.566
2086.079
2086.592
2087.105
2087.618
2088.131
2088.644
2089.157
2089.670
2090.183
2090.696
2091.209
2091.722
2092.235
2092.748
2093.261
2093.774
2094.287
2094.800
2095.313
2095.826
2096.339
2096.852
2097.365
2097.878
2098.391
2098.904
2099.417
2099.930
2100.443
2100.956
2101.469
2101.982
2102.495
2103.008
2103.521
2104.034
2104.547
2105.060
2105.573
2106.086
2106.599
2107.112
2107.625
2108.138
2108.651
2109.164
2109.677
2110.190
2110.703
2111.216
2111.729
2112.242
2112.755
2113.268
2113.781
2114.294
2114.807
2115.320
2115.833
2116.346
2116.859
2117.372
2117.885
2118.398
2118.911
2119.424
2119.937
2120.450
2120.963
2121.476
2121.989
2122.502
2123.015
2123.528
2124.041
2124.554
2125.067
2125.580
2126.093
2126.606
2127.119
2127.632
2128.145
2128.658
2129.171
2129.684
2128.242
2126.800
2125.358
2123.916
2122.474
2121.032
2119.590
2118.148
2116.706
2115.264
2113.822
2112.380
2110.938
2109.496
2108.054
2106.612
2105.170
2103.728
2102.286
2100.844
2099.402
2097.960
2096.518
2095.076
2093.634
2092.192
2090.750
2089.308
2087.866
2086.424
2084.982
2083.540
2082.098
2080.656
2079.214
2077.772
2076.330
2074.888
2073.446
2072.004
2070.562
2069.120
2067.678
2066.236
2064.794
2063.352
2061.910
2060.468
2059.026
2057.584
2056.142
2054.700
2053.258
2051.816
2050.374
2048.932
2047.490
2046.048
2044.606
2043.164
2041.722
2040.280
2038.838
2037.396
2035.954
2034.512
2033.070
2031.628
2030.186
2028.744
2027.302
2025.860
2024.418
2022.976
2021.534
2020.092
2018.650
2017.208
2015.766
2014.324
2012.882
2011.440
2009.998
2008.556
2007.114
2005.672
2004.230
2002.788
2001.346
1999.904
1998.462
1997.020
1995.578
1994.136
1992.694
1991.252
1989.810
1988.368
1986.926
1985.484
1984.042
1982.600
1981.158
1979.716
1978.274
1976.832
1975.390
1973.948
1972.506
1971.064
1969.622
1968.180
1966.738
1965.296
1963.854
1962.412
1960.970
1959.528
1958.086
1956.644
1955.202
1953.760
1952.318
1950.876
1949.434
1947.992
1946.550
1945.108
1943.666
1942.224
1940.782
1939.340
1937.898
1936.456
1935.014
1933.572
1932.130
1930.688
1929.246
1927.804
1926.362
1924.920
1923.478
1922.036
1920.594
1919.152
1917.710
1916.268
1914.826
1913.384
1911.942
1910.500
1909.058
1907.616
1906.174
1904.732
1903.290
1901.848
1900.406
1898.964
1897.522
1896.080
1894.638
1893.196
1891.754
1890.312
1888.870
1887.428
1885.986
1884.544
1883.102
1881.660
1880.218
1878.776
1877.334
1875.892
1874.450
1873.008
1871.566
1870.124
1868.682
1867.240
1865.798
1864.356
1862.914
1861.472
1860.030
1858.588
1857.146
1855.704
1854.262
1852.820
1851.378
1849.936
1848.494
1847.052
1845.610
1844.168
1842.726
1841.284
1843.655
1846.025
1848.396
1850.766
1853.137
1855.507
1857.878
1860.248
1862.619
1864.989
1867.360
1869.730
1872.101
1874.471
1876.842
1879.212
1881.583
1883.953
1886.324
1888.694
1891.065
1893.435
1895.806
1898.176
1900.547
1902.917
1905.288
1907.658
1910.029
1912.399
1914.770
1917.140
1919.511
1921.881
1924.252
1926.622
1928.993
1931.363
1933.734
1936.104
1938.475
1940.845
1943.216
1945.586
1947.957
1950.327
1952.698
1955.068
1957.439
1959.809
1962.180
1964.550
1966.921
1969.291
1971.662
1974.032
1976.403
1978.773
1981.144
1983.514
1985.885
1988.255
1990.626
1992.996
1995.367
1997.737
2000.108
2002.478
2004.849
2007.219
2009.590
2011.960
2014.331
2016.701
2019.072
2021.442
2023.813
2026.183
2028.554
2030.924
2033.295
2035.665
2038.036
2040.406
2042.777
2045.147
2047.518
2049.888
2052.259
2054.629
2057.000
2059.370
2061.741
2064.111
2066.482
2068.852
2071.223
2073.593
2075.964
2078.334
2080.705
2083.075
2085.446
2087.816
2090.187
2092.557
2094.928
2097.298
2099.669
2102.039
2104.410
2106.780
2109.151
2111.521
2113.892
2116.262
2118.633
2121.003
2123.374
2125.744
2128.115
2130.485
2132.856
2135.226
2137.597
2139.967
2142.338
2144.708
2147.079
2149.449
2151.820
2154.190
2156.561
2158.931
2161.302
2163.672
2166.043
2168.413
2170.784
2173.154
2175.525
2177.895
2180.266
2182.636
2185.007
2187.377
2189.748
2192.118
2194.489
2196.859
2199.230
2201.600
2203.971
2206.341
2208.712
2211.082
2213.453
2215.823
2218.194
2220.564
2222.935
2225.305
2227.676
2230.046
2232.417
2234.787
2237.158
2239.528
2241.899
2244.269
2246.640
2249.010
2251.381
2253.751
2256.122
2258.492
2260.863
2263.233
2265.604
2267.974
2270.345
2272.715
2275.086
2277.456
2279.827
2282.197
2284.568
2286.938
2289.309
2291.679
2294.050
2296.420
2298.791
2301.161
2303.532
2305.902
2308.273
2310.643
2313.014
2315.384
2314.529
2313.674
2312.819
2311.964
2311.109
2310.254
2309.399
2308.544
2307.689
2306.834
2305.979
2305.124
2304.269
2303.414
2302.559
2301.704
2300.849
2299.994
2299.139
2298.284
2297.429
2296.574
2295.719
2294.864
2294.009
2293.154
2292.299
2291.444
2290.589
2289.734
2288.879
2288.024
2287.169
2286.314
2285.459
2284.604
2283.749
2282.894
2282.039
2281.184
2280.329
2279.474
2278.619
2277.764
2276.909
2276.054
2275.199
2274.344
2273.489
2272.634
2271.779
2270.924
2270.069
2269.214
2268.359
2267.504
2266.649
2265.794
2264.939
2264.084
2263.229
2262.374
2261.519
2260.664
2259.809
2258.954
2258.099
2257.244
2256.389
2255.534
2254.679
2253.824
2252.969
2252.114
2251.259
2250.404
2249.549
2248.694
2247.839
2246.984
2246.129
2245.274
2244.419
2243.564
2242.709
2241.854
2240.999
2240.144
2239.289
2238.434
2237.579
2236.724
2235.869
2235.014
2234.159
2233.304
2232.449
2231.594
2230.739
2229.884
2229.029
2228.174
2227.319
2226.464
2225.609
2224.754
2223.899
2223.044
2222.189
2221.334
2220.479
2219.624
2218.769
2217.914
2217.059
2216.204
2215.349
2214.494
2213.639
2212.784
2211.929
2211.074
2210.219
2209.364
2208.509
2207.654
2206.799
2205.944
2205.089
2204.234
2203.379
2202.524
2201.669
2200.814
2199.959
2199.104
2198.249
2197.394
2196.539
2195.684
2194.829
2193.974
2193.119
2192.264
2191.409
2190.554
2189.699
2188.844
2187.989
2187.134
2186.279
2185.424
2184.569
2183.714
2182.859
2182.004
2181.149
2180.294
2179.439
2178.584
2177.729
2176.874
2176.019
2175.164
2174.309
2173.454
2172.599
2171.744
2170.889
2170.034
2169.179
2168.324
2167.469
2166.614
2165.759
2164.904
2164.049
2163.194
2162.339
2161.484
2160.629
2159.774
2158.919
2158.064
2157.209
2156.354
2155.499
2154.644
2153.789
2152.934
2152.079
2151.224
2150.369
2149.514
2148.659
2147.804
2146.949
2146.094
2145.239
2144.384
2142.160
2139.936
2137.712
2135.488
2133.264
2131.040
2128.816
2126.592
2124.368
2122.144
2119.920
2117.696
2115.472
2113.248
2111.024
2108.800
2106.576
2104.352
2102.128
2099.904
2097.680
2095.456
2093.232
2091.008
2088.784
2086.560
2084.336
2082.112
2079.888
2077.664
2075.440
2073.216
2070.992
2068.768
2066.544
2064.320
2062.096
2059.872
2057.648
2055.424
2053.200
2050.976
2048.752
2046.528
2044.304
2042.080
2039.856
2037.632
2035.408
2033.184
2030.960
2028.736
2026.512
2024.288
2022.064
2019.840
2017.616
2015.392
2013.168
2010.944
2008.720
2006.496
2004.272
2002.048
1999.824
1997.600
1995.376
1993.152
1990.928
1988.704
1986.480
1984.256
1982.032
1979.808
1977.584
1975.360
1973.136
1970.912
1968.688
1966.464
1964.240
1962.016
1959.792
1957.568
1955.344
1953.120
1950.896
1948.672
1946.448
1944.224
1942.000
1939.776
1937.552
1935.328
1933.104
1930.880
1928.656
1926.432
1924.208
1921.984
1919.760
1917.536
1915.312
1913.088
1910.864
1908.640
1906.416
1904.192
1901.968
1899.744
1897.520
1895.296
1893.072
1890.848
1888.624
1886.400
1884.176
1881.952
1879.728
1877.504
1875.280
1873.056
1870.832
1868.608
1866.384
1864.160
1861.936
1859.712
1857.488
1855.264
1853.040
1850.816
1848.592
1846.368
1844.144
1841.920
1839.696
1837.472
1835.248
1833.024
1830.800
1828.576
1826.352
1824.128
1821.904
1819.680
1817.456
1815.232
1813.008
1810.784
1808.560
1806.336
1804.112
1801.888
1799.664
1797.440
1795.216
1792.992
1790.768
1788.544
1786.320
1784.096
1781.872
1779.648
1777.424
1775.200
1772.976
1770.752
1768.528
1766.304
1764.080
1761.856
1759.632
1757.408
1755.184
1752.960
1750.736
1748.512
1746.288
1744.064
1741.840
1739.616
1737.392
1735.168
1732.944
1730.720
1728.496
1726.272
1724.048
1721.824
1719.600
1717.376
1715.152
1712.928
1710.704
1708.480
1706.256
1704.032
1701.808
1699.584
1701.906
1704.227
1706.549
1708.870
1711.192
1713.513
1715.835
1718.156
1720.478
1722.799
1725.121
1727.442
1729.764
1732.085
1734.407
1736.728
1739.050
1741.371
1743.693
1746.014
1748.336
1750.657
1752.979
1755.300
1757.622
1759.943
1762.265
1764.586
1766.908
1769.229
1771.551
1773.872
1776.194
1778.515
1780.837
1783.158
1785.480
1787.801
1790.123
1792.444
1794.766
1797.087
1799.409
1801.730
1804.052
1806.373
1808.695
1811.016
1813.338
1815.659
1817.981
1820.302
1822.624
1824.945
1827.267
1829.588
1831.910
1834.231
1836.553
1838.874
1841.196
1843.517
1845.839
1848.160
1850.482
1852.803
1855.125
1857.446
1859.768
1862.089
1864.411
1866.732
1869.054
1871.375
1873.697
1876.018
1878.340
1880.661
1882.983
1885.304
1887.626
1889.947
1892.269
1894.590
1896.912
1899.233
1901.555
1903.876
1906.198
1908.519
1910.841
1913.162
1915.484
1917.805
1920.127
1922.448
1924.770
1927.091
1929.413
1931.734
1934.056
1936.377
1938.699
1941.020
1943.342
1945.663
1947.985
1950.306
1952.628
1954.949
1957.271
1959.592
1961.914
1964.235
1966.557
1968.878
1971.200
1973.521
1975.843
1978.164
1980.486
1982.807
1985.129
1987.450
1989.772
1992.093
1994.415
1996.736
1999.058
2001.379
2003.701
2006.022
2008.344
2010.665
2012.987
2015.308
2017.630
2019.951
2022.273
2024.594
2026.916
2029.237
2031.559
2033.880
2036.202
2038.523
2040.845
2043.166
2045.488
2047.809
2050.131
2052.452
2054.774
2057.095
2059.417
2061.738
2064.060
2066.381
2068.703
2071.024
2073.346
2075.667
2077.989
2080.310
2082.632
2084.953
2087.275
2089.596
2091.918
2094.239
2096.561
2098.882
2101.204
2103.525
2105.847
2108.168
2110.490
2112.811
2115.133
2117.454
2119.776
2122.097
2124.419
2126.740
2129.062
2131.383
2133.705
2136.026
2138.348
2140.669
2142.991
2145.312
2147.634
2149.955
2152.277
2154.598
2156.920
2159.241
2161.563
2163.884
2167.306
2170.727
2174.149
2177.570
2180.992
2184.413
2187.835
2191.256
2194.678
2198.099
2201.521
2204.942
2208.364
2211.785
2215.207
2218.628
2222.050
2225.471
2228.893
2232.314
2235.736
2239.157
2242.579
2246.000
2249.422
2252.843
2256.265
2259.686
2263.108
2266.529
2269.951
2273.372
2276.794
2280.215
2283.637
2287.058
2290.480
2293.901
2297.323
2300.744
2304.166
2307.587
2311.009
2314.430
2317.852
2321.273
2324.695
2328.116
2331.538
2334.959
2338.381
2341.802
2345.224
2348.645
2352.067
2355.488
2358.910
2362.331
2365.753
2369.174
2372.596
2376.017
2379.439
2382.860
2386.282
2389.703
2393.125
2396.546
2399.968
2403.389
2406.811
2410.232
2413.654
2417.075
2420.497
2423.918
2427.340
2430.761
2434.183
2437.604
2441.026
2444.447
2447.869
2451.290
2454.712
2458.133
2461.555
2464.976
2468.398
2471.819
2475.241
2478.662
2482.084
2485.505
2488.927
2492.348
2495.770
2499.191
2502.613
2506.034
2509.456
2512.877
2516.299
2519.720
2523.142
2526.563
2529.985
2533.406
2536.828
2540.249
2543.671
2547.092
2550.514
2553.935
2557.357
2560.778
2564.200
2567.621
2571.043
2574.464
2577.886
2581.307
2584.729
2588.150
2591.572
2594.993
2598.415
2601.836
2605.258
2608.679
2612.101
2615.522
2618.944
2622.365
2625.787
2629.208
2632.630
2636.051
2639.473
2642.894
2646.316
2649.737
2653.159
2656.580
2660.002
2663.423
2666.845
2670.266
2673.688
2677.109
2680.531
2683.952
2687.374
2690.795
2694.217
2697.638
2701.060
2704.481
2707.903
2711.324
2714.746
2718.167
2721.589
2725.010
2728.432
2731.853
2735.275
2738.696
2742.118
2745.539
2748.961
2752.382
2755.804
2759.225
2762.647
2766.068
2769.490
2772.911
2776.333
2779.754
2783.176
2786.597
2790.019
2793.440
2796.862
2800.283
2803.705
2807.126
2810.548
2813.969
2817.391
2820.812
2824.234
2827.655
2831.077
2834.498
2837.920
2841.341
2844.763
2848.184
2845.472
2842.759
2840.047
2837.334
2834.622
2831.909
2829.197
2826.484
2823.772
2821.059
2818.347
2815.634
2812.922
2810.209
2807.497
2804.784
2802.072
2799.359
2796.647
2793.934
2791.222
2788.509
2785.797
2783.084
2780.372
2777.659
2774.947
2772.234
2769.522
2766.809
2764.097
2761.384
2758.672
2755.959
2753.247
2750.534
2747.822
2745.109
2742.397
2739.684
2736.972
2734.259
2731.547
2728.834
2726.122
2723.409
2720.697
2717.984
2715.272
2712.559
2709.847
2707.134
2704.422
2701.709
2698.997
2696.284
