114.292
114.243
114.195
114.146
114.098
114.049
114.001
113.952
113.904
113.855
113.807
113.758
113.710
113.661
113.613
113.564
113.516
113.467
113.419
113.370
113.322
113.273
113.225
113.176
113.128
113.079
113.031
112.982
112.934
112.885
112.837
112.788
112.740
112.691
112.643
112.594
112.546
112.497
112.449
112.400
112.352
112.303
112.255
112.206
112.158
112.109
112.061
112.012
111.964
111.915
111.867
111.818
111.770
111.721
111.673
111.624
111.576
111.527
111.479
111.430
111.382
111.333
111.285
111.236
111.188
111.139
111.091
111.042
110.994
110.945
110.897
110.848
110.800
110.751
110.703
110.654
110.606
110.557
110.509
110.460
110.412
110.363
110.315
110.266
110.218
110.169
110.121
110.072
110.024
109.975
109.927
109.878
109.830
109.781
109.733
109.684
109.636
109.587
109.539
109.490
109.442
109.393
109.345
109.296
109.248
109.199
109.151
109.102
109.054
109.005
108.957
108.908
108.860
108.811
108.763
108.714
108.666
108.617
108.569
108.520
108.472
108.423
108.375
108.326
108.278
108.229
108.181
108.132
108.084
108.035
107.987
107.938
107.890
107.841
107.793
107.744
107.696
107.647
107.599
107.550
107.502
107.453
107.453
107.453
107.453
107.453
107.453
107.453
107.453
107.453
107.453
107.453
107.453
107.453
107.453
107.453
107.453
107.453
107.453
107.453
107.453
107.453
107.453
107.453
107.453
107.453
107.453
107.453
107.453
107.453
107.453
107.453
107.453
107.453
107.453
107.453
107.453
107.453
107.453
107.453
107.453
107.453
107.453
107.453
107.453
107.453
107.453
107.453
107.453
107.453
107.453
107.453
107.453
107.453
107.453
107.453
107.453
107.453
107.453
107.453
107.453
107.453
107.453
107.453
107.453
107.453
107.453
107.453
107.453
107.453
107.453
107.453
107.453
107.453
107.453
107.453
107.453
107.453
107.453
107.453
107.453
107.453
107.453
107.453
107.453
107.453
107.453
107.453
107.453
107.453
107.453
107.453
107.453
107.453
107.453
107.453
107.453
107.453
107.453
107.453
107.453
107.453
107.453
107.453
107.453
107.453
107.453
107.453
107.453
107.453
107.453
107.453
107.453
107.453
107.453
107.453
107.453
107.453
107.453
107.453
107.453
107.453
107.453
107.453
107.453
107.453
107.453
107.453
107.453
107.453
107.453
107.453
107.453
107.453
107.453
107.453
107.453
107.453
107.453
107.453
107.453
107.453
107.453
107.453
107.453
107.453
107.453
107.453
107.453
107.453
107.453
107.453
107.453
107.453
107.453
107.453
107.453
107.453
107.453
107.453
107.453
107.453
107.453
107.453
107.453
107.453
107.453
107.453
107.453
107.453
107.453
107.453
107.453
107.453
107.453
107.453
107.453
107.453
107.453
107.453
107.453
107.453
107.453
107.453
107.453
107.453
107.453
107.453
107.453
107.453
107.453
107.453
107.453
107.453
107.453
107.453
107.453
107.453
107.453
107.453
107.453
107.453
107.453
107.453
107.453
107.453
107.453
107.453
107.453
107.453
107.453
107.453
107.453
107.453
107.453
107.453
107.453
107.453
107.453
107.453
107.453
107.453
107.453
107.453
107.453
107.453
107.453
107.453
107.453
107.453
107.453
107.453
107.453
107.453
107.453
107.453
107.453
107.453
107.453
107.453
107.453
107.453
107.453
107.453
107.453
107.453
107.453
107.453
107.453
107.453
107.453
107.453
107.453
107.453
107.453
107.453
107.453
107.453
107.453
107.453
107.453
107.453
107.453
107.453
107.453
107.453
107.453
107.453
107.453
107.453
107.453
107.453
107.453
107.453
107.453
107.453
107.453
107.453
107.453
107.453
107.453
107.453
107.453
107.453
107.453
107.453
107.453
107.453
107.453
107.453
107.453
107.453
107.453
107.453
107.453
107.453
107.453
107.453
107.453
107.453
107.453
107.453
107.453
107.453
107.453
107.453
107.453
107.453
107.453
107.453
107.453
107.453
107.453
107.453
107.453
107.453
107.453
107.453
107.453
107.453
107.453
107.453
107.453
107.453
107.453
107.453
107.453
107.453
107.453
107.453
107.453
107.453
107.453
107.453
107.453
107.453
107.453
107.453
107.453
107.453
107.453
107.453
107.453
107.453
107.453
107.453
107.453
107.453
107.453
107.453
107.453
107.453
107.453
107.453
107.453
107.453
107.453
107.453
107.453
107.453
107.453
107.453
107.453
107.453
107.453
107.453
107.453
107.453
107.453
107.453
107.453
107.453
107.453
107.453
107.453
107.453
107.453
107.453
107.453
107.453
107.453
107.453
107.453
107.453
107.453
107.453
107.453
107.453
107.453
107.453
107.453
107.453
107.453
107.453
107.453
107.453
107.453
107.453
107.453
107.453
107.453
107.453
107.453
107.453
107.453
107.453
107.453
107.453
107.453
107.453
107.453
107.453
107.453
107.453
107.453
107.453
107.453
107.453
107.453
107.453
107.453
107.453
107.453
107.453
107.453
107.453
107.453
107.453
107.453
107.453
107.453
107.453
107.453
107.453
107.453
107.453
107.453
107.453
107.453
107.453
107.453
107.453
107.453
107.453
107.453
107.453
107.453
107.453
107.453
107.453
107.453
107.453
107.453
107.453
107.453
107.453
107.453
107.453
107.453
107.453
107.453
107.453
107.453
107.453
107.453
107.453
107.453
107.453
107.453
107.453
107.453
107.453
107.453
107.453
107.453
107.453
107.453
107.453
107.453
107.453
107.453
107.453
107.453
107.453
107.453
107.453
107.453
107.453
107.453
107.453
107.453
107.453
107.453
107.453
107.453
107.453
107.453
107.453
107.453
107.453
107.453
107.453
107.453
107.453
107.453
107.453
107.453
107.453
107.453
107.453
107.453
107.453
107.453
107.453
107.453
107.453
107.453
107.453
107.453
107.453
107.453
107.453
107.453
107.453
107.453
107.453
107.453
107.453
107.453
107.453
107.453
107.453
107.453
107.453
107.453
107.453
107.453
107.453
107.453
107.453
107.453
107.453
107.453
107.453
107.453
107.453
107.453
107.453
107.453
107.453
107.453
107.453
107.453
107.453
107.453
107.453
107.453
107.453
107.453
107.453
107.453
107.453
107.453
107.453
107.453
107.453
107.453
107.453
107.453
107.453
107.453
107.453
107.453
107.453
107.453
107.453
107.453
107.453
107.453
107.453
107.453
107.453
107.453
107.453
107.453
107.453
107.453
107.453
107.453
107.453
107.453
107.453
107.453
107.453
107.453
107.453
107.453
107.453
107.453
107.453
107.453
298.053
300.741
303.429
306.117
308.805
311.493
314.181
316.869
319.557
322.245
324.933
327.621
330.309
332.997
335.685
338.373
341.061
343.749
346.437
349.125
351.813
354.501
357.189
359.877
362.565
365.253
367.941
370.629
373.317
376.005
378.693
381.381
384.069
386.757
389.445
392.133
394.821
397.509
400.197
402.885
405.573
408.261
410.949
413.637
416.325
419.013
421.701
424.389
427.077
429.765
432.453
435.141
437.829
440.517
443.205
445.893
448.581
451.269
453.957
456.645
459.333
462.021
464.709
467.397
470.085
472.773
475.461
478.149
480.837
483.525
486.213
488.901
491.589
494.277
496.965
499.653
502.341
505.029
507.717
510.405
513.093
515.781
518.469
521.157
523.845
526.533
529.221
531.909
534.597
537.285
539.973
542.661
545.349
548.037
550.725
553.413
556.101
558.789
561.477
564.165
566.853
569.541
572.229
574.917
577.605
580.293
582.981
585.669
588.357
591.045
593.733
596.421
599.109
601.797
604.485
607.173
609.861
612.549
615.237
617.925
620.613
623.301
625.989
628.677
631.365
634.053
636.741
639.429
642.117
644.805
647.493
650.181
652.869
655.557
658.245
660.933
663.621
666.309
668.997
671.685
674.373
677.061
679.749
682.437
685.125
687.813
690.501
693.189
695.877
698.565
701.253
703.941
706.629
709.317
712.005
714.693
717.381
720.069
722.757
725.445
728.133
730.821
733.509
736.197
738.885
741.573
744.261
746.949
749.637
752.325
755.013
757.701
760.389
763.077
765.765
768.453
771.141
773.829
776.517
779.205
781.893
784.581
787.269
789.957
792.645
795.333
798.021
800.709
803.397
806.085
808.773
811.461
814.149
816.837
819.525
822.213
824.901
827.589
830.277
832.965
835.653
838.219
840.785
843.351
845.917
848.483
851.049
853.615
856.181
858.747
861.313
863.879
866.445
869.011
871.577
874.143
876.709
879.275
881.841
884.407
886.973
889.539
892.105
894.671
897.237
899.803
902.369
904.935
907.501
910.067
912.633
915.199
917.765
920.331
922.897
925.463
928.029
930.595
933.161
935.727
938.293
940.859
943.425
945.991
948.557
951.123
953.689
956.255
958.821
961.387
963.953
966.519
969.085
971.651
974.217
976.783
979.349
981.915
984.481
987.047
989.613
992.179
994.745
997.311
999.877
1002.443
1005.009
1007.575
1010.141
1012.707
1015.273
1017.839
1020.405
1022.971
1025.537
1028.103
1030.669
1033.235
1035.801
1038.367
1040.933
1043.499
1046.065
1048.631
1051.197
1053.763
1056.329
1058.895
1061.461
1064.027
1066.593
1069.159
1071.725
1074.291
1076.857
1079.423
1081.989
1084.555
1087.121
1089.687
1092.253
1094.819
1097.385
1099.951
1102.517
1105.083
1107.649
1110.215
1112.781
1115.347
1117.913
1120.479
1123.045
1125.611
1128.177
1130.743
1133.309
1135.875
1138.441
1141.007
1143.573
1146.139
1148.705
1151.271
1153.837
1156.403
1158.969
1161.535
1164.101
1166.667
1169.233
1171.799
1174.365
1176.931
1179.497
1182.063
1184.629
1187.195
1189.761
1192.327
1194.893
1197.459
1200.025
1202.591
1205.157
1207.723
1210.289
1212.855
1215.421
1217.987
1220.553
1223.119
1225.685
1228.251
1230.817
1233.383
1235.949
1238.515
1241.081
1243.647
1246.213
1248.779
1251.345
1253.911
1256.477
1259.043
1261.609
1264.175
1266.741
1269.307
1271.873
1274.439
1277.005
1279.571
1282.137
1284.703
1287.269
1289.835
1292.401
1294.967
1297.533
1300.099
1302.665
1305.231
1307.797
1310.363
1312.929
1315.495
1318.061
1320.627
1323.193
1325.759
1328.325
1330.891
1333.457
1336.023
1338.589
1341.155
1343.721
1346.287
1348.853
1351.273
1353.692
1356.112
1358.531
1360.951
1363.370
1365.790
1368.209
1370.629
1373.048
1375.468
1377.887
1380.307
1382.726
1385.146
1387.565
1389.985
1392.404
1394.824
1397.243
1399.663
1402.082
1404.502
1406.921
1409.341
1411.760
1414.180
1416.599
1419.019
1421.438
1423.858
1426.277
1428.697
1431.116
1433.536
1435.955
1438.375
1440.794
1443.214
1445.633
1448.053
1450.472
1452.892
1455.311
1457.731
1460.150
1462.570
1464.989
1467.409
1469.828
1472.248
1474.667
1477.087
1479.506
1481.926
1484.345
1486.765
1489.184
1491.604
1494.023
1496.443
1498.862
1501.282
1503.701
1506.121
1508.540
1510.960
1513.379
1515.799
1518.218
1520.638
1523.057
1525.477
1527.896
1530.316
1532.735
1535.155
1537.574
1539.994
1542.413
1544.833
1547.252
1549.672
1552.091
1554.511
1556.930
1559.350
1561.769
1564.189
1566.608
1569.028
1571.447
1573.867
1576.286
1578.706
1581.125
1583.545
1585.964
1588.384
1590.803
1593.223
1595.642
1598.062
1600.481
1602.901
1605.320
1607.740
1610.159
1612.579
1614.998
1617.418
1619.837
1622.257
1624.676
1627.096
1629.515
1631.935
1634.354
1636.774
1639.193
1641.613
1644.032
1646.452
1648.871
1651.291
1653.710
1656.130
1658.549
1660.969
1663.388
1665.808
1668.227
1670.647
1673.066
1675.486
1677.905
1680.325
1682.744
1685.164
1687.583
1690.003
1692.422
1694.842
1697.261
1699.681
1702.100
1704.520
1706.939
1709.359
1711.778
1714.198
1716.617
1719.037
1721.456
1723.876
1726.295
1728.715
1731.134
1733.554
1735.973
1738.393
1740.812
1743.232
1745.651
1748.071
1750.490
1752.910
1755.329
1757.749
1760.168
1762.588
1765.007
1767.427
1769.846
1772.266
1774.685
1777.105
1779.524
1781.944
1784.363
1786.783
1789.202
1791.622
1794.041
1796.461
1798.880
1801.300
1803.719
1806.139
1808.558
1810.978
1813.397
1815.817
1818.236
1820.656
1823.075
1825.495
1827.914
1830.334
1832.753
1833.560
1834.366
1835.173
1835.979
1836.786
1837.592
1838.399
1839.205
1840.012
1840.818
1841.625
1842.431
1843.238
1844.044
1844.851
1845.657
1846.464
1847.270
1848.077
1848.883
1849.690
1850.496
1851.303
1852.109
1852.916
1853.722
1854.529
1855.335
1856.142
1856.948
1857.755
1858.561
1859.368
1860.174
1860.981
1861.787
1862.594
1863.400
1864.207
1865.013
1865.820
1866.626
1867.433
1868.239
1869.046
1869.852
1870.659
1871.465
1872.272
1873.078
1873.885
1874.691
1875.498
1876.304
1877.111
1877.917
1878.724
1879.530
1880.337
1881.143
1881.950
1882.756
1883.563
1884.369
1885.176
1885.982
1886.789
1887.595
1888.402
1889.208
1890.015
1890.821
1891.628
1892.434
1893.241
1894.047
1894.854
1895.660
1896.467
1897.273
1898.080
1898.886
1899.693
1900.499
1901.306
1902.112
1902.919
1903.725
1904.532
1905.338
1906.145
1906.951
1907.758
1908.564
1909.371
1910.177
1910.984
1911.790
1912.597
1913.403
1914.210
1915.016
1915.823
1916.629
1917.436
1918.242
1919.049
1919.855
1920.662
1921.468
1922.275
1923.081
1923.888
1924.694
1925.501
1926.307
1927.114
1927.920
1928.727
1929.533
1930.340
1931.146
1931.953
1932.759
1933.566
1934.372
1935.179
1935.985
1936.792
1937.598
1938.405
1939.211
1940.018
1940.824
1941.631
1942.437
1943.244
1944.050
1944.857
1945.663
1946.470
1947.276
1948.083
1948.889
1949.696
1950.502
1951.309
1952.115
1952.922
1953.728
1954.535
1955.341
1956.148
1956.954
1957.761
1958.567
1959.374
1960.180
1960.987
1961.793
1962.600
1963.406
1964.213
1965.019
1965.826
1966.632
1967.439
1968.245
1969.052
1969.858
1970.665
1971.471
1972.278
1973.084
1973.891
1974.697
1975.504
1976.310
1977.117
1977.923
1978.730
1979.536
1980.343
1981.149
1981.956
1982.762
1983.569
1984.375
1985.182
1985.988
1986.795
1987.601
1988.408
1989.214
1990.021
1990.827
1991.634
1992.440
1993.247
1994.053
1995.128
1996.203
1997.278
1998.353
1999.428
2000.503
2001.578
2002.653
2003.728
2004.803
2005.878
2006.953
2008.028
2009.103
2010.178
2011.253
2012.328
2013.403
2014.478
2015.553
2016.628
2017.703
2018.778
2019.853
2020.928
2022.003
2023.078
2024.153
2025.228
2026.303
2027.378
2028.453
2029.528
2030.603
2031.678
2032.753
2033.828
2034.903
2035.978
2037.053
2038.128
2039.203
2040.278
2041.353
2042.428
2043.503
2044.578
2045.653
2046.728
2047.803
2048.878
2049.953
2051.028
2052.103
2053.178
2054.253
2055.328
2056.403
2057.478
2058.553
2059.628
2060.703
2061.778
2062.853
2063.928
2065.003
2066.078
2067.153
2068.228
2069.303
2070.378
2071.453
2072.528
2073.603
2074.678
2075.753
2076.828
2077.903
2078.978
2080.053
2081.128
2082.203
2083.278
2084.353
2085.428
2086.503
2087.578
2088.653
2089.728
2090.803
2091.878
2092.953
2094.028
2095.103
2096.178
2097.253
2098.328
2099.403
2100.478
2101.553
2102.628
2103.703
2104.778
2105.853
2106.928
2108.003
2109.078
2110.153
2111.228
2112.303
2113.378
2114.453
2115.528
2116.603
2117.678
2118.753
2119.828
2120.903
2121.978
2123.053
2124.128
2125.203
2126.278
2127.353
2128.428
2129.503
2130.578
2131.653
2132.728
2133.803
2134.878
2135.953
2137.028
2138.103
2139.178
2140.253
2141.328
2142.403
2143.478
2144.553
2145.628
2146.703
2147.778
2148.853
2149.928
2151.003
2152.078
2153.153
2154.228
2155.303
2156.378
2157.453
2158.528
2159.603
2160.678
2161.753
2162.828
2163.903
2164.978
2166.053
2167.128
2168.203
2169.278
2170.353
2171.428
2172.503
2173.578
2174.653
2175.728
2176.803
2177.878
2178.953
2180.028
2181.103
2182.178
2183.253
2184.328
2185.403
2186.478
2187.553
2188.628
2189.703
2190.778
2191.853
2192.928
2194.003
2195.078
2196.153
2197.228
2198.303
2199.378
2200.453
2201.528
2202.603
2203.678
2204.753
2205.828
2206.903
2207.978
2209.053
2208.662
2208.271
2207.880
2207.489
2207.098
2206.707
2206.316
2205.925
2205.534
2205.143
2204.752
2204.361
2203.970
2203.579
2203.188
2202.797
2202.406
2202.015
2201.624
2201.233
2200.842
2200.451
2200.060
2199.669
2199.278
2198.887
2198.496
2198.105
2197.714
2197.323
2196.932
2196.541
2196.150
2195.759
2195.368
2194.977
2194.586
2194.195
2193.804
2193.413
2193.022
2192.631
2192.240
2191.849
2191.458
2191.067
2190.676
2190.285
2189.894
2189.503
2189.112
2188.721
2188.330
2187.939
2187.548
2187.157
2186.766
2186.375
2185.984
2185.593
2185.202
2184.811
2184.420
2184.029
2183.638
2183.247
2182.856
2182.465
2182.074
2181.683
2181.292
2180.901
2180.510
2180.119
2179.728
2179.337
2178.946
2178.555
2178.164
2177.773
2177.382
2176.991
2176.600
2176.209
2175.818
2175.427
2175.036
2174.645
2174.254
2173.863
2173.472
2173.081
2172.690
2172.299
2171.908
2171.517
2171.126
2170.735
2170.344
2169.953
2169.562
2169.171
2168.780
2168.389
2167.998
2167.607
2167.216
2166.825
2166.434
2166.043
2165.652
2165.261
2164.870
2164.479
2164.088
2163.697
2163.306
2162.915
2162.524
2162.133
2161.742
2161.351
2160.960
2160.569
2160.178
2159.787
2159.396
2159.005
2158.614
2158.223
2157.832
2157.441
2157.050
2156.659
2156.268
2155.877
2155.486
2155.095
2154.704
2154.313
2153.922
2153.531
2153.140
2152.749
2152.358
2151.967
2151.576
2151.185
2150.794
2150.403
2150.012
2149.621
2149.230
2148.839
2148.448
2148.057
2147.666
2147.275
2146.884
2146.493
2146.102
2145.711
2145.320
2144.929
2144.538
2144.147
2143.756
2143.365
2142.974
2142.583
2142.192
2141.801
2141.410
2141.019
2140.628
2140.237
2139.846
2139.455
2139.064
2138.673
2138.282
2137.891
2137.500
2137.109
2136.718
2136.327
2135.936
2135.545
2135.154
2134.763
2134.372
2133.981
2133.590
2133.199
2132.808
2132.417
2132.026
2131.635
2131.244
2130.853
2130.120
2129.387
2128.654
2127.921
2127.188
2126.455
2125.722
2124.989
2124.256
2123.523
2122.790
2122.057
2121.324
2120.591
2119.858
2119.125
2118.392
2117.659
2116.926
2116.193
2115.460
2114.727
2113.994
2113.261
2112.528
2111.795
2111.062
2110.329
2109.596
2108.863
2108.130
2107.397
2106.664
2105.931
2105.198
2104.465
2103.732
2102.999
2102.266
2101.533
2100.800
2100.067
2099.334
2098.601
2097.868
2097.135
2096.402
2095.669
2094.936
2094.203
2093.470
2092.737
2092.004
2091.271
2090.538
2089.805
2089.072
2088.339
