78.528
78.528
78.528
78.528
78.528
78.528
78.528
78.528
78.528
78.528
78.528
78.528
78.528
78.528
78.528
78.528
78.528
78.528
78.528
78.528
78.528
78.528
78.528
78.528
78.528
78.528
78.528
78.528
78.528
78.528
78.528
78.528
78.528
78.528
78.528
78.528
78.528
78.528
78.528
78.528
78.528
78.528
78.528
78.528
78.528
78.528
78.528
78.528
78.528
78.528
78.528
78.528
78.528
78.528
78.528
78.528
78.528
78.528
78.528
78.528
78.528
78.528
78.528
78.528
78.528
78.528
78.528
78.528
78.528
78.528
78.528
78.528
78.528
78.528
78.528
78.528
78.528
78.528
78.528
78.528
78.528
78.528
78.528
78.528
78.528
78.528
78.528
78.528
78.528
78.528
78.528
78.528
78.528
78.528
78.528
78.528
78.528
78.528
78.528
78.528
78.528
78.528
78.528
78.528
78.528
78.528
78.528
78.528
78.528
78.528
78.528
78.528
78.528
78.528
78.528
78.528
78.528
78.528
78.528
78.528
78.528
78.528
78.528
78.528
78.528
78.528
78.528
78.528
78.528
78.528
78.528
78.528
78.528
78.528
78.528
78.528
78.528
78.528
78.528
78.528
78.528
78.528
78.528
78.528
78.528
78.528
78.528
78.528
78.528
78.528
78.528
78.528
78.528
78.528
78.528
78.528
78.528
78.528
78.528
78.528
78.528
78.528
78.528
78.528
78.528
78.528
78.528
78.528
78.528
78.528
78.528
78.528
78.528
78.528
78.528
78.528
78.528
78.528
78.528
78.528
78.528
78.528
78.528
78.528
78.528
78.528
78.528
78.528
78.528
78.528
78.528
78.528
78.528
78.528
78.528
78.528
78.528
78.528
78.528
78.528
78.528
78.528
78.528
78.528
78.528
78.528
78.528
78.528
78.528
78.528
78.528
78.528
78.528
78.528
78.528
78.528
78.528
78.528
78.528
78.528
78.528
78.528
78.528
78.528
78.528
78.528
78.528
78.528
78.528
78.528
78.528
78.528
78.528
78.528
78.528
78.528
78.528
78.528
78.528
78.528
78.528
78.528
78.528
78.528
78.528
78.528
78.528
78.528
78.528
78.528
78.528
78.528
78.528
78.528
78.528
78.528
78.528
78.528
78.528
78.528
78.528
78.528
78.528
78.528
78.528
78.528
78.528
78.528
78.528
78.528
78.528
78.528
78.528
78.528
78.528
78.528
78.528
78.528
78.528
78.528
78.528
78.528
78.528
78.528
78.528
78.528
78.528
78.528
78.528
78.528
78.528
78.528
78.528
78.528
78.528
78.528
78.528
78.528
78.528
78.528
78.528
78.528
78.528
78.528
78.528
78.528
78.528
78.528
78.528
78.528
78.528
78.528
78.528
78.528
78.528
78.528
78.528
78.528
78.528
78.528
78.528
78.528
78.528
78.528
78.528
78.528
78.528
78.528
78.528
78.528
78.528
78.528
78.528
78.528
78.528
78.528
78.528
78.528
78.528
78.528
78.528
78.528
78.528
78.528
78.528
78.528
78.528
78.528
78.528
78.528
78.528
78.528
78.528
78.528
78.528
78.528
78.528
78.528
78.528
78.528
78.528
78.528
78.528
78.528
78.528
78.528
78.528
78.528
78.528
78.528
78.528
78.528
78.528
78.528
78.528
78.528
78.528
78.528
78.528
78.528
78.528
78.528
78.528
78.528
78.528
78.528
78.528
78.528
78.528
78.528
78.528
78.528
78.528
78.528
78.528
78.528
78.528
78.528
78.528
78.528
78.528
78.528
78.528
78.528
78.528
78.528
78.528
78.528
78.528
78.528
78.528
78.528
78.528
78.528
78.528
78.528
78.528
78.528
78.528
78.528
78.528
78.528
78.528
78.528
78.528
78.528
78.528
78.528
78.528
78.528
78.528
78.528
78.528
78.528
78.528
78.528
78.528
78.528
78.528
78.528
78.528
78.528
78.528
78.528
78.528
78.528
78.528
78.528
78.528
78.528
78.528
78.528
78.528
78.528
78.528
78.528
78.528
78.528
78.528
78.528
78.528
78.528
78.528
78.528
78.528
78.528
78.528
78.528
78.528
78.528
78.528
78.528
78.528
78.528
78.528
78.528
78.528
78.528
78.528
78.528
78.528
78.528
78.528
78.528
78.528
78.528
78.528
78.528
78.528
78.528
78.528
78.528
78.528
78.528
78.528
78.528
78.528
78.528
78.528
78.528
78.528
78.528
78.528
78.528
78.528
78.528
78.528
78.528
78.528
78.528
78.528
78.528
78.528
78.528
78.528
78.528
78.528
78.528
78.528
78.528
78.528
78.528
78.528
78.528
78.528
78.528
78.528
78.528
78.528
78.528
78.528
78.528
78.528
78.528
78.528
78.528
78.528
78.528
78.528
78.528
78.528
78.528
78.528
78.528
78.528
78.528
78.528
78.528
78.528
78.528
78.528
78.528
78.528
78.528
78.528
78.528
78.528
78.528
78.528
78.528
78.528
78.528
78.528
78.528
78.528
78.528
78.528
78.528
78.528
78.528
78.528
78.528
78.528
78.528
78.528
78.528
78.528
78.528
78.528
78.528
78.528
78.528
78.528
78.528
78.528
78.528
78.528
78.528
78.528
78.528
78.528
78.528
78.528
78.528
78.528
78.528
78.528
78.528
78.528
78.528
78.528
78.528
78.528
78.528
78.528
78.528
78.528
78.528
78.528
78.528
78.528
78.528
78.528
78.528
78.528
78.528
78.528
78.528
78.528
78.528
78.528
78.528
78.528
78.528
78.528
78.528
78.528
78.528
78.528
78.528
78.528
78.528
78.528
78.528
78.528
78.528
78.528
78.528
78.528
78.528
78.528
78.528
78.528
78.528
78.528
78.528
78.528
78.528
78.528
78.528
78.528
78.528
78.528
78.528
78.528
78.528
78.528
78.528
78.528
78.528
78.528
78.528
78.528
78.528
78.528
78.528
78.528
78.528
78.528
78.528
78.528
78.528
78.528
78.528
78.528
78.528
78.528
78.528
78.528
78.528
78.528
78.528
78.528
78.528
78.528
78.528
78.528
78.528
78.528
78.528
78.528
78.528
78.528
78.528
78.528
78.528
78.528
78.528
78.528
78.528
78.528
78.528
78.528
78.528
78.528
78.528
78.528
78.528
78.528
78.528
78.528
78.528
78.528
78.528
78.528
78.528
78.528
78.528
78.528
78.528
78.528
78.528
78.528
78.528
78.528
78.528
78.528
78.528
78.528
78.528
78.528
78.528
78.528
78.528
78.528
78.528
78.528
78.528
78.528
78.528
78.528
78.528
78.528
78.528
78.528
78.528
78.528
78.528
78.528
78.528
78.528
78.528
78.528
78.528
78.528
78.528
78.528
78.528
78.528
78.528
78.528
78.528
78.528
78.528
78.528
78.528
78.528
78.528
78.528
78.528
78.528
78.528
78.528
78.528
78.528
78.528
78.528
78.528
78.528
88.228
88.155
88.082
88.009
87.936
87.863
87.790
87.717
87.644
87.571
87.498
87.425
87.352
87.279
87.206
87.133
87.060
86.987
86.914
86.841
86.768
86.695
86.622
86.549
86.476
86.403
86.330
86.257
86.184
86.111
86.038
85.965
85.892
85.819
85.746
85.673
85.600
85.527
85.454
85.381
85.308
85.235
85.162
85.089
85.016
84.943
84.870
84.797
84.724
84.651
84.578
84.505
84.432
84.359
84.286
84.213
84.140
84.067
83.994
83.921
83.848
83.775
83.702
83.629
83.556
83.483
83.410
83.337
83.264
83.191
83.118
83.045
82.972
82.899
82.826
82.753
82.680
82.607
82.534
82.461
82.388
82.315
82.242
82.169
82.096
82.023
81.950
81.877
81.804
81.731
81.658
81.585
81.512
81.439
81.366
81.293
81.220
81.147
81.074
81.001
80.928
80.855
80.782
80.709
80.636
80.563
80.490
80.417
80.344
80.271
80.198
80.125
80.052
79.979
79.906
79.833
79.760
79.687
79.614
79.541
79.468
79.395
79.322
79.249
79.176
79.103
79.030
78.957
78.884
78.811
78.738
78.665
78.592
78.519
78.446
78.373
78.300
78.227
78.154
78.081
78.008
77.935
77.862
77.789
77.716
77.643
77.570
77.497
77.424
77.351
77.278
77.205
77.132
77.059
76.986
76.913
76.840
76.767
76.694
76.621
76.548
76.475
76.402
76.329
76.256
76.183
76.110
76.037
75.964
75.891
75.818
75.745
75.672
75.599
75.526
75.453
75.380
75.307
75.234
75.161
75.088
75.015
74.942
74.869
74.796
74.723
74.650
74.577
74.504
74.431
74.358
74.285
74.212
74.139
74.066
73.993
73.920
73.847
73.774
73.701
73.628
73.628
73.628
73.628
73.628
73.628
73.628
73.628
73.628
73.628
73.628
73.628
73.628
73.628
73.628
73.628
73.628
73.628
73.628
73.628
73.628
73.628
73.628
73.628
73.628
73.628
73.628
73.628
73.628
73.628
73.628
73.628
73.628
73.628
73.628
73.628
73.628
73.628
73.628
73.628
73.628
73.628
73.628
73.628
73.628
73.628
73.628
73.628
73.628
73.628
73.628
73.628
73.628
73.628
73.628
73.628
73.628
73.628
73.628
73.628
73.628
73.628
73.628
73.628
73.628
73.628
73.628
73.628
73.628
73.628
73.628
73.628
73.628
73.628
73.628
73.628
73.628
73.628
73.628
73.628
73.628
73.628
73.628
73.628
73.628
73.628
73.628
73.628
73.628
73.628
73.628
73.628
73.628
73.628
73.628
73.628
73.628
73.628
73.628
73.628
73.628
73.628
73.628
73.628
73.628
73.628
73.628
73.628
73.628
73.628
73.628
73.628
73.628
73.628
73.628
73.628
73.628
73.628
73.628
73.628
73.628
73.628
73.628
73.628
73.628
73.628
73.628
73.628
73.628
73.628
73.628
73.628
73.628
73.628
73.628
73.628
73.628
73.628
73.628
73.628
73.628
73.628
73.628
73.628
73.628
73.628
73.628
73.628
73.628
73.628
73.628
73.628
73.628
73.628
73.628
73.628
73.628
73.628
73.628
73.628
73.628
73.628
73.628
73.628
73.628
73.628
73.628
73.628
73.628
73.628
73.628
73.628
73.628
73.628
73.628
73.628
73.628
73.628
73.628
73.628
73.628
73.628
73.628
73.628
73.628
73.628
73.628
73.628
73.628
73.628
73.628
73.628
73.628
73.628
73.628
73.628
73.628
73.628
73.628
73.628
1833.128
1837.087
1841.046
1845.005
1848.964
1852.923
1856.882
1860.841
1864.800
1868.759
1872.718
1876.677
1880.636
1884.595
1888.554
1892.513
1896.472
1900.431
1904.390
1908.349
1912.308
1916.267
1920.226
1924.185
1928.144
1932.103
1936.062
1940.021
1943.980
1947.939
1951.898
1955.857
1959.816
1963.775
1967.734
1971.693
1975.652
1979.611
1983.570
1987.529
1991.488
1995.447
1999.406
2003.365
2007.324
2011.283
2015.242
2019.201
2023.160
2027.119
2031.078
2035.037
2038.996
2042.955
2046.914
2050.873
2054.832
2058.791
2062.750
2066.709
2070.668
2074.627
2078.586
2082.545
2086.504
2090.463
2094.422
2098.381
2102.340
2106.299
2110.258
2114.217
2118.176
2122.135
2126.094
2130.053
2134.012
2137.971
2141.930
2145.889
2149.848
2153.807
2157.766
2161.725
2165.684
2169.643
2173.602
2177.561
2181.520
2185.479
2189.438
2193.397
2197.356
2201.315
2205.274
2209.233
2213.192
2217.151
2221.110
2225.069
2229.028
2232.987
2236.946
2240.905
2244.864
2248.823
2252.782
2256.741
2260.700
2264.659
2268.618
2272.577
2276.536
2280.495
2284.454
2288.413
2292.372
2296.331
2300.290
2304.249
2308.208
2312.167
2316.126
2320.085
2324.044
2328.003
2331.962
2335.921
2339.880
2343.839
2347.798
2351.757
2355.716
2359.675
2363.634
2367.593
2371.552
2375.511
2379.470
2383.429
2387.388
2391.347
2395.306
2399.265
2403.224
2407.183
2411.142
2415.101
2419.060
2423.019
2426.978
2430.937
2434.896
2438.855
2442.814
2446.773
2450.732
2454.691
2458.650
2462.609
2466.568
2470.527
2474.486
2478.445
2482.404
2486.363
2490.322
2494.281
2498.240
2502.199
2506.158
2510.117
2514.076
2518.035
2521.994
2525.953
2529.912
2533.871
2537.830
2541.789
2545.748
2549.707
2553.666
2557.625
2561.584
2565.543
2569.502
2573.461
2577.420
2581.379
2585.338
2589.297
2593.256
2597.215
2601.174
2605.133
2609.092
2613.051
2617.010
2620.969
2624.928
2625.074
2625.221
2625.367
2625.514
2625.660
2625.807
2625.953
2626.100
2626.246
2626.393
2626.539
2626.686
2626.832
2626.979
2627.125
2627.272
2627.418
2627.565
2627.711
2627.858
2628.004
2628.151
2628.297
2628.444
2628.590
2628.737
2628.883
2629.030
2629.176
2629.323
2629.469
2629.616
2629.762
2629.909
2630.055
2630.202
2630.348
2630.495
2630.641
2630.788
2630.934
2631.081
2631.227
2631.374
2631.520
2631.667
2631.813
2631.960
2632.106
2632.253
2632.399
2632.546
2632.692
2632.839
2632.985
2633.132
2633.278
2633.425
2633.571
2633.718
2633.864
2634.011
2634.157
2634.304
2634.450
2634.597
2634.743
2634.890
2635.036
2635.183
2635.329
2635.476
2635.622
2635.769
2635.915
2636.062
2636.208
2636.355
2636.501
2636.648
2636.794
2636.941
2637.087
2637.234
2637.380
2637.527
2637.673
2637.820
2637.966
2638.113
2638.259
2638.406
2638.552
2638.699
2638.845
2638.992
2639.138
2639.285
2639.431
2639.578
2639.724
2639.871
2640.017
2640.164
2640.310
2640.457
2640.603
2640.750
2640.896
2641.043
2641.189
2641.336
2641.482
2641.629
2641.775
2641.922
2642.068
2642.215
2642.361
2642.508
2642.654
2642.801
2642.947
2643.094
2643.240
2643.387
2643.533
2643.680
2643.826
2643.973
2644.119
2644.266
2644.412
2644.559
2644.705
2644.852
2644.998
2645.145
2645.291
2645.438
2645.584
2645.731
2645.877
2646.024
2646.170
2646.317
2646.463
2646.610
2646.756
2646.903
2647.049
2647.196
2647.342
2647.489
2647.635
2647.782
2647.928
2648.075
2648.221
2648.368
2648.514
2648.661
2648.807
2648.954
2649.100
2649.247
2649.393
2649.540
2649.686
2649.833
2649.979
2650.126
2650.272
2650.419
2650.565
2650.712
2650.858
2651.005
2651.151
2651.298
2651.444
2651.591
2651.737
2651.884
2652.030
2652.177
2652.323
2652.470
2652.616
2652.763
2652.909
2653.056
2653.202
2653.349
2653.495
2653.642
2653.788
2653.935
2654.081
2654.228
2651.515
2648.803
2646.090
2643.378
2640.665
2637.953
2635.240
2632.528
2629.815
2627.103
2624.390
2621.678
2618.965
2616.253
2613.540
2610.828
2608.115
2605.403
2602.690
2599.978
2597.265
2594.553
2591.840
2589.128
2586.415
2583.703
2580.990
2578.278
2575.565
2572.853
2570.140
2567.428
2564.715
2562.003
2559.290
2556.578
2553.865
2551.153
2548.440
2545.728
2543.015
2540.303
2537.590
2534.878
2532.165
2529.453
2526.740
2524.028
2521.315
2518.603
2515.890
2513.178
2510.465
2507.753
2505.040
2502.328
2499.615
2496.903
2494.190
2491.478
2488.765
2486.053
2483.340
2480.628
2477.915
2475.203
2472.490
2469.778
2467.065
2464.353
2461.640
2458.928
2456.215
2453.503
2450.790
2448.078
2445.365
2442.653
2439.940
2437.228
2434.515
2431.803
2429.090
2426.378
2423.665
2420.953
2418.240
2415.528
2412.815
2410.103
2407.390
2404.678
2401.965
2399.253
2396.540
2393.828
2391.115
2388.403
2385.690
2382.978
2380.265
2377.553
2374.840
2372.128
2369.415
2366.703
2363.990
2361.278
2358.565
2355.853
2353.140
2350.428
2347.715
2345.003
2342.290
2339.578
2336.865
2334.153
2331.440
2328.728
2326.015
2323.303
2320.590
2317.878
2315.165
2312.453
2309.740
2307.028
2304.315
2301.603
2298.890
2296.178
2293.465
2290.753
2288.040
2285.328
2282.615
2279.903
2277.190
2274.478
2271.765
2269.053
2266.340
2263.628
2260.915
2258.203
2255.490
2252.778
2250.065
2247.353
2244.640
2241.928
2239.215
2236.503
2233.790
2231.078
2228.365
2225.653
2222.940
2220.228
2217.515
2214.803
2212.090
2209.378
2206.665
2203.953
2201.240
2198.528
2195.815
2193.103
2190.390
2187.678
2184.965
2182.253
2179.540
2176.828
2174.115
2171.403
2168.690
2165.978
2163.265
2160.553
2157.840
2155.128
2152.415
2149.703
2146.990
2144.278
2141.565
2138.853
2136.140
2133.428
2130.715
2128.003
2125.290
2122.578
2119.865
2117.153
2114.440
2111.728
2112.632
2113.536
2114.440
2115.344
2116.248
2117.152
2118.056
2118.960
2119.864
2120.768
2121.672
2122.576
2123.480
2124.384
2125.288
2126.192
2127.096
2128.000
2128.904
2129.808
2130.712
2131.616
2132.520
2133.424
2134.328
2135.232
2136.136
2137.040
2137.944
2138.848
2139.752
2140.656
2141.560
2142.464
2143.368
2144.272
2145.176
2146.080
2146.984
2147.888
2148.792
2149.696
2150.600
2151.504
2152.408
2153.312
2154.216
2155.120
2156.024
2156.928
2157.832
2158.736
2159.640
2160.544
2161.448
2162.352
2163.256
2164.160
2165.064
2165.968
2166.872
2167.776
2168.680
2169.584
2170.488
2171.392
2172.296
2173.200
2174.104
2175.008
2175.912
2176.816
2177.720
2178.624
2179.528
2180.432
2181.336
2182.240
2183.144
2184.048
2184.952
2185.856
2186.760
2187.664
2188.568
2189.472
2190.376
2191.280
2192.184
2193.088
2193.992
2194.896
2195.800
2196.704
2197.608
2198.512
2199.416
2200.320
2201.224
2202.128
2203.032
2203.936
2204.840
2205.744
2206.648
2207.552
2208.456
2209.360
2210.264
2211.168
2212.072
2212.976
2213.880
2214.784
2215.688
2216.592
2217.496
2218.400
2219.304
2220.208
2221.112
2222.016
2222.920
2223.824
2224.728
2225.632
2226.536
2227.440
2228.344
2229.248
2230.152
2231.056
2231.960
2232.864
2233.768
2234.672
2235.576
2236.480
2237.384
2238.288
2239.192
2240.096
2241.000
2241.904
2242.808
2243.712
2244.616
2245.520
2246.424
2247.328
2248.232
2249.136
2250.040
2250.944
2251.848
2252.752
2253.656
2254.560
2255.464
2256.368
2257.272
2258.176
2259.080
2259.984
2260.888
2261.792
2262.696
2263.600
2264.504
2265.408
2266.312
2267.216
2268.120
2269.024
2269.928
2270.832
2271.736
2272.640
2273.544
2274.448
2275.352
2276.256
2277.160
2278.064
2278.968
2279.872
2280.776
2281.680
2282.584
2283.488
2284.392
2285.296
2286.200
2287.104
2288.008
2288.912
2289.816
2290.720
2291.624
2292.528
2291.306
2290.084
2288.862
2287.640
2286.418
2285.196
2283.974
2282.752
2281.530
2280.308
2279.086
2277.864
2276.642
2275.420
2274.198
2272.976
2271.754
2270.532
2269.310
2268.088
