74.060
74.060
74.060
74.060
74.060
74.060
74.060
74.060
74.060
74.060
74.060
74.060
74.060
74.060
74.060
74.060
74.060
74.060
74.060
74.060
74.060
74.060
74.060
74.060
74.060
74.060
74.060
74.060
74.060
74.060
74.060
74.060
74.060
74.060
74.060
74.060
74.060
74.060
74.060
74.060
74.060
74.060
74.060
74.060
74.060
74.060
74.060
74.060
74.060
74.060
74.060
74.060
74.060
74.060
74.060
74.060
74.060
74.060
74.060
74.060
74.060
74.060
74.060
74.060
74.060
74.060
74.060
74.060
74.060
74.060
74.060
74.060
74.060
74.060
74.060
74.060
74.060
74.060
74.060
74.060
74.060
74.060
74.060
74.060
74.060
74.060
74.060
74.060
74.060
74.060
74.060
74.060
74.060
74.060
74.060
74.060
74.060
74.060
74.060
74.060
74.060
74.060
74.060
74.060
74.060
74.060
74.060
74.060
74.060
74.060
74.060
74.060
74.060
74.060
74.060
74.060
74.060
74.060
74.060
74.060
74.060
74.060
74.060
74.060
74.060
74.060
74.060
74.060
74.060
74.060
74.060
74.060
74.060
74.060
74.060
74.060
74.060
74.060
74.060
74.060
74.060
74.060
74.060
74.060
74.060
74.060
74.060
74.060
74.060
74.060
74.060
74.060
74.060
74.060
74.060
74.060
74.060
74.060
74.060
74.060
74.060
74.060
74.060
74.060
74.060
74.060
74.060
74.060
74.060
74.060
74.060
74.060
74.060
74.060
74.060
74.060
74.060
74.060
74.060
74.060
74.060
74.060
74.060
74.060
74.060
74.060
74.060
74.060
74.060
74.060
74.060
74.060
74.060
74.060
74.060
74.060
74.060
74.060
74.060
74.060
74.060
74.060
74.060
74.060
74.060
74.060
74.060
74.060
74.060
74.060
74.060
74.060
74.060
74.060
74.060
74.060
74.060
74.060
74.060
74.060
74.060
74.060
74.060
74.060
74.060
74.060
74.060
74.060
74.060
74.060
74.060
74.060
74.060
74.060
333.060
338.461
343.862
349.263
354.664
360.065
365.466
370.867
376.268
381.669
387.070
392.471
397.872
403.273
408.674
414.075
419.476
424.877
430.278
435.679
441.080
446.481
451.882
457.283
462.684
468.085
473.486
478.887
484.288
489.689
495.090
500.491
505.892
511.293
516.694
522.095
527.496
532.897
538.298
543.699
549.100
554.501
559.902
565.303
570.704
576.105
581.506
586.907
592.308
597.709
603.110
608.511
613.912
619.313
624.714
630.115
635.516
640.917
646.318
651.719
657.120
662.521
667.922
673.323
678.724
684.125
689.526
694.927
700.328
705.729
711.130
716.531
721.932
727.333
732.734
738.135
743.536
748.937
754.338
759.739
765.140
770.541
775.942
781.343
786.744
792.145
797.546
802.947
808.348
813.749
819.150
824.551
829.952
835.353
840.754
846.155
851.556
856.957
862.358
867.759
873.160
878.561
883.962
889.363
894.764
900.165
905.566
910.967
916.368
921.769
927.170
932.571
937.972
943.373
948.774
954.175
959.576
964.977
970.378
975.779
981.180
986.581
991.982
997.383
1002.784
1008.185
1013.586
1018.987
1024.388
1029.789
1035.190
1040.591
1045.992
1051.393
1056.794
1062.195
1067.596
1072.997
1078.398
1083.799
1089.200
1094.601
1100.002
1105.403
1110.804
1116.205
1121.606
1127.007
1132.408
1137.809
1143.210
1148.611
1154.012
1159.413
1164.814
1170.215
1175.616
1181.017
1186.418
1191.819
1197.220
1202.621
1208.022
1213.423
1218.824
1224.225
1229.626
1235.027
1240.428
1245.829
1251.230
1256.631
1262.032
1267.433
1272.834
1278.235
1283.636
1289.037
1294.438
1299.839
1305.240
1310.641
1316.042
1321.443
1326.844
1332.245
1337.646
1343.047
1348.448
1353.849
1359.250
1364.651
1370.052
1375.453
1380.854
1386.255
1391.656
1397.057
1402.458
1407.859
1413.260
1415.362
1417.463
1419.565
1421.666
1423.768
1425.869
1427.971
1430.072
1432.174
1434.275
1436.377
1438.478
1440.580
1442.681
1444.783
1446.884
1448.986
1451.087
1453.189
1455.290
1457.392
1459.493
1461.595
1463.696
1465.798
1467.899
1470.001
1472.102
1474.204
1476.305
1478.407
1480.508
1482.610
1484.711
1486.813
1488.914
1491.016
1493.117
1495.219
1497.320
1499.422
1501.523
1503.625
1505.726
1507.828
1509.929
1512.031
1514.132
1516.234
1518.335
1520.437
1522.538
1524.640
1526.741
1528.843
1530.944
1533.046
1535.147
1537.249
1539.350
1541.452
1543.553
1545.655
1547.756
1549.858
1551.959
1554.061
1556.162
1558.264
1560.365
1562.467
1564.568
1566.670
1568.771
1570.873
1572.974
1575.076
1577.177
1579.279
1581.380
1583.482
1585.583
1587.685
1589.786
1591.888
1593.989
1596.091
1598.192
1600.294
1602.395
1604.497
1606.598
1608.700
1610.801
1612.903
1615.004
1617.106
1619.207
1621.309
1623.410
1625.512
1627.613
1629.715
1631.816
1633.918
1636.019
1638.121
1640.222
1642.324
1644.425
1646.527
1648.628
1650.730
1652.831
1654.933
1657.034
1659.136
1661.237
1663.339
1665.440
1667.542
1669.643
1671.745
1673.846
1675.948
1678.049
1680.151
1682.252
1684.354
1686.455
1688.557
1690.658
1692.760
1694.861
1696.963
1699.064
1701.166
1703.267
1705.369
1707.470
1709.572
1711.673
1713.775
1715.876
1717.978
1720.079
1722.181
1724.282
1726.384
1728.485
1730.587
1732.688
1734.790
1736.891
1738.993
1741.094
1743.196
1745.297
1747.399
1749.500
1751.602
1753.703
1755.805
1757.906
1760.008
1762.109
1764.211
1766.312
1768.414
1770.515
1772.617
1774.718
1776.820
1778.921
1781.023
1783.124
1785.226
1787.327
1789.429
1791.530
1793.632
1795.733
1797.835
1799.936
1802.038
1804.139
1806.241
1808.342
1810.444
1812.545
1814.647
1816.748
1818.850
1820.951
1823.053
1825.154
1827.256
1829.357
1831.459
1833.560
1837.519
1841.478
1845.437
1849.396
1853.355
1857.314
1861.273
1865.232
1869.191
1873.150
1877.109
1881.068
1885.027
1888.986
1892.945
1896.904
1900.863
1904.822
1908.781
1912.740
1916.699
1920.658
1924.617
1928.576
1932.535
1936.494
1940.453
1944.412
1948.371
1952.330
1956.289
1960.248
1964.207
1968.166
1972.125
1976.084
1980.043
1984.002
1987.961
1991.920
1995.879
1999.838
2003.797
2007.756
2011.715
2015.674
2019.633
2023.592
2027.551
2031.510
2035.469
2039.428
2043.387
2047.346
2051.305
2055.264
2059.223
2063.182
2067.141
2071.100
2075.059
2079.018
2082.977
2086.936
2090.895
2094.854
2098.813
2102.772
2106.731
2110.690
2114.649
2118.608
2122.567
2126.526
2130.485
2134.444
2138.403
2142.362
2146.321
2150.280
2154.239
2158.198
2162.157
2166.116
2170.075
2174.034
2177.993
2181.952
2185.911
2189.870
2193.829
2197.788
2201.747
2205.706
2209.665
2213.624
2217.583
2221.542
2225.501
2229.460
2233.419
2237.378
2241.337
2245.296
2249.255
2253.214
2257.173
2261.132
2265.091
2269.050
2273.009
2276.968
2280.927
2284.886
2288.845
2292.804
2296.763
2300.722
2304.681
2308.640
2312.599
2316.558
2320.517
2324.476
2328.435
2332.394
2336.353
2340.312
2344.271
2348.230
2352.189
2356.148
2360.107
2364.066
2368.025
2371.984
2375.943
2379.902
2383.861
2387.820
2391.779
2395.738
2399.697
2403.656
2407.615
2411.574
2415.533
2419.492
2423.451
2427.410
2431.369
2435.328
2439.287
2443.246
2447.205
2451.164
2455.123
2459.082
2463.041
2467.000
2470.959
2474.918
2478.877
2482.836
2486.795
2490.754
2494.713
2498.672
2502.631
2506.590
2510.549
2514.508
2518.467
2522.426
2526.385
2530.344
2534.303
2538.262
2542.221
2546.180
2550.139
2554.098
2558.057
2562.016
2565.975
2569.934
2573.893
2577.852
2581.811
2585.770
2589.729
2593.688
2597.647
2601.606
2605.565
2609.524
2613.483
2617.442
2621.401
2625.360
2625.507
2625.653
2625.800
2625.946
2626.093
2626.239
2626.386
2626.532
2626.679
2626.825
2626.972
2627.118
2627.265
2627.411
2627.558
2627.704
2627.851
2627.997
2628.144
2628.290
2628.437
2628.583
2628.730
2628.876
2629.023
2629.169
2629.316
2629.462
2629.609
2629.755
2629.902
2630.048
2630.195
2630.341
2630.488
2630.634
2630.781
2630.927
2631.074
2631.220
2631.367
2631.513
2631.660
2631.806
2631.953
2632.099
2632.246
2632.392
2632.539
2632.685
2632.832
2632.978
2633.125
2633.271
2633.418
2633.564
2633.711
2633.857
2634.004
2634.150
2634.297
2634.443
2634.590
2634.736
2634.883
2635.029
2635.176
2635.322
2635.469
2635.615
2635.762
2635.908
2636.055
2636.201
2636.348
2636.494
2636.641
2636.787
2636.934
2637.080
2637.227
2637.373
2637.520
2637.666
2637.813
2637.959
2638.106
2638.252
2638.399
2638.545
2638.692
2638.838
2638.985
2639.131
2639.278
2639.424
2639.571
2639.717
2639.864
2640.010
2640.157
2640.303
2640.450
2640.596
2640.743
2640.889
2641.036
2641.182
2641.329
2641.475
2641.622
2641.768
2641.915
2642.061
2642.208
2642.354
2642.501
2642.647
2642.794
2642.940
2643.087
2643.233
2643.380
2643.526
2643.673
2643.819
2643.966
2644.112
2644.259
2644.405
2644.552
2644.698
2644.845
2644.991
2645.138
2645.284
2645.431
2645.577
2645.724
2645.870
2646.017
2646.163
2646.310
2646.456
2646.603
2646.749
2646.896
2647.042
2647.189
2647.335
2647.482
2647.628
2647.775
2647.921
2648.068
2648.214
2648.361
2648.507
2648.654
2648.800
2648.947
2649.093
2649.240
2649.386
2649.533
2649.679
2649.826
2649.972
2650.119
2650.265
2650.412
2650.558
2650.705
2650.851
2650.998
2651.144
2651.291
2651.437
2651.584
2651.730
2651.877
2652.023
2652.170
2652.316
2652.463
2652.609
2652.756
2652.902
2653.049
2653.195
2653.342
2653.488
2653.635
2653.781
2653.928
2654.074
2654.221
2654.367
2654.514
2654.660
2651.948
2649.235
2646.523
2643.810
2641.098
2638.385
2635.673
2632.960
2630.248
2627.535
2624.823
2622.110
2619.398
2616.685
2613.973
2611.260
2608.548
2605.835
2603.123
2600.410
2597.698
2594.985
2592.273
2589.560
2586.848
2584.135
2581.423
2578.710
2575.998
2573.285
2570.573
2567.860
2565.148
2562.435
2559.723
2557.010
2554.298
2551.585
2548.873
2546.160
2543.448
2540.735
2538.023
2535.310
2532.598
2529.885
2527.173
2524.460
2521.748
2519.035
2516.323
2513.610
2510.898
2508.185
2505.473
2502.760
2500.048
2497.335
2494.623
2491.910
2489.198
2486.485
2483.773
2481.060
2478.348
2475.635
2472.923
2470.210
2467.498
2464.785
2462.073
2459.360
2456.648
2453.935
2451.223
2448.510
2445.798
2443.085
2440.373
2437.660
2434.948
2432.235
2429.523
2426.810
2424.098
2421.385
2418.673
2415.960
2413.248
2410.535
2407.823
2405.110
2402.398
2399.685
2396.973
2394.260
2391.548
2388.835
2386.123
2383.410
2380.698
2377.985
2375.273
2372.560
2369.848
2367.135
2364.423
2361.710
2358.998
2356.285
2353.573
2350.860
2348.148
2345.435
2342.723
2340.010
2337.298
2334.585
2331.873
2329.160
2326.448
2323.735
2321.023
2318.310
2315.598
2312.885
2310.173
2307.460
2304.748
2302.035
2299.323
2296.610
2293.898
2291.185
2288.473
2285.760
2283.048
2280.335
2277.623
2274.910
2272.198
2269.485
2266.773
2264.060
2261.348
2258.635
2255.923
2253.210
2250.498
2247.785
2245.073
2242.360
2239.648
2236.935
2234.223
2231.510
2228.798
2226.085
2223.373
2220.660
2217.948
2215.235
2212.523
2209.810
2207.098
2204.385
2201.673
2198.960
2196.248
2193.535
2190.823
2188.110
2185.398
2182.685
2179.973
2177.260
2174.548
2171.835
2169.123
2166.410
2163.698
2160.985
2158.273
2155.560
2152.848
2150.135
2147.423
2144.710
2141.998
2139.285
2136.573
2133.860
2131.148
2128.435
2125.723
2123.010
2120.298
2117.585
2114.873
2112.160
2113.064
2113.968
2114.872
2115.776
2116.680
2117.584
2118.488
2119.392
2120.296
2121.200
2122.104
2123.008
2123.912
2124.816
2125.720
2126.624
2127.528
2128.432
2129.336
2130.240
2131.144
2132.048
2132.952
2133.856
2134.760
2135.664
2136.568
2137.472
2138.376
2139.280
2140.184
2141.088
2141.992
2142.896
2143.800
2144.704
2145.608
2146.512
2147.416
2148.320
2149.224
2150.128
2151.032
2151.936
2152.840
2153.744
2154.648
2155.552
2156.456
2157.360
2158.264
2159.168
2160.072
2160.976
2161.880
2162.784
2163.688
2164.592
2165.496
2166.400
2167.304
2168.208
2169.112
2170.016
2170.920
2171.824
2172.728
2173.632
2174.536
2175.440
2176.344
2177.248
2178.152
2179.056
2179.960
2180.864
2181.768
2182.672
2183.576
2184.480
2185.384
2186.288
2187.192
2188.096
2189.000
2189.904
2190.808
2191.712
2192.616
2193.520
2194.424
2195.328
2196.232
2197.136
2198.040
2198.944
2199.848
2200.752
2201.656
2202.560
2203.464
2204.368
2205.272
2206.176
2207.080
2207.984
2208.888
2209.792
2210.696
2211.600
2212.504
2213.408
2214.312
2215.216
2216.120
2217.024
2217.928
2218.832
2219.736
2220.640
2221.544
2222.448
2223.352
2224.256
2225.160
2226.064
2226.968
2227.872
2228.776
2229.680
2230.584
2231.488
2232.392
2233.296
2234.200
2235.104
2236.008
2236.912
2237.816
2238.720
2239.624
2240.528
2241.432
2242.336
2243.240
2244.144
2245.048
2245.952
2246.856
2247.760
2248.664
2249.568
2250.472
2251.376
2252.280
2253.184
2254.088
2254.992
2255.896
2256.800
2257.704
2258.608
2259.512
2260.416
2261.320
2262.224
2263.128
2264.032
2264.936
2265.840
2266.744
2267.648
2268.552
2269.456
2270.360
2271.264
2272.168
2273.072
2273.976
2274.880
2275.784
2276.688
2277.592
2278.496
2279.400
2280.304
2281.208
2282.112
2283.016
2283.920
2284.824
2285.728
2286.632
2287.536
2288.440
2289.344
2290.248
2291.152
2292.056
2292.960
2291.738
2290.516
2289.294
2288.072
2286.850
2285.628
2284.406
2283.184
2281.962
2280.740
2279.518
2278.296
2277.074
2275.852
2274.630
2273.408
2272.186
2270.964
2269.742
2268.520
2267.298
2266.076
2264.854
2263.632
2262.410
2261.188
2259.966
2258.744
2257.522
2256.300
2255.078
2253.856
2252.634
2251.412
2250.190
2248.968
2247.746
2246.524
2245.302
2244.080
2242.858
2241.636
2240.414
2239.192
2237.970
2236.748
2235.526
2234.304
2233.082
2231.860
2230.638
2229.416
2228.194
2226.972
2225.750
2224.528
2223.306
2222.084
2220.862
2219.640
2218.418
2217.196
2215.974
2214.752
2213.530
2212.308
2211.086
2209.864
2208.642
2207.420
2206.198
2204.976
2203.754
2202.532
2201.310
2200.088
2198.866
2197.644
2196.422
2195.200
2193.978
2192.756
2191.534
2190.312
2189.090
2187.868
2186.646
2185.424
2184.202
2182.980
2181.758
2180.536
2179.314
2178.092
2176.870
2175.648
2174.426
2173.204
2171.982
2170.760
2169.538
2168.316
2167.094
2165.872
2164.650
2163.428
2162.206
2160.984
2159.762
2158.540
2157.318
2156.096
2154.874
2153.652
2152.430
2151.208
2149.986
2148.764
2147.542
2146.320
2145.098
2143.876
2142.654
2141.432
2140.210
2138.988
2137.766
2136.544
2135.322
2134.100
2132.878
2131.656
2130.434
2129.212
2127.990
2126.768
2125.546
2124.324
2123.102
2121.880
2120.658
2119.436
2118.214
2116.992
2115.770
2114.548
2113.326
2112.104
2110.882
2109.660
2108.438
2107.216
2105.994
2104.772
2103.550
2102.328
2101.106
2099.884
2098.662
2097.440
2096.218
2094.996
2093.774
2092.552
2091.330
2090.108
2088.886
2087.664
2086.442
2085.220
2083.998
2082.776
2081.554
2080.332
2079.110
2077.888
2076.666
2075.444
2074.222
2073.000
2071.778
2070.556
2069.334
2068.112
2066.890
2065.668
2064.446
2063.224
2062.002
2060.780
2059.558
2058.336
2057.114
2055.892
2054.670
2053.448
2052.226
2051.004
2049.782
2048.560
2049.245
2049.929
2050.614
2051.298
2051.983
2052.667
2053.352
2054.036
2054.721
2055.405
2056.090
2056.774
2057.459
2058.143
2058.828
2059.512
2060.197
2060.881
2061.566
2062.250
2062.935
2063.619
2064.304
2064.988
2065.673
2066.357
2067.042
2067.726
2068.411
2069.095
2069.780
2070.464
2071.149
2071.833
2072.518
2073.202
2073.887
2074.571
2075.256
2075.940
2076.625
2077.309
2077.994
2078.678
2079.363
2080.047
2080.732
2081.416
2082.101
2082.785
2083.470
2084.154
2084.839
2085.523
2086.208
2086.892
2087.577
2088.261
2088.946
2089.630
2090.315
2090.999
2091.684
2092.368
2093.053
2093.737
2094.422
2095.106
2095.791
2096.475
2097.160
2097.844
2098.529
2099.213
2099.898
2100.582
2101.267
2101.951
2102.636
2103.320
2104.005
2104.689
2105.374
2106.058
2106.743
2107.427
2108.112
2108.796
2109.481
2110.165
2110.850
2111.534
2112.219
2112.903
2113.588
2114.272
2114.957
2115.641
2116.326
2117.010
2117.695
2118.379
2119.064
2119.748
2120.433
2121.117
2121.802
2122.486
2123.171
2123.855
2124.540
2125.224
2125.909
2126.593
2127.278
2127.962
2128.647
2129.331
2130.016
2130.700
2131.385
2132.069
2132.754
2133.438
2134.123
2134.807
2135.492
2136.176
2136.861
2137.545
2138.230
2138.914
2139.599
2140.283
2140.968
2141.652
2142.337
2143.021
2143.706
2144.390
2145.075
2145.759
2146.444
2147.128
2147.813
2148.497
2149.182
2149.866
2150.551
2151.235
2151.920
2152.604
2153.289
2153.973
2154.658
2155.342
2156.027
2156.711
2157.396
2158.080
2158.765
2159.449
2160.134
2160.818
2161.503
2162.187
2162.872
2163.556
2164.241
2164.925
2165.610
2166.294
2166.979
2167.663
2168.348
2169.032
2169.717
2170.401
2171.086
2171.770
2172.455
2173.139
2173.824
2174.508
2175.193
2175.877
2176.562
2177.246
2177.931
2178.615
2179.300
2179.984
2180.669
2181.353
2182.038
2182.722
2183.407
2184.091
2184.776
2185.460
2186.731
2188.002
2189.273
2190.544
2191.815
2193.086
2194.357
2195.628
2196.899
2198.170
2199.441
2200.712
2201.983
2203.254
2204.525
2205.796
2207.067
2208.338
2209.609
2210.880
2212.151
2213.422
2214.693
2215.964
2217.235
2218.506
2219.777
2221.048
2222.319
2223.590
2224.861
2226.132
2227.403
2228.674
2229.945
2231.216
2232.487
2233.758
2235.029
2236.300
2237.571
2238.842
2240.113
2241.384
2242.655
2243.926
2245.197
2246.468
2247.739
2249.010
2250.281
2251.552
2252.823
2254.094
2255.365
2256.636
2257.907
2259.178
2260.449
2261.720
2262.991
2264.262
2265.533
2266.804
2268.075
2269.346
2270.617
2271.888
2273.159
2274.430
2275.701
2276.972
2278.243
2279.514
2280.785
2282.056
2283.327
2284.598
2285.869
2287.140
2288.411
2289.682
2290.953
2292.224
2293.495
2294.766
2296.037
2297.308
2298.579
2299.850
2301.121
2302.392
2303.663
2304.934
2306.205
2307.476
2308.747
2310.018
2311.289
2312.560
2313.831
2315.102
2316.373
2317.644
2318.915
2320.186
2321.457
2322.728
2323.999
2325.270
2326.541
2327.812
2329.083
2330.354
2331.625
2332.896
2334.167
2335.438
2336.709
2337.980
2339.251
2340.522
2341.793
2343.064
2344.335
2345.606
2346.877
2348.148
2349.419
2350.690
2351.961
2353.232
2354.503
2355.774
2357.045
2358.316
2359.587
2360.858
2362.129
2363.400
2364.671
2365.942
2367.213
2368.484
2369.755
2371.026
2372.297
2373.568
2374.839
2376.110
2377.381
2378.652
2379.923
2381.194
2382.465
2383.736
2385.007
2386.278
2387.549
2388.820
2390.091
2391.362
2392.633
2393.904
2395.175
