85.340
85.340
85.340
85.340
85.340
85.340
85.340
85.340
85.340
85.340
85.340
85.340
85.340
85.340
85.340
85.340
85.340
85.340
85.340
85.340
85.340
85.340
85.315
85.291
85.266
85.242
85.217
85.193
85.168
85.144
85.119
85.095
85.070
85.046
85.021
84.997
84.972
84.948
84.923
84.899
84.874
84.850
84.825
84.801
84.776
84.752
84.727
84.703
84.678
84.654
84.629
84.605
84.580
84.556
84.531
84.507
84.482
84.458
84.433
84.409
84.384
84.360
84.335
84.311
84.286
84.262
84.237
84.213
84.188
84.164
84.139
84.115
84.090
84.066
84.041
84.017
83.992
83.968
83.943
83.919
83.894
83.870
83.845
83.821
83.796
83.772
83.747
83.723
83.698
83.674
83.649
83.625
83.600
83.576
83.551
83.527
83.502
83.478
83.453
83.429
83.404
83.380
83.355
83.331
83.306
83.282
83.257
83.233
83.208
83.184
83.159
83.135
83.110
83.086
83.061
83.037
83.012
82.988
82.963
82.939
82.914
82.890
82.865
82.841
82.816
82.792
82.767
82.743
82.718
82.694
82.669
82.645
82.620
82.596
82.571
82.547
82.522
82.498
82.473
82.449
82.424
82.400
82.375
82.351
82.326
82.302
82.277
82.253
82.228
82.204
82.179
82.155
82.130
82.106
82.081
82.057
82.032
82.008
81.983
81.959
81.934
81.910
81.885
81.861
81.836
81.812
81.787
81.763
81.738
81.714
81.689
81.665
81.640
81.616
81.591
81.567
81.542
81.518
81.493
81.469
81.444
81.420
81.395
81.371
81.346
81.322
81.297
81.273
81.248
81.224
81.199
81.175
81.150
81.126
81.101
81.077
81.052
81.028
81.003
80.979
80.954
80.930
80.905
80.881
80.856
80.832
80.807
80.783
80.758
80.734
80.709
80.685
80.660
80.636
80.611
80.587
80.562
80.538
80.513
80.489
80.464
80.440
80.513
80.586
80.659
80.732
80.805
80.878
80.951
81.024
81.097
81.170
81.243
81.316
81.389
81.462
81.535
81.608
81.681
81.754
81.827
81.900
81.973
82.046
82.119
82.192
82.265
82.338
82.411
82.484
82.557
82.630
82.703
82.776
82.849
82.922
82.995
83.068
83.141
83.214
83.287
83.360
83.433
83.506
83.579
83.652
83.725
83.798
83.871
83.944
84.017
84.090
84.163
84.236
84.309
84.382
84.455
84.528
84.601
84.674
84.747
84.820
84.893
84.966
85.039
85.112
85.185
85.258
85.331
85.404
85.477
85.550
85.623
85.696
85.769
85.842
85.915
85.988
86.061
86.134
86.207
86.280
86.353
86.426
86.499
86.572
86.645
86.718
86.791
86.864
86.937
87.010
87.083
87.156
87.229
87.302
87.375
87.448
87.521
87.594
87.667
87.740
87.813
87.886
87.959
88.032
88.105
88.178
88.251
88.324
88.397
88.470
88.543
88.616
88.689
88.762
88.835
88.908
88.981
89.054
89.127
89.200
89.273
89.346
89.419
89.492
89.565
89.638
89.711
89.784
89.857
89.930
90.003
90.076
90.149
90.222
90.295
90.368
90.441
90.514
90.587
90.660
90.733
90.806
90.879
90.952
91.025
91.098
91.171
91.244
91.317
91.390
91.463
91.536
91.609
91.682
91.755
91.828
91.901
91.974
92.047
92.120
92.193
92.266
92.339
92.412
92.485
92.558
92.631
92.704
92.777
92.850
92.923
92.996
93.069
93.142
93.215
93.288
93.361
93.434
93.507
93.580
93.653
93.726
93.799
93.872
93.945
94.018
94.091
94.164
94.237
94.310
94.383
94.456
94.529
94.602
94.675
94.748
94.821
94.894
94.967
95.040
94.991
94.943
94.894
94.846
94.797
94.749
94.700
94.652
94.603
94.555
94.506
94.458
94.409
94.361
94.312
94.264
94.215
94.167
94.118
94.070
94.021
93.973
93.924
93.876
93.827
93.779
93.730
93.682
93.633
93.585
93.536
93.488
93.439
93.391
93.342
93.294
93.245
93.197
93.148
93.100
93.051
93.003
92.954
92.906
92.857
92.809
92.760
92.712
92.663
92.615
92.566
92.518
92.469
92.421
92.372
92.324
92.275
92.227
92.178
92.130
92.081
92.033
91.984
91.936
91.887
91.839
91.790
91.742
91.693
91.645
91.596
91.548
91.499
91.451
91.402
91.354
91.305
91.257
91.208
91.160
91.111
91.063
91.014
90.966
90.917
90.869
90.820
90.772
90.723
90.675
90.626
90.578
90.529
90.481
90.432
90.384
90.335
90.287
90.238
90.190
90.141
90.093
90.044
89.996
89.947
89.899
89.850
89.802
89.753
89.705
89.656
89.608
89.559
89.511
89.462
89.414
89.365
89.317
89.268
89.220
89.171
89.123
89.074
89.026
88.977
88.929
88.880
88.832
88.783
88.735
88.686
88.638
88.589
88.541
88.492
88.444
88.395
88.347
88.298
88.250
88.201
88.153
88.104
88.056
88.007
87.959
87.910
87.862
87.813
87.765
87.716
87.668
87.619
87.571
87.522
87.474
87.425
87.377
87.328
87.280
87.231
87.183
87.134
87.086
87.037
86.989
86.940
86.892
86.843
86.795
86.746
86.698
86.649
86.601
86.552
86.504
86.455
86.407
86.358
86.310
86.261
86.213
86.164
86.116
86.067
86.019
85.970
85.922
85.873
85.825
85.776
85.728
85.679
85.631
85.582
85.534
85.485
85.437
85.388
85.340
85.340
85.340
85.340
85.340
85.340
85.340
85.340
85.340
85.340
85.340
85.340
85.340
85.340
85.340
85.340
85.340
85.340
85.340
85.340
85.340
85.340
85.340
85.340
85.340
85.340
85.340
85.340
85.340
85.340
85.340
85.340
85.340
85.340
85.340
85.340
85.340
85.340
85.340
85.340
85.340
85.340
85.340
85.340
85.340
85.340
85.340
85.340
85.340
85.340
85.340
85.340
85.340
85.340
85.340
85.340
85.340
85.340
85.340
85.340
85.340
85.340
85.340
85.340
85.340
85.340
85.340
85.340
85.340
85.340
85.340
85.340
85.340
85.340
85.340
85.340
85.340
85.340
85.340
85.340
85.340
85.340
85.340
85.340
85.340
85.340
85.340
85.340
85.340
85.340
85.340
85.340
85.340
85.340
85.340
85.340
85.340
85.340
85.340
85.340
85.340
85.340
85.340
85.340
85.340
85.340
85.340
85.340
85.340
85.340
85.340
85.340
85.340
85.340
85.340
85.340
85.340
85.340
85.340
85.340
85.340
85.340
85.340
85.340
85.340
85.340
85.340
85.340
85.340
85.340
85.340
85.340
85.340
85.340
85.340
85.340
85.340
85.340
85.340
85.340
85.340
85.340
85.340
85.340
85.340
85.340
85.340
85.340
85.340
85.340
85.340
85.340
85.340
85.340
85.340
85.340
85.340
85.340
85.340
85.340
85.340
85.340
85.340
85.340
85.340
85.340
85.340
85.340
85.340
85.340
85.340
85.340
85.340
85.340
85.340
85.340
85.340
85.340
85.340
85.340
85.340
85.340
85.340
85.340
85.340
85.340
85.340
85.340
85.340
85.340
85.340
85.340
85.340
85.340
85.340
85.340
85.340
85.340
85.340
85.340
85.340
85.340
85.340
85.340
85.340
85.340
85.340
85.340
85.340
85.340
85.340
85.340
85.340
85.340
85.340
85.340
85.340
85.340
85.340
85.340
85.340
85.340
85.340
85.340
85.340
85.340
85.340
85.340
85.340
85.340
85.340
85.340
85.340
85.340
85.340
85.340
85.340
85.340
85.340
85.340
85.340
85.340
85.340
85.340
85.340
85.340
85.340
85.340
85.340
85.340
85.340
85.340
85.340
85.340
85.340
85.340
85.340
85.340
85.340
85.340
85.340
85.340
85.340
85.340
85.340
85.340
85.340
85.340
85.340
85.340
85.340
85.340
85.340
85.340
85.340
85.340
85.340
85.340
85.340
85.340
85.340
85.340
85.340
85.340
85.340
85.340
85.340
85.340
85.340
85.340
85.340
85.340
85.340
85.340
85.340
85.340
85.340
85.340
85.340
85.340
85.340
85.340
85.340
85.340
85.340
85.340
85.340
85.340
85.340
85.340
85.340
85.340
85.340
85.340
85.340
85.340
85.340
85.340
85.340
85.340
85.340
85.340
85.340
85.340
85.340
85.340
85.340
85.340
85.340
85.340
85.340
85.340
85.340
85.340
85.340
85.340
85.340
85.340
85.340
85.340
85.340
85.340
85.340
85.340
85.340
85.340
85.340
85.340
85.340
85.340
85.340
85.340
85.340
85.340
85.340
85.340
85.340
85.340
85.340
85.340
85.340
85.340
85.340
85.340
85.340
85.340
85.340
85.340
85.340
85.340
85.340
85.340
85.340
85.340
85.340
85.340
85.340
85.340
85.340
85.340
85.340
85.340
85.340
85.340
85.340
85.340
85.340
85.340
85.340
85.340
85.340
85.340
85.340
85.340
85.340
85.340
85.340
85.340
85.340
85.340
1326.740
1329.159
1331.579
1333.998
1336.418
1338.837
1341.257
1343.676
1346.096
1348.515
1350.935
1353.354
1355.774
1358.193
1360.613
1363.032
1365.452
1367.871
1370.291
1372.710
1375.130
1377.549
1379.969
1382.388
1384.808
1387.227
1389.647
1392.066
1394.486
1396.905
1399.325
1401.744
1404.164
1406.583
1409.003
1411.422
1413.842
1416.261
1418.681
1421.100
1423.520
1425.939
1428.359
1430.778
1433.198
1435.617
1438.037
1440.456
1442.876
1445.295
1447.715
1450.134
1452.554
1454.973
1457.393
1459.812
1462.232
1464.651
1467.071
1469.490
1471.910
1474.329
1476.749
1479.168
1481.588
1484.007
1486.427
1488.846
1491.266
1493.685
1496.105
1498.524
1500.944
1503.363
1505.783
1508.202
1510.622
1513.041
1515.461
1517.880
1520.300
1522.719
1525.139
1527.558
1529.978
1532.397
1534.817
1537.236
1539.656
1542.075
1544.495
1546.914
1549.334
1551.753
1554.173
1556.592
1559.012
1561.431
1563.851
1566.270
1568.690
1571.109
1573.529
1575.948
1578.368
1580.787
1583.207
1585.626
1588.046
1590.465
1592.885
1595.304
1597.724
1600.143
1602.563
1604.982
1607.402
1609.821
1612.241
1614.660
1617.080
1619.499
1621.919
1624.338
1626.758
1629.177
1631.597
1634.016
1636.436
1638.855
1641.275
1643.694
1646.114
1648.533
1650.953
1653.372
1655.792
1658.211
1660.631
1663.050
1665.470
1667.889
1670.309
1672.728
1675.148
1677.567
1679.987
1682.406
1684.826
1687.245
1689.665
1692.084
1694.504
1696.923
1699.343
1701.762
1704.182
1706.601
1709.021
1711.440
1713.860
1716.279
1718.699
1721.118
1723.538
1725.957
1728.377
1730.796
1733.216
1735.635
1738.055
1740.474
1742.894
1745.313
1747.733
1750.152
1752.572
1754.991
1757.411
1759.830
1762.250
1764.669
1767.089
1769.508
1771.928
1774.347
1776.767
1779.186
1781.606
1784.025
1786.445
1788.864
1791.284
1793.703
1796.123
1798.542
1800.962
1803.381
1805.801
1808.220
1810.640
1811.446
1812.253
1813.059
1813.866
1814.672
1815.479
1816.285
1817.092
1817.898
1818.705
1819.511
1820.318
1821.124
1821.931
1822.737
1823.544
1824.350
1825.157
1825.963
1826.770
1827.576
1828.383
1829.189
1829.996
1830.802
1831.609
1832.415
1833.222
1834.028
1834.835
1835.641
1836.448
1837.254
1838.061
1838.867
1839.674
1840.480
1841.287
1842.093
1842.900
1843.706
1844.513
1845.319
1846.126
1846.932
1847.739
1848.545
1849.352
1850.158
1850.965
1851.771
1852.578
1853.384
1854.191
1854.997
1855.804
1856.610
1857.417
1858.223
1859.030
1859.836
1860.643
1861.449
1862.256
1863.062
1863.869
1864.675
1865.482
1866.288
1867.095
1867.901
1868.708
1869.514
1870.321
1871.127
1871.934
1872.740
1873.547
1874.353
1875.160
1875.966
1876.773
1877.579
1878.386
1879.192
1879.999
1880.805
1881.612
1882.418
1883.225
1884.031
1884.838
1885.644
1886.451
1887.257
1888.064
1888.870
1889.677
1890.483
1891.290
1892.096
1892.903
1893.709
1894.516
1895.322
1896.129
1896.935
1897.742
1898.548
1899.355
1900.161
1900.968
1901.774
1902.581
1903.387
1904.194
1905.000
1905.807
1906.613
1907.420
1908.226
1909.033
1909.839
1910.646
1911.452
1912.259
1913.065
1913.872
1914.678
1915.485
1916.291
1917.098
1917.904
1918.711
1919.517
1920.324
1921.130
1921.937
1922.743
1923.550
1924.356
1925.163
1925.969
1926.776
1927.582
1928.389
1929.195
1930.002
1930.808
1931.615
1932.421
1933.228
1934.034
1934.841
1935.647
1936.454
1937.260
1938.067
1938.873
1939.680
1940.486
1941.293
1942.099
1942.906
1943.712
1944.519
1945.325
1946.132
1946.938
1947.745
1948.551
1949.358
1950.164
1950.971
1951.777
1952.584
1953.390
1954.197
1955.003
1955.810
1956.616
1957.423
1958.229
1959.036
1959.842
1960.649
1961.455
1962.262
1963.068
1963.875
1964.681
1965.488
1966.294
1967.101
1967.907
1968.714
1969.520
1970.327
1971.133
1971.940
1973.015
1974.090
1975.165
1976.240
1977.315
1978.390
1979.465
1980.540
1981.615
1982.690
1983.765
1984.840
1985.915
1986.990
1988.065
1989.140
1990.215
1991.290
1992.365
1993.440
1994.515
1995.590
1996.665
1997.740
1998.815
1999.890
2000.965
2002.040
2003.115
2004.190
2005.265
2006.340
2007.415
2008.490
2009.565
2010.640
2011.715
2012.790
2013.865
2014.940
2016.015
2017.090
2018.165
2019.240
2020.315
2021.390
2022.465
2023.540
2024.615
2025.690
2026.765
2027.840
2028.915
2029.990
2031.065
2032.140
2033.215
2034.290
2035.365
2036.440
2037.515
2038.590
2039.665
2040.740
2041.815
2042.890
2043.965
2045.040
2046.115
2047.190
2048.265
2049.340
2050.415
2051.490
2052.565
2053.640
2054.715
2055.790
2056.865
2057.940
2059.015
2060.090
2061.165
2062.240
2063.315
2064.390
2065.465
2066.540
2067.615
2068.690
2069.765
2070.840
2071.915
2072.990
2074.065
2075.140
2076.215
2077.290
2078.365
2079.440
2080.515
2081.590
2082.665
2083.740
2084.815
2085.890
2086.965
2088.040
2089.115
2090.190
2091.265
2092.340
2093.415
2094.490
2095.565
2096.640
2097.715
2098.790
2099.865
2100.940
2102.015
2103.090
2104.165
2105.240
2106.315
2107.390
2108.465
2109.540
2110.615
2111.690
2112.765
2113.840
2114.915
2115.990
2117.065
2118.140
2119.215
2120.290
2121.365
2122.440
2123.515
2124.590
2125.665
2126.740
2127.815
2128.890
2129.965
2131.040
2132.115
2133.190
2134.265
2135.340
2136.415
2137.490
2138.565
2139.640
2140.715
2141.790
2142.865
2143.940
2145.015
2146.090
2147.165
2148.240
2149.315
2150.390
2151.465
2152.540
2153.615
2154.690
2155.765
2156.840
2157.915
2158.990
2160.065
2161.140
2162.215
2163.290
2164.365
2165.440
2166.515
2167.590
2168.665
2169.740
2170.815
2171.890
2172.965
2174.040
2175.115
2176.190
2177.265
2178.340
2179.415
2180.490
2181.565
2182.640
2183.715
2184.790
2185.865
2186.940
2186.549
2186.158
2185.767
2185.376
2184.985
2184.594
2184.203
2183.812
2183.421
2183.030
2182.639
2182.248
2181.857
2181.466
2181.075
2180.684
2180.293
2179.902
2179.511
2179.120
2178.729
2178.338
2177.947
2177.556
2177.165
2176.774
2176.383
2175.992
2175.601
2175.210
2174.819
2174.428
2174.037
2173.646
2173.255
2172.864
2172.473
2172.082
2171.691
2171.300
2170.909
2170.518
2170.127
2169.736
2169.345
2168.954
2168.563
2168.172
2167.781
2167.390
2166.999
2166.608
2166.217
2165.826
2165.435
2165.044
2164.653
2164.262
2163.871
2163.480
2163.089
2162.698
2162.307
2161.916
2161.525
2161.134
2160.743
2160.352
2159.961
2159.570
2159.179
2158.788
2158.397
2158.006
2157.615
2157.224
2156.833
2156.442
2156.051
2155.660
2155.269
2154.878
2154.487
2154.096
2153.705
2153.314
2152.923
2152.532
2152.141
2151.750
2151.359
2150.968
2150.577
2150.186
2149.795
2149.404
2149.013
2148.622
2148.231
2147.840
2147.449
2147.058
2146.667
2146.276
2145.885
2145.494
2145.103
2144.712
2144.321
2143.930
2143.539
2143.148
2142.757
2142.366
2141.975
2141.584
2141.193
2140.802
2140.411
2140.020
2139.629
2139.238
2138.847
2138.456
2138.065
2137.674
2137.283
2136.892
2136.501
2136.110
2135.719
2135.328
2134.937
2134.546
2134.155
2133.764
2133.373
2132.982
2132.591
2132.200
2131.809
2131.418
2131.027
2130.636
2130.245
2129.854
2129.463
2129.072
2128.681
2128.290
2127.899
2127.508
2127.117
2126.726
2126.335
2125.944
2125.553
2125.162
2124.771
2124.380
2123.989
2123.598
2123.207
2122.816
2122.425
2122.034
2121.643
2121.252
2120.861
2120.470
2120.079
2119.688
2119.297
2118.906
2118.515
2118.124
2117.733
2117.342
2116.951
2116.560
2116.169
2115.778
2115.387
2114.996
2114.605
2114.214
2113.823
2113.432
2113.041
2112.650
2112.259
2111.868
2111.477
2111.086
2110.695
2110.304
2109.913
2109.522
2109.131
2108.740
2108.007
2107.274
2106.541
2105.808
2105.075
2104.342
2103.609
2102.876
2102.143
2101.410
2100.677
2099.944
2099.211
2098.478
2097.745
2097.012
2096.279
2095.546
2094.813
2094.080
2093.347
2092.614
2091.881
2091.148
2090.415
2089.682
2088.949
2088.216
2087.483
2086.750
2086.017
2085.284
2084.551
2083.818
2083.085
2082.352
2081.619
2080.886
2080.153
2079.420
2078.687
2077.954
2077.221
2076.488
2075.755
2075.022
2074.289
2073.556
2072.823
2072.090
2071.357
2070.624
2069.891
2069.158
2068.425
2067.692
2066.959
2066.226
2065.493
2064.760
2064.027
2063.294
2062.561
2061.828
2061.095
2060.362
2059.629
2058.896
2058.163
2057.430
2056.697
2055.964
2055.231
2054.498
2053.765
2053.032
2052.299
2051.566
2050.833
2050.100
2049.367
2048.634
2047.901
2047.168
2046.435
2045.702
2044.969
2044.236
2043.503
2042.770
2042.037
2041.304
2040.571
2039.838
2039.105
2038.372
2037.639
2036.906
2036.173
2035.440
2034.707
2033.974
2033.241
2032.508
2031.775
2031.042
2030.309
2029.576
2028.843
2028.110
2027.377
2026.644
2025.911
2025.178
2024.445
2023.712
2022.979
2022.246
2021.513
2020.780
2020.047
2019.314
2018.581
2017.848
2017.115
2016.382
2015.649
2014.916
2014.183
2013.450
2012.717
2011.984
2011.251
2010.518
2009.785
2009.052
2008.319
2007.586
2006.853
2006.120
2005.387
2004.654
2003.921
2003.188
2002.455
2001.722
2000.989
2000.256
1999.523
1998.790
1998.057
1997.324
1996.591
1995.858
1995.125
1994.392
1993.659
1992.926
1992.193
1991.460
1990.727
1989.994
1989.261
1988.528
1987.795
1987.062
1986.329
1985.596
1984.863
1984.130
1983.397
1982.664
1981.931
1981.198
1980.465
1979.732
1978.999
1978.266
