95.113
95.186
95.259
95.332
95.405
95.478
95.551
95.624
95.697
95.770
95.843
95.916
95.989
96.062
96.135
96.208
96.281
96.354
96.427
96.500
96.573
96.646
96.719
96.792
96.865
96.938
97.011
97.084
97.157
97.230
97.303
97.376
97.449
97.522
97.595
97.668
97.741
97.814
97.887
97.960
98.033
98.106
98.179
98.252
98.325
98.398
98.471
98.544
98.617
98.690
98.763
98.836
98.909
98.982
99.055
99.128
99.201
99.274
99.347
99.420
99.493
99.566
99.639
99.712
99.785
99.858
99.931
100.004
100.077
100.150
100.223
100.296
100.369
100.442
100.515
100.588
100.661
100.734
100.807
100.880
100.953
101.026
101.099
101.172
101.245
101.318
101.391
101.464
101.537
101.610
101.683
101.756
101.829
101.902
101.975
102.048
102.121
102.194
102.267
102.340
102.413
102.486
102.559
102.632
102.705
102.778
102.851
102.924
102.997
103.070
103.143
103.216
103.289
103.362
103.435
103.508
103.581
103.654
103.727
103.800
103.873
103.946
104.019
104.092
104.165
104.238
104.311
104.384
104.457
104.530
104.603
104.676
104.749
104.822
104.895
104.968
105.041
105.114
105.187
105.260
105.333
105.406
105.479
105.552
105.625
105.698
105.771
105.844
105.917
105.990
106.063
106.136
106.209
106.282
106.355
106.428
106.501
106.574
106.647
106.720
106.793
106.866
106.939
107.012
107.085
107.158
107.231
107.304
107.255
107.207
107.158
107.110
107.061
107.013
106.964
106.916
106.867
106.819
106.770
106.722
106.673
106.625
106.576
106.528
106.479
106.431
106.382
106.334
106.285
106.237
106.188
106.140
106.091
106.043
105.994
105.946
105.897
105.849
105.800
105.752
105.703
105.655
105.606
105.558
105.509
105.461
105.412
105.364
105.315
105.267
105.218
105.170
105.121
105.073
105.024
104.976
104.927
104.879
104.830
104.782
104.733
104.685
104.636
104.588
104.539
104.491
104.442
104.394
104.345
104.297
104.248
104.200
104.151
104.103
104.054
104.006
103.957
103.909
103.860
103.812
103.763
103.715
103.666
103.618
103.569
103.521
103.472
103.424
103.375
103.327
103.278
103.230
103.181
103.133
103.084
103.036
102.987
102.939
102.890
102.842
102.793
102.745
102.696
102.648
102.599
102.551
102.502
102.454
102.405
102.357
102.308
102.260
102.211
102.163
102.114
102.066
102.017
101.969
101.920
101.872
101.823
101.775
101.726
101.678
101.629
101.581
101.532
101.484
101.435
101.387
101.338
101.290
101.241
101.193
101.144
101.096
101.047
100.999
100.950
100.902
100.853
100.805
100.756
100.708
100.659
100.611
100.562
100.514
100.465
100.417
100.368
100.320
100.271
100.223
100.174
100.126
100.077
100.029
99.980
99.932
99.883
99.835
99.786
99.738
99.689
99.641
99.592
99.544
99.495
99.447
99.398
99.350
99.301
99.253
99.204
99.156
99.107
99.059
99.010
98.962
98.913
98.865
98.816
98.768
98.719
98.671
98.622
98.574
98.525
98.477
98.428
98.380
98.331
98.283
98.234
98.186
98.137
98.089
98.040
97.992
97.943
97.895
97.846
97.798
97.749
97.701
97.652
97.604
97.604
97.604
97.604
97.604
97.604
97.604
97.604
97.604
97.604
97.604
97.604
97.604
97.604
97.604
97.604
97.604
97.604
97.604
97.604
97.604
97.604
97.604
97.604
97.604
97.604
97.604
97.604
97.604
97.604
97.604
97.604
97.604
97.604
97.604
97.604
97.604
97.604
97.604
97.604
97.604
97.604
97.604
97.604
97.604
97.604
97.604
97.604
97.604
97.604
97.604
97.604
97.604
97.604
97.604
97.604
97.604
97.604
97.604
97.604
97.604
97.604
97.604
97.604
97.604
97.604
97.604
97.604
97.604
97.604
97.604
97.604
97.604
97.604
97.604
97.604
97.604
97.604
97.604
97.604
97.604
97.604
97.604
97.604
97.604
97.604
97.604
97.604
97.604
97.604
97.604
97.604
97.604
97.604
97.604
97.604
97.604
97.604
97.604
97.604
97.604
97.604
97.604
97.604
97.604
97.604
97.604
97.604
97.604
97.604
97.604
97.604
97.604
97.604
97.604
97.604
97.604
97.604
97.604
97.604
97.604
97.604
97.604
97.604
97.604
97.604
97.604
97.604
97.604
97.604
97.604
97.604
97.604
97.604
97.604
97.604
97.604
97.604
97.604
97.604
97.604
97.604
97.604
97.604
97.604
97.604
97.604
97.604
97.604
97.604
97.604
97.604
97.604
97.604
97.604
97.604
97.604
97.604
97.604
97.604
97.604
97.604
97.604
97.604
97.604
97.604
97.604
97.604
97.604
97.604
97.604
97.604
97.604
97.604
97.604
97.604
97.604
97.604
97.604
97.604
97.604
97.604
97.604
97.604
97.604
97.604
97.604
97.604
97.604
97.604
97.604
97.604
97.604
97.604
97.604
97.604
97.604
97.604
97.604
97.604
97.604
97.604
97.604
97.604
97.604
97.604
97.604
97.604
97.604
97.604
97.604
97.604
97.604
97.604
97.604
97.604
97.604
97.604
97.604
97.604
97.604
97.604
97.604
97.604
97.604
97.604
97.604
97.604
97.604
97.604
97.604
97.604
97.604
97.604
97.604
97.604
97.604
97.604
97.604
97.604
97.604
97.604
97.604
97.604
97.604
97.604
97.604
97.604
97.604
97.604
97.604
97.604
97.604
97.604
97.604
97.604
97.604
97.604
97.604
97.604
97.604
97.604
97.604
97.604
97.604
97.604
97.604
97.604
97.604
97.604
97.604
97.604
97.604
97.604
97.604
97.604
97.604
97.604
97.604
97.604
97.604
97.604
97.604
97.604
97.604
97.604
97.604
97.604
97.604
97.604
97.604
97.604
97.604
97.604
97.604
97.604
97.604
97.604
97.604
97.604
97.604
97.604
97.604
97.604
97.604
97.604
97.604
97.604
97.604
97.604
97.604
97.604
97.604
97.604
97.604
97.604
97.604
97.604
97.604
97.604
97.604
97.604
97.604
97.604
97.604
97.604
97.604
97.604
97.604
97.604
97.604
97.604
97.604
97.604
97.604
97.604
97.604
97.604
97.604
97.604
97.604
97.604
97.604
97.604
97.604
97.604
97.604
97.604
97.604
97.604
97.604
97.604
97.604
97.604
97.604
97.604
97.604
97.604
97.604
97.604
97.604
97.604
97.604
97.604
97.604
97.604
97.604
97.604
97.604
97.604
97.604
97.604
97.604
97.604
97.604
97.604
97.604
97.604
97.604
97.604
97.604
97.604
97.604
97.604
97.604
97.604
97.604
97.604
97.604
97.604
97.604
97.604
97.604
97.604
97.604
97.604
97.604
97.604
97.604
97.604
2854.204
2853.373
2852.542
2851.711
2850.880
2850.049
2849.218
2848.387
2847.556
2846.725
2845.894
2845.063
2844.232
2843.401
2842.570
2841.739
2840.908
2840.077
2839.246
2838.415
2837.584
2836.753
2835.922
2835.091
2834.260
2833.429
2832.598
2831.767
2830.936
2830.105
2829.274
2828.443
2827.612
2826.781
2825.950
2825.119
2824.288
2823.457
2822.626
2821.795
2820.964
2820.133
2819.302
2818.471
2817.640
2816.809
2815.978
2815.147
2814.316
2813.485
2812.654
2811.823
2810.992
2810.161
2809.330
2808.499
2807.668
2806.837
2806.006
2805.175
2804.344
2803.513
2802.682
2801.851
2801.020
2800.189
2799.358
2798.527
2797.696
2796.865
2796.034
2795.203
2794.372
2793.541
2792.710
2791.879
2791.048
2790.217
2789.386
2788.555
2787.724
2786.893
2786.062
2785.231
2784.400
2783.569
2782.738
2781.907
2781.076
2780.245
2779.414
2778.583
2777.752
2776.921
2776.090
2775.259
2774.428
2773.597
2772.766
2771.935
2771.104
2770.273
2769.442
2768.611
2767.780
2766.949
2766.118
2765.287
2764.456
2763.625
2762.794
2761.963
2761.132
2760.301
2759.470
2758.639
2757.808
2756.977
2756.146
2755.315
2754.484
2753.653
2752.822
2751.991
2751.160
2750.329
2749.498
2748.667
2747.836
2747.005
2746.174
2745.343
2744.512
2743.681
2742.850
2742.019
2741.188
2740.357
2739.526
2738.695
2737.864
2737.033
2736.202
2735.371
2734.540
2733.709
2732.878
2732.047
2731.216
2730.385
2729.554
2728.723
2727.892
2727.061
2726.230
2725.399
2724.568
2723.737
2722.906
2722.075
2721.244
2720.413
2719.582
2718.751
2717.920
2717.089
2716.258
2715.427
2714.596
2713.765
2712.934
2712.103
2711.272
2710.441
2709.610
2708.779
2707.948
2707.117
2706.286
2705.455
2704.624
2703.793
2702.962
2702.131
2701.300
2700.469
2699.638
2698.807
2697.976
2697.145
2696.314
2695.483
2694.652
2693.821
2692.990
2692.159
2691.328
2690.497
2689.666
2688.835
2688.004
2682.261
2676.518
2670.775
2665.032
2659.289
2653.546
2647.803
2642.060
2636.317
2630.574
2624.831
2619.088
2613.345
2607.602
2601.859
2596.116
2590.373
2584.630
2578.887
2573.144
2567.401
2561.658
2555.915
2550.172
2544.429
2538.686
2532.943
2527.200
2521.457
2515.714
2509.971
2504.228
2498.485
2492.742
2486.999
2481.256
2475.513
2469.770
2464.027
2458.284
2452.541
2446.798
2441.055
2435.312
2429.569
2423.826
2418.083
2412.340
2406.597
2400.854
2395.111
2389.368
2383.625
2377.882
2372.139
2366.396
2360.653
2354.910
2349.167
2343.424
2337.681
2331.938
2326.195
2320.452
2314.709
2308.966
2303.223
2297.480
2291.737
2285.994
2280.251
2274.508
2268.765
2263.022
2257.279
2251.536
2245.793
2240.050
2234.307
2228.564
2222.821
2217.078
2211.335
2205.592
2199.849
2194.106
2188.363
2182.620
2176.877
2171.134
2165.391
2159.648
2153.905
2148.162
2142.419
2136.676
2130.933
2125.190
2119.447
2113.704
2107.961
2102.218
2096.475
2090.732
2084.989
2079.246
2073.503
2067.760
2062.017
2056.274
2050.531
2044.788
2039.045
2033.302
2027.559
2021.816
2016.073
2010.330
2004.587
1998.844
1993.101
1987.358
1981.615
1975.872
1970.129
1964.386
1958.643
1952.900
1947.157
1941.414
1935.671
1929.928
1924.185
1918.442
1912.699
1906.956
1901.213
1895.470
1889.727
1883.984
1878.241
1872.498
1866.755
1861.012
1855.269
1849.526
1843.783
1838.040
1832.297
1826.554
1820.811
1815.068
1809.325
1803.582
1797.839
1792.096
1786.353
1780.610
1774.867
1769.124
1763.381
1757.638
1751.895
1746.152
1740.409
1734.666
1728.923
1723.180
1717.437
1711.694
1705.951
1700.208
1694.465
1688.722
1682.979
1677.236
1671.493
1665.750
1660.007
1654.264
1648.521
1642.778
1637.035
1631.292
1625.549
1619.806
1614.063
1608.320
1602.577
1596.834
1591.091
1585.348
1579.605
1573.862
1568.119
1562.376
1556.633
1550.890
1545.147
1539.404
1542.019
1544.634
1547.249
1549.864
1552.479
1555.094
1557.709
1560.324
1562.939
1565.554
1568.169
1570.784
1573.399
1576.014
1578.629
1581.244
1583.859
1586.474
1589.089
1591.704
1594.319
1596.934
1599.549
1602.164
1604.779
1607.394
1610.009
1612.624
1615.239
1617.854
1620.469
1623.084
1625.699
1628.314
1630.929
1633.544
1636.159
1638.774
1641.389
1644.004
1646.619
1649.234
1651.849
1654.464
1657.079
1659.694
1662.309
1664.924
1667.539
1670.154
1672.769
1675.384
1677.999
1680.614
1683.229
1685.844
1688.459
1691.074
1693.689
1696.304
1698.919
1701.534
1704.149
1706.764
1709.379
1711.994
1714.609
1717.224
1719.839
1722.454
1725.069
1727.684
1730.299
1732.914
1735.529
1738.144
1740.759
1743.374
1745.989
1748.604
1751.219
1753.834
1756.449
1759.064
1761.679
1764.294
1766.909
1769.524
1772.139
1774.754
1777.369
1779.984
1782.599
1785.214
1787.829
1790.444
1793.059
1795.674
1798.289
1800.904
1803.519
1806.134
1808.749
1811.364
1813.979
1816.594
1819.209
1821.824
1824.439
1827.054
1829.669
1832.284
1834.899
1837.514
1840.129
1842.744
1845.359
1847.974
1850.589
1853.204
1855.819
1858.434
1861.049
1863.664
1866.279
1868.894
1871.509
1874.124
1876.739
1879.354
1881.969
1884.584
1887.199
1889.814
1892.429
1895.044
1897.659
1900.274
1902.889
1905.504
1908.119
1910.734
1913.349
1915.964
1918.579
1921.194
1923.809
1926.424
1929.039
1931.654
1934.269
1936.884
1939.499
1942.114
1944.729
1947.344
1949.959
1952.574
1955.189
1957.804
1960.419
1963.034
1965.649
1968.264
1970.879
1973.494
1976.109
1978.724
1981.339
1983.954
1986.569
1989.184
1991.799
1994.414
1997.029
1999.644
2002.259
2004.874
2007.489
2010.104
2012.719
2015.334
2017.949
2020.564
2023.179
2025.794
2028.409
2031.024
2033.639
2036.254
2038.869
2041.484
2044.099
2046.714
2049.329
2051.944
2054.559
2057.174
2059.789
2062.404
2063.992
2065.581
2067.169
2068.758
2070.346
2071.935
2073.523
2075.112
2076.700
2078.289
2079.877
2081.466
2083.054
2084.643
2086.231
2087.820
2089.408
2090.997
2092.585
2094.174
2095.762
2097.351
2098.939
2100.528
2102.116
2103.705
2105.293
2106.882
2108.470
2110.059
2111.647
2113.236
2114.824
2116.413
2118.001
2119.590
2121.178
2122.767
2124.355
2125.944
2127.532
2129.121
2130.709
2132.298
2133.886
2135.475
2137.063
2138.652
2140.240
2141.829
2143.417
2145.006
2146.594
2148.183
2149.771
2151.360
2152.948
2154.537
2156.125
2157.714
2159.302
2160.891
2162.479
2164.068
2165.656
2167.245
2168.833
2170.422
2172.010
2173.599
2175.187
2176.776
2178.364
2179.953
2181.541
2183.130
2184.718
2186.307
2187.895
2189.484
2191.072
2192.661
2194.249
2195.838
2197.426
2199.015
2200.603
2202.192
2203.780
2205.369
2206.957
2208.546
2210.134
2211.723
2213.311
2214.900
2216.488
2218.077
2219.665
2221.254
2222.842
2224.431
2226.019
2227.608
2229.196
2230.785
2232.373
2233.962
2235.550
2237.139
2238.727
2240.316
2241.904
2243.493
2245.081
2246.670
2248.258
2249.847
2251.435
2253.024
2254.612
2256.201
2257.789
2259.378
2260.966
2262.555
2264.143
2265.732
2267.320
2268.909
2270.497
2272.086
2273.674
2275.263
2276.851
2278.440
2280.028
2281.617
2283.205
2284.794
2286.382
2287.971
2289.559
2291.148
2292.736
2294.325
2295.913
2297.502
2299.090
2300.679
2302.267
2303.856
2305.444
2307.033
2308.621
2310.210
2311.798
2313.387
2314.975
2316.564
2318.152
2319.741
2321.329
2322.918
2324.506
2326.095
2327.683
2329.272
2330.860
2332.449
2334.037
2335.626
2337.214
2338.803
2340.391
2341.980
2343.568
2345.157
2346.745
2348.334
2349.922
2351.511
2353.099
2354.688
2356.276
2357.865
2359.453
2361.042
2362.630
2364.219
2365.807
2367.396
2368.984
2370.573
2372.161
2373.750
2375.338
2376.927
2378.515
2380.104
2378.368
2376.633
2374.897
2373.162
2371.426
2369.691
2367.955
2366.220
2364.484
2362.749
2361.013
2359.278
2357.542
2355.807
2354.071
2352.336
2350.600
2348.865
2347.129
2345.394
2343.658
2341.923
2340.187
2338.452
2336.716
2334.981
2333.245
2331.510
2329.774
2328.039
2326.303
2324.568
2322.832
2321.097
2319.361
2317.626
2315.890
2314.155
2312.419
2310.684
2308.948
2307.213
2305.477
2303.742
2302.006
2300.271
2298.535
2296.800
2295.064
2293.329
2291.593
2289.858
2288.122
2286.387
2284.651
2282.916
2281.180
2279.445
2277.709
2275.974
2274.238
2272.503
2270.767
2269.032
2267.296
2265.561
2263.825
2262.090
2260.354
2258.619
2256.883
2255.148
2253.412
2251.677
2249.941
2248.206
2246.470
2244.735
2242.999
2241.264
2239.528
2237.793
2236.057
2234.322
2232.586
2230.851
2229.115
2227.380
2225.644
2223.909
2222.173
2220.438
2218.702
2216.967
2215.231
2213.496
2211.760
2210.025
2208.289
2206.554
2204.818
2203.083
2201.347
2199.612
2197.876
2196.141
2194.405
2192.670
2190.934
2189.199
2187.463
2185.728
2183.992
2182.257
2180.521
2178.786
2177.050
2175.315
2173.579
2171.844
2170.108
2168.373
2166.637
2164.902
2163.166
2161.431
2159.695
2157.960
2156.224
2154.489
2152.753
2151.018
2149.282
2147.547
2145.811
2144.076
2142.340
2140.605
2138.869
2137.134
2135.398
2133.663
2131.927
2130.192
2128.456
2126.721
2124.985
2123.250
2121.514
2119.779
2118.043
2116.308
2114.572
2112.837
2111.101
2109.366
2107.630
2105.895
2104.159
2102.424
2100.688
2098.953
2097.217
2095.482
2093.746
2092.011
2090.275
2088.540
2086.804
2085.069
2083.333
2081.598
2079.862
2078.127
2076.391
2074.656
2072.920
2071.185
2069.449
2067.714
2065.978
2064.243
2062.507
2060.772
2059.036
2057.301
2055.565
2053.830
2052.094
2050.359
2048.623
2046.888
2045.152
2043.417
2041.681
2039.946
2038.210
2036.475
2034.739
2033.004
2036.890
2040.776
2044.662
2048.548
2052.434
2056.320
2060.206
2064.092
2067.978
2071.864
2075.750
2079.636
2083.522
2087.408
2091.294
2095.180
2099.066
2102.952
2106.838
2110.724
2114.610
2118.496
2122.382
2126.268
2130.154
2134.040
2137.926
2141.812
2145.698
2149.584
2153.470
2157.356
2161.242
2165.128
2169.014
2172.900
2176.786
2180.672
2184.558
2188.444
2192.330
2196.216
2200.102
2203.988
2207.874
2211.760
2215.646
2219.532
2223.418
2227.304
2231.190
2235.076
2238.962
2242.848
2246.734
2250.620
2254.506
2258.392
2262.278
2266.164
2270.050
2273.936
2277.822
2281.708
2285.594
2289.480
2293.366
2297.252
2301.138
2305.024
2308.910
2312.796
2316.682
2320.568
2324.454
2328.340
2332.226
2336.112
2339.998
2343.884
2347.770
2351.656
2355.542
2359.428
2363.314
2367.200
2371.086
2374.972
2378.858
2382.744
2386.630
2390.516
2394.402
2398.288
2402.174
2406.060
2409.946
2413.832
2417.718
2421.604
2425.490
2429.376
2433.262
2437.148
2441.034
2444.920
2448.806
2452.692
2456.578
2460.464
2464.350
2468.236
2472.122
2476.008
2479.894
2483.780
2487.666
2491.552
2495.438
2499.324
2503.210
2507.096
2510.982
2514.868
2518.754
2522.640
2526.526
2530.412
2534.298
2538.184
2542.070
2545.956
2549.842
2553.728
2557.614
2561.500
2565.386
2569.272
2573.158
2577.044
2580.930
2584.816
2588.702
2592.588
2596.474
2600.360
2604.246
2608.132
2612.018
2615.904
2619.790
2623.676
2627.562
2631.448
2635.334
2639.220
2643.106
2646.992
2650.878
2654.764
2658.650
2662.536
2666.422
2670.308
2674.194
2678.080
2681.966
2685.852
2689.738
2693.624
2697.510
2701.396
2705.282
2709.168
2713.054
2716.940
2720.826
2724.712
2728.598
2732.484
2736.370
2740.256
2744.142
2748.028
2751.914
2755.800
2759.686
2763.572
2767.458
2771.344
2775.230
2779.116
2783.002
2786.888
2790.774
2794.660
2798.546
2802.432
2806.318
2810.204
2808.713
2807.222
2805.731
2804.240
2802.749
2801.258
2799.767
2798.276
2796.785
2795.294
2793.803
2792.312
2790.821
2789.330
2787.839
2786.348
2784.857
2783.366
2781.875
2780.384
2778.893
2777.402
2775.911
2774.420
2772.929
2771.438
2769.947
2768.456
2766.965
2765.474
2763.983
2762.492
