74.976
74.976
74.976
74.976
74.976
74.976
74.976
74.976
74.976
74.976
74.976
74.976
74.976
74.976
74.976
74.976
74.976
74.976
74.976
74.976
74.976
74.976
74.976
74.976
74.976
74.976
74.976
74.976
74.976
74.976
74.976
74.976
74.976
74.976
74.976
74.976
74.976
74.976
74.976
74.976
74.976
74.976
74.976
74.976
74.976
74.976
74.976
74.976
74.976
74.976
74.976
74.976
74.976
74.976
74.976
74.976
74.976
74.976
74.976
74.976
74.976
74.976
74.976
74.976
74.976
74.976
74.976
74.976
74.976
74.976
74.976
74.976
74.976
74.976
74.976
74.976
74.976
74.976
74.976
74.976
74.976
74.976
74.976
74.976
74.976
74.976
74.976
74.976
74.976
74.976
74.976
74.976
74.976
74.976
74.976
74.976
74.976
74.976
74.976
74.976
74.976
74.976
74.976
74.976
74.976
74.976
74.976
74.976
74.976
74.976
74.976
74.976
74.976
74.976
74.976
74.976
74.976
74.976
74.976
74.976
74.976
74.976
74.976
74.976
74.976
74.976
74.976
74.976
74.976
74.976
74.976
74.976
74.976
74.976
74.976
74.976
74.976
74.976
74.976
74.976
74.976
74.976
74.976
74.976
74.976
74.976
74.976
74.976
74.976
74.976
74.976
74.976
74.976
74.976
74.976
74.976
74.976
74.976
74.976
74.976
74.976
74.976
74.976
74.976
74.976
74.976
74.976
74.976
1736.676
1736.432
1736.188
1735.944
1735.700
1735.456
1735.212
1734.968
1734.724
1734.480
1734.236
1733.992
1733.748
1733.504
1733.260
1733.016
1732.772
1732.528
1732.284
1732.040
1731.796
1731.552
1731.308
1731.064
1730.820
1730.576
1730.332
1730.088
1729.844
1729.600
1729.356
1729.112
1728.868
1728.624
1728.380
1728.136
1727.892
1727.648
1727.404
1727.160
1726.916
1726.672
1726.428
1726.184
1725.940
1725.696
1725.452
1725.208
1724.964
1724.720
1724.476
1724.232
1723.988
1723.744
1723.500
1723.256
1723.012
1722.768
1722.524
1722.280
1722.036
1721.792
1721.548
1721.304
1721.060
1720.816
1720.572
1720.328
1720.084
1719.840
1719.596
1719.352
1719.108
1718.864
1718.620
1718.376
1718.132
1717.888
1717.644
1717.400
1717.156
1716.912
1716.668
1716.424
1716.180
1715.936
1715.692
1715.448
1715.204
1714.960
1714.716
1714.472
1714.228
1713.984
1713.740
1713.496
1713.252
1713.008
1712.764
1712.520
1712.276
1712.032
1711.788
1711.544
1711.300
1711.056
1710.812
1710.568
1710.324
1710.080
1709.836
1709.592
1709.348
1709.104
1708.860
1708.616
1708.372
1708.128
1707.884
1707.640
1707.396
1707.152
1706.908
1706.664
1706.420
1706.176
1705.932
1705.688
1705.444
1705.200
1704.956
1704.712
1704.468
1704.224
1703.980
1703.736
1703.492
1703.248
1703.004
1702.760
1702.516
1702.272
1702.028
1701.784
1701.540
1701.296
1701.052
1700.808
1700.564
1700.320
1700.076
1699.832
1699.588
1699.344
1699.100
1698.856
1698.612
1698.368
1698.124
1697.880
1697.636
1697.392
1697.148
1696.904
1696.660
1696.416
1696.172
1695.928
1695.684
1695.440
1695.196
1694.952
1694.708
1694.464
1694.220
1693.976
1693.732
1693.488
1693.244
1693.000
1692.756
1692.512
1692.268
1692.024
1691.780
1691.536
1691.292
1691.048
1690.804
1690.560
1690.316
1690.072
1689.828
1689.584
1689.340
1689.096
1688.852
1688.608
1688.364
1688.120
1687.876
1690.099
1692.323
1694.546
1696.770
1698.993
1701.217
1703.440
1705.664
1707.887
1710.111
1712.334
1714.558
1716.781
1719.005
1721.228
1723.452
1725.675
1727.899
1730.122
1732.346
1734.569
1736.793
1739.016
1741.240
1743.463
1745.687
1747.910
1750.134
1752.357
1754.581
1756.804
1759.028
1761.251
1763.475
1765.698
1767.922
1770.145
1772.369
1774.592
1776.816
1779.039
1781.263
1783.486
1785.710
1787.933
1790.157
1792.380
1794.604
1796.827
1799.051
1801.274
1803.498
1805.721
1807.945
1810.168
1812.392
1814.615
1816.839
1819.062
1821.286
1823.509
1825.733
1827.956
1830.180
1832.403
1834.627
1836.850
1839.074
1841.297
1843.521
1845.744
1847.968
1850.191
1852.415
1854.638
1856.862
1859.085
1861.309
1863.532
1865.756
1867.979
1870.203
1872.426
1874.650
1876.873
1879.097
1881.320
1883.544
1885.767
1887.991
1890.214
1892.438
1894.661
1896.885
1899.108
1901.332
1903.555
1905.779
1908.002
1910.226
1912.449
1914.673
1916.896
1919.120
1921.343
1923.567
1925.790
1928.014
1930.237
1932.461
1934.684
1936.908
1939.131
1941.355
1943.578
1945.802
1948.025
1950.249
1952.472
1954.696
1956.919
1959.143
1961.366
1963.590
1965.813
1968.037
1970.260
1972.484
1974.707
1976.931
1979.154
1981.378
1983.601
1985.825
1988.048
1990.272
1992.495
1994.719
1996.942
1999.166
2001.389
2003.613
2005.836
2008.060
2010.283
2012.507
2014.730
2016.954
2019.177
2021.401
2023.624
2025.848
2028.071
2030.295
2032.518
2034.742
2036.965
2039.189
2041.412
2043.636
2045.859
2048.083
2050.306
2052.530
2054.753
2056.977
2059.200
2061.424
2063.647
2065.871
2068.094
2070.318
2072.541
2074.765
2076.988
2079.212
2081.435
2083.659
2085.882
2088.106
2090.329
2092.553
2094.776
2097.000
2099.223
2101.447
2103.670
2105.894
2108.117
2110.341
2112.564
2114.788
2117.011
2119.235
2121.458
2123.682
2125.905
2128.129
2130.352
2132.576
2131.794
2131.012
2130.230
2129.448
2128.666
2127.884
2127.102
2126.320
2125.538
2124.756
2123.974
2123.192
2122.410
2121.628
2120.846
2120.064
2119.282
2118.500
2117.718
2116.936
2116.154
2115.372
2114.590
2113.808
2113.026
2112.244
2111.462
2110.680
2109.898
2109.116
2108.334
2107.552
2106.770
2105.988
2105.206
2104.424
2103.642
2102.860
2102.078
2101.296
2100.514
2099.732
2098.950
2098.168
2097.386
2096.604
2095.822
2095.040
2094.258
2093.476
2092.694
2091.912
2091.130
2090.348
2089.566
2088.784
2088.002
2087.220
2086.438
2085.656
2084.874
2084.092
2083.310
2082.528
2081.746
2080.964
2080.182
2079.400
2078.618
2077.836
2077.054
2076.272
2075.490
2074.708
2073.926
2073.144
2072.362
2071.580
2070.798
2070.016
2069.234
2068.452
2067.670
2066.888
2066.106
2065.324
2064.542
2063.760
2062.978
2062.196
2061.414
2060.632
2059.850
2059.068
2058.286
2057.504
2056.722
2055.940
2055.158
2054.376
2053.594
2052.812
2052.030
2051.248
2050.466
2049.684
2048.902
2048.120
2047.338
2046.556
2045.774
2044.992
2044.210
2043.428
2042.646
2041.864
2041.082
2040.300
2039.518
2038.736
2037.954
2037.172
2036.390
2035.608
2034.826
2034.044
2033.262
2032.480
2031.698
2030.916
2030.134
2029.352
2028.570
2027.788
2027.006
2026.224
2025.442
2024.660
2023.878
2023.096
2022.314
2021.532
2020.750
2019.968
2019.186
2018.404
2017.622
2016.840
2016.058
2015.276
2014.494
2013.712
2012.930
2012.148
2011.366
2010.584
2009.802
2009.020
2008.238
2007.456
2006.674
2005.892
2005.110
2004.328
2003.546
2002.764
2001.982
2001.200
2000.418
1999.636
1998.854
1998.072
1997.290
1996.508
1995.726
1994.944
1994.162
1993.380
1992.598
1991.816
1991.034
1990.252
1989.470
1988.688
1987.906
1987.124
1986.342
1985.560
1984.778
1983.996
1983.214
1982.432
1981.650
1980.868
1980.086
1979.304
1978.522
1977.740
1976.958
1976.176
1974.807
1973.439
1972.070
1970.702
1969.333
1967.965
1966.596
1965.228
1963.859
1962.491
1961.122
1959.754
1958.385
1957.017
1955.648
1954.280
1952.911
1951.543
1950.174
1948.806
1947.437
1946.069
1944.700
1943.332
1941.963
1940.595
1939.226
1937.858
1936.489
1935.121
1933.752
1932.384
1931.015
1929.647
1928.278
1926.910
1925.541
1924.173
1922.804
1921.436
1920.067
1918.699
1917.330
1915.962
1914.593
1913.225
1911.856
1910.488
1909.119
1907.751
1906.382
1905.014
1903.645
1902.277
1900.908
1899.540
1898.171
1896.803
1895.434
1894.066
1892.697
1891.329
1889.960
1888.592
1887.223
1885.855
1884.486
1883.118
1881.749
1880.381
1879.012
1877.644
1876.275
1874.907
1873.538
1872.170
1870.801
1869.433
1868.064
1866.696
1865.327
1863.959
1862.590
1861.222
1859.853
1858.485
1857.116
1855.748
1854.379
1853.011
1851.642
1850.274
1848.905
1847.537
1846.168
1844.800
1843.431
1842.063
1840.694
1839.326
1837.957
1836.589
1835.220
1833.852
1832.483
1831.115
1829.746
1828.378
1827.009
1825.641
1824.272
1822.904
1821.535
1820.167
1818.798
1817.430
1816.061
1814.693
1813.324
1811.956
1810.587
1809.219
1807.850
1806.482
1805.113
1803.745
1802.376
1801.008
1799.639
1798.271
1796.902
1795.534
1794.165
1792.797
1791.428
1790.060
1788.691
1787.323
1785.954
1784.586
1783.217
1781.849
1780.480
1779.112
1777.743
1776.375
1775.006
1773.638
1772.269
1770.901
1769.532
1768.164
1766.795
1765.427
1764.058
1762.690
1761.321
1759.953
1758.584
1757.216
1755.847
1754.479
1753.110
1751.742
1750.373
1749.005
1747.636
1746.268
1744.899
1743.531
1742.162
1740.794
1739.425
1738.057
1736.688
1735.320
1733.951
1732.583
1731.214
1729.846
1728.477
1727.109
1725.740
1724.372
1723.003
1721.635
1720.266
1718.898
1717.529
1716.161
1714.792
1713.424
1712.055
1710.687
1709.318
1707.950
1706.581
1705.213
1703.844
1702.476
1704.602
1706.729
1708.855
1710.982
1713.108
1715.235
1717.361
1719.488
1721.614
1723.741
1725.867
1727.994
1730.120
1732.247
1734.373
1736.500
1738.626
1740.753
1742.879
1745.006
1747.132
1749.259
1751.385
1753.512
1755.638
1757.765
1759.891
1762.018
1764.144
1766.271
1768.397
1770.524
1772.650
1774.777
1776.903
1779.030
1781.156
1783.283
1785.409
1787.536
1789.662
1791.789
1793.915
1796.042
1798.168
1800.295
1802.421
1804.548
1806.674
1808.801
1810.927
1813.054
1815.180
1817.307
1819.433
1821.560
1823.686
1825.813
1827.939
1830.066
1832.192
1834.319
1836.445
1838.572
1840.698
1842.825
1844.951
1847.078
1849.204
1851.331
1853.457
1855.584
1857.710
1859.837
1861.963
1864.090
1866.216
1868.343
1870.469
1872.596
1874.722
1876.849
1878.975
1881.102
1883.228
1885.355
1887.481
1889.608
1891.734
1893.861
1895.987
1898.114
1900.240
1902.367
1904.493
1906.620
1908.746
1910.873
1912.999
1915.126
1917.252
1919.379
1921.505
1923.632
1925.758
1927.885
1930.011
1932.138
1934.264
1936.391
1938.517
1940.644
1942.770
1944.897
1947.023
1949.150
1951.276
1953.403
1955.529
1957.656
1959.782
1961.909
1964.035
1966.162
1968.288
1970.415
1972.541
1974.668
1976.794
1978.921
1981.047
1983.174
1985.300
1987.427
1989.553
1991.680
1993.806
1995.933
1998.059
2000.186
2002.312
2004.439
2006.565
2008.692
2010.818
2012.945
2015.071
2017.198
2019.324
2021.451
2023.577
2025.704
2027.830
2029.957
2032.083
2034.210
2036.336
2038.463
2040.589
2042.716
2044.842
2046.969
2049.095
2051.222
2053.348
2055.475
2057.601
2059.728
2061.854
2063.981
2066.107
2068.234
2070.360
2072.487
2074.613
2076.740
2078.866
2080.993
2083.119
2085.246
2087.372
2089.499
2091.625
2093.752
2095.878
2098.005
2100.131
2102.258
2104.384
2106.511
2108.637
2110.764
2112.890
2115.017
2117.143
2119.270
2121.396
2123.523
2125.649
2127.776
2124.183
2120.591
2116.998
2113.406
2109.813
2106.221
2102.628
2099.036
2095.443
2091.851
2088.258
2084.666
2081.073
2077.481
2073.888
2070.296
2066.703
2063.111
2059.518
2055.926
2052.333
2048.741
2045.148
2041.556
2037.963
2034.371
2030.778
2027.186
2023.593
2020.001
2016.408
2012.816
2009.223
2005.631
2002.038
1998.446
1994.853
1991.261
1987.668
1984.076
1980.483
1976.891
1973.298
1969.706
1966.113
1962.521
1958.928
1955.336
1951.743
1948.151
1944.558
1940.966
1937.373
1933.781
1930.188
1926.596
1923.003
1919.411
1915.818
1912.226
1908.633
1905.041
1901.448
1897.856
1894.263
1890.671
1887.078
1883.486
1879.893
1876.301
1872.708
1869.116
1865.523
1861.931
1858.338
1854.746
1851.153
1847.561
1843.968
1840.376
1836.783
1833.191
1829.598
1826.006
1822.413
1818.821
1815.228
1811.636
1808.043
1804.451
1800.858
1797.266
1793.673
1790.081
1786.488
1782.896
1779.303
1775.711
1772.118
1768.526
1764.933
1761.341
1757.748
1754.156
1750.563
1746.971
1743.378
1739.786
1736.193
1732.601
1729.008
1725.416
1721.823
1718.231
1714.638
1711.046
1707.453
1703.861
1700.268
1696.676
1693.083
1689.491
1685.898
1682.306
1678.713
1675.121
1671.528
1667.936
1664.343
1660.751
1657.158
1653.566
1649.973
1646.381
1642.788
1639.196
1635.603
1632.011
1628.418
1624.826
1621.233
1617.641
1614.048
1610.456
1606.863
1603.271
1599.678
1596.086
1592.493
1588.901
1585.308
1581.716
1578.123
1574.531
1570.938
1567.346
1563.753
1560.161
1556.568
1552.976
1549.383
1545.791
1542.198
1538.606
1535.013
1531.421
1527.828
1524.236
1520.643
1517.051
1513.458
1509.866
1506.273
1502.681
1499.088
1495.496
1491.903
1488.311
1484.718
1481.126
1477.533
1473.941
1470.348
1466.756
1463.163
1459.571
1455.978
1452.386
1448.793
1445.201
1441.608
1438.016
1434.423
1430.831
1427.238
1423.646
1420.053
1416.461
1412.868
1409.276
1409.593
1409.911
1410.228
1410.546
1410.863
1411.181
1411.498
1411.816
1412.133
1412.451
1412.768
1413.086
1413.403
1413.721
1414.038
1414.356
1414.673
1414.991
1415.308
1415.626
1415.943
1416.261
1416.578
1416.896
1417.213
1417.531
1417.848
1418.166
1418.483
1418.801
1419.118
1419.436
1419.753
1420.071
1420.388
1420.706
1421.023
1421.341
1421.658
1421.976
1422.293
1422.611
1422.928
1423.246
1423.563
1423.881
1424.198
1424.516
1424.833
1425.151
1425.468
1425.786
1426.103
1426.421
1426.738
1427.056
1427.373
1427.691
1428.008
1428.326
1428.643
1428.961
1429.278
1429.596
1429.913
1430.231
1430.548
1430.866
1431.183
1431.501
1431.818
1432.136
1432.453
1432.771
1433.088
1433.406
1433.723
1434.041
1434.358
1434.676
1434.993
1435.311
1435.628
1435.946
1436.263
1436.581
1436.898
1437.216
1437.533
1437.851
1438.168
1438.486
1438.803
1439.121
1439.438
1439.756
1440.073
1440.391
1440.708
1441.026
1441.343
1441.661
1441.978
1442.296
1442.613
1442.931
1443.248
1443.566
1443.883
1444.201
1444.518
1444.836
1445.153
1445.471
1445.788
1446.106
1446.423
1446.741
1447.058
1447.376
1447.693
1448.011
1448.328
1448.646
1448.963
1449.281
1449.598
1449.916
1450.233
1450.551
1450.868
1451.186
1451.503
1451.821
1452.138
1452.456
1452.773
1453.091
1453.408
1453.726
1454.043
1454.361
1454.678
1454.996
1455.313
1455.631
1455.948
1456.266
1456.583
1456.901
1457.218
1457.536
1457.853
1458.171
1458.488
1458.806
1459.123
1459.441
1459.758
1460.076
1460.393
1460.711
1461.028
1461.346
1461.663
1461.981
1462.298
1462.616
1462.933
1463.251
1463.568
1463.886
1464.203
1464.521
1464.838
1465.156
1465.473
1465.791
1466.108
1466.426
1466.743
1467.061
1467.378
1467.696
1468.013
1468.331
1468.648
1468.966
1469.283
1469.601
1469.918
1470.236
1470.553
1470.871
1471.188
1471.506
1471.823
1472.141
1472.458
1472.776
1467.522
1462.268
1457.014
1451.760
1446.506
1441.252
1435.998
1430.744
1425.490
1420.236
1414.982
1409.728
1404.474
1399.220
1393.966
1388.712
1383.458
1378.204
1372.950
1367.696
1362.442
1357.188
1351.934
1346.680
1341.426
1336.172
1330.918
1325.664
1320.410
1315.156
1309.902
1304.648
1299.394
1294.140
1288.886
1283.632
1278.378
1273.124
1267.870
1262.616
1257.362
1252.108
1246.854
1241.600
1236.346
1231.092
1225.838
1220.584
1215.330
1210.076
1204.822
1199.568
1194.314
1189.060
1183.806
1178.552
1173.298
1168.044
1162.790
1157.536
1152.282
1147.028
1141.774
1136.520
1131.266
1126.012
1120.758
1115.504
1110.250
1104.996
1099.742
1094.488
1089.234
1083.980
1078.726
1073.472
1068.218
1062.964
1057.710
1052.456
1047.202
1041.948
1036.694
1031.440
1026.186
1020.932
1015.678
1010.424
1005.170
999.916
994.662
989.408
984.154
978.900
973.646
968.392
963.138
957.884
952.630
947.376
942.122
936.868
931.614
926.360
921.106
915.852
910.598
905.344
900.090
894.836
889.582
884.328
879.074
873.820
868.566
863.312
858.058
852.804
847.550
842.296
837.042
831.788
826.534
821.280
816.026
810.772
805.518
800.264
795.010
789.756
784.502
779.248
773.994
768.740
763.486
758.232
752.978
747.724
742.470
737.216
731.962
726.708
721.454
716.200
710.946
705.692
700.438
695.184
689.930
684.676
679.422
674.168
668.914
663.660
658.406
653.152
647.898
642.644
637.390
632.136
626.882
621.628
616.374
611.120
605.866
600.612
595.358
590.104
584.850
579.596
574.342
569.088
563.834
558.580
553.326
548.072
542.818
537.564
532.310
527.056
521.802
516.548
511.294
506.040
500.786
495.532
490.278
485.024
479.770
474.516
469.262
464.008
458.754
453.500
448.246
442.992
437.738
432.484
427.230
421.976
420.656
419.337
418.017
416.698
415.378
414.059
412.739
411.420
410.100
408.781
407.461
406.142
404.822
403.503
402.183
400.864
399.544
398.225
396.905
395.586
394.266
392.947
391.627
390.308
388.988
387.669
386.349
385.030
383.710
382.391
381.071
379.752
378.432
377.113
375.793
374.474
373.154
371.835
370.515
369.196
367.876
366.557
365.237
363.918
362.598
361.279
359.959
358.640
357.320
356.001
354.681
353.362
352.042
350.723
349.403
348.084
346.764
345.445
344.125
342.806
341.486
340.167
338.847
337.528
336.208
334.889
333.569
332.250
330.930
329.611
328.291
326.972
325.652
324.333
323.013
321.694
320.374
319.055
317.735
316.416
315.096
313.777
312.457
311.138
309.818
308.499
307.179
305.860
304.540
303.221
301.901
300.582
299.262
297.943
296.623
295.304
293.984
292.665
291.345
290.026
288.706
287.387
286.067
284.748
283.428
282.109
280.789
279.470
278.150
276.831
275.511
274.192
272.872
271.553
270.233
268.914
267.594
266.275
264.955
263.636
262.316
260.997
259.677
258.358
257.038
255.719
254.399
253.080
251.760
250.441
249.121
247.802
246.482
245.163
243.843
242.524
241.204
239.885
238.565
237.246
235.926
234.607
233.287
231.968
230.648
229.329
228.009
226.690
225.370
224.051
222.731
221.412
220.092
218.773
217.453
216.134
214.814
213.495
212.175
210.856
209.536
208.217
206.897
205.578
204.258
202.939
201.619
200.300
198.980
197.661
196.341
195.022
193.702
192.383
191.063
189.744
188.424
187.105
185.785
184.466
183.146
181.827
180.507
179.188
177.868
176.549
175.229
173.910
172.590
171.271
169.951
168.632
167.312
165.993
164.673
163.354
162.034
160.715
159.395
158.076
158.076
158.076
158.076
158.076
158.076
158.076
158.076
158.076
158.076
158.076
158.076
158.076
158.076
158.076
158.076
158.076
158.076
158.076
158.076
158.076
158.076
158.076
158.076
158.076
158.076
158.076
158.076
158.076
158.076
158.076
158.076
