107.088
107.088
107.088
107.088
107.088
107.088
107.088
107.088
107.088
107.088
107.088
107.088
107.088
107.088
107.088
107.088
107.088
107.088
107.088
107.088
107.088
107.088
107.088
107.088
107.088
107.088
107.088
107.088
107.088
107.088
107.088
107.088
107.088
107.088
107.088
107.088
107.088
107.088
107.088
107.088
107.088
107.088
107.088
107.088
107.088
107.088
107.088
107.088
107.088
107.088
107.088
107.088
107.088
107.088
107.088
107.088
107.088
107.088
107.088
107.088
107.088
107.088
107.088
107.088
107.088
107.088
107.088
107.088
107.088
107.088
107.088
107.088
107.088
107.088
107.088
107.088
107.088
107.088
107.088
107.088
107.088
107.088
107.088
107.088
107.088
107.088
107.088
107.088
107.088
107.088
107.088
107.088
107.088
107.088
107.088
107.088
107.088
107.088
107.088
107.088
107.088
107.088
107.088
107.088
107.088
107.088
107.088
107.088
107.088
107.088
107.088
107.088
107.088
107.088
107.088
107.088
107.088
107.088
107.088
107.088
107.088
107.088
107.088
107.088
107.088
107.088
107.088
107.088
107.088
107.088
107.088
107.088
107.088
107.088
107.088
107.088
107.088
107.088
107.088
107.088
107.088
107.088
107.088
107.088
107.088
107.088
107.088
107.088
107.088
107.088
107.088
107.088
107.088
107.088
107.088
107.088
107.088
107.088
107.088
107.088
107.088
107.088
107.088
107.088
107.088
107.088
107.088
107.088
107.088
107.088
107.088
107.088
107.088
107.088
107.088
107.088
107.088
107.088
107.088
107.088
107.088
107.088
107.088
107.088
107.088
107.088
107.088
107.088
107.088
107.088
107.088
107.088
107.088
107.088
107.088
107.088
107.088
107.088
107.088
107.088
107.088
107.088
107.088
107.088
107.088
107.088
107.088
107.088
107.088
107.088
107.088
107.088
107.088
107.088
107.088
107.088
107.088
107.088
107.088
107.088
107.088
107.088
107.088
107.088
107.088
107.088
107.088
107.088
107.088
107.088
107.088
107.088
107.088
107.088
107.088
107.088
107.088
107.088
107.088
107.088
107.088
107.088
107.088
107.088
107.088
107.088
107.088
107.088
107.088
107.088
107.088
107.088
107.088
107.088
107.088
107.088
107.088
107.088
107.088
107.088
107.088
107.088
107.088
107.088
107.088
107.088
107.088
107.088
107.088
107.088
107.088
107.088
107.088
107.088
107.088
107.088
107.088
107.088
107.088
107.088
107.088
107.088
107.088
107.088
107.088
107.088
107.088
107.088
107.088
107.088
107.088
107.088
107.088
107.088
107.088
107.088
107.088
107.088
107.088
107.088
107.088
107.088
107.088
107.088
107.088
107.088
107.088
107.088
107.088
107.088
107.088
107.088
107.088
107.088
107.088
107.088
107.088
107.088
107.088
107.088
107.088
107.088
107.088
107.088
107.088
107.088
107.088
107.088
107.088
107.088
107.088
107.088
107.088
107.088
107.088
107.088
107.088
107.088
107.088
107.088
107.088
107.088
107.088
107.088
107.088
107.088
107.088
107.088
107.088
107.088
107.088
107.088
107.088
107.088
107.088
107.088
107.088
107.088
107.088
107.088
107.088
107.088
107.088
107.088
107.088
107.088
107.088
107.088
107.088
107.088
107.088
107.088
107.088
107.088
107.088
107.088
107.088
107.088
107.088
107.088
107.088
107.088
107.088
107.088
107.088
107.088
107.088
107.088
107.088
107.088
107.088
107.088
107.088
107.088
107.088
107.088
107.088
107.088
107.088
107.088
107.088
107.088
107.088
107.088
107.088
107.088
107.088
107.088
107.088
107.088
107.088
107.088
107.088
107.088
107.088
107.088
107.088
107.088
107.088
107.088
107.088
107.088
107.088
107.088
107.088
107.088
107.088
107.088
107.088
107.088
107.088
107.088
107.088
107.088
107.088
107.088
107.088
107.088
107.088
107.088
107.088
107.088
107.088
107.088
107.088
107.088
107.088
107.088
107.088
107.088
107.088
107.088
107.088
107.088
107.088
107.088
107.088
107.088
107.088
107.088
107.088
107.088
107.088
107.088
107.088
107.088
107.088
107.088
107.088
107.088
107.088
107.088
107.088
107.088
107.088
107.088
107.088
107.088
107.088
107.088
107.088
107.088
107.088
107.088
107.088
107.088
107.088
107.088
107.088
107.088
107.088
107.088
107.088
107.088
107.088
107.088
107.088
107.088
107.088
107.088
107.088
107.088
107.088
107.088
107.088
107.088
107.088
107.088
107.088
107.088
107.088
107.088
107.088
107.088
107.088
107.088
107.088
107.088
107.088
107.088
107.088
107.088
107.088
107.088
107.088
107.088
107.088
107.088
107.088
107.088
107.088
107.088
107.088
107.088
107.088
107.088
107.088
107.088
107.088
107.088
107.088
107.088
107.088
107.088
107.088
107.088
107.088
107.088
107.088
107.088
107.088
107.088
107.088
107.088
107.088
107.088
107.088
107.088
107.088
107.088
107.088
107.088
107.088
107.088
107.088
107.088
107.088
107.088
107.088
107.088
107.088
107.088
107.088
107.088
107.088
107.088
107.088
107.088
107.088
107.088
107.088
107.088
107.088
107.088
107.088
107.088
107.088
107.088
107.088
107.088
107.088
107.088
107.088
107.088
107.088
107.088
107.088
107.088
107.088
107.088
107.088
107.088
107.088
107.088
107.088
107.088
107.088
107.088
107.088
107.088
107.088
107.088
107.088
107.088
107.088
107.088
107.088
107.088
107.088
107.088
107.088
107.088
107.088
107.088
107.088
107.088
107.088
107.088
107.088
107.088
107.088
107.088
107.088
107.088
107.088
107.088
107.088
107.088
107.088
107.088
107.088
107.088
107.088
107.088
107.088
107.088
107.088
107.088
107.088
107.088
107.088
107.088
107.088
107.088
107.088
107.088
107.088
107.088
107.088
107.088
107.088
107.088
107.088
107.088
107.088
107.088
107.088
107.088
107.088
107.088
107.088
107.088
107.088
107.088
107.088
107.088
107.088
107.088
107.088
107.088
107.088
107.088
107.088
107.088
107.088
107.088
107.088
107.088
107.088
107.088
107.088
107.088
107.088
107.088
107.088
107.088
107.088
107.088
107.088
107.088
107.088
107.088
107.088
107.088
107.088
107.088
107.088
107.088
107.088
107.088
107.088
107.088
107.088
107.088
107.088
107.088
107.088
107.088
107.088
107.088
107.088
107.088
107.088
107.088
107.088
107.088
107.088
107.088
107.088
107.088
107.088
107.088
107.088
107.088
107.088
107.088
107.088
107.088
107.088
107.088
107.088
107.088
107.088
107.088
107.088
107.088
107.088
107.088
107.088
107.088
107.088
107.088
107.088
107.088
107.088
107.088
107.088
107.088
107.088
107.088
107.088
107.088
107.088
107.088
107.088
107.088
107.088
107.088
107.088
107.088
107.088
107.088
107.088
107.088
107.088
107.088
107.088
107.088
107.088
107.088
107.088
107.088
107.088
107.088
107.088
107.088
107.088
107.088
107.088
107.088
107.088
107.088
107.088
107.088
107.088
107.088
107.088
107.088
107.088
107.088
107.088
107.088
107.088
107.088
107.088
107.088
107.088
107.088
107.088
107.088
107.088
107.088
107.088
107.088
107.088
107.088
107.088
107.088
107.088
107.088
107.088
107.088
107.088
107.088
107.088
107.088
107.088
107.088
107.088
107.088
107.088
107.088
107.088
107.088
107.088
107.088
107.088
107.088
107.088
107.088
107.088
107.088
107.088
107.088
107.088
107.088
292.788
295.476
298.164
300.852
303.540
306.228
308.916
311.604
314.292
316.980
319.668
322.356
325.044
327.732
330.420
333.108
335.796
338.484
341.172
343.860
346.548
349.236
351.924
354.612
357.300
359.988
362.676
365.364
368.052
370.740
373.428
376.116
378.804
381.492
384.180
386.868
389.556
392.244
394.932
397.620
400.308
402.996
405.684
408.372
411.060
413.748
416.436
419.124
421.812
424.500
427.188
429.876
432.564
435.252
437.940
440.628
443.316
446.004
448.692
451.380
454.068
456.756
459.444
462.132
464.820
467.508
470.196
472.884
475.572
478.260
480.948
483.636
486.324
489.012
491.700
494.388
497.076
499.764
502.452
505.140
507.828
510.516
513.204
515.892
518.580
521.268
523.956
526.644
529.332
532.020
534.708
537.396
540.084
542.772
545.460
548.148
550.836
553.524
556.212
558.900
561.588
564.276
566.964
569.652
572.340
575.028
577.716
580.404
583.092
585.780
588.468
591.156
593.844
596.532
599.220
601.908
604.596
607.284
609.972
612.660
615.348
618.036
620.724
623.412
626.100
628.788
631.476
634.164
636.852
639.540
642.228
644.916
647.604
650.292
652.980
655.668
658.356
661.044
663.732
666.420
669.108
671.796
674.484
677.172
679.860
682.548
685.236
687.924
690.612
693.300
695.988
698.676
701.364
704.052
706.740
709.428
712.116
714.804
717.492
720.180
722.868
725.556
728.244
730.932
733.620
736.308
738.996
741.684
744.372
747.060
749.748
752.436
755.124
757.812
760.500
763.188
765.876
768.564
771.252
773.940
776.628
779.316
782.004
784.692
787.380
790.068
792.756
795.444
798.132
800.820
803.508
806.196
808.884
811.572
814.260
816.948
819.636
822.324
825.012
827.700
830.388
832.954
835.520
838.086
840.652
843.218
845.784
848.350
850.916
853.482
856.048
858.614
861.180
863.746
866.312
868.878
871.444
874.010
876.576
879.142
881.708
884.274
886.840
889.406
891.972
894.538
897.104
899.670
902.236
904.802
907.368
909.934
912.500
915.066
917.632
920.198
922.764
925.330
927.896
930.462
933.028
935.594
938.160
940.726
943.292
945.858
948.424
950.990
953.556
956.122
958.688
961.254
963.820
966.386
968.952
971.518
974.084
976.650
979.216
981.782
984.348
986.914
989.480
992.046
994.612
997.178
999.744
1002.310
1004.876
1007.442
1010.008
1012.574
1015.140
1017.706
1020.272
1022.838
1025.404
1027.970
1030.536
1033.102
1035.668
1038.234
1040.800
1043.366
1045.932
1048.498
1051.064
1053.630
1056.196
1058.762
1061.328
1063.894
1066.460
1069.026
1071.592
1074.158
1076.724
1079.290
1081.856
1084.422
1086.988
1089.554
1092.120
1094.686
1097.252
1099.818
1102.384
1104.950
1107.516
1110.082
1112.648
1115.214
1117.780
1120.346
1122.912
1125.478
1128.044
1130.610
1133.176
1135.742
1138.308
1140.874
1143.440
1146.006
1148.572
1151.138
1153.704
1156.270
1158.836
1161.402
1163.968
1166.534
1169.100
1171.666
1174.232
1176.798
1179.364
1181.930
1184.496
1187.062
1189.628
1192.194
1194.760
1197.326
1199.892
1202.458
1205.024
1207.590
1210.156
1212.722
1215.288
1217.854
1220.420
1222.986
1225.552
1228.118
1230.684
1233.250
1235.816
1238.382
1240.948
1243.514
1246.080
1248.646
1251.212
1253.778
1256.344
1258.910
1261.476
1264.042
1266.608
1269.174
1271.740
1274.306
1276.872
1279.438
1282.004
1284.570
1287.136
1289.702
1292.268
1294.834
1297.400
1299.966
1302.532
1305.098
1307.664
1310.230
1312.796
1315.362
1317.928
1320.494
1323.060
1325.626
1328.192
1330.758
1333.324
1335.890
1338.456
1341.022
1343.588
1346.007
1348.427
1350.846
1353.266
1355.685
1358.105
1360.524
1362.944
1365.363
1367.783
1370.202
1372.622
1375.041
1377.461
1379.880
1382.300
1384.719
1387.139
1389.558
1391.978
1394.397
1396.817
1399.236
1401.656
1404.075
1406.495
1408.914
1411.334
1413.753
1416.173
1418.592
1421.012
1423.431
1425.851
1428.270
1430.690
1433.109
1435.529
1437.948
1440.368
1442.787
1445.207
1447.626
1450.046
1452.465
1454.885
1457.304
1459.724
1462.143
1464.563
1466.982
1469.402
1471.821
1474.241
1476.660
1479.080
1481.499
1483.919
1486.338
1488.758
1491.177
1493.597
1496.016
1498.436
1500.855
1503.275
1505.694
1508.114
1510.533
1512.953
1515.372
1517.792
1520.211
1522.631
1525.050
1527.470
1529.889
1532.309
1534.728
1537.148
1539.567
1541.987
1544.406
1546.826
1549.245
1551.665
1554.084
1556.504
1558.923
1561.343
1563.762
1566.182
1568.601
1571.021
1573.440
1575.860
1578.279
1580.699
1583.118
1585.538
1587.957
1590.377
1592.796
1595.216
1597.635
1600.055
1602.474
1604.894
1607.313
1609.733
1612.152
1614.572
1616.991
1619.411
1621.830
1624.250
1626.669
1629.089
1631.508
1633.928
1636.347
1638.767
1641.186
1643.606
1646.025
1648.445
1650.864
1653.284
1655.703
1658.123
1660.542
1662.962
1665.381
1667.801
1670.220
1672.640
1675.059
1677.479
1679.898
1682.318
1684.737
1687.157
1689.576
1691.996
1694.415
1696.835
1699.254
1701.674
1704.093
1706.513
1708.932
1711.352
1713.771
1716.191
1718.610
1721.030
1723.449
1725.869
1728.288
1730.708
1733.127
1735.547
1737.966
1740.386
1742.805
1745.225
1747.644
1750.064
1752.483
1754.903
1757.322
1759.742
1762.161
1764.581
1767.000
1769.420
1771.839
1774.259
1776.678
1779.098
1781.517
1783.937
1786.356
1788.776
1791.195
1793.615
1796.034
1798.454
1800.873
1803.293
1805.712
1808.132
1810.551
1812.971
1815.390
1817.810
1820.229
1822.649
1825.068
1827.488
1828.294
1829.101
1829.907
1830.714
1831.520
1832.327
1833.133
1833.940
1834.746
1835.553
1836.359
1837.166
1837.972
1838.779
1839.585
1840.392
1841.198
1842.005
1842.811
1843.618
1844.424
1845.231
1846.037
1846.844
1847.650
1848.457
1849.263
1850.070
1850.876
1851.683
1852.489
1853.296
1854.102
1854.909
1855.715
1856.522
1857.328
1858.135
1858.941
1859.748
1860.554
1861.361
1862.167
1862.974
1863.780
1864.587
1865.393
1866.200
1867.006
1867.813
1868.619
1869.426
1870.232
1871.039
1871.845
1872.652
1873.458
1874.265
1875.071
1875.878
1876.684
1877.491
1878.297
1879.104
1879.910
1880.717
1881.523
1882.330
1883.136
1883.943
1884.749
1885.556
1886.362
1887.169
1887.975
1888.782
1889.588
1890.395
1891.201
1892.008
1892.814
1893.621
1894.427
1895.234
1896.040
1896.847
1897.653
1898.460
1899.266
1900.073
1900.879
1901.686
1902.492
1903.299
1904.105
1904.912
1905.718
1906.525
1907.331
1908.138
1908.944
1909.751
1910.557
1911.364
1912.170
1912.977
1913.783
1914.590
1915.396
1916.203
1917.009
1917.816
1918.622
1919.429
1920.235
1921.042
1921.848
1922.655
1923.461
1924.268
1925.074
1925.881
1926.687
1927.494
1928.300
1929.107
1929.913
1930.720
1931.526
1932.333
1933.139
1933.946
1934.752
1935.559
1936.365
1937.172
1937.978
1938.785
1939.591
1940.398
1941.204
1942.011
1942.817
1943.624
1944.430
1945.237
1946.043
1946.850
1947.656
1948.463
1949.269
1950.076
1950.882
1951.689
1952.495
1953.302
1954.108
1954.915
1955.721
1956.528
1957.334
1958.141
1958.947
1959.754
1960.560
1961.367
1962.173
1962.980
1963.786
1964.593
1965.399
1966.206
1967.012
1967.819
1968.625
1969.432
1970.238
1971.045
1971.851
1972.658
1973.464
1974.271
1975.077
1975.884
1976.690
1977.497
1978.303
1979.110
1979.916
1980.723
1981.529
1982.336
1983.142
1983.949
1984.755
1985.562
1986.368
1987.175
1987.981
1988.788
1989.863
1990.938
1992.013
1993.088
1994.163
1995.238
1996.313
1997.388
1998.463
1999.538
2000.613
2001.688
2002.763
2003.838
2004.913
2005.988
2007.063
2008.138
2009.213
2010.288
2011.363
2012.438
2013.513
2014.588
2015.663
2016.738
2017.813
2018.888
2019.963
2021.038
2022.113
2023.188
2024.263
2025.338
2026.413
2027.488
2028.563
2029.638
2030.713
2031.788
2032.863
2033.938
2035.013
2036.088
2037.163
2038.238
2039.313
2040.388
2041.463
2042.538
2043.613
2044.688
2045.763
2046.838
2047.913
2048.988
2050.063
2051.138
2052.213
2053.288
2054.363
2055.438
2056.513
2057.588
2058.663
2059.738
2060.813
2061.888
2062.963
2064.038
2065.113
2066.188
2067.263
2068.338
2069.413
2070.488
2071.563
2072.638
2073.713
2074.788
2075.863
2076.938
2078.013
2079.088
2080.163
2081.238
2082.313
2083.388
2084.463
2085.538
2086.613
2087.688
2088.763
2089.838
2090.913
2091.988
2093.063
2094.138
2095.213
2096.288
2097.363
2098.438
2099.513
2100.588
2101.663
2102.738
2103.813
2104.888
2105.963
2107.038
2108.113
2109.188
2110.263
2111.338
2112.413
2113.488
2114.563
2115.638
2116.713
2117.788
2118.863
2119.938
2121.013
2122.088
2123.163
2124.238
2125.313
2126.388
2127.463
2128.538
2129.613
2130.688
2131.763
2132.838
2133.913
2134.988
2136.063
2137.138
2138.213
2139.288
2140.363
2141.438
2142.513
2143.588
2144.663
2145.738
2146.813
2147.888
2148.963
2150.038
2151.113
2152.188
2153.263
2154.338
2155.413
2156.488
2157.563
2158.638
2159.713
2160.788
2161.863
2162.938
2164.013
2165.088
2166.163
2167.238
2168.313
2169.388
2170.463
2171.538
2172.613
2173.688
2174.763
2175.838
2176.913
2177.988
2179.063
2180.138
2181.213
2182.288
2183.363
2184.438
2185.513
2186.588
2187.663
2188.738
2189.813
2190.888
2191.963
2193.038
2194.113
2195.188
2196.263
2197.338
2198.413
2199.488
2200.563
2201.638
2202.713
2203.788
2203.397
2203.006
2202.615
2202.224
2201.833
2201.442
2201.051
2200.660
2200.269
2199.878
2199.487
2199.096
2198.705
2198.314
2197.923
2197.532
2197.141
2196.750
2196.359
2195.968
2195.577
2195.186
2194.795
2194.404
2194.013
2193.622
2193.231
2192.840
2192.449
2192.058
2191.667
2191.276
2190.885
2190.494
2190.103
2189.712
2189.321
2188.930
2188.539
2188.148
2187.757
2187.366
2186.975
2186.584
2186.193
2185.802
2185.411
2185.020
2184.629
2184.238
2183.847
2183.456
2183.065
2182.674
2182.283
2181.892
2181.501
2181.110
2180.719
2180.328
2179.937
2179.546
2179.155
2178.764
2178.373
2177.982
2177.591
2177.200
2176.809
2176.418
2176.027
2175.636
2175.245
2174.854
2174.463
2174.072
2173.681
2173.290
2172.899
2172.508
2172.117
2171.726
2171.335
2170.944
2170.553
2170.162
2169.771
2169.380
2168.989
2168.598
2168.207
2167.816
2167.425
2167.034
2166.643
2166.252
2165.861
2165.470
2165.079
2164.688
2164.297
2163.906
2163.515
2163.124
2162.733
2162.342
2161.951
2161.560
2161.169
2160.778
2160.387
2159.996
2159.605
2159.214
2158.823
2158.432
2158.041
2157.650
2157.259
2156.868
2156.477
2156.086
2155.695
2155.304
2154.913
2154.522
2154.131
2153.740
2153.349
2152.958
2152.567
2152.176
2151.785
2151.394
2151.003
2150.612
2150.221
2149.830
2149.439
2149.048
2148.657
2148.266
2147.875
2147.484
2147.093
2146.702
2146.311
2145.920
2145.529
2145.138
2144.747
2144.356
2143.965
