95.958
95.958
95.958
95.958
95.958
95.958
95.958
95.958
95.958
95.958
95.958
95.958
95.958
95.958
95.958
95.958
95.958
95.958
95.958
95.958
95.958
95.958
95.958
95.958
95.958
95.958
95.958
95.958
95.958
95.958
95.958
95.958
95.958
95.958
95.958
95.958
95.958
95.958
95.958
95.958
95.933
95.909
95.884
95.860
95.835
95.811
95.786
95.762
95.737
95.713
95.688
95.664
95.639
95.615
95.590
95.566
95.541
95.517
95.492
95.468
95.443
95.419
95.394
95.370
95.345
95.321
95.296
95.272
95.247
95.223
95.198
95.174
95.149
95.125
95.100
95.076
95.051
95.027
95.002
94.978
94.953
94.929
94.904
94.880
94.855
94.831
94.806
94.782
94.757
94.733
94.708
94.684
94.659
94.635
94.610
94.586
94.561
94.537
94.512
94.488
94.463
94.439
94.414
94.390
94.365
94.341
94.316
94.292
94.267
94.243
94.218
94.194
94.169
94.145
94.120
94.096
94.071
94.047
94.022
93.998
93.973
93.949
93.924
93.900
93.875
93.851
93.826
93.802
93.777
93.753
93.728
93.704
93.679
93.655
93.630
93.606
93.581
93.557
93.532
93.508
93.483
93.459
93.434
93.410
93.385
93.361
93.336
93.312
93.287
93.263
93.238
93.214
93.189
93.165
93.140
93.116
93.091
93.067
93.042
93.018
92.993
92.969
92.944
92.920
92.895
92.871
92.846
92.822
92.797
92.773
92.748
92.724
92.699
92.675
92.650
92.626
92.601
92.577
92.552
92.528
92.503
92.479
92.454
92.430
92.405
92.381
92.356
92.332
92.307
92.283
92.258
92.234
92.209
92.185
92.160
92.136
92.111
92.087
92.062
92.038
92.013
91.989
91.964
91.940
91.915
91.891
91.866
91.842
91.817
91.793
91.768
91.744
91.719
91.695
91.670
91.646
91.621
91.597
91.572
91.548
91.523
91.499
91.474
91.450
91.425
91.401
91.376
91.352
91.327
91.303
91.278
91.254
91.229
91.205
91.180
91.156
91.131
91.107
91.082
91.058
91.082
91.107
91.131
91.156
91.180
91.205
91.229
91.254
91.278
91.303
91.327
91.352
91.376
91.401
91.425
91.450
91.474
91.499
91.523
91.548
91.572
91.597
91.621
91.646
91.670
91.695
91.719
91.744
91.768
91.793
91.817
91.842
91.866
91.891
91.915
91.940
91.964
91.989
92.013
92.038
92.062
92.087
92.111
92.136
92.160
92.185
92.209
92.234
92.258
92.283
92.307
92.332
92.356
92.381
92.405
92.430
92.454
92.479
92.503
92.528
92.552
92.577
92.601
92.626
92.650
92.675
92.699
92.724
92.748
92.773
92.797
92.822
92.846
92.871
92.895
92.920
92.944
92.969
92.993
93.018
93.042
93.067
93.091
93.116
93.140
93.165
93.189
93.214
93.238
93.263
93.287
93.312
93.336
93.361
93.385
93.410
93.434
93.459
93.483
93.508
93.532
93.557
93.581
93.606
93.630
93.655
93.679
93.704
93.728
93.753
93.777
93.802
93.826
93.851
93.875
93.900
93.924
93.949
93.973
93.998
94.022
94.047
94.071
94.096
94.120
94.145
94.169
94.194
94.218
94.243
94.267
94.292
94.316
94.341
94.365
94.390
94.414
94.439
94.463
94.488
94.512
94.537
94.561
94.586
94.610
94.635
94.659
94.684
94.708
94.733
94.757
94.782
94.806
94.831
94.855
94.880
94.904
94.929
94.953
94.978
95.002
95.027
95.051
95.076
95.100
95.125
95.149
95.174
95.198
95.223
95.247
95.272
95.296
95.321
95.345
95.370
95.394
95.419
95.443
95.468
95.492
95.517
95.541
95.566
95.590
95.615
95.639
95.664
95.688
95.713
95.737
95.762
95.786
95.811
95.835
95.860
95.884
95.909
95.933
511.358
514.388
517.419
520.449
523.480
526.510
529.541
532.571
535.602
538.632
541.663
544.693
547.724
550.754
553.785
556.815
559.846
562.876
565.907
568.937
571.968
574.998
578.029
581.059
584.090
587.120
590.151
593.181
596.212
599.242
602.273
605.303
608.334
611.364
614.395
617.425
620.456
623.486
626.517
629.547
632.578
635.608
638.639
641.669
644.700
647.730
650.761
653.791
656.822
659.852
662.883
665.913
668.944
671.974
675.005
678.035
681.066
684.096
687.127
690.157
693.188
696.218
699.249
702.279
705.310
708.340
711.371
714.401
717.432
720.462
723.493
726.523
729.554
732.584
735.615
738.645
741.676
744.706
747.737
750.767
753.798
756.828
759.859
762.889
765.920
768.950
771.981
775.011
778.042
781.072
784.103
787.133
790.164
793.194
796.225
799.255
802.286
805.316
808.347
811.377
814.408
817.438
820.469
823.499
826.530
829.560
832.591
835.621
838.652
841.682
844.713
847.743
850.774
853.804
856.835
859.865
862.896
865.926
868.957
871.987
875.018
878.048
881.079
884.109
887.140
890.170
893.201
896.231
899.262
902.292
905.323
908.353
911.384
914.414
917.445
920.475
923.506
926.536
929.567
932.597
935.628
938.658
941.689
944.719
947.750
950.780
953.811
956.841
959.872
962.902
965.933
968.963
971.994
975.024
978.055
981.085
984.116
987.146
990.177
993.207
996.238
999.268
1002.299
1005.329
1008.360
1011.390
1014.421
1017.451
1020.482
1023.512
1026.543
1029.573
1032.604
1035.634
1038.665
1041.695
1044.726
1047.756
1050.787
1053.817
1056.848
1059.878
1062.909
1065.939
1068.970
1072.000
1075.031
1078.061
1081.092
1084.122
1087.153
1090.183
1093.214
1096.244
1099.275
1102.305
1105.336
1108.366
1111.397
1114.427
1117.458
1119.901
1122.345
1124.788
1127.232
1129.675
1132.119
1134.562
1137.006
1139.449
1141.893
1144.336
1146.780
1149.223
1151.667
1154.110
1156.554
1158.997
1161.441
1163.884
1166.328
1168.771
1171.215
1173.658
1176.102
1178.545
1180.989
1183.432
1185.876
1188.319
1190.763
1193.206
1195.650
1198.093
1200.537
1202.980
1205.424
1207.867
1210.311
1212.754
1215.198
1217.641
1220.085
1222.528
1224.972
1227.415
1229.859
1232.302
1234.746
1237.189
1239.633
1242.076
1244.520
1246.963
1249.407
1251.850
1254.294
1256.737
1259.181
1261.624
1264.068
1266.511
1268.955
1271.398
1273.842
1276.285
1278.729
1281.172
1283.616
1286.059
1288.503
1290.946
1293.390
1295.833
1298.277
1300.720
1303.164
1305.607
1308.051
1310.494
1312.938
1315.381
1317.825
1320.268
1322.712
1325.155
1327.599
1330.042
1332.486
1334.929
1337.373
1339.816
1342.260
1344.703
1347.147
1349.590
1352.034
1354.477
1356.921
1359.364
1361.808
1364.251
1366.695
1369.138
1371.582
1374.025
1376.469
1378.912
1381.356
1383.799
1386.243
1388.686
1391.130
1393.573
1396.017
1398.460
1400.904
1403.347
1405.791
1408.234
1410.678
1413.121
1415.565
1418.008
1420.452
1422.895
1425.339
1427.782
1430.226
1432.669
1435.113
1437.556
1440.000
1442.443
1444.887
1447.330
1449.774
1452.217
1454.661
1457.104
1459.548
1461.991
1464.435
1466.878
1469.322
1471.765
1474.209
1476.652
1479.096
1481.539
1483.983
1486.426
1488.870
1491.313
1493.757
1496.200
1498.644
1501.087
1503.531
1505.974
1508.418
1510.861
1513.305
1515.748
1518.192
1520.635
1523.079
1525.522
1527.966
1530.409
1532.853
1535.296
1537.740
1540.183
1542.627
1545.070
1547.514
1549.957
1552.401
1554.844
1557.288
1559.731
1562.175
1564.618
1567.062
1569.505
1571.949
1574.392
1576.836
1579.279
1581.723
1584.166
1586.610
1589.053
1591.497
1593.940
1596.384
1598.827
1601.271
1603.714
1606.158
1608.260
1610.362
1612.464
1614.566
1616.668
1618.770
1620.872
1622.974
1625.076
1627.178
1629.280
1631.382
1633.484
1635.586
1637.688
1639.790
1641.892
1643.994
1646.096
1648.198
1650.300
1652.402
1654.504
1656.606
1658.708
1660.810
1662.912
1665.014
1667.116
1669.218
1671.320
1673.422
1675.524
1677.626
1679.728
1681.830
1683.932
1686.034
1688.136
1690.238
1692.340
1694.442
1696.544
1698.646
1700.748
1702.850
1704.952
1707.054
1709.156
1711.258
1713.360
1715.462
1717.564
1719.666
1721.768
1723.870
1725.972
1728.074
1730.176
1732.278
1734.380
1736.482
1738.584
1740.686
1742.788
1744.890
1746.992
1749.094
1751.196
1753.298
1755.400
1757.502
1759.604
1761.706
1763.808
1765.910
1768.012
1770.114
1772.216
1774.318
1776.420
1778.522
1780.624
1782.726
1784.828
1786.930
1789.032
1791.134
1793.236
1795.338
1797.440
1799.542
1801.644
1803.746
1805.848
1807.950
1810.052
1812.154
1814.256
1816.358
1818.460
1820.562
1822.664
1824.766
1826.868
1828.970
1831.072
1833.174
1835.276
1837.378
1839.480
1841.582
1843.684
1845.786
1847.888
1849.990
1852.092
1854.194
1856.296
1858.398
1860.500
1862.602
1864.704
1866.806
1868.908
1871.010
1873.112
1875.214
1877.316
1879.418
1881.520
1883.622
1885.724
1887.826
1889.928
1892.030
1894.132
1896.234
1898.336
1900.438
1902.540
1904.642
1906.744
1908.846
1910.948
1913.050
1915.152
1917.254
1919.356
1921.458
1923.560
1925.662
1927.764
1929.866
1931.968
1934.070
1936.172
1938.274
1940.376
1942.478
1944.580
1946.682
1948.784
1950.886
1952.988
1955.090
1957.192
1959.294
1961.396
1963.498
1965.600
1967.702
1969.804
1971.906
1974.008
1976.110
1978.212
1980.314
1982.416
1984.518
1986.620
1988.722
1990.824
1992.926
1995.028
1997.130
1999.232
2001.334
2003.436
2005.538
2007.640
2009.742
2011.844
2013.946
2016.048
2018.150
2020.252
2022.354
2024.456
2026.558
2027.071
2027.584
2028.097
2028.610
2029.123
2029.636
2030.149
2030.662
2031.175
2031.688
2032.201
2032.714
2033.227
2033.740
2034.253
2034.766
2035.279
2035.792
2036.305
2036.818
2037.331
2037.844
2038.357
2038.870
2039.383
2039.896
2040.409
2040.922
2041.435
2041.948
2042.461
2042.974
2043.487
2044.000
2044.513
2045.026
2045.539
2046.052
2046.565
2047.078
2047.591
2048.104
2048.617
2049.130
2049.643
2050.156
2050.669
2051.182
2051.695
2052.208
2052.721
2053.234
2053.747
2054.260
2054.773
2055.286
2055.799
2056.312
2056.825
2057.338
2057.851
2058.364
2058.877
2059.390
2059.903
2060.416
2060.929
2061.442
2061.955
2062.468
2062.981
2063.494
2064.007
2064.520
2065.033
2065.546
2066.059
2066.572
2067.085
2067.598
2068.111
2068.624
2069.137
2069.650
2070.163
2070.676
2071.189
2071.702
2072.215
2072.728
2073.241
2073.754
2074.267
2074.780
2075.293
2075.806
2076.319
2076.832
2077.345
2077.858
2078.371
2078.884
2079.397
2079.910
2080.423
2080.936
2081.449
2081.962
2082.475
2082.988
2083.501
2084.014
2084.527
2085.040
2085.553
2086.066
2086.579
2087.092
2087.605
2088.118
2088.631
2089.144
2089.657
2090.170
2090.683
2091.196
2091.709
2092.222
2092.735
2093.248
2093.761
2094.274
2094.787
2095.300
2095.813
2096.326
2096.839
2097.352
2097.865
2098.378
2098.891
2099.404
2099.917
2100.430
2100.943
2101.456
2101.969
2102.482
2102.995
2103.508
2104.021
2104.534
2105.047
2105.560
2106.073
2106.586
2107.099
2107.612
2108.125
2108.638
2109.151
2109.664
2110.177
2110.690
2111.203
2111.716
2112.229
2112.742
2113.255
2113.768
2114.281
2114.794
2115.307
2115.820
2116.333
2116.846
2117.359
2117.872
2118.385
2118.898
2119.411
2119.924
2120.437
2120.950
2121.463
2121.976
2122.489
2123.002
2123.515
2124.028
2124.541
2125.054
2125.567
2126.080
2126.593
2127.106
2127.619
2128.132
2128.645
2129.158
2127.716
2126.274
2124.832
2123.390
2121.948
2120.506
2119.064
2117.622
2116.180
2114.738
2113.296
2111.854
2110.412
2108.970
2107.528
2106.086
2104.644
2103.202
2101.760
2100.318
2098.876
2097.434
2095.992
2094.550
2093.108
2091.666
2090.224
2088.782
2087.340
2085.898
2084.456
2083.014
2081.572
2080.130
2078.688
2077.246
2075.804
2074.362
2072.920
2071.478
2070.036
2068.594
2067.152
2065.710
2064.268
2062.826
2061.384
2059.942
2058.500
2057.058
2055.616
2054.174
2052.732
2051.290
2049.848
2048.406
2046.964
2045.522
2044.080
2042.638
2041.196
2039.754
2038.312
2036.870
2035.428
2033.986
2032.544
2031.102
2029.660
2028.218
2026.776
2025.334
2023.892
2022.450
2021.008
2019.566
2018.124
2016.682
2015.240
2013.798
2012.356
2010.914
2009.472
2008.030
2006.588
2005.146
2003.704
2002.262
2000.820
1999.378
1997.936
1996.494
1995.052
1993.610
1992.168
1990.726
1989.284
1987.842
1986.400
1984.958
1983.516
1982.074
1980.632
1979.190
1977.748
1976.306
1974.864
1973.422
1971.980
1970.538
1969.096
1967.654
1966.212
1964.770
1963.328
1961.886
1960.444
1959.002
1957.560
1956.118
1954.676
1953.234
1951.792
1950.350
1948.908
1947.466
1946.024
1944.582
1943.140
1941.698
1940.256
1938.814
1937.372
1935.930
1934.488
1933.046
1931.604
1930.162
1928.720
1927.278
1925.836
1924.394
1922.952
1921.510
1920.068
1918.626
1917.184
1915.742
1914.300
1912.858
1911.416
1909.974
1908.532
1907.090
1905.648
1904.206
1902.764
1901.322
1899.880
1898.438
1896.996
1895.554
1894.112
1892.670
1891.228
1889.786
1888.344
1886.902
1885.460
1884.018
1882.576
1881.134
1879.692
1878.250
1876.808
1875.366
1873.924
1872.482
1871.040
1869.598
1868.156
1866.714
1865.272
1863.830
1862.388
1860.946
1859.504
1858.062
1856.620
1855.178
1853.736
1852.294
1850.852
1849.410
1847.968
1846.526
1845.084
1843.642
1842.200
1840.758
1843.128
1845.499
1847.869
1850.240
1852.610
1854.981
1857.351
1859.722
1862.092
1864.463
1866.833
1869.204
1871.574
1873.945
1876.315
1878.686
1881.056
1883.427
1885.797
1888.168
1890.538
1892.909
1895.279
1897.650
1900.020
1902.391
1904.761
1907.132
1909.502
1911.873
1914.243
1916.614
1918.984
1921.355
1923.725
1926.096
1928.466
1930.837
1933.207
1935.578
1937.948
1940.319
1942.689
1945.060
1947.430
1949.801
1952.171
1954.542
1956.912
1959.283
1961.653
1964.024
1966.394
1968.765
1971.135
1973.506
1975.876
1978.247
1980.617
1982.988
1985.358
1987.729
1990.099
1992.470
1994.840
1997.211
1999.581
2001.952
2004.322
2006.693
2009.063
2011.434
2013.804
2016.175
2018.545
2020.916
2023.286
2025.657
2028.027
2030.398
2032.768
2035.139
2037.509
2039.880
2042.250
2044.621
2046.991
2049.362
2051.732
2054.103
2056.473
2058.844
2061.214
2063.585
2065.955
2068.326
2070.696
2073.067
2075.437
2077.808
2080.178
2082.549
2084.919
2087.290
2089.660
2092.031
2094.401
2096.772
2099.142
2101.513
2103.883
2106.254
2108.624
2110.995
2113.365
2115.736
2118.106
2120.477
2122.847
2125.218
2127.588
2129.959
2132.329
2134.700
2137.070
2139.441
2141.811
2144.182
2146.552
2148.923
2151.293
2153.664
2156.034
2158.405
2160.775
2163.146
2165.516
2167.887
2170.257
2172.628
2174.998
2177.369
2179.739
2182.110
2184.480
2186.851
2189.221
2191.592
2193.962
2196.333
2198.703
2201.074
2203.444
2205.815
2208.185
2210.556
2212.926
2215.297
2217.667
2220.038
2222.408
2224.779
2227.149
2229.520
2231.890
2234.261
2236.631
2239.002
2241.372
2243.743
2246.113
2248.484
2250.854
2253.225
2255.595
2257.966
2260.336
2262.707
2265.077
2267.448
2269.818
2272.189
2274.559
2276.930
2279.300
2281.671
2284.041
2286.412
2288.782
2291.153
2293.523
2295.894
2298.264
2300.635
2303.005
2305.376
2307.746
2310.117
2312.487
2314.858
2314.003
2313.148
2312.293
2311.438
2310.583
2309.728
2308.873
2308.018
2307.163
2306.308
2305.453
2304.598
2303.743
2302.888
2302.033
2301.178
2300.323
2299.468
2298.613
2297.758
2296.903
2296.048
2295.193
2294.338
2293.483
2292.628
2291.773
2290.918
2290.063
2289.208
2288.353
2287.498
2286.643
2285.788
2284.933
2284.078
2283.223
2282.368
2281.513
2280.658
2279.803
2278.948
2278.093
2277.238
2276.383
2275.528
2274.673
2273.818
2272.963
2272.108
2271.253
2270.398
2269.543
2268.688
2267.833
2266.978
2266.123
2265.268
2264.413
2263.558
2262.703
2261.848
2260.993
2260.138
2259.283
2258.428
2257.573
2256.718
2255.863
2255.008
2254.153
2253.298
2252.443
2251.588
2250.733
2249.878
2249.023
2248.168
2247.313
2246.458
2245.603
2244.748
2243.893
2243.038
2242.183
2241.328
2240.473
2239.618
2238.763
2237.908
2237.053
2236.198
2235.343
2234.488
2233.633
2232.778
2231.923
2231.068
2230.213
2229.358
2228.503
2227.648
2226.793
2225.938
2225.083
2224.228
2223.373
2222.518
2221.663
2220.808
2219.953
2219.098
2218.243
2217.388
2216.533
2215.678
2214.823
2213.968
2213.113
2212.258
2211.403
2210.548
2209.693
2208.838
2207.983
2207.128
2206.273
2205.418
2204.563
2203.708
2202.853
2201.998
2201.143
2200.288
2199.433
2198.578
2197.723
2196.868
2196.013
2195.158
2194.303
2193.448
2192.593
2191.738
2190.883
2190.028
2189.173
2188.318
2187.463
2186.608
2185.753
2184.898
2184.043
2183.188
2182.333
2181.478
2180.623
2179.768
2178.913
2178.058
2177.203
2176.348
2175.493
2174.638
2173.783
2172.928
2172.073
2171.218
2170.363
2169.508
2168.653
2167.798
2166.943
2166.088
2165.233
2164.378
2163.523
2162.668
2161.813
2160.958
2160.103
2159.248
2158.393
2157.538
2156.683
2155.828
2154.973
2154.118
2153.263
2152.408
2151.553
2150.698
2149.843
2148.988
2148.133
2147.278
2146.423
2145.568
2144.713
2143.858
2141.634
2139.410
2137.186
2134.962
2132.738
2130.514
2128.290
2126.066
2123.842
2121.618
2119.394
2117.170
2114.946
2112.722
2110.498
2108.274
2106.050
2103.826
2101.602
2099.378
2097.154
2094.930
2092.706
2090.482
2088.258
2086.034
2083.810
2081.586
2079.362
2077.138
2074.914
2072.690
2070.466
2068.242
2066.018
2063.794
2061.570
2059.346
2057.122
2054.898
2052.674
2050.450
2048.226
2046.002
2043.778
2041.554
2039.330
2037.106
2034.882
2032.658
2030.434
2028.210
2025.986
2023.762
2021.538
2019.314
2017.090
2014.866
2012.642
2010.418
2008.194
2005.970
2003.746
2001.522
1999.298
1997.074
1994.850
1992.626
1990.402
1988.178
1985.954
1983.730
1981.506
1979.282
1977.058
1974.834
1972.610
1970.386
1968.162
1965.938
1963.714
1961.490
1959.266
1957.042
1954.818
1952.594
1950.370
1948.146
1945.922
1943.698
1941.474
1939.250
1937.026
1934.802
1932.578
1930.354
1928.130
1925.906
1923.682
1921.458
1919.234
1917.010
1914.786
1912.562
1910.338
1908.114
1905.890
1903.666
1901.442
1899.218
1896.994
1894.770
1892.546
1890.322
1888.098
1885.874
1883.650
1881.426
1879.202
1876.978
1874.754
1872.530
1870.306
1868.082
1865.858
1863.634
1861.410
1859.186
1856.962
1854.738
1852.514
1850.290
1848.066
1845.842
1843.618
1841.394
1839.170
1836.946
1834.722
1832.498
1830.274
1828.050
1825.826
1823.602
1821.378
1819.154
1816.930
1814.706
1812.482
1810.258
1808.034
1805.810
1803.586
1801.362
1799.138
1796.914
1794.690
1792.466
1790.242
1788.018
