95.161
95.161
95.161
95.161
95.161
95.161
95.161
95.161
95.161
95.161
95.161
95.161
95.161
95.161
95.161
95.161
95.161
95.161
95.161
95.161
95.161
95.161
95.161
95.161
95.161
95.161
95.161
95.161
95.161
95.161
95.161
95.161
95.161
95.161
95.161
95.161
95.161
95.161
95.161
95.161
95.161
95.161
95.161
95.161
95.161
95.161
95.161
95.161
95.161
95.161
95.161
95.161
95.161
95.161
95.161
95.161
95.161
95.161
95.161
95.161
95.161
95.161
95.161
95.161
95.161
95.161
95.161
95.161
95.161
95.161
95.161
95.161
95.161
95.161
95.161
95.161
95.161
95.161
95.161
95.161
95.161
95.161
95.161
95.161
95.161
95.161
95.161
95.161
95.161
95.161
95.161
95.161
95.161
95.161
95.161
95.161
95.161
95.161
95.161
95.161
95.161
95.161
95.161
95.161
95.161
95.161
95.161
95.161
95.161
95.161
95.161
95.161
95.161
95.161
95.161
95.161
95.161
95.161
95.161
95.161
95.161
95.161
95.161
95.161
95.161
95.161
95.161
95.161
95.161
95.161
95.161
95.161
95.161
95.161
95.161
95.161
95.161
95.161
95.161
95.161
95.161
95.161
95.161
95.161
95.161
95.161
95.161
95.161
95.161
95.161
95.161
95.161
95.161
95.161
95.161
95.161
95.161
95.161
95.161
95.161
95.161
95.161
95.161
95.161
95.161
95.161
95.161
95.161
95.161
95.161
95.161
95.161
95.161
95.161
95.161
95.161
95.161
95.161
95.161
95.161
95.161
95.161
95.161
95.161
95.161
95.161
95.161
95.161
95.161
95.161
95.161
95.161
95.161
95.161
95.161
95.161
95.161
95.161
95.161
95.161
95.161
95.161
95.161
95.161
95.161
95.161
95.161
95.161
95.161
95.161
95.161
95.161
95.161
95.161
95.161
95.161
95.161
95.161
95.161
95.161
95.161
95.161
95.161
95.161
95.161
95.161
95.161
95.161
95.161
95.161
95.161
95.161
95.161
95.161
95.161
95.161
95.161
95.161
95.161
95.161
95.161
95.161
95.161
95.161
95.161
95.161
95.161
95.161
95.161
95.161
95.161
95.161
95.161
95.161
95.161
95.161
95.161
95.161
95.161
95.161
95.161
95.161
95.161
95.161
95.161
95.161
95.161
95.161
95.161
95.161
95.161
95.161
95.161
95.161
95.161
95.161
95.161
95.161
95.161
95.161
95.161
95.161
95.161
95.161
95.161
95.161
95.161
95.161
95.161
95.161
95.161
95.161
95.161
95.161
95.161
95.161
95.161
95.161
95.161
95.161
95.161
95.161
95.161
95.161
95.161
95.161
95.161
95.161
95.161
95.161
95.161
95.161
95.161
95.161
95.161
95.161
95.161
95.161
95.161
95.161
95.161
95.161
95.161
95.161
95.161
95.161
95.161
95.161
95.161
95.161
95.161
95.161
95.161
95.161
95.161
95.161
95.161
95.161
95.161
95.161
95.161
95.161
95.161
95.161
95.161
95.161
95.161
95.161
95.161
95.161
95.161
95.161
95.161
95.161
95.161
95.161
95.161
95.161
95.161
95.161
95.161
95.161
95.161
95.161
95.161
95.161
95.161
95.161
95.161
95.161
95.161
95.161
95.161
95.161
95.161
95.161
95.161
95.161
95.161
95.161
95.161
95.161
95.161
95.161
95.161
95.161
95.161
95.161
95.161
95.161
95.161
95.161
95.161
95.161
95.161
95.161
95.161
95.161
95.161
95.161
95.161
95.161
95.161
95.161
95.161
95.161
95.161
95.161
95.161
95.161
95.161
95.161
95.161
95.161
95.161
95.161
95.161
95.161
95.161
95.161
95.161
95.161
95.161
95.161
95.161
95.161
95.161
95.161
95.161
95.161
95.161
95.161
95.161
95.161
95.161
95.161
95.161
95.161
95.161
95.161
95.161
95.161
95.161
95.161
95.161
95.161
95.161
95.161
95.161
95.161
95.161
95.161
95.161
95.161
95.161
95.161
95.161
95.161
95.161
95.161
95.161
95.161
95.161
95.161
95.161
95.161
95.161
95.161
95.161
95.161
95.161
95.161
95.161
95.161
95.161
95.161
95.161
95.161
95.161
95.161
95.161
95.161
95.161
95.161
95.161
95.161
95.161
95.161
95.161
95.161
95.161
95.161
95.161
95.161
95.161
95.161
95.161
95.161
95.161
95.161
95.161
95.161
95.161
95.161
95.161
95.161
95.161
95.161
95.161
95.161
95.161
95.161
95.161
95.161
95.161
95.161
95.161
95.161
95.161
95.161
95.161
95.161
95.161
95.161
95.161
95.161
95.161
95.161
95.161
95.161
95.161
95.161
95.161
95.161
95.161
95.161
95.161
95.161
95.161
95.161
95.161
95.161
95.161
95.161
95.161
95.161
95.161
95.161
95.161
95.161
95.161
95.161
95.161
95.161
95.161
95.161
95.161
95.161
95.161
95.161
95.161
95.161
95.161
95.161
95.161
95.161
95.161
95.161
95.161
95.161
95.161
95.161
95.161
95.161
95.161
95.161
95.161
95.161
95.161
95.161
95.161
95.161
95.161
95.161
95.161
95.161
95.161
95.161
95.161
95.161
95.161
95.161
95.161
95.161
95.161
95.161
95.161
95.161
95.161
95.161
95.161
95.161
95.161
95.161
95.161
95.161
95.161
95.161
95.161
95.161
95.161
95.161
95.161
95.161
95.161
95.161
95.161
95.161
95.161
95.161
95.161
95.161
95.161
95.161
95.161
95.161
95.161
95.161
95.161
95.161
95.161
95.161
95.161
95.161
95.161
95.161
95.161
95.161
95.161
95.161
95.161
95.161
95.161
95.161
95.161
95.161
95.161
95.161
95.161
95.161
95.161
95.161
95.161
95.161
95.161
95.161
95.161
95.161
95.161
95.161
95.161
95.161
95.161
95.161
95.161
95.161
95.161
95.161
95.161
95.161
95.161
95.161
95.161
95.161
95.161
95.161
95.161
95.161
95.161
95.161
95.161
95.161
95.161
95.161
95.161
95.161
95.161
95.161
95.161
95.161
95.161
95.161
95.161
95.161
95.161
95.161
95.161
95.161
95.161
95.161
95.161
95.161
95.161
95.161
95.161
95.161
95.161
95.161
95.161
95.161
95.161
95.161
95.161
95.161
95.161
95.161
95.161
95.161
95.161
95.161
95.161
95.161
95.161
95.161
95.161
95.161
95.161
95.161
95.161
95.161
95.161
95.161
95.161
95.161
95.161
95.161
95.161
95.161
95.161
95.161
95.161
95.161
95.161
95.161
95.161
95.161
95.161
95.161
95.161
95.161
95.161
95.161
95.161
95.161
95.161
95.161
95.161
95.161
95.161
95.161
95.161
95.161
95.161
95.161
95.161
95.161
95.161
95.161
95.161
95.161
95.161
95.161
95.161
95.161
95.161
95.161
95.161
95.161
95.161
95.161
95.161
95.161
95.161
95.161
95.161
95.161
95.161
95.161
95.161
95.161
95.161
95.161
95.161
95.161
95.161
95.161
95.161
95.161
95.161
95.161
95.161
95.161
95.161
95.161
95.161
95.161
95.161
95.161
95.161
95.161
95.161
95.161
95.161
95.161
95.161
95.161
95.161
95.161
95.161
95.161
95.161
95.161
95.161
95.161
95.161
95.161
95.161
95.161
95.161
95.161
95.161
95.161
95.161
95.161
95.161
95.161
95.161
95.161
95.161
95.161
95.161
95.161
95.161
95.161
95.161
95.161
95.161
95.161
95.161
95.161
95.161
95.161
95.161
95.161
95.161
95.161
95.161
95.161
95.161
95.161
95.161
95.161
95.161
95.161
95.161
95.161
95.161
95.161
95.161
95.161
95.161
95.161
95.161
95.161
95.161
95.161
95.161
95.161
95.161
95.161
95.161
95.161
95.161
95.161
95.161
95.161
95.161
95.161
95.161
95.161
95.161
95.161
95.161
95.161
95.161
95.161
95.161
95.161
95.161
95.161
95.161
95.161
95.161
95.161
95.161
95.161
95.161
95.161
95.161
95.161
95.136
95.112
95.087
95.063
95.038
95.014
94.989
94.965
94.940
94.916
94.891
94.867
94.842
94.818
94.793
94.769
94.744
94.720
94.695
94.671
94.646
94.622
94.597
94.573
94.548
94.524
94.499
94.475
94.450
94.426
94.401
94.377
94.352
94.328
94.303
94.279
94.254
94.230
94.205
94.181
94.156
94.132
94.107
94.083
94.058
94.034
94.009
93.985
93.960
93.936
93.911
93.887
93.862
93.838
93.813
93.789
93.764
93.740
93.715
93.691
93.666
93.642
93.617
93.593
93.568
93.544
93.519
93.495
93.470
93.446
93.421
93.397
93.372
93.348
93.323
93.299
93.274
93.250
93.225
93.201
93.176
93.152
93.127
93.103
93.078
93.054
93.029
93.005
92.980
92.956
92.931
92.907
92.882
92.858
92.833
92.809
92.784
92.760
92.735
92.711
92.686
92.662
92.637
92.613
92.588
92.564
92.539
92.515
92.490
92.466
92.441
92.417
92.392
92.368
92.343
92.319
92.294
92.270
92.245
92.221
92.196
92.172
92.147
92.123
92.098
92.074
92.049
92.025
92.000
91.976
91.951
91.927
91.902
91.878
91.853
91.829
91.804
91.780
91.755
91.731
91.706
91.682
91.657
91.633
91.608
91.584
91.559
91.535
91.510
91.486
91.461
91.437
91.412
91.388
91.363
91.339
91.314
91.290
91.265
91.241
91.216
91.192
91.167
91.143
91.118
91.094
91.069
91.045
91.020
90.996
90.971
90.947
90.922
90.898
90.873
90.849
90.824
90.800
90.775
90.751
90.726
90.702
90.677
90.653
90.628
90.604
90.579
90.555
90.530
90.506
90.481
90.457
90.432
90.408
90.383
90.359
90.334
90.310
90.285
90.261
90.334
90.407
90.480
90.553
90.626
90.699
90.772
90.845
90.918
90.991
91.064
91.137
91.210
91.283
91.356
91.429
91.502
91.575
91.648
91.721
91.794
91.867
91.940
92.013
92.086
92.159
92.232
92.305
92.378
92.451
92.524
92.597
92.670
92.743
92.816
92.889
92.962
93.035
93.108
93.181
93.254
93.327
93.400
93.473
93.546
93.619
93.692
93.765
93.838
93.911
93.984
94.057
94.130
94.203
94.276
94.349
94.422
94.495
94.568
94.641
94.714
94.787
94.860
94.933
95.006
95.079
95.152
95.225
95.298
95.371
95.444
95.517
95.590
95.663
95.736
95.809
95.882
95.955
96.028
96.101
96.174
96.247
96.320
96.393
96.466
96.539
96.612
96.685
96.758
96.831
96.904
96.977
97.050
97.123
97.196
97.269
97.342
97.415
97.488
97.561
97.634
97.707
97.780
97.853
97.926
97.999
98.072
98.145
98.218
98.291
98.364
98.437
98.510
98.583
98.656
98.729
98.802
98.875
98.948
99.021
99.094
99.167
99.240
99.313
99.386
99.459
99.532
99.605
99.678
99.751
99.824
99.897
99.970
100.043
100.116
100.189
100.262
100.335
100.408
100.481
100.554
100.627
100.700
100.773
100.846
100.919
100.992
101.065
101.138
101.211
101.284
101.357
101.430
101.503
101.576
101.649
101.722
101.795
101.868
101.941
102.014
102.087
102.160
102.233
102.306
102.379
102.452
102.525
102.598
102.671
102.744
102.817
102.890
102.963
103.036
103.109
103.182
103.255
103.328
103.401
103.474
103.547
103.620
103.693
103.766
103.839
103.912
103.985
104.058
104.131
104.204
104.277
104.350
104.423
104.496
104.569
104.642
104.715
104.788
104.861
104.812
104.764
104.715
104.667
104.618
104.570
104.521
104.473
104.424
104.376
104.327
104.279
104.230
104.182
104.133
104.085
104.036
103.988
103.939
103.891
103.842
103.794
103.745
103.697
103.648
103.600
103.551
103.503
103.454
103.406
103.357
103.309
103.260
103.212
103.163
103.115
103.066
103.018
102.969
102.921
102.872
102.824
102.775
102.727
102.678
102.630
102.581
102.533
102.484
102.436
102.387
102.339
102.290
102.242
102.193
102.145
102.096
102.048
101.999
101.951
101.902
101.854
101.805
101.757
101.708
101.660
101.611
101.563
101.514
101.466
101.417
101.369
101.320
101.272
101.223
101.175
101.126
101.078
101.029
100.981
100.932
100.884
100.835
100.787
100.738
100.690
100.641
100.593
100.544
100.496
100.447
100.399
100.350
100.302
100.253
100.205
100.156
100.108
100.059
100.011
99.962
99.914
99.865
99.817
99.768
99.720
99.671
99.623
99.574
99.526
99.477
99.429
99.380
99.332
99.283
99.235
99.186
99.138
99.089
99.041
98.992
98.944
98.895
98.847
98.798
98.750
98.701
98.653
98.604
98.556
98.507
98.459
98.410
98.362
98.313
98.265
98.216
98.168
98.119
98.071
98.022
97.974
97.925
97.877
97.828
97.780
97.731
97.683
97.634
97.586
97.537
97.489
97.440
97.392
97.343
97.295
97.246
97.198
97.149
97.101
97.052
97.004
96.955
96.907
96.858
96.810
96.761
96.713
96.664
96.616
96.567
96.519
96.470
96.422
96.373
96.325
96.276
96.228
96.179
96.131
96.082
96.034
95.985
95.937
95.888
95.840
95.791
95.743
95.694
95.646
95.597
95.549
95.500
95.452
95.403
95.355
95.306
95.258
95.209
95.161
95.161
95.161
95.161
95.161
95.161
95.161
95.161
95.161
95.161
95.161
95.161
95.161
95.161
95.161
95.161
95.161
95.161
95.161
95.161
95.161
95.161
95.161
95.161
95.161
95.161
95.161
95.161
95.161
95.161
95.161
95.161
95.161
95.161
95.161
95.161
95.161
95.161
95.161
95.161
95.161
95.161
95.161
95.161
95.161
95.161
95.161
95.161
95.161
95.161
95.161
95.161
95.161
95.161
95.161
95.161
95.161
95.161
95.161
95.161
95.161
95.161
95.161
95.161
95.161
95.161
95.161
95.161
95.161
95.161
95.161
95.161
95.161
95.161
95.161
95.161
95.161
95.161
95.161
95.161
95.161
95.161
95.161
95.161
95.161
95.161
95.161
95.161
95.161
95.161
95.161
95.161
95.161
95.161
95.161
95.161
95.161
95.161
95.161
95.161
95.161
95.161
95.161
95.161
95.161
95.161
95.161
95.161
95.161
95.161
95.161
95.161
95.161
95.161
95.161
95.161
95.161
95.161
95.161
95.161
95.161
95.161
95.161
95.161
95.161
95.161
95.161
95.161
95.161
95.161
95.161
95.161
95.161
95.161
95.161
95.161
95.161
95.161
95.161
95.161
95.161
95.161
95.161
95.161
95.161
95.161
95.161
95.161
95.161
95.161
95.161
95.161
95.161
95.161
95.161
95.161
95.161
95.161
95.161
95.161
95.161
95.161
95.161
95.161
95.161
95.161
95.161
95.161
95.161
95.161
95.161
95.161
95.161
95.161
95.161
95.161
95.161
95.161
95.161
95.161
95.161
95.161
95.161
95.161
95.161
95.161
95.161
95.161
95.161
95.161
95.161
95.161
95.161
95.161
95.161
95.161
95.161
95.161
95.161
95.161
95.161
95.161
95.161
95.161
95.161
95.161
95.161
95.161
95.161
95.161
95.161
95.161
95.161
95.161
95.161
95.161
95.161
95.161
95.161
95.161
95.161
95.161
95.161
95.161
95.161
95.161
95.161
95.161
95.161
95.161
95.161
95.161
95.161
95.161
95.161
95.161
95.161
95.161
95.161
95.161
95.161
95.161
95.161
95.161
95.161
95.161
95.161
95.161
95.161
95.161
95.161
95.161
95.161
95.161
95.161
95.161
95.161
95.161
95.161
95.161
95.161
95.161
95.161
95.161
95.161
95.161
95.161
95.161
95.161
95.161
95.161
95.161
95.161
95.161
95.161
95.161
95.161
95.161
95.161
95.161
95.161
95.161
95.161
95.161
95.161
95.161
95.161
95.161
95.161
95.161
95.161
95.161
95.161
95.161
95.161
95.161
95.161
95.161
95.161
95.161
95.161
95.161
95.161
95.161
95.161
95.161
95.161
95.161
95.161
95.161
95.161
95.161
95.161
95.161
95.161
95.161
95.161
95.161
95.161
95.161
95.161
95.161
95.161
95.161
95.161
95.161
95.161
95.161
95.161
95.161
95.161
95.161
95.161
95.161
95.161
95.161
95.161
95.161
95.161
95.161
95.161
95.161
95.161
95.161
95.161
95.161
95.161
95.161
95.161
95.161
95.161
95.161
95.161
95.161
95.161
95.161
95.161
95.161
95.161
95.161
95.161
95.161
95.161
95.161
95.161
95.161
95.161
95.161
95.161
95.161
95.161
95.161
95.161
95.161
95.161
95.161
95.161
95.161
95.161
95.161
95.161
95.161
95.161
95.161
95.161
95.161
95.161
95.161
95.161
95.161
95.161
95.161
95.161
95.161
95.161
95.161
95.161
95.161
95.161
95.161
1336.561
1338.980
1341.400
1343.819
1346.239
1348.658
1351.078
1353.497
1355.917
1358.336
1360.756
1363.175
1365.595
1368.014
1370.434
1372.853
1375.273
1377.692
1380.112
1382.531
1384.951
1387.370
1389.790
1392.209
1394.629
1397.048
1399.468
1401.887
1404.307
1406.726
1409.146
1411.565
1413.985
1416.404
1418.824
1421.243
1423.663
1426.082
1428.502
1430.921
1433.341
1435.760
1438.180
1440.599
1443.019
1445.438
1447.858
1450.277
1452.697
1455.116
1457.536
1459.955
1462.375
1464.794
1467.214
1469.633
1472.053
1474.472
1476.892
1479.311
1481.731
1484.150
1486.570
1488.989
1491.409
1493.828
1496.248
1498.667
1501.087
1503.506
1505.926
1508.345
1510.765
1513.184
1515.604
1518.023
1520.443
1522.862
1525.282
1527.701
1530.121
1532.540
1534.960
1537.379
1539.799
1542.218
1544.638
1547.057
1549.477
1551.896
1554.316
