77.650
77.650
77.650
77.650
77.650
77.650
77.650
77.650
77.650
77.650
77.650
77.650
77.650
77.650
77.650
77.650
77.650
77.650
77.650
77.650
77.650
77.650
77.650
77.650
77.650
77.650
77.650
77.650
77.650
77.650
77.650
77.650
77.650
77.650
77.650
77.650
77.650
77.650
77.650
77.650
77.650
77.650
77.650
77.650
77.650
77.650
77.650
77.650
77.650
77.650
77.650
77.650
77.650
77.650
77.650
77.650
77.650
77.650
77.650
77.650
77.650
77.650
77.650
77.650
77.650
77.650
77.650
77.650
77.650
77.650
77.650
77.650
77.650
77.650
77.650
77.650
77.650
77.650
77.650
77.650
77.650
77.650
77.650
77.650
77.650
77.650
77.650
77.650
77.650
77.650
77.650
77.650
77.650
77.650
77.650
77.650
77.650
77.650
77.650
77.650
77.650
77.650
77.650
77.650
77.650
77.650
77.650
77.650
77.650
77.650
77.650
77.650
77.650
77.650
77.650
77.650
77.650
77.650
77.650
77.650
77.650
77.650
77.650
77.650
77.650
77.650
77.650
77.650
77.650
77.650
77.650
77.650
77.650
77.650
77.650
77.650
77.650
77.650
77.650
77.650
77.650
77.650
77.650
77.650
77.650
77.650
77.650
77.650
77.650
77.650
77.650
77.650
77.650
77.650
77.650
77.650
77.650
77.650
77.650
77.650
77.650
77.650
77.650
77.650
77.650
77.650
77.650
77.650
77.650
77.650
77.650
77.650
77.650
77.650
77.650
77.650
77.650
77.650
77.650
77.650
77.650
77.650
77.650
77.650
77.650
77.650
77.650
77.650
77.650
77.650
77.650
77.650
77.650
77.650
77.650
77.625
77.601
77.576
77.552
77.527
77.503
77.478
77.454
77.429
77.405
77.380
77.356
77.331
77.307
77.282
77.258
77.233
77.209
77.184
77.160
77.135
77.111
77.086
77.062
77.037
77.013
76.988
76.964
76.939
76.915
76.890
76.866
76.841
76.817
76.792
76.768
76.743
76.719
76.694
76.670
76.645
76.621
76.596
76.572
76.547
76.523
76.498
76.474
76.449
76.425
76.400
76.376
76.351
76.327
76.302
76.278
76.253
76.229
76.204
76.180
76.155
76.131
76.106
76.082
76.057
76.033
76.008
75.984
75.959
75.935
75.910
75.886
75.861
75.837
75.812
75.788
75.763
75.739
75.714
75.690
75.665
75.641
75.616
75.592
75.567
75.543
75.518
75.494
75.469
75.445
75.420
75.396
75.371
75.347
75.322
75.298
75.273
75.249
75.224
75.200
75.175
75.151
75.126
75.102
75.077
75.053
75.028
75.004
74.979
74.955
74.930
74.906
74.881
74.857
74.832
74.808
74.783
74.759
74.734
74.710
74.685
74.661
74.636
74.612
74.587
74.563
74.538
74.514
74.489
74.465
74.440
74.416
74.391
74.367
74.342
74.318
74.293
74.269
74.244
74.220
74.195
74.171
74.146
74.122
74.097
74.073
74.048
74.024
73.999
73.975
73.950
73.926
73.901
73.877
73.852
73.828
73.803
73.779
73.754
73.730
73.705
73.681
73.656
73.632
73.607
73.583
73.558
73.534
73.509
73.485
73.460
73.436
73.411
73.387
73.362
73.338
73.313
73.289
73.264
73.240
73.215
73.191
73.166
73.142
73.117
73.093
73.068
73.044
73.019
72.995
72.970
72.946
72.921
72.897
72.872
72.848
72.823
72.799
72.774
72.750
72.774
72.799
72.823
72.848
72.872
72.897
72.921
72.946
72.970
72.995
73.019
73.044
73.068
73.093
73.117
73.142
73.166
73.191
73.215
73.240
73.264
73.289
73.313
73.338
73.362
73.387
73.411
73.436
73.460
73.485
73.509
73.534
73.558
73.583
73.607
73.632
73.656
73.681
73.705
73.730
73.754
73.779
73.803
73.828
73.852
73.877
73.901
73.926
73.950
73.975
73.999
74.024
74.048
74.073
74.097
74.122
74.146
74.171
74.195
74.220
74.244
74.269
74.293
74.318
74.342
74.367
74.391
74.416
74.440
74.465
74.489
74.514
74.538
74.563
74.587
74.612
74.636
74.661
74.685
74.710
74.734
74.759
74.783
74.808
74.832
74.857
74.881
74.906
74.930
74.955
74.979
75.004
75.028
75.053
75.077
75.102
75.126
75.151
75.175
75.200
75.224
75.249
75.273
75.298
75.322
75.347
75.371
75.396
75.420
75.445
75.469
75.494
75.518
75.543
75.567
75.592
75.616
75.641
75.665
75.690
75.714
75.739
75.763
75.788
75.812
75.837
75.861
75.886
75.910
75.935
75.959
75.984
76.008
76.033
76.057
76.082
76.106
76.131
76.155
76.180
76.204
76.229
76.253
76.278
76.302
76.327
76.351
76.376
76.400
76.425
76.449
76.474
76.498
76.523
76.547
76.572
76.596
76.621
76.645
76.670
76.694
76.719
76.743
76.768
76.792
76.817
76.841
76.866
76.890
76.915
76.939
76.964
76.988
77.013
77.037
77.062
77.086
77.111
77.135
77.160
77.184
77.209
77.233
77.258
77.282
77.307
77.331
77.356
77.380
77.405
77.429
77.454
77.478
77.503
77.527
77.552
77.576
77.601
77.625
77.650
77.650
77.650
77.650
77.650
77.650
77.650
77.650
77.650
77.650
77.650
77.650
77.650
77.650
77.650
77.650
77.650
77.650
77.650
77.650
77.650
77.650
77.650
77.650
77.650
77.650
77.650
77.650
77.650
77.650
77.650
77.650
77.650
77.650
77.650
77.650
77.650
77.650
77.650
77.650
77.650
77.650
77.650
77.650
77.650
77.650
77.650
77.650
77.650
77.650
77.650
77.650
77.650
77.650
77.650
77.650
77.650
77.650
77.650
77.650
77.650
77.650
77.650
77.650
77.650
77.650
77.650
77.650
77.650
77.650
77.650
77.650
77.650
77.650
77.650
77.650
77.650
77.650
77.650
77.650
77.650
77.650
77.650
77.650
77.650
77.650
77.650
77.650
77.650
77.650
77.650
77.650
77.650
77.650
77.650
77.650
77.650
77.650
77.650
77.650
77.650
77.650
77.650
77.650
77.650
77.650
77.650
77.650
77.650
77.650
77.650
77.650
77.650
77.650
77.650
77.650
77.650
77.650
77.650
77.650
77.650
77.650
77.650
77.650
77.650
77.650
77.650
77.650
77.650
77.650
77.650
77.650
77.650
77.650
77.650
77.650
77.650
77.650
77.650
77.650
77.650
77.650
77.650
77.650
77.650
77.650
77.650
77.650
77.650
77.650
77.650
77.650
77.650
77.650
77.650
77.650
77.650
77.650
77.650
77.650
77.650
77.650
77.650
77.650
77.650
77.650
77.650
77.650
77.650
77.650
77.650
77.650
77.650
77.650
77.650
77.650
77.650
77.650
77.650
77.650
77.650
77.650
77.650
77.650
77.650
77.650
77.650
77.650
77.650
77.650
77.650
77.650
77.650
77.650
77.650
77.650
77.650
77.650
77.650
77.650
77.650
77.650
77.650
77.650
77.650
77.650
77.650
77.650
77.650
77.650
77.650
77.650
77.650
77.650
77.650
77.650
77.650
77.650
77.650
77.650
77.650
77.650
77.650
77.650
77.650
77.650
77.650
77.650
77.650
77.650
77.650
77.650
77.650
77.650
77.650
77.650
77.650
77.650
77.650
77.650
77.650
77.650
77.650
77.650
77.650
77.650
77.650
77.650
77.650
77.650
77.650
77.650
77.650
77.650
77.650
77.650
77.650
77.650
77.650
77.650
77.650
77.650
77.650
77.650
77.650
77.650
77.650
77.650
77.650
77.650
77.650
77.650
77.650
77.650
77.650
77.650
77.650
77.650
77.650
77.650
77.650
77.650
77.650
77.650
77.650
77.650
77.650
77.650
77.650
77.650
77.650
77.650
77.650
77.650
77.650
77.650
77.650
77.650
77.650
77.650
77.650
77.650
77.650
77.650
77.650
77.650
77.650
77.650
77.650
77.650
77.650
77.650
77.650
77.650
77.650
77.650
77.650
77.650
77.650
77.650
77.650
77.650
77.650
77.650
77.650
77.650
77.650
77.650
77.650
77.650
77.650
77.650
77.650
77.650
77.650
77.650
77.650
77.650
77.650
77.650
77.650
77.650
77.650
77.650
77.650
77.650
77.650
77.650
77.650
77.650
77.650
77.650
77.650
77.650
77.650
77.650
77.650
77.650
77.650
77.650
77.650
77.650
77.650
77.650
77.650
77.650
77.650
77.650
77.650
77.650
77.650
77.650
77.650
77.650
77.650
77.650
77.650
77.650
77.650
77.650
77.650
77.650
77.650
77.650
77.650
77.650
77.650
77.650
77.650
77.650
77.650
77.650
77.650
77.650
77.650
77.650
77.650
77.650
77.650
77.650
1949.550
1949.134
1948.719
1948.303
1947.888
1947.472
1947.057
1946.641
1946.226
1945.810
1945.395
1944.979
1944.564
1944.148
1943.733
1943.317
1942.902
1942.486
1942.071
1941.655
1941.240
1940.824
1940.409
1939.993
1939.578
1939.162
1938.747
1938.331
1937.916
1937.500
1937.085
1936.669
1936.254
1935.838
1935.423
1935.007
1934.592
1934.176
1933.761
1933.345
1932.930
1932.514
1932.099
1931.683
1931.268
1930.852
1930.437
1930.021
1929.606
1929.190
1928.775
1928.359
1927.944
1927.528
1927.113
1926.697
1926.282
1925.866
1925.451
1925.035
1924.620
1924.204
1923.789
1923.373
1922.958
1922.542
1922.127
1921.711
1921.296
1920.880
1920.465
1920.049
1919.634
1919.218
1918.803
1918.387
1917.972
1917.556
1917.141
1916.725
1916.310
1915.894
1915.479
1915.063
1914.648
1914.232
1913.817
1913.401
1912.986
1912.570
1912.155
1911.739
1911.324
1910.908
1910.493
1910.077
1909.662
1909.246
1908.831
1908.415
1908.000
1907.584
1907.169
1906.753
1906.338
1905.922
1905.507
1905.091
1904.676
1904.260
1903.845
1903.429
1903.014
1902.598
1902.183
1901.767
1901.352
1900.936
1900.521
1900.105
1899.690
1899.274
1898.859
1898.443
1898.028
1897.612
1897.197
1896.781
1896.366
1895.950
1895.535
1895.119
1894.704
1894.288
1893.873
1893.457
1893.042
1892.626
1892.211
1891.795
1891.380
1890.964
1890.549
1890.133
1889.718
1889.302
1888.887
1888.471
1888.056
1887.640
1887.225
1886.809
1886.394
1885.978
1885.563
1885.147
1884.732
1884.316
1883.901
1883.485
1883.070
1882.654
1882.239
1881.823
1881.408
1880.992
1880.577
1880.161
1879.746
1879.330
1878.915
1878.499
1878.084
1877.668
1877.253
1876.837
1876.422
1876.006
1875.591
1875.175
1874.760
1874.344
1873.929
1873.513
1873.098
1872.682
1872.267
1871.851
1871.436
1871.020
1870.605
1870.189
1869.774
1869.358
1868.943
1868.527
1868.112
1867.696
1867.281
1866.865
1866.450
1870.946
1875.443
1879.939
1884.436
1888.932
1893.429
1897.925
1902.422
1906.918
1911.415
1915.911
1920.408
1924.904
1929.401
1933.897
1938.394
1942.890
1947.387
1951.883
1956.380
1960.876
1965.373
1969.869
1974.366
1978.862
1983.359
1987.855
1992.352
1996.848
2001.345
2005.841
2010.338
2014.834
2019.331
2023.827
2028.324
2032.820
2037.317
2041.813
2046.310
2050.806
2055.303
2059.799
2064.296
2068.792
2073.289
2077.785
2082.282
2086.778
2091.275
2095.771
2100.268
2104.764
2109.261
2113.757
2118.254
2122.750
2127.247
2131.743
2136.240
2140.736
2145.233
2149.729
2154.226
2158.722
2163.219
2167.715
2172.212
2176.708
2181.205
2185.701
2190.198
2194.694
2199.191
2203.687
2208.184
2212.680
2217.177
2221.673
2226.170
2230.666
2235.163
2239.659
2244.156
2248.652
2253.149
2257.645
2262.142
2266.638
2271.135
2275.631
2280.128
2284.624
2289.121
2293.617
2298.114
2302.610
2307.107
2311.603
2316.100
2320.596
2325.093
2329.589
2334.086
2338.582
2343.079
2347.575
2352.072
2356.568
2361.065
2365.561
2370.058
2374.554
2379.051
2383.547
2388.044
2392.540
2397.037
2401.533
2406.030
2410.526
2415.023
2419.519
2424.016
2428.512
2433.009
2437.505
2442.002
2446.498
2450.995
2455.491
2459.988
2464.484
2468.981
2473.477
2477.974
2482.470
2486.967
2491.463
2495.960
2500.456
2504.953
2509.449
2513.946
2518.442
2522.939
2527.435
2531.932
2536.428
2540.925
2545.421
2549.918
2554.414
2558.911
2563.407
2567.904
2572.400
2576.897
2581.393
2585.890
2590.386
2594.883
2599.379
2603.876
2608.372
2612.869
2617.365
2621.862
2626.358
2630.855
2635.351
2639.848
2644.344
2648.841
2653.337
2657.834
2662.330
2666.827
2671.323
2675.820
2680.316
2684.813
2689.309
2693.806
2698.302
2702.799
2707.295
2711.792
2716.288
2720.785
2725.281
2729.778
2734.274
2738.771
2743.267
2747.764
2752.260
2756.757
2761.253
2765.750
2761.107
2756.464
2751.821
2747.178
2742.535
2737.892
2733.249
2728.606
2723.963
2719.320
2714.677
2710.034
2705.391
2700.748
2696.105
2691.462
2686.819
2682.176
2677.533
2672.890
2668.247
2663.604
2658.961
2654.318
2649.675
2645.032
2640.389
2635.746
2631.103
2626.460
2621.817
2617.174
2612.531
2607.888
2603.245
2598.602
2593.959
2589.316
2584.673
2580.030
2575.387
2570.744
2566.101
2561.458
2556.815
2552.172
2547.529
2542.886
2538.243
2533.600
2528.957
2524.314
2519.671
2515.028
2510.385
2505.742
2501.099
2496.456
2491.813
2487.170
2482.527
2477.884
2473.241
2468.598
2463.955
2459.312
2454.669
2450.026
2445.383
2440.740
2436.097
2431.454
2426.811
2422.168
2417.525
2412.882
2408.239
2403.596
2398.953
2394.310
2389.667
2385.024
2380.381
2375.738
2371.095
2366.452
2361.809
2357.166
2352.523
2347.880
2343.237
2338.594
2333.951
2329.308
2324.665
2320.022
2315.379
2310.736
2306.093
2301.450
2296.807
2292.164
2287.521
2282.878
2278.235
2273.592
2268.949
2264.306
2259.663
2255.020
2250.377
2245.734
2241.091
2236.448
2231.805
2227.162
2222.519
2217.876
2213.233
2208.590
2203.947
2199.304
2194.661
2190.018
2185.375
2180.732
2176.089
2171.446
2166.803
2162.160
2157.517
2152.874
2148.231
2143.588
2138.945
2134.302
2129.659
2125.016
2120.373
2115.730
2111.087
2106.444
2101.801
2097.158
2092.515
2087.872
2083.229
2078.586
2073.943
2069.300
2064.657
2060.014
2055.371
2050.728
2046.085
2041.442
2036.799
2032.156
2027.513
2022.870
2018.227
2013.584
2008.941
2004.298
1999.655
1995.012
1990.369
1985.726
1981.083
1976.440
1971.797
1967.154
1962.511
1957.868
1953.225
1948.582
1943.939
1939.296
1934.653
1930.010
1925.367
1920.724
1916.081
1911.438
1906.795
1902.152
1897.509
1892.866
1888.223
1883.580
1878.937
1874.294
1869.651
1865.008
1860.365
1855.722
1851.079
1846.436
1841.793
1837.150
1839.471
1841.793
1844.114
1846.436
1848.757
1851.079
1853.400
1855.722
1858.043
1860.365
1862.686
1865.008
1867.329
1869.651
1871.972
1874.294
1876.615
1878.937
1881.258
1883.580
1885.901
1888.223
1890.544
1892.866
1895.187
1897.509
1899.830
1902.152
1904.473
1906.795
1909.116
1911.438
1913.759
1916.081
1918.402
1920.724
1923.045
1925.367
1927.688
1930.010
1932.331
1934.653
1936.974
1939.296
1941.617
1943.939
1946.260
1948.582
1950.903
1953.225
1955.546
1957.868
1960.189
1962.511
1964.832
1967.154
1969.475
1971.797
1974.118
1976.440
1978.761
1981.083
1983.404
1985.726
1988.047
1990.369
1992.690
1995.012
1997.333
1999.655
2001.976
2004.298
2006.619
2008.941
2011.262
2013.584
2015.905
2018.227
2020.548
2022.870
2025.191
2027.513
2029.834
2032.156
2034.477
2036.799
2039.120
2041.442
2043.763
2046.085
2048.406
2050.728
2053.049
2055.371
2057.692
2060.014
2062.335
2064.657
2066.978
2069.300
2071.621
2073.943
2076.264
2078.586
2080.907
2083.229
2085.550
2087.872
2090.193
2092.515
2094.836
2097.158
2099.479
2101.801
2104.122
2106.444
2108.765
2111.087
2113.408
2115.730
2118.051
2120.373
2122.694
2125.016
2127.337
2129.659
2131.980
2134.302
2136.623
2138.945
2141.266
2143.588
2145.909
2148.231
2150.552
2152.874
2155.195
2157.517
2159.838
2162.160
2164.481
2166.803
2169.124
2171.446
2173.767
2176.089
2178.410
2180.732
2183.053
2185.375
2187.696
2190.018
2192.339
2194.661
2196.982
2199.304
2201.625
2203.947
2206.268
2208.590
2210.911
2213.233
2215.554
2217.876
2220.197
2222.519
2224.840
2227.162
2229.483
2231.805
2234.126
2236.448
2238.769
2241.091
2243.412
2245.734
2248.055
2250.377
2252.698
2255.020
2257.341
2259.663
2261.984
2264.306
2266.627
2268.949
2271.270
2273.592
2275.913
2278.235
2280.556
2282.878
2285.199
2287.521
2289.842
2292.164
2294.485
2296.807
2299.128
2301.450
2301.352
2301.255
2301.157
2301.060
2300.962
2300.865
2300.767
2300.670
2300.572
2300.475
2300.377
2300.280
2300.182
2300.085
2299.987
2299.890
2299.792
2299.695
2299.597
2299.500
2299.402
2299.305
2299.207
2299.110
2299.012
2298.915
2298.817
2298.720
2298.622
2298.525
2298.427
2298.330
2298.232
2298.135
2298.037
2297.940
2297.842
2297.745
2297.647
2297.550
2297.452
2297.355
2297.257
2297.160
2297.062
2296.965
2296.867
2296.770
2296.672
2296.575
2296.477
2296.380
2296.282
2296.185
2296.087
2295.990
2295.892
2295.795
2295.697
2295.600
2295.502
2295.405
2295.307
2295.210
2295.112
2295.015
2294.917
2294.820
2294.722
2294.625
2294.527
2294.430
2294.332
2294.235
2294.137
2294.040
2293.942
2293.845
2293.747
2293.650
2293.552
2293.455
2293.357
2293.260
2293.162
2293.065
2292.967
2292.870
2292.772
2292.675
2292.577
2292.480
2292.382
2292.285
2292.187
2292.090
2291.992
2291.895
2291.797
2291.700
2291.602
2291.505
2291.407
2291.310
2291.212
2291.115
2291.017
2290.920
2290.822
2290.725
2290.627
2290.530
2290.432
2290.335
2290.237
2290.140
2290.042
2289.945
2289.847
2289.750
2289.652
2289.555
2289.457
2289.360
2289.262
2289.165
2289.067
2288.970
2288.872
2288.775
2288.677
2288.580
2288.482
2288.385
2288.287
2288.190
2288.092
2287.995
2287.897
2287.800
2287.702
2287.605
2287.507
2287.410
2287.312
2287.215
2287.117
2287.020
2286.922
2286.825
2286.727
2286.630
2286.532
2286.435
2286.337
2286.240
2286.142
2286.045
2285.947
2285.850
2285.752
2285.655
2285.557
2285.460
2285.362
2285.265
2285.167
2285.070
2284.972
2284.875
2284.777
2284.680
2284.582
2284.485
2284.387
2284.290
2284.192
2284.095
2283.997
2283.900
2283.802
2283.705
2283.607
2283.510
2283.412
2283.315
2283.217
2283.120
2283.022
2282.925
2282.827
2282.730
2282.632
2282.535
2282.437
2282.340
2282.242
2282.145
2282.047
2281.950
2278.357
2274.765
2271.172
2267.580
2263.987
