108.159
108.159
108.159
108.159
108.159
108.159
108.159
108.159
108.159
108.159
108.159
108.159
108.159
108.159
108.159
108.159
108.159
108.159
108.159
108.159
108.159
108.159
108.159
108.159
108.159
108.159
108.159
108.159
108.159
108.159
108.159
108.159
108.159
108.159
108.159
108.159
108.159
108.159
108.159
108.159
108.159
108.159
108.159
108.159
108.159
108.159
108.159
108.159
108.159
108.159
108.159
108.159
108.159
108.159
108.159
108.159
108.159
108.159
108.159
108.159
108.159
108.159
108.159
108.159
108.159
108.159
108.159
108.159
108.159
108.159
108.159
108.159
108.159
108.159
108.159
108.159
108.159
108.159
108.159
108.159
108.159
108.159
108.159
108.159
108.159
108.159
108.159
108.159
108.159
108.159
108.159
108.159
108.159
108.159
108.159
108.159
108.159
108.159
108.159
108.159
108.159
108.159
108.159
108.159
108.159
108.159
108.159
108.159
108.159
108.159
108.159
108.159
108.159
108.159
108.159
108.159
108.159
108.159
108.159
108.159
108.159
108.159
108.159
108.159
108.159
108.159
108.159
108.159
108.159
108.159
108.159
108.159
108.159
108.159
108.159
108.159
108.159
108.159
108.159
108.159
108.159
108.159
108.159
108.159
108.159
108.159
108.159
108.159
108.159
108.159
108.159
108.159
108.159
108.159
108.159
108.159
108.159
108.159
108.159
108.159
108.159
108.159
108.159
108.159
108.159
108.159
108.159
108.159
108.159
108.159
108.159
108.159
108.159
108.159
108.159
108.159
108.159
108.159
108.159
108.159
108.159
108.159
108.159
108.159
108.159
108.159
108.159
108.159
108.159
108.159
108.159
108.159
108.159
108.159
108.159
108.159
108.159
108.159
108.159
108.159
108.159
108.159
108.159
108.159
108.159
108.159
108.159
108.159
108.159
108.159
108.159
108.159
108.159
108.159
108.159
108.159
108.159
108.159
108.159
108.159
108.159
108.159
108.159
108.159
108.159
108.159
108.159
108.159
108.159
108.159
108.159
108.159
108.159
108.159
108.159
108.159
108.159
108.159
108.159
108.159
108.159
108.159
108.159
108.159
108.159
108.159
108.159
108.159
108.159
108.159
108.159
108.159
108.159
108.159
108.159
108.159
108.159
108.159
108.159
108.159
108.159
108.159
108.159
108.159
108.159
108.159
108.159
108.159
108.159
108.159
108.159
108.159
108.159
108.159
108.159
108.159
108.159
108.159
108.159
108.159
108.159
108.159
108.159
108.159
108.159
108.159
108.159
108.159
108.159
108.159
108.159
108.159
108.159
108.159
108.159
108.159
108.159
108.159
108.159
108.159
108.159
108.159
108.159
108.159
108.159
108.159
108.159
108.159
108.159
108.159
108.159
108.159
108.159
108.159
108.159
108.159
108.159
108.159
108.159
108.159
108.159
108.159
108.159
108.159
108.159
108.159
108.159
108.159
108.159
108.159
108.159
108.159
108.159
108.159
108.159
108.159
108.159
108.159
108.159
108.159
108.159
108.159
108.159
108.159
108.159
108.159
108.159
108.159
108.159
108.159
108.159
108.159
108.159
108.159
108.159
108.159
108.159
108.159
108.159
108.159
108.159
108.159
108.159
108.159
108.159
108.159
108.159
108.159
108.159
108.159
108.159
108.159
108.159
108.159
108.159
108.159
108.159
108.159
108.159
108.159
108.159
108.159
108.159
108.159
108.159
108.159
108.159
108.159
108.159
108.159
108.159
108.159
108.159
108.159
108.159
108.159
108.159
108.159
108.159
108.159
108.159
108.159
108.159
108.159
108.159
108.159
108.159
108.159
108.159
108.159
108.159
108.159
108.159
108.159
108.159
108.159
108.159
108.159
108.159
108.159
108.159
108.159
108.159
108.159
108.159
108.159
108.159
108.159
108.159
108.159
108.159
108.159
108.159
108.159
108.159
108.159
108.159
108.159
108.159
108.159
108.159
108.159
108.159
108.159
108.159
108.159
108.159
108.159
108.159
108.159
108.159
108.159
108.159
108.159
108.159
108.159
108.159
108.159
108.159
108.159
108.159
108.159
108.159
108.159
108.159
108.159
108.159
108.159
108.159
108.159
108.159
108.159
108.159
108.159
108.159
108.159
108.159
108.159
108.159
108.159
108.159
108.159
108.159
108.159
108.159
108.159
108.159
108.159
108.159
108.159
108.159
108.159
108.159
108.159
108.159
108.159
108.159
108.159
108.159
108.159
108.159
108.159
108.159
108.159
108.159
108.159
108.159
108.159
108.159
108.159
108.159
108.159
108.159
108.159
108.159
108.159
108.159
108.159
108.159
108.159
108.159
108.159
108.159
108.159
108.159
108.159
108.159
108.159
108.159
108.159
108.159
108.159
108.159
108.159
108.159
108.159
108.159
108.159
108.159
108.159
108.159
108.159
108.159
108.159
108.159
108.159
108.159
108.159
108.159
108.159
108.159
108.159
108.159
108.159
108.159
108.159
108.159
108.159
108.159
108.159
108.159
108.159
108.159
108.159
108.159
108.159
108.159
108.159
108.159
108.159
108.159
108.159
108.159
108.159
108.159
108.159
108.159
108.159
108.159
108.159
108.159
108.159
108.159
108.159
108.159
108.159
108.159
108.159
108.159
108.159
108.159
108.159
108.159
108.159
108.159
108.159
108.159
108.159
108.159
108.159
108.159
108.159
108.159
108.159
108.159
108.159
108.159
108.159
108.159
108.159
108.159
108.159
108.159
108.159
108.159
108.159
108.159
108.159
108.159
108.159
108.159
108.159
108.159
108.159
108.159
108.159
108.159
108.159
108.159
108.159
108.159
108.159
108.159
108.159
108.159
108.159
108.159
108.159
108.159
108.159
108.159
108.159
108.159
108.159
108.159
108.159
108.159
108.159
108.159
108.159
108.159
108.159
108.159
108.159
108.159
108.159
108.159
108.159
108.159
108.159
108.159
108.159
108.159
108.159
108.159
108.159
108.159
108.159
108.159
108.159
108.159
108.159
108.159
108.159
108.159
108.159
108.159
108.159
108.159
108.159
108.159
108.159
108.159
108.159
108.159
108.159
108.159
108.159
108.159
108.159
108.159
108.159
108.159
108.159
108.159
108.159
108.159
108.159
108.159
108.159
108.159
108.159
108.159
108.159
108.159
108.159
108.159
108.159
108.159
108.159
108.159
108.159
108.159
108.159
108.159
108.159
108.159
108.159
108.159
108.159
108.159
108.159
108.159
108.159
108.159
108.159
108.159
108.159
108.159
108.159
108.159
108.159
108.159
108.159
108.159
108.159
108.159
108.159
108.159
108.159
108.159
1530.459
1532.487
1534.515
1536.543
1538.571
1540.599
1542.627
1544.655
1546.683
1548.711
1550.739
1552.767
1554.795
1556.823
1558.851
1560.879
1562.907
1564.935
1566.963
1568.991
1571.019
1573.047
1575.075
1577.103
1579.131
1581.159
1583.187
1585.215
1587.243
1589.271
1591.299
1593.327
1595.355
1597.383
1599.411
1601.439
1603.467
1605.495
1607.523
1609.551
1611.579
1613.607
1615.635
1617.663
1619.691
1621.719
1623.747
1625.775
1627.803
1629.831
1631.859
1633.887
1635.915
1637.943
1639.971
1641.999
1644.027
1646.055
1648.083
1650.111
1652.139
1654.167
1656.195
1658.223
1660.251
1662.279
1664.307
1666.335
1668.363
1670.391
1672.419
1674.447
1676.475
1678.503
1680.531
1682.559
1684.587
1686.615
1688.643
1690.671
1692.699
1694.727
1696.755
1698.783
1700.811
1702.839
1704.867
1706.895
1708.923
1710.951
1712.979
1715.007
1717.035
1719.063
1721.091
1723.119
1725.147
1727.175
1729.203
1731.231
1733.259
1735.287
1737.315
1739.343
1741.371
1743.399
1745.427
1747.455
1749.483
1751.511
1753.539
1755.567
1757.595
1759.623
1761.651
1763.679
1765.707
1767.735
1769.763
1771.791
1773.819
1775.847
1777.875
1779.903
1781.931
1783.959
1785.987
1788.015
1790.043
1792.071
1794.099
1796.127
1798.155
1800.183
1802.211
1804.239
1806.267
1808.295
1810.323
1812.351
1814.379
1816.407
1818.435
1820.463
1822.491
1824.519
1826.547
1828.575
1830.603
1832.631
1834.659
1836.687
1838.715
1840.743
1842.771
1844.799
1846.827
1848.855
1850.883
1852.911
1854.939
1856.967
1858.995
1861.023
1863.051
1865.079
1867.107
1869.135
1871.163
1873.191
1875.219
1877.247
1879.275
1881.303
1883.331
1885.359
1887.387
1889.415
1891.443
1893.471
1895.499
1897.527
1899.555
1901.583
1903.611
1905.639
1907.667
1909.695
1911.723
1913.751
1915.779
1917.807
1919.835
1921.863
1923.891
1925.919
1927.947
1929.975
1932.003
1934.031
1936.059
1936.084
1936.108
1936.133
1936.157
1936.182
1936.206
1936.231
1936.255
1936.280
1936.304
1936.329
1936.353
1936.378
1936.402
1936.427
1936.451
1936.476
1936.500
1936.525
1936.549
1936.574
1936.598
1936.623
1936.647
1936.672
1936.696
1936.721
1936.745
1936.770
1936.794
1936.819
1936.843
1936.868
1936.892
1936.917
1936.941
1936.966
1936.990
1937.015
1937.039
1937.064
1937.088
1937.113
1937.137
1937.162
1937.186
1937.211
1937.235
1937.260
1937.284
1937.309
1937.333
1937.358
1937.382
1937.407
1937.431
1937.456
1937.480
1937.505
1937.529
1937.554
1937.578
1937.603
1937.627
1937.652
1937.676
1937.701
1937.725
1937.750
1937.774
1937.799
1937.823
1937.848
1937.872
1937.897
1937.921
1937.946
1937.970
1937.995
1938.019
1938.044
1938.068
1938.093
1938.117
1938.142
1938.166
1938.191
1938.215
1938.240
1938.264
1938.289
1938.313
1938.338
1938.362
1938.387
1938.411
1938.436
1938.460
1938.485
1938.509
1938.534
1938.558
1938.583
1938.607
1938.632
1938.656
1938.681
1938.705
1938.730
1938.754
1938.779
1938.803
1938.828
1938.852
1938.877
1938.901
1938.926
1938.950
1938.975
1938.999
1939.024
1939.048
1939.073
1939.097
1939.122
1939.146
1939.171
1939.195
1939.220
1939.244
1939.269
1939.293
1939.318
1939.342
1939.367
1939.391
1939.416
1939.440
1939.465
1939.489
1939.514
1939.538
1939.563
1939.587
1939.612
1939.636
1939.661
1939.685
1939.710
1939.734
1939.759
1939.783
1939.808
1939.832
1939.857
1939.881
1939.906
1939.930
1939.955
1939.979
1940.004
1940.028
1940.053
1940.077
1940.102
1940.126
1940.151
1940.175
1940.200
1940.224
1940.249
1940.273
1940.298
1940.322
1940.347
1940.371
1940.396
1940.420
1940.445
1940.469
1940.494
1940.518
1940.543
1940.567
1940.592
1940.616
1940.641
1940.665
1940.690
1940.714
1940.739
1940.763
1940.788
1940.812
1940.837
1940.861
1940.886
1940.910
1940.935
1940.959
1942.426
1943.892
1945.359
1946.825
1948.292
1949.758
1951.225
1952.691
1954.158
1955.624
1957.091
1958.557
1960.024
1961.490
1962.957
1964.423
1965.890
1967.356
1968.823
1970.289
1971.756
1973.222
1974.689
1976.155
1977.622
1979.088
1980.555
1982.021
1983.488
1984.954
1986.421
1987.887
1989.354
1990.820
1992.287
1993.753
1995.220
1996.686
1998.153
1999.619
2001.086
2002.552
2004.019
2005.485
2006.952
2008.418
2009.885
2011.351
2012.818
2014.284
2015.751
2017.217
2018.684
2020.150
2021.617
2023.083
2024.550
2026.016
2027.483
2028.949
2030.416
2031.882
2033.349
2034.815
2036.282
2037.748
2039.215
2040.681
2042.148
2043.614
2045.081
2046.547
2048.014
2049.480
2050.947
2052.413
2053.880
2055.346
2056.813
2058.279
2059.746
2061.212
2062.679
2064.145
2065.612
2067.078
2068.545
2070.011
2071.478
2072.944
2074.411
2075.877
2077.344
2078.810
2080.277
2081.743
2083.210
2084.676
2086.143
2087.609
2089.076
2090.542
2092.009
2093.475
2094.942
2096.408
2097.875
2099.341
2100.808
2102.274
2103.741
2105.207
2106.674
2108.140
2109.607
2111.073
2112.540
2114.006
2115.473
2116.939
2118.406
2119.872
2121.339
2122.805
2124.272
2125.738
2127.205
2128.671
2130.138
2131.604
2133.071
2134.537
2136.004
2137.470
2138.937
2140.403
2141.870
2143.336
2144.803
2146.269
2147.736
2149.202
2150.669
2152.135
2153.602
2155.068
2156.535
2158.001
2159.468
2160.934
2162.401
2163.867
2165.334
2166.800
2168.267
2169.733
2171.200
2172.666
2174.133
2175.599
2177.066
2178.532
2179.999
2181.465
2182.932
2184.398
2185.865
2187.331
2188.798
2190.264
2191.731
2193.197
2194.664
2196.130
2197.597
2199.063
2200.530
2201.996
2203.463
2204.929
2206.396
2207.862
2209.329
2210.795
2212.262
2213.728
2215.195
2216.661
2218.128
2219.594
2221.061
2222.527
2223.994
2225.460
2226.927
2228.393
2229.860
2231.326
2232.793
2234.259
2234.308
2234.356
2234.405
2234.453
2234.502
2234.550
2234.599
2234.647
2234.696
2234.744
2234.793
2234.841
2234.890
2234.938
2234.987
2235.035
2235.084
2235.132
2235.181
2235.229
2235.278
2235.326
2235.375
2235.423
2235.472
2235.520
2235.569
2235.617
2235.666
2235.714
2235.763
2235.811
2235.860
2235.908
2235.957
2236.005
2236.054
2236.102
2236.151
2236.199
2236.248
2236.296
2236.345
2236.393
2236.442
2236.490
2236.539
2236.587
2236.636
2236.684
2236.733
2236.781
2236.830
2236.878
2236.927
2236.975
2237.024
2237.072
2237.121
2237.169
2237.218
2237.266
2237.315
2237.363
2237.412
2237.460
2237.509
2237.557
2237.606
2237.654
2237.703
2237.751
2237.800
2237.848
2237.897
2237.945
2237.994
2238.042
2238.091
2238.139
2238.188
2238.236
2238.285
2238.333
2238.382
2238.430
2238.479
2238.527
2238.576
2238.624
2238.673
2238.721
2238.770
2238.818
2238.867
2238.915
2238.964
2239.012
2239.061
2239.109
2239.158
2239.206
2239.255
2239.303
2239.352
2239.400
2239.449
2239.497
2239.546
2239.594
2239.643
2239.691
2239.740
2239.788
2239.837
2239.885
2239.934
2239.982
2240.031
2240.079
2240.128
2240.176
2240.225
2240.273
2240.322
2240.370
2240.419
2240.467
2240.516
2240.564
2240.613
2240.661
2240.710
2240.758
2240.807
2240.855
2240.904
2240.952
2241.001
2241.049
2241.098
2241.146
2241.195
2241.243
2241.292
2241.340
2241.389
2241.437
2241.486
2241.534
2241.583
2241.631
2241.680
2241.728
2241.777
2241.825
2241.874
2241.922
2241.971
2242.019
2242.068
2242.116
2242.165
2242.213
2242.262
2242.310
2242.359
2242.407
2242.456
2242.504
2242.553
2242.601
2242.650
2242.698
2242.747
2242.795
2242.844
2242.892
2242.941
2242.989
2243.038
2243.086
2243.135
2243.183
2243.232
2243.280
2243.329
2243.377
2243.426
2243.474
2243.523
2243.571
2243.620
2243.668
2243.717
2243.765
2243.814
2243.862
2243.911
2243.959
2243.935
2243.911
2243.887
2243.863
2243.839
2243.815
2243.791
2243.767
2243.743
2243.719
2243.695
2243.671
2243.647
2243.623
2243.599
2243.575
2243.551
2243.527
2243.503
2243.479
2243.455
2243.431
2243.407
2243.383
2243.359
2243.335
2243.311
2243.287
2243.263
2243.239
2243.215
2243.191
2243.167
2243.143
2243.119
2243.095
2243.071
2243.047
2243.023
2242.999
2242.975
2242.951
2242.927
2242.903
2242.879
2242.855
2242.831
2242.807
2242.783
2242.759
2242.735
2242.711
2242.687
2242.663
2242.639
2242.615
2242.591
2242.567
2242.543
2242.519
2242.495
2242.471
2242.447
2242.423
2242.399
2242.375
2242.351
2242.327
2242.303
2242.279
2242.255
2242.231
2242.207
2242.183
2242.159
2242.135
2242.111
2242.087
2242.063
2242.039
2242.015
2241.991
2241.967
2241.943
2241.919
2241.895
2241.871
2241.847
2241.823
2241.799
2241.775
2241.751
2241.727
2241.703
2241.679
2241.655
2241.631
2241.607
2241.583
2241.559
2241.535
2241.511
2241.487
2241.463
2241.439
2241.415
2241.391
2241.367
2241.343
2241.319
2241.295
2241.271
2241.247
2241.223
2241.199
2241.175
2241.151
2241.127
2241.103
2241.079
2241.055
2241.031
2241.007
2240.983
2240.959
2240.935
2240.911
2240.887
2240.863
2240.839
2240.815
2240.791
2240.767
2240.743
2240.719
2240.695
2240.671
2240.647
2240.623
2240.599
2240.575
2240.551
2240.527
2240.503
2240.479
2240.455
2240.431
2240.407
2240.383
2240.359
2240.335
2240.311
2240.287
2240.263
2240.239
2240.215
2240.191
2240.167
2240.143
2240.119
2240.095
2240.071
2240.047
2240.023
2239.999
2239.975
2239.951
2239.927
2239.903
2239.879
2239.855
2239.831
2239.807
2239.783
2239.759
2239.735
2239.711
2239.687
2239.663
2239.639
2239.615
2239.591
2239.567
2239.543
2239.519
2239.495
2239.471
2239.447
2239.423
2239.399
2239.375
2239.351
2239.327
2239.303
2239.279
2239.255
2239.231
2239.207
2239.183
2239.159
2239.843
2240.527
2241.211
2241.895
2242.579
2243.263
2243.947
2244.631
2245.315
2245.999
2246.683
2247.367
2248.051
2248.735
2249.419
2250.103
2250.787
2251.471
2252.155
2252.839
2253.523
2254.207
2254.891
2255.575
2256.259
2256.943
2257.627
2258.311
2258.995
2259.679
2260.363
2261.047
2261.731
2262.415
2263.099
2263.783
2264.467
2265.151
2265.835
2266.519
2267.203
2267.887
2268.571
2269.255
2269.939
2270.623
2271.307
2271.991
2272.675
2273.359
2274.043
2274.727
2275.411
2276.095
2276.779
2277.463
2278.147
2278.831
2279.515
2280.199
2280.883
2281.567
2282.251
2282.935
2283.619
2284.303
2284.987
2285.671
2286.355
2287.039
2287.723
2288.407
2289.091
2289.775
2290.459
2291.143
2291.827
2292.511
2293.195
2293.879
2294.563
2295.247
2295.931
2296.615
2297.299
2297.983
2298.667
2299.351
2300.035
2300.719
2301.403
2302.087
2302.771
2303.455
2304.139
2304.823
2305.507
2306.191
2306.875
2307.559
2308.243
2308.927
2309.611
2310.295
2310.979
2311.663
2312.347
2313.031
2313.715
2314.399
2315.083
2315.767
2316.451
2317.135
2317.819
2318.503
2319.187
2319.871
2320.555
2321.239
2321.923
2322.607
2323.291
2323.975
2324.659
2325.343
2326.027
2326.711
2327.395
2328.079
2328.763
2329.447
2330.131
2330.815
2331.499
2332.183
2332.867
2333.551
2334.235
2334.919
2335.603
2336.287
2336.971
2337.655
2338.339
2339.023
2339.707
2340.391
2341.075
2341.759
2342.443
2343.127
2343.811
2344.495
2345.179
2345.863
2346.547
2347.231
2347.915
2348.599
2349.283
2349.967
2350.651
2351.335
2352.019
2352.703
2353.387
2354.071
2354.755
2355.439
2356.123
2356.807
2357.491
2358.175
2358.859
2359.543
2360.227
2360.911
2361.595
2362.279
2362.963
2363.647
2364.331
2365.015
2365.699
2366.383
2367.067
2367.751
2368.435
2369.119
2369.803
2370.487
2371.171
2371.855
2372.539
2373.223
2373.907
2374.591
2375.275
2375.959
2374.566
2373.173
2371.780
2370.387
2368.994
2367.601
2366.208
2364.815
2363.422
2362.029
2360.636
2359.243
2357.850
2356.457
2355.064
2353.671
2352.278
2350.885
2349.492
2348.099
2346.706
2345.313
2343.920
2342.527
2341.134
2339.741
2338.348
2336.955
2335.562
2334.169
2332.776
2331.383
2329.990
2328.597
2327.204
2325.811
2324.418
2323.025
2321.632
2320.239
2318.846
2317.453
2316.060
2314.667
2313.274
2311.881
2310.488
2309.095
2307.702
2306.309
2304.916
2303.523
2302.130
2300.737
2299.344
2297.951
2296.558
2295.165
