81.623
81.623
81.623
81.623
81.623
81.623
81.623
81.623
81.623
81.623
81.623
81.623
81.623
81.623
81.623
81.623
81.623
81.623
81.623
81.623
81.623
81.623
81.623
81.623
81.623
81.623
81.623
81.623
81.623
81.623
81.623
81.623
81.623
81.623
81.623
81.623
81.623
81.623
81.623
81.623
81.623
81.623
81.623
81.623
81.623
81.623
81.623
81.623
81.623
81.623
81.623
81.623
81.623
81.623
81.623
81.623
81.623
81.623
81.623
81.623
81.623
81.623
81.623
81.623
81.623
81.623
81.623
81.623
81.623
81.623
81.623
81.623
81.623
81.623
81.623
81.623
81.623
81.623
81.623
81.623
81.623
81.623
81.623
81.623
81.623
81.623
81.623
81.623
81.623
81.623
81.623
81.623
81.623
81.623
81.623
81.623
81.623
81.623
81.623
81.623
81.623
81.623
81.623
81.623
81.623
81.623
81.623
81.623
81.623
81.623
81.623
81.623
81.623
81.623
81.623
81.623
81.623
81.623
81.623
81.623
81.623
81.623
81.623
81.623
81.623
81.623
81.623
81.623
81.623
81.623
81.623
81.623
81.623
81.623
81.623
81.623
81.623
81.623
81.623
81.623
81.623
81.623
81.623
81.623
81.623
81.623
81.623
81.623
81.623
81.623
81.623
81.623
81.623
81.623
81.623
81.623
81.623
81.623
81.623
81.623
81.623
81.623
81.623
81.623
81.623
81.623
81.623
81.623
81.623
81.623
81.623
81.623
81.623
81.623
81.623
81.623
81.623
81.623
81.623
81.623
81.623
81.623
81.623
81.623
81.623
81.623
81.623
81.623
81.623
81.623
81.623
81.623
81.623
81.623
81.623
81.623
81.623
81.623
81.623
81.623
81.623
81.623
81.623
81.623
81.623
81.623
81.623
81.623
81.623
81.623
81.623
81.623
81.623
81.623
81.623
81.623
81.623
81.623
81.623
81.623
81.623
81.623
81.623
81.623
81.623
81.623
81.623
81.623
81.623
81.623
81.623
81.623
81.623
81.623
81.623
81.623
81.623
81.623
81.623
81.623
81.623
81.623
81.623
81.623
81.623
81.623
81.623
81.623
81.623
81.623
81.623
81.623
81.623
81.623
81.623
81.623
81.623
81.623
81.623
81.623
81.623
81.623
81.623
81.623
81.623
81.623
81.623
81.623
81.623
81.623
81.623
81.623
81.623
81.623
81.623
81.623
81.623
81.623
81.623
81.623
81.623
81.623
81.623
81.623
81.623
81.623
81.623
81.623
81.623
81.623
81.623
81.623
81.623
81.623
81.623
81.623
81.623
81.623
81.623
81.623
81.623
81.623
81.623
81.623
81.623
81.623
81.623
81.623
81.623
81.623
81.623
81.623
81.623
81.623
81.623
81.623
81.623
81.623
81.623
81.623
81.623
81.623
81.623
81.623
81.623
81.623
81.623
81.623
81.623
81.623
81.623
81.623
81.623
81.623
81.623
81.623
81.623
81.623
81.623
81.623
81.623
81.623
81.623
81.623
81.623
81.623
81.623
81.623
81.623
81.623
81.623
81.623
81.623
81.623
81.623
81.623
81.623
81.623
81.623
81.623
81.623
81.623
81.623
81.623
81.623
81.623
81.623
81.623
81.623
81.623
81.623
81.623
81.623
81.623
81.623
81.623
81.623
81.623
81.623
81.623
81.623
81.623
81.623
81.623
81.623
81.623
81.623
81.623
81.623
81.623
81.623
81.623
81.623
81.623
81.623
81.623
81.623
81.623
81.623
81.623
81.623
81.623
81.623
81.623
81.623
81.623
81.623
81.623
81.623
81.623
81.623
81.623
81.623
81.623
81.623
81.623
81.623
81.623
81.623
81.623
81.623
81.623
81.623
81.623
81.623
81.623
81.623
81.623
81.623
81.623
81.623
81.623
81.623
81.623
81.623
81.623
81.623
81.623
81.623
81.623
81.623
81.623
81.623
81.623
81.623
81.623
81.623
81.623
81.623
81.623
81.623
81.623
81.623
81.623
81.623
81.623
81.623
81.623
81.623
81.623
81.623
81.623
81.623
81.623
81.623
81.623
81.623
81.623
81.623
81.623
81.623
81.623
81.623
81.623
81.623
81.623
81.623
81.623
81.623
81.623
81.623
81.623
81.623
81.623
81.623
81.623
81.623
81.623
81.623
81.623
81.623
81.623
81.623
81.623
81.623
81.623
81.623
81.623
81.623
81.623
81.623
81.623
81.623
81.623
81.623
81.623
81.623
81.623
81.623
81.623
81.623
81.623
81.623
81.623
81.623
81.623
301.523
304.504
307.486
310.467
313.449
316.430
319.412
322.393
325.375
328.356
331.338
334.319
337.301
340.282
343.264
346.245
349.227
352.208
355.190
358.171
361.153
364.134
367.116
370.097
373.079
376.060
379.042
382.023
385.005
387.986
390.968
393.949
396.931
399.912
402.894
405.875
408.857
411.838
414.820
417.801
420.783
423.764
426.746
429.727
432.709
435.690
438.672
441.653
444.635
447.616
450.598
453.579
456.561
459.542
462.524
465.505
468.487
471.468
474.450
477.431
480.413
483.394
486.376
489.357
492.339
495.320
498.302
501.283
504.265
507.246
510.228
513.209
516.191
519.172
522.154
525.135
528.117
531.098
534.080
537.061
540.043
543.024
546.006
548.987
551.969
554.950
557.932
560.913
563.895
566.876
569.858
572.839
575.821
578.802
581.784
584.765
587.747
590.728
593.710
596.691
599.673
602.654
605.636
608.617
611.599
614.580
617.562
620.543
623.525
626.506
629.488
632.469
635.451
638.432
641.414
644.395
647.377
650.358
653.340
656.321
659.303
662.284
665.266
668.247
671.229
674.210
677.192
680.173
683.155
686.136
689.118
692.099
695.081
698.062
701.044
704.025
707.007
709.988
712.970
715.951
718.933
721.914
724.896
727.877
730.859
733.840
736.822
739.803
742.785
745.766
748.748
751.729
754.711
757.692
760.674
763.655
766.637
769.618
772.600
775.581
778.563
781.544
784.526
787.507
790.489
793.470
796.452
799.433
802.415
805.396
808.378
811.359
814.341
817.322
820.304
823.285
826.267
829.248
832.230
835.211
838.193
841.174
844.156
847.137
850.119
853.100
856.082
859.063
862.045
865.026
868.008
870.989
873.971
876.952
879.934
882.915
885.897
888.878
891.860
894.841
897.823
899.656
901.489
903.322
905.155
906.988
908.821
910.654
912.487
914.320
916.153
917.986
919.819
921.652
923.485
925.318
927.151
928.984
930.817
932.650
934.483
936.316
938.149
939.982
941.815
943.648
945.481
947.314
949.147
950.980
952.813
954.646
956.479
958.312
960.145
961.978
963.811
965.644
967.477
969.310
971.143
972.976
974.809
976.642
978.475
980.308
982.141
983.974
985.807
987.640
989.473
991.306
993.139
994.972
996.805
998.638
1000.471
1002.304
1004.137
1005.970
1007.803
1009.636
1011.469
1013.302
1015.135
1016.968
1018.801
1020.634
1022.467
1024.300
1026.133
1027.966
1029.799
1031.632
1033.465
1035.298
1037.131
1038.964
1040.797
1042.630
1044.463
1046.296
1048.129
1049.962
1051.795
1053.628
1055.461
1057.294
1059.127
1060.960
1062.793
1064.626
1066.459
1068.292
1070.125
1071.958
1073.791
1075.624
1077.457
1079.290
1081.123
1082.956
1084.789
1086.622
1088.455
1090.288
1092.121
1093.954
1095.787
1097.620
1099.453
1101.286
1103.119
1104.952
1106.785
1108.618
1110.451
1112.284
1114.117
1115.950
1117.783
1119.616
1121.449
1123.282
1125.115
1126.948
1128.781
1130.614
1132.447
1134.280
1136.113
1137.946
1139.779
1141.612
1143.445
1145.278
1147.111
1148.944
1150.777
1152.610
1154.443
1156.276
1158.109
1159.942
1161.775
1163.608
1165.441
1167.274
1169.107
1170.940
1172.773
1174.606
1176.439
1178.272
1180.105
1181.938
1183.771
1185.604
1187.437
1189.270
1191.103
1192.936
1194.769
1196.602
1198.435
1200.268
1202.101
1203.934
1205.767
1207.600
1209.433
1211.266
1213.099
1214.932
1216.765
1218.598
1220.431
1222.264
1224.097
1225.930
1227.763
1229.596
1231.429
1233.262
1235.095
1236.928
1238.761
1240.594
1242.427
1244.260
1246.093
1247.926
1249.759
1251.592
1253.425
1255.258
1257.091
1258.924
1260.757
1262.590
1264.423
1270.141
1275.860
1281.578
1287.297
1293.015
1298.734
1304.452
1310.171
1315.889
1321.608
1327.326
1333.045
1338.763
1344.482
1350.200
1355.919
1361.637
1367.356
1373.074
1378.793
1384.511
1390.230
1395.948
1401.667
1407.385
1413.104
1418.822
1424.541
1430.259
1435.978
1441.696
1447.415
1453.133
1458.852
1464.570
1470.289
1476.007
1481.726
1487.444
1493.163
1498.881
1504.600
1510.318
1516.037
1521.755
1527.474
1533.192
1538.911
1544.629
1550.348
1556.066
1561.785
1567.503
1573.222
1578.940
1584.659
1590.377
1596.096
1601.814
1607.533
1613.251
1618.970
1624.688
1630.407
1636.125
1641.844
1647.562
1653.281
1658.999
1664.718
1670.436
1676.155
1681.873
1687.592
1693.310
1699.029
1704.747
1710.466
1716.184
1721.903
1727.621
1733.340
1739.058
1744.777
1750.495
1756.214
1761.932
1767.651
1773.369
1779.088
1784.806
1790.525
1796.243
1801.962
1807.680
1813.399
1819.117
1824.836
1830.554
1836.273
1841.991
1847.710
1853.428
1859.147
1864.865
1870.584
1876.302
1882.021
1887.739
1893.458
1899.176
1904.895
1910.613
1916.332
1922.050
1927.769
1933.487
1939.206
1944.924
1950.643
1956.361
1962.080
1967.798
1973.517
1979.235
1984.954
1990.672
1996.391
2002.109
2007.828
2013.546
2019.265
2024.983
2030.702
2036.420
2042.139
2047.857
2053.576
2059.294
2065.013
2070.731
2076.450
2082.168
2087.887
2093.605
2099.324
2105.042
2110.761
2116.479
2122.198
2127.916
2133.635
2139.353
2145.072
2150.790
2156.509
2162.227
2167.946
2173.664
2179.383
2185.101
2190.820
2196.538
2202.257
2207.975
2213.694
2219.412
2225.131
2230.849
2236.568
2242.286
2248.005
2253.723
2259.442
2265.160
2270.879
2276.597
2282.316
2288.034
2293.753
2299.471
2305.190
2310.908
2316.627
2322.345
2328.064
2333.782
2339.501
2345.219
2350.938
2356.656
2362.375
2368.093
2373.812
2379.530
2385.249
2390.967
2396.686
2402.404
2408.123
2404.457
2400.791
2397.125
2393.459
2389.793
2386.127
2382.461
2378.795
2375.129
2371.463
2367.797
2364.131
2360.465
2356.799
2353.133
2349.467
2345.801
2342.135
2338.469
2334.803
2331.137
2327.471
2323.805
2320.139
2316.473
2312.807
2309.141
2305.475
2301.809
2298.143
2294.477
2290.811
2287.145
2283.479
2279.813
2276.147
2272.481
2268.815
2265.149
2261.483
2257.817
2254.151
2250.485
2246.819
2243.153
2239.487
2235.821
2232.155
2228.489
2224.823
2221.157
2217.491
2213.825
2210.159
2206.493
2202.827
2199.161
2195.495
2191.829
2188.163
2184.497
2180.831
2177.165
2173.499
2169.833
2166.167
2162.501
2158.835
2155.169
2151.503
2147.837
2144.171
2140.505
2136.839
2133.173
2129.507
2125.841
2122.175
2118.509
2114.843
2111.177
2107.511
2103.845
2100.179
2096.513
2092.847
2089.181
2085.515
2081.849
2078.183
2074.517
2070.851
2067.185
2063.519
2059.853
2056.187
2052.521
2048.855
2045.189
2041.523
2037.857
2034.191
2030.525
2026.859
2023.193
2019.527
2015.861
2012.195
2008.529
2004.863
2001.197
1997.531
1993.865
1990.199
1986.533
1982.867
1979.201
1975.535
1971.869
1968.203
1964.537
1960.871
1957.205
1953.539
1949.873
1946.207
1942.541
1938.875
1935.209
1931.543
1927.877
1924.211
1920.545
1916.879
1913.213
1909.547
1905.881
1902.215
1898.549
1894.883
1891.217
1887.551
1883.885
1880.219
1876.553
1872.887
1869.221
1865.555
1861.889
1858.223
1854.557
1850.891
1847.225
1843.559
1839.893
1836.227
1832.561
1828.895
1825.229
1821.563
1817.897
1814.231
1810.565
1806.899
1803.233
1799.567
1795.901
1792.235
1788.569
1784.903
1781.237
1777.571
1773.905
1770.239
1766.573
1762.907
1759.241
1755.575
1751.909
1748.243
1744.577
1740.911
1737.245
1733.579
1729.913
1726.247
1722.581
1718.915
1715.249
1711.583
1707.917
1704.251
1700.585
1696.919
1693.253
1689.587
1685.921
1682.255
1678.589
1674.923
1676.951
1678.980
1681.008
1683.037
1685.065
1687.094
1689.122
1691.151
1693.179
1695.208
1697.236
1699.265
1701.293
1703.322
1705.350
1707.379
1709.407
1711.436
1713.464
1715.493
1717.521
1719.550
1721.578
1723.607
1725.635
1727.664
1729.692
1731.721
1733.749
1735.778
1737.806
1739.835
1741.863
1743.892
1745.920
1747.949
1749.977
1752.006
1754.034
1756.063
1758.091
1760.120
1762.148
1764.177
1766.205
1768.234
1770.262
1772.291
1774.319
1776.348
1778.376
1780.405
1782.433
1784.462
1786.490
1788.519
1790.547
1792.576
1794.604
1796.633
1798.661
1800.690
1802.718
1804.747
1806.775
1808.804
1810.832
1812.861
1814.889
1816.918
1818.946
1820.975
1823.003
1825.032
1827.060
1829.089
1831.117
1833.146
1835.174
1837.203
1839.231
1841.260
1843.288
1845.317
1847.345
1849.374
1851.402
1853.431
1855.459
1857.488
1859.516
1861.545
1863.573
1865.602
1867.630
1869.659
1871.687
1873.716
1875.744
1877.773
1879.801
1881.830
1883.858
1885.887
1887.915
1889.944
1891.972
1894.001
1896.029
1898.058
1900.086
1902.115
1904.143
1906.172
1908.200
1910.229
1912.257
1914.286
1916.314
1918.343
1920.371
1922.400
1924.428
1926.457
1928.485
1930.514
1932.542
1934.571
1936.599
1938.628
1940.656
1942.685
1944.713
1946.742
1948.770
1950.799
1952.827
1954.856
1956.884
1958.913
1960.941
1962.970
1964.998
1967.027
1969.055
1971.084
1973.112
1975.141
1977.169
1979.198
1981.226
1983.255
1985.283
1987.312
1989.340
1991.369
1993.397
1995.426
1997.454
1999.483
2001.511
2003.540
2005.568
2007.597
2009.625
2011.654
2013.682
2015.711
2017.739
2019.768
2021.796
2023.825
2025.853
2027.882
2029.910
2031.939
2033.967
2035.996
2038.024
2040.053
2042.081
2044.110
2046.138
2048.167
2050.195
2052.224
2054.252
2056.281
2058.309
2060.338
2062.366
2064.395
2066.423
2068.452
2070.480
2072.509
2074.537
2076.566
2078.594
2080.623
2081.698
2082.773
2083.848
2084.923
2085.998
2087.073
2088.148
2089.223
2090.298
2091.373
2092.448
2093.523
2094.598
2095.673
2096.748
2097.823
2098.898
2099.973
2101.048
2102.123
2103.198
2104.273
2105.348
2106.423
2107.498
2108.573
2109.648
2110.723
2111.798
2112.873
2113.948
2115.023
2116.098
2117.173
2118.248
2119.323
2120.398
2121.473
2122.548
2123.623
2124.698
2125.773
2126.848
2127.923
2128.998
2130.073
2131.148
2132.223
2133.298
2134.373
2135.448
2136.523
2137.598
2138.673
2139.748
2140.823
2141.898
2142.973
2144.048
2145.123
2146.198
2147.273
2148.348
2149.423
2150.498
2151.573
2152.648
2153.723
2154.798
2155.873
2156.948
2158.023
2159.098
2160.173
2161.248
2162.323
2163.398
2164.473
2165.548
2166.623
2167.698
2168.773
2169.848
2170.923
2171.998
2173.073
2174.148
2175.223
2176.298
2177.373
2178.448
2179.523
2180.598
2181.673
2182.748
2183.823
2184.898
2185.973
2187.048
2188.123
2189.198
2190.273
2191.348
2192.423
2193.498
2194.573
2195.648
2196.723
2197.798
2198.873
2199.948
2201.023
2202.098
2203.173
2204.248
2205.323
2206.398
2207.473
2208.548
2209.623
2210.698
2211.773
2212.848
2213.923
2214.998
2216.073
2217.148
2218.223
2219.298
2220.373
2221.448
2222.523
2223.598
2224.673
2225.748
2226.823
2227.898
2228.973
2230.048
2231.123
2232.198
2233.273
2234.348
2235.423
2236.498
2237.573
2238.648
2239.723
2240.798
2241.873
2242.948
2244.023
2245.098
2246.173
2247.248
2248.323
2249.398
2250.473
2251.548
2252.623
2253.698
2254.773
2255.848
2256.923
2257.998
2259.073
2260.148
2261.223
2262.298
2263.373
2264.448
2265.523
2266.598
2267.673
2268.748
2269.823
2270.898
2271.973
2273.048
2274.123
2275.198
2276.273
2277.348
2278.423
2279.498
2280.573
2281.648
2282.723
2283.798
2284.873
2285.948
2287.023
2288.098
2289.173
2290.248
2291.323
2292.398
2293.473
2294.548
2295.623
2297.382
2299.142
2300.901
2302.661
2304.420
2306.180
2307.939
2309.699
2311.458
2313.218
2314.977
2316.737
2318.496
2320.256
2322.015
2323.775
2325.534
2327.294
2329.053
2330.813
2332.572
2334.332
2336.091
2337.851
2339.610
2341.370
2343.129
2344.889
2346.648
2348.408
2350.167
2351.927
2353.686
2355.446
2357.205
2358.965
2360.724
2362.484
2364.243
2366.003
2367.762
2369.522
2371.281
2373.041
2374.800
2376.560
2378.319
2380.079
2381.838
2383.598
2385.357
2387.117
2388.876
2390.636
2392.395
2394.155
2395.914
2397.674
2399.433
2401.193
2402.952
2404.712
2406.471
2408.231
2409.990
2411.750
2413.509
2415.269
2417.028
2418.788
2420.547
2422.307
2424.066
2425.826
2427.585
2429.345
2431.104
2432.864
2434.623
2436.383
2438.142
2439.902
2441.661
2443.421
2445.180
2446.940
2448.699
2450.459
2452.218
2453.978
2455.737
2457.497
2459.256
2461.016
2462.775
2464.535
2466.294
2468.054
2469.813
2471.573
2473.332
2475.092
2476.851
2478.611
2480.370
2482.130
2483.889
2485.649
2487.408
2489.168
2490.927
2492.687
2494.446
2496.206
2497.965
2499.725
2501.484
2503.244
2505.003
2506.763
2508.522
2510.282
2512.041
2513.801
2515.560
2517.320
2519.079
2520.839
2522.598
2524.358
2526.117
2527.877
2529.636
2531.396
2533.155
2534.915
2536.674
2538.434
2540.193
2541.953
2543.712
2545.472
2547.231
2548.991
2550.750
2552.510
2554.269
2556.029
2557.788
2559.548
2561.307
2563.067
2564.826
2566.586
2568.345
2570.105
2571.864
2573.624
2575.383
2577.143
2578.902
2580.662
2582.421
2584.181
2585.940
2587.700
2589.459
2591.219
2592.978
2594.738
2596.497
2598.257
2600.016
2601.776
2603.535
2605.295
2607.054
2608.814
2610.573
2612.333
2614.092
2615.852
2617.611
2619.371
2621.130
2622.890
2624.649
2626.409
2628.168
2629.928
2631.687
2633.447
2635.206
2636.966
2638.725
2640.485
2642.244
2644.004
2645.763
2647.523
2643.760
2639.997
2636.234
2632.471
2628.708
2624.945
2621.182
2617.419
2613.656
2609.893
2606.130
2602.367
2598.604
2594.841
2591.078
2587.315
2583.552
2579.789
2576.026
2572.263
2568.500
2564.737
2560.974
2557.211
2553.448
2549.685
2545.922
2542.159
2538.396
2534.633
2530.870
2527.107
2523.344
2519.581
2515.818
2512.055
2508.292
2504.529
2500.766
2497.003
2493.240
2489.477
2485.714
2481.951
2478.188
2474.425
2470.662
2466.899
2463.136
2459.373
2455.610
2451.847
2448.084
2444.321
2440.558
2436.795
2433.032
2429.269
2425.506
2421.743
2417.980
2414.217
2410.454
2406.691
2402.928
2399.165
2395.402
2391.639
2387.876
2384.113
2380.350
2376.587
2372.824
2369.061
2365.298
2361.535
2357.772
2354.009
2350.246
2346.483
2342.720
2338.957
2335.194
