109.089
109.089
109.089
109.089
109.089
109.089
109.089
109.089
109.089
109.089
109.089
109.089
109.089
109.089
109.089
109.089
109.089
109.089
109.089
109.089
109.089
109.089
109.089
109.089
109.089
109.089
109.089
109.089
109.089
109.089
109.089
109.089
109.089
109.089
109.089
109.089
109.089
109.089
109.089
109.089
109.089
109.089
109.089
109.089
109.089
109.089
109.089
109.089
109.089
109.089
109.089
109.089
109.089
109.089
109.089
109.089
109.089
109.089
109.089
109.089
109.089
109.089
109.089
109.089
109.089
109.089
109.089
109.089
109.089
109.089
109.089
109.089
109.089
109.089
109.089
109.089
109.089
109.089
109.089
109.089
109.089
109.089
109.089
109.089
109.089
109.089
109.089
109.089
109.089
109.089
109.089
109.089
109.089
109.089
109.089
109.089
109.089
109.089
109.089
109.089
109.089
109.089
109.089
109.089
109.089
109.089
109.089
109.089
109.089
1692.589
1698.430
1704.271
1710.112
1715.953
1721.794
1727.635
1733.476
1739.317
1745.158
1750.999
1756.840
1762.681
1768.522
1774.363
1780.204
1786.045
1791.886
1797.727
1803.568
1809.409
1815.250
1821.091
1826.932
1832.773
1838.614
1844.455
1850.296
1856.137
1861.978
1867.819
1873.660
1879.501
1885.342
1891.183
1897.024
1902.865
1908.706
1914.547
1920.388
1926.229
1932.070
1937.911
1943.752
1949.593
1955.434
1961.275
1967.116
1972.957
1978.798
1984.639
1990.480
1996.321
2002.162
2008.003
2013.844
2019.685
2025.526
2031.367
2037.208
2043.049
2048.890
2054.731
2060.572
2066.413
2072.254
2078.095
2083.936
2089.777
2095.618
2101.459
2107.300
2113.141
2118.982
2124.823
2130.664
2136.505
2142.346
2148.187
2154.028
2159.869
2165.710
2171.551
2177.392
2183.233
2189.074
2194.915
2200.756
2206.597
2212.438
2218.279
2224.120
2229.961
2235.802
2241.643
2247.484
2253.325
2259.166
2265.007
2270.848
2276.689
2282.530
2288.371
2294.212
2300.053
2305.894
2311.735
2317.576
2323.417
2329.258
2335.099
2340.940
2346.781
2352.622
2358.463
2364.304
2370.145
2375.986
2381.827
2387.668
2393.509
2399.350
2405.191
2411.032
2416.873
2422.714
2428.555
2434.396
2440.237
2446.078
2451.919
2457.760
2463.601
2469.442
2475.283
2481.124
2486.965
2492.806
2498.647
2504.488
2510.329
2516.170
2522.011
2527.852
2533.693
2539.534
2545.375
2551.216
2557.057
2562.898
2568.739
2574.580
2580.421
2586.262
2592.103
2597.944
2603.785
2609.626
2615.467
2621.308
2627.149
2632.990
2638.831
2644.672
2650.513
2656.354
2662.195
2668.036
2673.877
2679.718
2685.559
2691.400
2697.241
2703.082
2708.923
2714.764
2720.605
2726.446
2732.287
2738.128
2743.969
2749.810
2755.651
2761.492
2767.333
2773.174
2779.015
2784.856
2790.697
2796.538
2802.379
2808.220
2814.061
2819.902
2825.743
2831.584
2837.425
2843.266
2849.107
2854.948
2860.789
2859.958
2859.127
2858.296
2857.465
2856.634
2855.803
2854.972
2854.141
2853.310
2852.479
2851.648
2850.817
2849.986
2849.155
2848.324
2847.493
2846.662
2845.831
2845.000
2844.169
2843.338
2842.507
2841.676
2840.845
2840.014
2839.183
2838.352
2837.521
2836.690
2835.859
2835.028
2834.197
2833.366
2832.535
2831.704
2830.873
2830.042
2829.211
2828.380
2827.549
2826.718
2825.887
2825.056
2824.225
2823.394
2822.563
2821.732
2820.901
2820.070
2819.239
2818.408
2817.577
2816.746
2815.915
2815.084
2814.253
2813.422
2812.591
2811.760
2810.929
2810.098
2809.267
2808.436
2807.605
2806.774
2805.943
2805.112
2804.281
2803.450
2802.619
2801.788
2800.957
2800.126
2799.295
2798.464
2797.633
2796.802
2795.971
2795.140
2794.309
2793.478
2792.647
2791.816
2790.985
2790.154
2789.323
2788.492
2787.661
2786.830
2785.999
2785.168
2784.337
2783.506
2782.675
2781.844
2781.013
2780.182
2779.351
2778.520
2777.689
2776.858
2776.027
2775.196
2774.365
2773.534
2772.703
2771.872
2771.041
2770.210
2769.379
2768.548
2767.717
2766.886
2766.055
2765.224
2764.393
2763.562
2762.731
2761.900
2761.069
2760.238
2759.407
2758.576
2757.745
2756.914
2756.083
2755.252
2754.421
2753.590
2752.759
2751.928
2751.097
2750.266
2749.435
2748.604
2747.773
2746.942
2746.111
2745.280
2744.449
2743.618
2742.787
2741.956
2741.125
2740.294
2739.463
2738.632
2737.801
2736.970
2736.139
2735.308
2734.477
2733.646
2732.815
2731.984
2731.153
2730.322
2729.491
2728.660
2727.829
2726.998
2726.167
2725.336
2724.505
2723.674
2722.843
2722.012
2721.181
2720.350
2719.519
2718.688
2717.857
2717.026
2716.195
2715.364
2714.533
2713.702
2712.871
2712.040
2711.209
2710.378
2709.547
2708.716
2707.885
2707.054
2706.223
2705.392
2704.561
2703.730
2702.899
2702.068
2701.237
2700.406
2699.575
2698.744
2697.913
2697.082
2696.251
2695.420
2694.589
2688.846
2683.103
2677.360
2671.617
2665.874
2660.131
2654.388
2648.645
2642.902
2637.159
2631.416
2625.673
2619.930
2614.187
2608.444
2602.701
2596.958
2591.215
2585.472
2579.729
2573.986
2568.243
2562.500
2556.757
2551.014
2545.271
2539.528
2533.785
2528.042
2522.299
2516.556
2510.813
2505.070
2499.327
2493.584
2487.841
2482.098
2476.355
2470.612
2464.869
2459.126
2453.383
2447.640
2441.897
2436.154
2430.411
2424.668
2418.925
2413.182
2407.439
2401.696
2395.953
2390.210
2384.467
2378.724
2372.981
2367.238
2361.495
2355.752
2350.009
2344.266
2338.523
2332.780
2327.037
2321.294
2315.551
2309.808
2304.065
2298.322
2292.579
2286.836
2281.093
2275.350
2269.607
2263.864
2258.121
2252.378
2246.635
2240.892
2235.149
2229.406
2223.663
2217.920
2212.177
2206.434
2200.691
2194.948
2189.205
2183.462
2177.719
2171.976
2166.233
2160.490
2154.747
2149.004
2143.261
2137.518
2131.775
2126.032
2120.289
2114.546
2108.803
2103.060
2097.317
2091.574
2085.831
2080.088
2074.345
2068.602
2062.859
2057.116
2051.373
2045.630
2039.887
2034.144
2028.401
2022.658
2016.915
2011.172
2005.429
1999.686
1993.943
1988.200
1982.457
1976.714
1970.971
1965.228
1959.485
1953.742
1947.999
1942.256
1936.513
1930.770
1925.027
1919.284
1913.541
1907.798
1902.055
1896.312
1890.569
1884.826
1879.083
1873.340
1867.597
1861.854
1856.111
1850.368
1844.625
1838.882
1833.139
1827.396
1821.653
1815.910
1810.167
1804.424
1798.681
1792.938
1787.195
1781.452
1775.709
1769.966
1764.223
1758.480
1752.737
1746.994
1741.251
1735.508
1729.765
1724.022
1718.279
1712.536
1706.793
1701.050
1695.307
1689.564
1683.821
1678.078
1672.335
1666.592
1660.849
1655.106
1649.363
1643.620
1637.877
1632.134
1626.391
1620.648
1614.905
1609.162
1603.419
1597.676
1591.933
1586.190
1580.447
1574.704
1568.961
1563.218
1557.475
1551.732
1545.989
1548.604
1551.219
1553.834
1556.449
1559.064
1561.679
1564.294
1566.909
1569.524
1572.139
1574.754
1577.369
1579.984
1582.599
1585.214
1587.829
1590.444
1593.059
1595.674
1598.289
1600.904
1603.519
1606.134
1608.749
1611.364
1613.979
1616.594
1619.209
1621.824
1624.439
1627.054
1629.669
1632.284
1634.899
1637.514
1640.129
1642.744
1645.359
1647.974
1650.589
1653.204
1655.819
1658.434
1661.049
1663.664
1666.279
1668.894
1671.509
1674.124
1676.739
1679.354
1681.969
1684.584
1687.199
1689.814
1692.429
1695.044
1697.659
1700.274
1702.889
1705.504
1708.119
1710.734
1713.349
1715.964
1718.579
1721.194
1723.809
1726.424
1729.039
1731.654
1734.269
1736.884
1739.499
1742.114
1744.729
1747.344
1749.959
1752.574
1755.189
1757.804
1760.419
1763.034
1765.649
1768.264
1770.879
1773.494
1776.109
1778.724
1781.339
1783.954
1786.569
1789.184
1791.799
1794.414
1797.029
1799.644
1802.259
1804.874
1807.489
1810.104
1812.719
1815.334
1817.949
1820.564
1823.179
1825.794
1828.409
1831.024
1833.639
1836.254
1838.869
1841.484
1844.099
1846.714
1849.329
1851.944
1854.559
1857.174
1859.789
1862.404
1865.019
1867.634
1870.249
1872.864
1875.479
1878.094
1880.709
1883.324
1885.939
1888.554
1891.169
1893.784
1896.399
1899.014
1901.629
1904.244
1906.859
1909.474
1912.089
1914.704
1917.319
1919.934
1922.549
1925.164
1927.779
1930.394
1933.009
1935.624
1938.239
1940.854
1943.469
1946.084
1948.699
1951.314
1953.929
1956.544
1959.159
1961.774
1964.389
1967.004
1969.619
1972.234
1974.849
1977.464
1980.079
1982.694
1985.309
1987.924
1990.539
1993.154
1995.769
1998.384
2000.999
2003.614
2006.229
2008.844
2011.459
2014.074
2016.689
2019.304
2021.919
2024.534
2027.149
2029.764
2032.379
2034.994
2037.609
2040.224
2042.839
2045.454
2048.069
2050.684
2053.299
2055.914
2058.529
2061.144
2063.759
2066.374
2068.989
2070.577
2072.166
2073.754
2075.343
2076.931
2078.520
2080.108
2081.697
2083.285
2084.874
2086.462
2088.051
2089.639
2091.228
2092.816
2094.405
2095.993
2097.582
2099.170
2100.759
2102.347
2103.936
2105.524
2107.113
2108.701
2110.290
2111.878
2113.467
2115.055
2116.644
2118.232
2119.821
2121.409
2122.998
2124.586
2126.175
2127.763
2129.352
2130.940
2132.529
2134.117
2135.706
2137.294
2138.883
2140.471
2142.060
2143.648
2145.237
2146.825
2148.414
2150.002
2151.591
2153.179
2154.768
2156.356
2157.945
2159.533
2161.122
2162.710
2164.299
2165.887
2167.476
2169.064
2170.653
2172.241
2173.830
2175.418
2177.007
2178.595
2180.184
2181.772
2183.361
2184.949
2186.538
2188.126
2189.715
2191.303
2192.892
2194.480
2196.069
2197.657
2199.246
2200.834
2202.423
2204.011
2205.600
2207.188
2208.777
2210.365
2211.954
2213.542
2215.131
2216.719
2218.308
2219.896
2221.485
2223.073
2224.662
2226.250
2227.839
2229.427
2231.016
2232.604
2234.193
2235.781
2237.370
2238.958
2240.547
2242.135
2243.724
2245.312
2246.901
2248.489
2250.078
2251.666
2253.255
2254.843
2256.432
2258.020
2259.609
2261.197
2262.786
2264.374
2265.963
2267.551
2269.140
2270.728
2272.317
2273.905
2275.494
2277.082
2278.671
2280.259
2281.848
2283.436
2285.025
2286.613
2288.202
2289.790
2291.379
2292.967
2294.556
2296.144
2297.733
2299.321
2300.910
2302.498
2304.087
2305.675
2307.264
2308.852
2310.441
2312.029
2313.618
2315.206
2316.795
2318.383
2319.972
2321.560
2323.149
2324.737
2326.326
2327.914
2329.503
2331.091
2332.680
2334.268
2335.857
2337.445
2339.034
2340.622
2342.211
2343.799
2345.388
2346.976
2348.565
2350.153
2351.742
2353.330
2354.919
2356.507
2358.096
2359.684
2361.273
2362.861
2364.450
2366.038
2367.627
2369.215
2370.804
2372.392
2373.981
2375.569
2377.158
2378.746
2380.335
2381.923
2383.512
2385.100
2386.689
2384.953
2383.218
2381.482
2379.747
2378.011
2376.276
2374.540
2372.805
2371.069
2369.334
2367.598
2365.863
2364.127
2362.392
2360.656
2358.921
2357.185
2355.450
2353.714
2351.979
2350.243
2348.508
2346.772
2345.037
2343.301
2341.566
2339.830
2338.095
2336.359
2334.624
2332.888
2331.153
2329.417
2327.682
2325.946
2324.211
2322.475
2320.740
2319.004
2317.269
2315.533
2313.798
2312.062
2310.327
2308.591
2306.856
2305.120
2303.385
2301.649
2299.914
2298.178
2296.443
2294.707
2292.972
2291.236
2289.501
2287.765
2286.030
2284.294
2282.559
2280.823
2279.088
2277.352
2275.617
2273.881
2272.146
2270.410
2268.675
2266.939
2265.204
2263.468
2261.733
2259.997
2258.262
2256.526
2254.791
2253.055
2251.320
2249.584
2247.849
2246.113
2244.378
2242.642
2240.907
2239.171
2237.436
2235.700
2233.965
2232.229
2230.494
2228.758
2227.023
2225.287
2223.552
2221.816
2220.081
2218.345
2216.610
2214.874
2213.139
2211.403
2209.668
2207.932
2206.197
2204.461
2202.726
2200.990
2199.255
2197.519
2195.784
2194.048
2192.313
2190.577
2188.842
2187.106
2185.371
2183.635
2181.900
2180.164
2178.429
2176.693
2174.958
2173.222
2171.487
2169.751
2168.016
2166.280
2164.545
2162.809
2161.074
2159.338
2157.603
2155.867
2154.132
2152.396
2150.661
2148.925
2147.190
2145.454
2143.719
2141.983
2140.248
2138.512
2136.777
2135.041
2133.306
2131.570
2129.835
2128.099
2126.364
2124.628
2122.893
2121.157
2119.422
2117.686
2115.951
2114.215
2112.480
2110.744
2109.009
2107.273
2105.538
2103.802
2102.067
2100.331
2098.596
2096.860
2095.125
2093.389
2091.654
2089.918
2088.183
2086.447
2084.712
2082.976
2081.241
2079.505
2077.770
2076.034
2074.299
2072.563
2070.828
2069.092
2067.357
2065.621
2063.886
2062.150
2060.415
2058.679
2056.944
2055.208
2053.473
2051.737
2050.002
2048.266
2046.531
2044.795
2043.060
2041.324
2039.589
2043.475
2047.361
2051.247
2055.133
2059.019
2062.905
2066.791
2070.677
2074.563
2078.449
2082.335
2086.221
2090.107
2093.993
2097.879
2101.765
2105.651
2109.537
2113.423
2117.309
2121.195
2125.081
2128.967
2132.853
2136.739
2140.625
2144.511
2148.397
2152.283
2156.169
2160.055
2163.941
2167.827
2171.713
2175.599
2179.485
2183.371
2187.257
2191.143
2195.029
2198.915
2202.801
2206.687
2210.573
2214.459
2218.345
2222.231
2226.117
2230.003
2233.889
2237.775
2241.661
2245.547
2249.433
2253.319
2257.205
2261.091
2264.977
2268.863
2272.749
2276.635
2280.521
2284.407
2288.293
2292.179
2296.065
2299.951
2303.837
2307.723
2311.609
2315.495
2319.381
2323.267
2327.153
2331.039
2334.925
2338.811
2342.697
2346.583
2350.469
2354.355
2358.241
2362.127
2366.013
2369.899
2373.785
2377.671
2381.557
2385.443
2389.329
2393.215
2397.101
2400.987
2404.873
2408.759
2412.645
2416.531
2420.417
2424.303
2428.189
2432.075
2435.961
2439.847
2443.733
2447.619
2451.505
2455.391
2459.277
2463.163
2467.049
2470.935
2474.821
2478.707
2482.593
2486.479
2490.365
2494.251
2498.137
2502.023
2505.909
2509.795
2513.681
2517.567
2521.453
2525.339
2529.225
2533.111
2536.997
2540.883
2544.769
2548.655
2552.541
2556.427
2560.313
2564.199
2568.085
2571.971
2575.857
2579.743
2583.629
2587.515
2591.401
2595.287
2599.173
2603.059
2606.945
2610.831
2614.717
2618.603
2622.489
2626.375
2630.261
2634.147
2638.033
2641.919
2645.805
2649.691
2653.577
2657.463
2661.349
2665.235
2669.121
2673.007
2676.893
2680.779
2684.665
2688.551
2692.437
2696.323
2700.209
2704.095
2707.981
2711.867
2715.753
2719.639
2723.525
2727.411
2731.297
2735.183
2739.069
2742.955
2746.841
2750.727
2754.613
2758.499
2762.385
2766.271
2770.157
2774.043
2777.929
2781.815
2785.701
2789.587
2793.473
2797.359
2801.245
2805.131
2809.017
2812.903
2816.789
2815.298
2813.807
2812.316
2810.825
2809.334
2807.843
2806.352
2804.861
2803.370
2801.879
2800.388
2798.897
2797.406
2795.915
2794.424
2792.933
2791.442
2789.951
2788.460
2786.969
2785.478
2783.987
2782.496
2781.005
2779.514
2778.023
2776.532
2775.041
2773.550
2772.059
2770.568
2769.077
2767.586
2766.095
2764.604
2763.113
2761.622
2760.131
2758.640
2757.149
2755.658
2754.167
2752.676
2751.185
2749.694
2748.203
2746.712
2745.221
2743.730
2742.239
2740.748
2739.257
2737.766
2736.275
2734.784
2733.293
2731.802
2730.311
2728.820
2727.329
2725.838
2724.347
2722.856
2721.365
2719.874
2718.383
2716.892
2715.401
2713.910
2712.419
2710.928
2709.437
2707.946
2706.455
2704.964
2703.473
2701.982
2700.491
2699.000
2697.509
2696.018
2694.527
2693.036
2691.545
2690.054
2688.563
2687.072
2685.581
2684.090
2682.599
2681.108
2679.617
2678.126
2676.635
2675.144
2673.653
2672.162
2670.671
2669.180
2667.689
2666.198
2664.707
2663.216
2661.725
2660.234
2658.743
2657.252
2655.761
2654.270
2652.779
2651.288
2649.797
2648.306
2646.815
2645.324
2643.833
2642.342
2640.851
2639.360
2637.869
2636.378
2634.887
2633.396
2631.905
2630.414
2628.923
2627.432
2625.941
2624.450
2622.959
2621.468
2619.977
2618.486
2616.995
2615.504
2614.013
2612.522
2611.031
2609.540
2608.049
2606.558
2605.067
2603.576
2602.085
2600.594
2599.103
2597.612
2596.121
2594.630
2593.139
2591.648
2590.157
2588.666
2587.175
2585.684
2584.193
2582.702
2581.211
2579.720
2578.229
2576.738
2575.247
2573.756
2572.265
2570.774
2569.283
2567.792
2566.301
2564.810
2563.319
2561.828
2560.337
2558.846
2557.355
2555.864
2554.373
2552.882
2551.391
2549.900
2548.409
2546.918
2545.427
2543.936
2542.445
2540.954
2539.463
2537.972
2536.481
2534.990
2533.499
2532.008
2530.517
2529.026
2527.535
2526.044
2524.553
2523.062
2521.571
2520.080
2518.589
2515.779
2512.969
2510.159
2507.349
2504.539
2501.729
2498.919
2496.109
2493.299
2490.489
2487.679
2484.869
2482.059
2479.249
2476.439
2473.629
2470.819
2468.009
2465.199
2462.389
2459.579
2456.769
2453.959
2451.149
2448.339
2445.529
2442.719
2439.909
2437.099
2434.289
2431.479
2428.669
2425.859
2423.049
2420.239
2417.429
2414.619
2411.809
2408.999
2406.189
2403.379
2400.569
2397.759
2394.949
2392.139
2389.329
2386.519
2383.709
2380.899
2378.089
2375.279
2372.469
2369.659
2366.849
2364.039
2361.229
2358.419
2355.609
2352.799
2349.989
2347.179
2344.369
2341.559
2338.749
2335.939
2333.129
2330.319
2327.509
2324.699
2321.889
2319.079
2316.269
2313.459
2310.649
2307.839
2305.029
2302.219
2299.409
2296.599
2293.789
2290.979
2288.169
2285.359
2282.549
2279.739
2276.929
2274.119
2271.309
2268.499
2265.689
2262.879
2260.069
2257.259
2254.449
2251.639
2248.829
2246.019
2243.209
2240.399
2237.589
2234.779
2231.969
2229.159
2226.349
2223.539
2220.729
2217.919
2215.109
2212.299
2209.489
2206.679
2203.869
2201.059
2198.249
2195.439
2192.629
2189.819
2187.009
2184.199
2181.389
2178.579
2175.769
2172.959
2170.149
2167.339
2164.529
2161.719
2158.909
2156.099
2153.289
2150.479
2147.669
2144.859
2142.049
2139.239
2136.429
2133.619
2130.809
2127.999
2125.189
2122.379
2119.569
2116.759
2113.949
2111.139
2108.329
2105.519
2102.709
2099.899
2097.089
2094.279
2091.469
2088.659
2085.849
2083.039
2080.229
2077.419
2074.609
2071.799
2068.989
2066.179
2063.369
2060.559
2057.749
2054.939
2052.129
2049.319
2046.509
2043.699
2040.889
2038.079
2035.269
2032.459
2029.649
2026.839
2024.029
2021.219
2018.409
2015.599
2012.789
2009.979
2007.169
2004.359
2001.549
1998.739
1995.929
1993.119
1990.309
1987.499
1984.689
1981.879
1979.069
1976.259
1973.449
1970.639
1967.829
1965.019
1962.209
1959.399
1956.589
1951.090
1945.592
1940.093
1934.595
1929.096
1923.598
1918.099
1912.601
1907.102
1901.604
1896.105
1890.607
1885.108
1879.610
1874.111
1868.613
1863.114
1857.616
1852.117
1846.619
1841.120
1835.622
1830.123
1824.625
1819.126
1813.628
1808.129
1802.631
1797.132
1791.634
1786.135
1780.637
1775.138
1769.640
1764.141
1758.643
1753.144
1747.646
1742.147
1736.649
1731.150
1725.652
1720.153
1714.655
1709.156
1703.658
1698.159
1692.661
1687.162
1681.664
1676.165
1670.667
1665.168
1659.670
1654.171
1648.673
1643.174
1637.676
1632.177
1626.679
1621.180
1615.682
1610.183
1604.685
1599.186
1593.688
1588.189
1582.691
1577.192
1571.694
1566.195
1560.697
1555.198
1549.700
1544.201
1538.703
1533.204
1527.706
1522.207
1516.709
1511.210
1505.712
1500.213
1494.715
1489.216
1483.718
1478.219
1472.721
1467.222
1461.724
