87.281
87.305
87.330
87.354
87.379
87.403
87.428
87.452
87.477
87.501
87.526
87.550
87.575
87.599
87.624
87.648
87.673
87.697
87.722
87.746
87.771
87.795
87.820
87.844
87.869
87.893
87.918
87.942
87.967
87.991
88.016
88.040
88.065
88.089
88.114
88.138
88.163
88.187
88.212
88.236
88.261
88.285
88.310
88.334
88.359
88.383
88.408
88.432
88.457
88.481
88.506
88.530
88.555
88.579
88.604
88.628
88.653
88.677
88.702
88.726
88.751
88.775
88.800
88.824
88.849
88.873
88.898
88.922
88.947
88.971
88.996
89.020
89.045
89.069
89.094
89.118
89.143
89.167
89.192
89.216
89.241
89.265
89.290
89.314
89.339
89.363
89.388
89.412
89.437
89.461
89.486
89.510
89.535
89.559
89.584
89.608
89.633
89.657
89.682
89.706
89.731
89.755
89.780
89.804
89.829
89.804
89.780
89.755
89.731
89.706
89.682
89.657
89.633
89.608
89.584
89.559
89.535
89.510
89.486
89.461
89.437
89.412
89.388
89.363
89.339
89.314
89.290
89.265
89.241
89.216
89.192
89.167
89.143
89.118
89.094
89.069
89.045
89.020
88.996
88.971
88.947
88.922
88.898
88.873
88.849
88.824
88.800
88.775
88.751
88.726
88.702
88.677
88.653
88.628
88.604
88.579
88.555
88.530
88.506
88.481
88.457
88.432
88.408
88.383
88.359
88.334
88.310
88.285
88.261
88.236
88.212
88.187
88.163
88.138
88.114
88.089
88.065
88.040
88.016
87.991
87.967
87.942
87.918
87.893
87.869
87.844
87.820
87.795
87.771
87.746
87.722
87.697
87.673
87.648
87.624
87.599
87.575
87.550
87.526
87.501
87.477
87.452
87.428
87.403
87.379
87.354
87.330
87.305
87.281
87.256
87.232
87.207
87.183
87.158
87.134
87.109
87.085
87.060
87.036
87.011
86.987
86.962
86.938
86.913
86.889
86.864
86.840
86.815
86.791
86.766
86.742
86.717
86.693
86.668
86.644
86.619
86.595
86.570
86.546
86.521
86.497
86.472
86.448
86.423
86.399
86.374
86.350
86.325
86.301
86.276
86.252
86.227
86.203
86.178
86.154
86.129
86.105
86.080
86.056
86.031
86.007
85.982
85.958
85.933
85.909
85.884
85.860
85.835
85.811
85.786
85.762
85.737
85.713
85.688
85.664
85.639
85.615
85.590
85.566
85.541
85.517
85.492
85.468
85.443
85.419
85.394
85.370
85.345
85.321
85.296
85.272
85.247
85.223
85.198
85.174
85.149
85.125
85.100
85.076
85.051
85.027
85.002
84.978
84.953
84.929
84.953
84.978
85.002
85.027
85.051
85.076
85.100
85.125
85.149
85.174
85.198
85.223
85.247
85.272
85.296
85.321
85.345
85.370
85.394
85.419
85.443
85.468
85.492
85.517
85.541
85.566
85.590
85.615
85.639
85.664
85.688
85.713
85.737
85.762
85.786
85.811
85.835
85.860
85.884
85.909
85.933
85.958
85.982
86.007
86.031
86.056
86.080
86.105
86.129
86.154
86.178
86.203
86.227
86.252
86.276
86.301
86.325
86.350
86.374
86.399
86.423
86.448
86.472
86.497
86.521
86.546
86.570
86.595
86.619
86.644
86.668
86.693
86.717
86.742
86.766
86.791
86.815
86.840
86.864
86.889
86.913
86.938
86.962
86.987
87.011
87.036
87.060
87.085
87.109
87.134
87.158
87.183
87.207
87.232
87.256
87.281
87.305
87.330
87.354
87.379
87.403
87.428
87.452
87.477
87.501
87.526
87.550
87.575
87.599
87.624
87.648
87.673
87.697
87.722
87.746
87.771
87.795
87.820
87.844
87.869
87.893
87.918
87.942
87.967
87.991
88.016
88.040
88.065
88.089
88.114
88.138
88.163
88.187
88.212
88.236
88.261
88.285
88.310
88.334
88.359
88.383
88.408
88.432
88.457
88.481
88.506
88.530
88.555
88.579
88.604
88.628
88.653
88.677
88.702
88.726
88.751
88.775
88.800
88.824
88.849
88.873
88.898
88.922
88.947
88.971
88.996
89.020
89.045
89.069
89.094
89.118
89.143
89.167
89.192
89.216
89.241
89.265
89.290
89.314
89.339
89.363
89.388
89.412
89.437
89.461
89.486
89.510
89.535
89.559
89.584
89.608
89.633
89.657
89.682
89.706
89.731
89.755
89.780
89.804
89.829
89.829
89.829
89.829
89.829
89.829
89.829
89.829
89.829
89.829
89.829
89.829
89.829
89.829
89.829
89.829
89.829
89.829
89.829
89.829
89.829
89.829
89.829
89.829
89.829
89.829
89.829
89.829
89.829
89.829
89.829
89.829
89.829
89.829
89.829
89.829
89.829
89.829
89.829
89.829
89.829
89.829
89.829
89.829
89.829
89.829
89.829
89.829
89.829
89.829
89.829
89.829
89.829
89.829
89.829
89.829
89.829
89.829
89.829
89.829
89.829
89.829
89.829
89.829
89.829
89.829
89.829
89.829
89.829
89.829
89.829
89.829
89.829
89.829
89.829
89.829
89.829
89.829
89.829
89.829
89.829
89.829
89.829
89.829
89.829
89.829
89.829
89.829
89.829
89.829
89.829
89.829
89.829
89.829
89.829
89.829
89.829
89.829
89.829
89.829
89.829
89.829
89.829
89.829
89.829
89.829
89.829
89.829
89.829
89.829
89.829
89.829
89.829
89.829
89.829
89.829
89.829
89.829
89.829
89.829
89.829
89.829
89.829
89.829
89.829
89.829
89.829
89.829
89.829
89.829
89.829
89.829
89.829
89.829
89.829
89.829
89.829
89.829
89.829
89.829
89.829
89.829
89.829
89.829
89.829
89.829
89.829
89.829
89.829
89.829
89.829
89.829
89.829
89.829
89.829
89.829
89.829
89.829
89.829
89.829
89.829
89.829
89.829
89.829
89.829
89.829
89.829
89.829
89.829
89.829
89.829
89.829
89.829
89.829
89.829
89.829
89.829
89.829
89.829
89.829
89.829
89.829
89.829
89.829
89.829
89.829
89.829
89.829
89.829
89.829
89.829
89.829
89.829
89.829
89.829
89.829
89.829
89.829
89.829
89.829
89.829
89.804
89.780
89.755
89.731
89.706
89.682
89.657
89.633
89.608
89.584
89.559
89.535
89.510
89.486
89.461
89.437
89.412
89.388
89.363
89.339
89.314
89.290
89.265
89.241
89.216
89.192
89.167
89.143
89.118
89.094
89.069
89.045
89.020
88.996
88.971
88.947
88.922
88.898
88.873
88.849
88.824
88.800
88.775
88.751
88.726
88.702
88.677
88.653
88.628
88.604
88.579
88.555
88.530
88.506
88.481
88.457
88.432
88.408
88.383
88.359
88.334
88.310
88.285
88.261
88.236
88.212
88.187
88.163
88.138
88.114
88.089
88.065
88.040
88.016
87.991
87.967
87.942
87.918
87.893
87.869
87.844
87.820
87.795
87.771
87.746
87.722
87.697
87.673
87.648
87.624
87.599
87.575
87.550
87.526
87.501
87.477
87.452
87.428
87.403
87.379
87.354
87.330
87.305
87.281
87.256
87.232
87.207
87.183
87.158
87.134
87.109
87.085
87.060
87.036
87.011
86.987
86.962
86.938
86.913
86.889
86.864
86.840
86.815
86.791
86.766
86.742
86.717
86.693
86.668
86.644
86.619
86.595
86.570
86.546
86.521
86.497
86.472
86.448
86.423
86.399
86.374
86.350
86.325
86.301
86.276
86.252
86.227
86.203
86.178
86.154
86.129
86.105
86.080
86.056
86.031
86.007
85.982
85.958
85.933
85.909
85.884
85.860
85.835
85.811
85.786
85.762
85.737
85.713
85.688
85.664
85.639
85.615
85.590
85.566
85.541
85.517
85.492
85.468
85.443
85.419
85.394
85.370
85.345
85.321
85.296
85.272
85.247
85.223
85.198
85.174
85.149
85.125
85.100
85.076
85.051
85.027
85.002
84.978
84.953
84.929
84.953
84.978
85.002
85.027
85.051
85.076
85.100
85.125
85.149
85.174
85.198
85.223
85.247
85.272
85.296
85.321
85.345
85.370
85.394
85.419
85.443
85.468
85.492
85.517
85.541
85.566
85.590
85.615
85.639
85.664
85.688
85.713
85.737
85.762
85.786
85.811
85.835
85.860
85.884
85.909
85.933
85.958
85.982
86.007
86.031
86.056
86.080
86.105
86.129
86.154
86.178
86.203
86.227
86.252
86.276
86.301
86.325
86.350
86.374
86.399
86.423
86.448
86.472
86.497
86.521
86.546
86.570
86.595
86.619
86.644
86.668
86.693
86.717
86.742
86.766
86.791
86.815
86.840
86.864
86.889
86.913
86.938
86.962
86.987
87.011
87.036
87.060
87.085
87.109
87.134
87.158
87.183
87.207
87.232
87.256
87.281
87.305
87.330
87.354
87.379
87.403
87.428
87.452
87.477
87.501
87.526
87.550
87.575
87.599
87.624
87.648
87.673
87.697
87.722
87.746
87.771
87.795
87.820
87.844
87.869
87.893
87.918
87.942
87.967
87.991
88.016
88.040
88.065
88.089
88.114
88.138
88.163
88.187
88.212
88.236
88.261
88.285
88.310
88.334
88.359
88.383
88.408
88.432
88.457
88.481
88.506
88.530
88.555
88.579
88.604
88.628
88.653
88.677
88.702
88.726
88.751
88.775
88.800
88.824
88.849
88.873
88.898
88.922
88.947
88.971
88.996
89.020
89.045
89.069
89.094
89.118
89.143
89.167
89.192
89.216
89.241
89.265
89.290
89.314
89.339
89.363
89.388
89.412
89.437
89.461
89.486
89.510
89.535
89.559
89.584
89.608
89.633
89.657
89.682
89.706
89.731
89.755
89.780
89.804
1512.129
1514.157
1516.185
1518.213
1520.241
1522.269
1524.297
1526.325
1528.353
1530.381
1532.409
1534.437
1536.465
1538.493
1540.521
1542.549
1544.577
1546.605
1548.633
1550.661
1552.689
1554.717
1556.745
1558.773
1560.801
1562.829
1564.857
1566.885
1568.913
1570.941
1572.969
1574.997
1577.025
1579.053
1581.081
1583.109
1585.137
1587.165
1589.193
1591.221
1593.249
1595.277
1597.305
1599.333
1601.361
1603.389
1605.417
1607.445
1609.473
1611.501
1613.529
1615.557
1617.585
1619.613
1621.641
1623.669
1625.697
1627.725
1629.753
1631.781
1633.809
1635.837
1637.865
1639.893
1641.921
1643.949
1645.977
1648.005
1650.033
1652.061
1654.089
1656.117
1658.145
1660.173
1662.201
1664.229
1666.257
1668.285
1670.313
1672.341
1674.369
1676.397
1678.425
1680.453
1682.481
1684.509
1686.537
1688.565
1690.593
1692.621
1694.649
1696.677
1698.705
1700.733
1702.761
1704.789
1706.817
1708.845
1710.873
1712.901
1714.929
1716.957
1718.985
1721.013
1723.041
1725.069
1727.097
1729.125
1731.153
1733.181
1735.209
1737.237
1739.265
1741.293
1743.321
1745.349
1747.377
1749.405
1751.433
1753.461
1755.489
1757.517
1759.545
1761.573
1763.601
1765.629
1767.657
1769.685
1771.713
1773.741
1775.769
1777.797
1779.825
1781.853
1783.881
1785.909
1787.937
1789.965
1791.993
1794.021
1796.049
1798.077
1800.105
1802.133
1804.161
1806.189
1808.217
1810.245
1812.273
1814.301
1816.329
1818.357
1820.385
1822.413
1824.441
1826.469
1828.497
1830.525
1832.553
1834.581
1836.609
1838.637
1840.665
1842.693
1844.721
1846.749
1848.777
1850.805
1852.833
1854.861
1856.889
1858.917
1860.945
1862.973
1865.001
1867.029
1869.057
1871.085
1873.113
1875.141
1877.169
1879.197
1881.225
1883.253
1885.281
1887.309
1889.337
1891.365
1893.393
1895.421
1897.449
1899.477
1901.505
1903.533
1905.561
1907.589
1909.617
1911.645
1913.673
1915.701
1917.729
1917.753
1917.778
1917.802
1917.827
1917.851
1917.876
1917.900
1917.925
1917.949
1917.974
1917.998
1918.023
1918.047
1918.072
1918.096
1918.121
1918.145
1918.170
1918.194
1918.219
1918.243
1918.268
1918.292
1918.317
1918.341
1918.366
1918.390
1918.415
1918.439
1918.464
1918.488
1918.513
1918.537
1918.562
1918.586
1918.611
1918.635
1918.660
1918.684
1918.709
1918.733
1918.758
1918.782
1918.807
1918.831
1918.856
1918.880
1918.905
1918.929
1918.954
1918.978
1919.003
1919.027
1919.052
1919.076
1919.101
1919.125
1919.150
1919.174
1919.199
1919.223
1919.248
1919.272
1919.297
1919.321
1919.346
1919.370
1919.395
1919.419
1919.444
1919.468
1919.493
1919.517
1919.542
1919.566
1919.591
1919.615
1919.640
1919.664
1919.689
1919.713
1919.738
1919.762
1919.787
1919.811
1919.836
1919.860
1919.885
1919.909
1919.934
1919.958
1919.983
1920.007
1920.032
1920.056
1920.081
1920.105
1920.130
1920.154
1920.179
1920.203
1920.228
1920.252
1920.277
1920.301
1920.326
1920.350
1920.375
1920.399
1920.424
1920.448
1920.473
1920.497
1920.522
1920.546
1920.571
1920.595
1920.620
1920.644
1920.669
1920.693
1920.718
1920.742
1920.767
1920.791
1920.816
1920.840
1920.865
1920.889
1920.914
1920.938
1920.963
1920.987
1921.012
1921.036
1921.061
1921.085
1921.110
1921.134
1921.159
1921.183
1921.208
1921.232
1921.257
1921.281
1921.306
1921.330
1921.355
1921.379
1921.404
1921.428
1921.453
1921.477
1921.502
1921.526
1921.551
1921.575
1921.600
1921.624
1921.649
1921.673
1921.698
1921.722
1921.747
1921.771
1921.796
1921.820
1921.845
1921.869
1921.894
1921.918
1921.943
1921.967
1921.992
1922.016
1922.041
1922.065
1922.090
1922.114
1922.139
1922.163
1922.188
1922.212
1922.237
1922.261
1922.286
1922.310
1922.335
1922.359
1922.384
1922.408
1922.433
1922.457
1922.482
1922.506
1922.531
1922.555
1922.580
1922.604
1922.629
1924.095
1925.562
1927.028
1928.495
1929.961
1931.428
1932.894
1934.361
1935.827
1937.294
1938.760
1940.227
1941.693
1943.160
1944.626
1946.093
1947.559
1949.026
1950.492
1951.959
1953.425
1954.892
1956.358
1957.825
1959.291
1960.758
1962.224
1963.691
1965.157
1966.624
1968.090
1969.557
1971.023
1972.490
1973.956
1975.423
1976.889
1978.356
1979.822
1981.289
1982.755
1984.222
1985.688
1987.155
1988.621
1990.088
1991.554
1993.021
1994.487
1995.954
1997.420
1998.887
2000.353
2001.820
2003.286
2004.753
2006.219
2007.686
2009.152
2010.619
2012.085
2013.552
2015.018
2016.485
2017.951
2019.418
2020.884
2022.351
2023.817
2025.284
2026.750
2028.217
2029.683
2031.150
2032.616
2034.083
2035.549
2037.016
2038.482
2039.949
2041.415
2042.882
2044.348
2045.815
2047.281
2048.748
2050.214
2051.681
2053.147
2054.614
2056.080
2057.547
2059.013
2060.480
2061.946
2063.413
2064.879
2066.346
2067.812
2069.279
2070.745
2072.212
2073.678
2075.145
2076.611
2078.078
2079.544
2081.011
2082.477
2083.944
2085.410
2086.877
2088.343
2089.810
2091.276
2092.743
2094.209
2095.676
2097.142
2098.609
2100.075
2101.542
2103.008
2104.475
2105.941
2107.408
2108.874
2110.341
2111.807
2113.274
2114.740
2116.207
2117.673
2119.140
2120.606
2122.073
2123.539
2125.006
2126.472
2127.939
2129.405
2130.872
2132.338
2133.805
2135.271
2136.738
2138.204
2139.671
2141.137
2142.604
2144.070
2145.537
2147.003
2148.470
2149.936
2151.403
2152.869
2154.336
2155.802
2157.269
2158.735
2160.202
2161.668
2163.135
2164.601
2166.068
2167.534
2169.001
2170.467
2171.934
2173.400
2174.867
2176.333
2177.800
2179.266
2180.733
2182.199
2183.666
2185.132
2186.599
2188.065
2189.532
2190.998
2192.465
2193.931
2195.398
2196.864
2198.331
2199.797
2201.264
2202.730
2204.197
2205.663
2207.130
2208.596
2210.063
2211.529
2212.996
2214.462
2215.929
2215.977
2216.026
2216.074
2216.123
2216.171
2216.220
2216.268
2216.317
2216.365
2216.414
2216.462
2216.511
2216.559
2216.608
2216.656
2216.705
2216.753
2216.802
2216.850
2216.899
2216.947
2216.996
2217.044
2217.093
2217.141
2217.190
2217.238
2217.287
2217.335
2217.384
2217.432
2217.481
2217.529
2217.578
2217.626
2217.675
2217.723
2217.772
2217.820
2217.869
2217.917
2217.966
2218.014
2218.063
2218.111
2218.160
2218.208
2218.257
2218.305
2218.354
2218.402
2218.451
2218.499
2218.548
2218.596
2218.645
2218.693
2218.742
2218.790
2218.839
2218.887
2218.936
2218.984
2219.033
2219.081
2219.130
2219.178
2219.227
2219.275
2219.324
2219.372
2219.421
2219.469
2219.518
2219.566
2219.615
2219.663
2219.712
2219.760
2219.809
2219.857
2219.906
2219.954
2220.003
2220.051
2220.100
2220.148
2220.197
2220.245
2220.294
2220.342
2220.391
2220.439
2220.488
2220.536
2220.585
2220.633
2220.682
2220.730
2220.779
2220.827
2220.876
2220.924
2220.973
2221.021
2221.070
2221.118
2221.167
2221.215
2221.264
2221.312
2221.361
2221.409
2221.458
2221.506
2221.555
2221.603
2221.652
2221.700
2221.749
2221.797
2221.846
2221.894
2221.943
2221.991
2222.040
2222.088
2222.137
2222.185
2222.234
2222.282
2222.331
2222.379
2222.428
2222.476
2222.525
2222.573
2222.622
2222.670
2222.719
2222.767
2222.816
2222.864
2222.913
2222.961
2223.010
2223.058
2223.107
2223.155
2223.204
2223.252
2223.301
2223.349
2223.398
2223.446
2223.495
2223.543
2223.592
2223.640
2223.689
2223.737
2223.786
2223.834
2223.883
2223.931
2223.980
2224.028
2224.077
2224.125
2224.174
2224.222
2224.271
2224.319
2224.368
2224.416
2224.465
2224.513
2224.562
2224.610
2224.659
2224.707
2224.756
2224.804
2224.853
2224.901
2224.950
2224.998
2225.047
2225.095
2225.144
2225.192
2225.241
2225.289
2225.338
2225.386
2225.435
2225.483
2225.532
2225.580
2225.629
2225.605
2225.581
2225.557
2225.533
2225.509
2225.485
2225.461
2225.437
2225.413
2225.389
2225.365
2225.341
2225.317
2225.293
2225.269
2225.245
2225.221
2225.197
2225.173
2225.149
2225.125
2225.101
2225.077
2225.053
2225.029
2225.005
2224.981
2224.957
2224.933
2224.909
2224.885
2224.861
2224.837
2224.813
2224.789
2224.765
2224.741
2224.717
2224.693
2224.669
2224.645
2224.621
2224.597
2224.573
2224.549
2224.525
2224.501
2224.477
2224.453
2224.429
2224.405
2224.381
2224.357
2224.333
2224.309
2224.285
2224.261
2224.237
2224.213
2224.189
2224.165
2224.141
2224.117
2224.093
2224.069
2224.045
2224.021
2223.997
2223.973
2223.949
2223.925
2223.901
2223.877
2223.853
2223.829
2223.805
2223.781
2223.757
2223.733
2223.709
2223.685
2223.661
2223.637
2223.613
2223.589
2223.565
2223.541
2223.517
2223.493
2223.469
2223.445
2223.421
2223.397
2223.373
2223.349
