79.720
79.720
79.720
79.720
79.720
79.720
79.720
79.720
79.720
79.720
79.720
79.720
79.720
79.720
79.720
79.720
79.720
79.720
79.720
79.720
79.720
79.720
79.720
79.720
79.720
79.720
79.720
79.720
79.720
79.720
79.720
79.720
79.720
79.720
79.720
79.720
79.720
79.720
79.720
79.720
79.720
79.720
79.720
79.720
79.720
79.720
79.720
79.720
79.720
79.720
79.720
79.720
79.720
79.720
79.720
79.720
79.720
79.720
79.720
79.720
79.720
79.720
79.720
79.720
79.720
79.720
79.720
79.720
79.720
79.720
79.720
79.720
79.720
79.720
79.720
79.720
79.720
79.720
79.720
79.720
79.720
79.720
79.720
79.720
79.720
79.720
79.720
79.720
79.720
79.720
79.720
79.720
79.720
79.720
79.720
79.720
79.720
79.720
79.720
79.720
79.720
79.720
79.720
79.720
79.720
79.720
79.720
79.720
79.720
79.720
79.720
79.720
79.720
79.720
79.720
79.720
79.720
79.720
79.720
79.720
79.720
79.720
79.720
79.720
79.720
79.720
79.720
79.720
79.720
79.720
79.720
79.720
79.720
79.720
79.720
79.720
79.720
79.720
79.720
79.720
79.720
79.720
79.720
79.720
79.720
79.720
79.720
79.720
79.720
79.720
79.720
79.720
79.720
79.720
79.720
79.720
79.720
79.720
79.720
79.720
79.720
79.720
79.720
79.720
79.720
79.720
79.720
79.720
79.720
79.720
79.720
79.720
79.720
79.720
79.720
79.720
79.720
79.720
79.720
79.720
79.720
79.720
79.720
79.720
79.720
79.720
79.720
79.720
79.720
79.720
79.720
79.720
79.720
79.720
79.720
79.720
79.720
79.720
79.720
79.720
79.720
79.720
79.720
79.720
79.720
79.720
79.720
79.720
79.720
79.720
79.720
79.720
79.720
79.720
79.720
79.720
79.720
79.720
79.720
79.720
79.720
79.720
79.720
79.720
79.720
79.720
79.720
79.720
79.720
79.720
79.720
79.720
79.720
79.720
79.720
79.720
79.720
79.720
79.720
79.720
79.720
79.720
79.720
79.720
79.720
79.720
79.720
79.720
79.720
79.720
79.720
79.720
79.720
79.720
79.720
79.720
79.720
79.720
79.720
79.720
79.720
79.720
79.720
79.720
79.720
79.720
79.720
79.720
79.720
79.720
79.720
79.720
79.720
79.720
79.720
79.720
79.720
79.720
79.720
79.720
79.720
79.720
79.720
79.720
79.720
79.720
79.720
79.720
79.720
79.720
79.720
79.720
79.720
79.720
79.720
79.720
79.720
79.720
79.720
79.720
79.720
79.720
79.720
79.720
79.720
79.720
79.720
79.720
79.720
79.720
79.720
79.720
79.720
79.720
79.720
79.720
79.720
79.720
79.720
79.720
79.720
79.720
79.720
79.720
79.720
79.720
79.720
79.720
79.720
79.720
79.720
79.720
79.720
79.720
79.720
79.720
79.720
79.720
79.720
79.720
79.720
79.720
79.720
79.720
79.720
79.720
79.720
79.720
79.720
79.720
79.720
79.720
79.720
79.720
79.720
79.720
79.720
79.720
79.720
79.720
79.720
79.720
79.720
79.720
79.720
79.720
79.720
79.720
79.720
79.720
79.720
79.720
79.720
79.720
79.720
79.720
79.720
79.720
79.720
79.720
79.720
79.720
79.720
79.720
79.720
79.720
79.720
79.720
79.720
79.720
79.720
79.720
79.720
79.720
79.720
79.720
79.720
79.720
79.720
79.720
79.720
79.720
79.720
79.720
79.720
79.720
79.720
79.720
79.720
79.720
79.720
79.720
79.720
79.720
79.720
79.720
79.720
79.720
79.720
79.720
79.720
79.720
79.720
79.720
79.720
79.720
79.720
79.720
79.720
79.720
79.720
79.720
79.720
79.720
79.720
79.720
79.720
79.720
79.720
79.720
79.720
79.720
79.720
79.720
79.720
79.720
79.720
79.720
79.720
79.720
79.720
79.720
79.720
79.720
79.720
79.720
79.720
79.720
79.720
79.720
79.720
79.720
79.720
79.720
79.720
79.720
79.720
79.720
79.720
79.720
79.720
79.720
79.720
79.720
79.720
79.720
79.720
79.720
79.720
79.720
79.720
79.720
79.720
79.720
79.720
79.720
79.720
79.720
79.720
79.720
79.720
79.720
79.720
79.720
79.720
79.720
79.720
79.720
79.720
79.720
79.720
79.720
79.720
79.720
79.720
79.720
79.720
79.720
79.720
79.720
79.720
79.720
79.720
79.720
79.720
79.720
79.720
79.720
79.720
79.720
79.720
79.720
79.720
79.720
79.720
79.720
79.720
79.720
79.720
79.720
79.720
79.720
79.720
79.720
79.720
79.720
79.720
79.720
79.720
79.720
79.720
79.720
79.720
79.720
79.720
79.720
79.720
79.720
79.720
79.720
79.720
79.720
79.720
79.720
79.720
79.720
79.720
79.720
79.720
79.720
79.720
79.720
79.720
79.720
79.720
79.720
79.720
79.720
79.720
79.720
79.720
79.720
79.720
79.720
79.720
79.720
79.720
79.720
79.720
79.720
79.720
79.720
79.720
79.720
79.720
79.720
79.720
79.720
79.720
79.720
79.720
79.720
79.720
79.720
79.720
79.720
79.720
79.720
79.720
79.720
79.720
79.720
79.720
79.720
79.720
79.720
79.720
79.720
79.720
79.720
79.720
79.720
79.720
79.720
79.720
79.720
79.720
79.720
79.720
79.720
79.720
79.720
79.720
79.720
79.720
79.720
79.720
79.720
79.720
79.720
79.720
79.720
79.720
79.720
79.720
79.720
79.720
79.720
79.720
79.720
79.720
79.720
79.720
79.720
79.720
79.720
79.720
79.720
79.720
79.720
79.720
79.720
79.720
79.720
79.720
79.720
79.720
79.720
79.720
79.720
79.720
79.720
79.720
79.720
79.720
79.720
79.720
79.720
79.720
79.720
79.720
79.720
79.720
79.720
79.720
79.720
79.720
79.720
79.720
79.720
79.720
79.720
79.720
79.720
79.720
79.720
79.720
79.720
79.720
79.720
79.720
79.720
79.720
79.720
79.720
79.720
79.720
79.720
79.720
79.720
79.720
79.720
79.720
79.720
79.720
79.720
79.720
79.720
79.720
79.720
79.720
79.720
79.720
79.720
79.720
79.720
79.720
79.720
79.720
79.720
79.720
79.720
79.720
79.720
79.720
79.720
79.720
79.720
79.720
79.720
79.720
79.720
79.720
79.720
79.720
79.720
79.720
79.720
79.720
79.720
79.720
79.720
79.720
79.720
79.720
79.720
79.720
79.720
79.720
79.720
79.720
79.720
79.720
79.720
79.720
79.720
79.720
79.720
79.720
79.720
79.720
79.720
79.720
79.720
79.720
79.720
79.720
79.720
79.720
79.720
79.720
79.720
79.720
79.720
79.720
79.720
79.720
79.720
79.720
79.720
79.720
79.720
79.720
79.720
79.720
79.720
79.720
79.720
79.720
79.720
79.720
79.720
79.720
79.720
79.720
79.720
79.720
79.720
79.720
79.720
79.720
79.720
79.720
79.720
79.720
79.720
79.720
79.720
79.720
79.720
79.720
79.720
79.720
79.720
79.720
79.720
79.720
79.720
79.720
79.720
79.720
79.720
79.720
79.720
79.720
79.720
79.720
79.720
79.720
79.720
79.720
79.720
79.720
79.720
79.720
79.720
79.720
79.720
79.720
79.720
79.720
79.720
79.720
79.720
79.720
79.720
79.720
79.720
79.720
79.720
79.720
79.720
79.720
79.720
79.720
79.720
79.720
79.720
79.720
79.720
79.720
79.720
79.720
79.720
79.720
79.720
79.720
79.720
79.720
79.720
79.720
79.720
79.720
79.720
79.720
79.720
79.720
79.720
79.720
79.720
79.720
79.720
79.720
79.720
79.720
79.720
79.720
79.720
79.720
79.720
79.720
79.720
79.720
79.720
79.720
79.720
79.720
79.720
79.720
79.720
79.720
79.720
79.720
79.720
79.720
79.720
79.720
79.720
79.720
79.720
79.720
79.720
79.720
79.720
79.720
79.720
79.720
79.720
79.720
79.720
79.720
79.720
79.720
79.720
79.720
79.720
79.720
79.720
79.720
79.720
79.720
79.720
79.720
79.720
79.720
79.720
79.720
79.720
79.720
79.720
79.720
79.720
79.720
79.720
79.720
79.720
79.720
79.720
79.720
79.720
79.720
79.720
79.720
79.720
79.720
79.720
79.720
79.720
79.720
79.720
79.720
79.720
79.720
79.720
79.720
79.720
79.720
79.720
79.720
79.720
79.720
79.720
79.720
79.720
79.720
79.720
79.720
79.720
79.720
79.720
79.720
79.720
79.720
79.720
79.720
79.720
79.720
79.720
79.720
79.720
79.720
79.720
79.720
79.720
79.720
79.720
79.720
79.720
79.720
79.720
79.720
1321.120
1323.540
1325.959
1328.379
1330.798
1333.218
1335.637
1338.057
1340.476
1342.896
1345.315
1347.735
1350.154
1352.574
1354.993
1357.413
1359.832
1362.252
1364.671
1367.091
1369.510
1371.930
1374.349
1376.769
1379.188
1381.608
1384.027
1386.447
1388.866
1391.286
1393.705
1396.125
1398.544
1400.964
1403.383
1405.803
1408.222
1410.642
1413.061
1415.481
1417.900
1420.320
1422.739
1425.159
1427.578
1429.998
1432.417
1434.837
1437.256
1439.676
1442.095
1444.515
1446.934
1449.354
1451.773
1454.193
1456.612
1459.032
1461.451
1463.871
1466.290
1468.710
1471.129
1473.549
1475.968
1478.388
1480.807
1483.227
1485.646
1488.066
1490.485
1492.905
1495.324
1497.744
1500.163
1502.583
1505.002
1507.422
1509.841
1512.261
1514.680
1517.100
1519.519
1521.939
1524.358
1526.778
1529.197
1531.617
1534.036
1536.456
1538.875
1541.295
1543.714
1546.134
1548.553
1550.973
1553.392
1555.812
1558.231
1560.651
1563.070
1565.490
1567.909
1570.329
1572.748
1575.168
1577.587
1580.007
1582.426
1584.846
1587.265
1589.685
1592.104
1594.524
1596.943
1599.363
1601.782
1604.202
1606.621
1609.041
1611.460
1613.880
1616.299
1618.719
1621.138
1623.558
1625.977
1628.397
1630.816
1633.236
1635.655
1638.075
1640.494
1642.914
1645.333
1647.753
1650.172
1652.592
1655.011
1657.431
1659.850
1662.270
1664.689
1667.109
1669.528
1671.948
1674.367
1676.787
1679.206
1681.626
1684.045
1686.465
1688.884
1691.304
1693.723
1696.143
1698.562
1700.982
1703.401
1705.821
1708.240
1710.660
1713.079
1715.499
1717.918
1720.338
1722.757
1725.177
1727.596
1730.016
1732.435
1734.855
1737.274
1739.694
1742.113
1744.533
1746.952
1749.372
1751.791
1754.211
1756.630
1759.050
1761.469
1763.889
1766.308
1768.728
1771.147
1773.567
1775.986
1778.406
1780.825
1783.245
1785.664
1788.084
1790.503
1792.923
1795.342
1797.762
1800.181
1802.601
1805.020
1805.827
1806.633
1807.440
1808.246
1809.053
1809.859
1810.666
1811.472
1812.279
1813.085
1813.892
1814.698
1815.505
1816.311
1817.118
1817.924
1818.731
1819.537
1820.344
1821.150
1821.957
1822.763
1823.570
1824.376
1825.183
1825.989
1826.796
1827.602
1828.409
1829.215
1830.022
1830.828
1831.635
1832.441
1833.248
1834.054
1834.861
1835.667
1836.474
1837.280
1838.087
1838.893
1839.700
1840.506
1841.313
1842.119
1842.926
1843.732
1844.539
1845.345
1846.152
1846.958
1847.765
1848.571
1849.378
1850.184
1850.991
1851.797
1852.604
1853.410
1854.217
1855.023
1855.830
1856.636
1857.443
1858.249
1859.056
1859.862
1860.669
1861.475
1862.282
1863.088
1863.895
1864.701
1865.508
1866.314
1867.121
1867.927
1868.734
1869.540
1870.347
1871.153
1871.960
1872.766
1873.573
1874.379
1875.186
1875.992
1876.799
1877.605
1878.412
1879.218
1880.025
1880.831
1881.638
1882.444
1883.251
1884.057
1884.864
1885.670
1886.477
1887.283
1888.090
1888.896
1889.703
1890.509
1891.316
1892.122
1892.929
1893.735
1894.542
1895.348
1896.155
1896.961
1897.768
1898.574
1899.381
1900.187
1900.994
1901.800
1902.607
1903.413
1904.220
1905.026
1905.833
1906.639
1907.446
1908.252
1909.059
1909.865
1910.672
1911.478
1912.285
1913.091
1913.898
1914.704
1915.511
1916.317
1917.124
1917.930
1918.737
1919.543
1920.350
1921.156
1921.963
1922.769
1923.576
1924.382
1925.189
1925.995
1926.802
1927.608
1928.415
1929.221
1930.028
1930.834
1931.641
1932.447
1933.254
1934.060
1934.867
1935.673
1936.480
1937.286
1938.093
1938.899
1939.706
1940.512
1941.319
1942.125
1942.932
1943.738
1944.545
1945.351
1946.158
1946.964
1947.771
1948.577
1949.384
1950.190
1950.997
1951.803
1952.610
1953.416
1954.223
1955.029
1955.836
1956.642
1957.449
1958.255
1959.062
1959.868
1960.675
1961.481
1962.288
1963.094
1963.901
1964.707
1965.514
1966.320
1967.395
1968.470
1969.545
1970.620
1971.695
1972.770
1973.845
1974.920
1975.995
1977.070
1978.145
1979.220
1980.295
1981.370
1982.445
1983.520
1984.595
1985.670
1986.745
1987.820
1988.895
1989.970
1991.045
1992.120
1993.195
1994.270
1995.345
1996.420
1997.495
1998.570
1999.645
2000.720
2001.795
2002.870
2003.945
2005.020
2006.095
2007.170
2008.245
2009.320
2010.395
2011.470
2012.545
2013.620
2014.695
2015.770
2016.845
2017.920
2018.995
2020.070
2021.145
2022.220
2023.295
2024.370
2025.445
2026.520
2027.595
2028.670
2029.745
2030.820
2031.895
2032.970
2034.045
2035.120
2036.195
2037.270
2038.345
2039.420
2040.495
2041.570
2042.645
2043.720
2044.795
2045.870
2046.945
2048.020
2049.095
2050.170
2051.245
2052.320
2053.395
2054.470
2055.545
2056.620
2057.695
2058.770
2059.845
2060.920
2061.995
2063.070
2064.145
2065.220
2066.295
2067.370
2068.445
2069.520
2070.595
2071.670
2072.745
2073.820
2074.895
2075.970
2077.045
2078.120
2079.195
2080.270
2081.345
2082.420
2083.495
2084.570
2085.645
2086.720
2087.795
2088.870
2089.945
2091.020
2092.095
2093.170
2094.245
2095.320
2096.395
2097.470
2098.545
2099.620
2100.695
2101.770
2102.845
2103.920
2104.995
2106.070
2107.145
2108.220
2109.295
2110.370
2111.445
2112.520
2113.595
2114.670
2115.745
2116.820
2117.895
2118.970
2120.045
2121.120
2122.195
2123.270
2124.345
2125.420
2126.495
2127.570
2128.645
2129.720
2130.795
2131.870
2132.945
2134.020
2135.095
2136.170
2137.245
2138.320
2139.395
2140.470
2141.545
2142.620
2143.695
2144.770
2145.845
2146.920
2147.995
2149.070
2150.145
2151.220
2152.295
2153.370
2154.445
2155.520
2156.595
2157.670
2158.745
2159.820
2160.895
2161.970
2163.045
2164.120
2165.195
2166.270
2167.345
2168.420
2169.495
2170.570
2171.645
2172.720
2173.795
2174.870
2175.945
2177.020
2178.095
2179.170
2180.245
2181.320
2180.929
2180.538
2180.147
2179.756
2179.365
2178.974
2178.583
2178.192
2177.801
2177.410
2177.019
2176.628
2176.237
2175.846
2175.455
2175.064
2174.673
2174.282
2173.891
2173.500
2173.109
2172.718
2172.327
2171.936
2171.545
2171.154
2170.763
2170.372
2169.981
2169.590
2169.199
2168.808
2168.417
2168.026
2167.635
2167.244
2166.853
2166.462
2166.071
2165.680
2165.289
2164.898
2164.507
2164.116
2163.725
2163.334
2162.943
2162.552
2162.161
2161.770
2161.379
2160.988
2160.597
2160.206
2159.815
2159.424
2159.033
2158.642
2158.251
2157.860
2157.469
2157.078
2156.687
2156.296
2155.905
2155.514
2155.123
2154.732
2154.341
2153.950
2153.559
2153.168
2152.777
2152.386
2151.995
2151.604
2151.213
2150.822
2150.431
2150.040
2149.649
2149.258
2148.867
2148.476
2148.085
2147.694
2147.303
2146.912
2146.521
2146.130
2145.739
2145.348
2144.957
2144.566
2144.175
2143.784
2143.393
2143.002
2142.611
2142.220
2141.829
2141.438
2141.047
2140.656
2140.265
2139.874
2139.483
2139.092
2138.701
2138.310
2137.919
2137.528
2137.137
2136.746
2136.355
2135.964
2135.573
2135.182
2134.791
2134.400
2134.009
2133.618
2133.227
2132.836
2132.445
2132.054
2131.663
2131.272
2130.881
2130.490
2130.099
2129.708
2129.317
2128.926
2128.535
2128.144
2127.753
2127.362
2126.971
2126.580
2126.189
2125.798
2125.407
2125.016
2124.625
2124.234
2123.843
2123.452
2123.061
2122.670
2122.279
2121.888
2121.497
2121.106
2120.715
2120.324
2119.933
2119.542
2119.151
2118.760
2118.369
2117.978
2117.587
2117.196
2116.805
2116.414
2116.023
2115.632
2115.241
2114.850
2114.459
2114.068
2113.677
2113.286
2112.895
2112.504
2112.113
2111.722
2111.331
2110.940
2110.549
2110.158
2109.767
2109.376
2108.985
2108.594
2108.203
2107.812
2107.421
2107.030
2106.639
2106.248
2105.857
2105.466
2105.075
2104.684
2104.293
2103.902
2103.511
2103.120
2102.387
2101.654
2100.921
2100.188
2099.455
2098.722
2097.989
2097.256
2096.523
2095.790
2095.057
2094.324
2093.591
2092.858
2092.125
2091.392
2090.659
2089.926
2089.193
2088.460
2087.727
2086.994
2086.261
2085.528
2084.795
2084.062
2083.329
2082.596
2081.863
2081.130
2080.397
2079.664
2078.931
2078.198
2077.465
2076.732
2075.999
2075.266
2074.533
2073.800
2073.067
2072.334
2071.601
2070.868
2070.135
2069.402
2068.669
2067.936
2067.203
2066.470
2065.737
2065.004
2064.271
2063.538
2062.805
2062.072
2061.339
2060.606
2059.873
2059.140
2058.407
2057.674
2056.941
2056.208
2055.475
2054.742
2054.009
2053.276
2052.543
2051.810
2051.077
2050.344
2049.611
2048.878
2048.145
2047.412
2046.679
2045.946
2045.213
2044.480
2043.747
2043.014
2042.281
2041.548
2040.815
2040.082
2039.349
2038.616
2037.883
2037.150
2036.417
2035.684
2034.951
2034.218
2033.485
2032.752
2032.019
2031.286
2030.553
2029.820
2029.087
2028.354
2027.621
2026.888
2026.155
2025.422
2024.689
2023.956
2023.223
2022.490
2021.757
2021.024
2020.291
2019.558
2018.825
2018.092
2017.359
2016.626
2015.893
2015.160
2014.427
2013.694
2012.961
2012.228
2011.495
2010.762
2010.029
2009.296
2008.563
2007.830
2007.097
2006.364
2005.631
2004.898
2004.165
2003.432
2002.699
2001.966
2001.233
2000.500
1999.767
1999.034
1998.301
1997.568
1996.835
1996.102
1995.369
1994.636
1993.903
1993.170
1992.437
1991.704
1990.971
1990.238
1989.505
1988.772
1988.039
1987.306
1986.573
1985.840
1985.107
1984.374
1983.641
1982.908
1982.175
1981.442
1980.709
1979.976
1979.243
1978.510
1977.777
1977.044
1976.311
1975.578
1974.845
1974.112
1973.379
1972.646
1971.913
1971.180
1970.447
1969.714
1968.981
1968.248
1967.515
1966.782
1966.049
1965.316
1964.583
1963.850
1963.117
1962.384
1961.651
1960.918
1960.185
1959.452
1958.719
1957.986
