99.159
99.232
99.305
99.378
99.451
99.524
99.597
99.670
99.621
99.573
99.524
99.476
99.427
99.379
99.330
99.282
99.233
99.185
99.136
99.088
99.039
98.991
98.942
98.894
98.845
98.797
98.748
98.700
98.651
98.603
98.554
98.506
98.457
98.409
98.360
98.312
98.263
98.215
98.166
98.118
98.069
98.021
97.972
97.924
97.875
97.827
97.778
97.730
97.681
97.633
97.584
97.536
97.487
97.439
97.390
97.342
97.293
97.245
97.196
97.148
97.099
97.051
97.002
96.954
96.905
96.857
96.808
96.760
96.711
96.663
96.614
96.566
96.517
96.469
96.420
96.372
96.323
96.275
96.226
96.178
96.129
96.081
96.032
95.984
95.935
95.887
95.838
95.790
95.741
95.693
95.644
95.596
95.547
95.499
95.450
95.402
95.353
95.305
95.256
95.208
95.159
95.111
95.062
95.014
94.965
94.917
94.868
94.820
94.771
94.723
94.674
94.626
94.577
94.529
94.480
94.432
94.383
94.335
94.286
94.238
94.189
94.141
94.092
94.044
93.995
93.947
93.898
93.850
93.801
93.753
93.704
93.656
93.607
93.559
93.510
93.462
93.413
93.365
93.316
93.268
93.219
93.171
93.122
93.074
93.025
92.977
92.928
92.880
92.831
92.783
92.734
92.686
92.637
92.589
92.540
92.492
92.443
92.395
92.346
92.298
92.249
92.201
92.152
92.104
92.055
92.007
91.958
91.910
91.861
91.813
91.764
91.716
91.667
91.619
91.570
91.522
91.473
91.425
91.376
91.328
91.279
91.231
91.182
91.134
91.085
91.037
90.988
90.940
90.891
90.843
90.794
90.746
90.697
90.649
90.600
90.552
90.503
90.455
90.406
90.358
90.309
90.261
90.212
90.164
90.115
90.067
90.018
89.970
89.970
89.970
89.970
89.970
89.970
89.970
89.970
89.970
89.970
89.970
89.970
89.970
89.970
89.970
89.970
89.970
89.970
89.970
89.970
89.970
89.970
89.970
89.970
89.970
89.970
89.970
89.970
89.970
89.970
89.970
89.970
89.970
89.970
89.970
89.970
89.970
89.970
89.970
89.970
89.970
89.970
89.970
89.970
89.970
89.970
89.970
89.970
89.970
89.970
89.970
89.970
89.970
89.970
89.970
89.970
89.970
89.970
89.970
89.970
89.970
89.970
89.970
89.970
89.970
89.970
89.970
89.970
89.970
89.970
89.970
89.970
89.970
89.970
89.970
89.970
89.970
89.970
89.970
89.970
89.970
89.970
89.970
89.970
89.970
89.970
89.970
89.970
89.970
89.970
89.970
89.970
89.970
89.970
89.970
89.970
89.970
89.970
89.970
89.970
89.970
89.970
89.970
89.970
89.970
89.970
89.970
89.970
89.970
89.970
89.970
89.970
89.970
89.970
89.970
89.970
89.970
89.970
89.970
89.970
89.970
89.970
89.970
89.970
89.970
89.970
89.970
89.970
89.970
89.970
89.970
89.970
89.970
89.970
89.970
89.970
89.970
89.970
89.970
89.970
89.970
89.970
89.970
89.970
89.970
89.970
89.970
89.970
89.970
89.970
89.970
89.970
89.970
89.970
89.970
89.970
89.970
89.970
89.970
89.970
89.970
89.970
89.970
89.970
89.970
89.970
89.970
89.970
89.970
89.970
89.970
89.970
89.970
89.970
89.970
89.970
89.970
89.970
89.970
89.970
89.970
89.970
89.970
89.970
89.970
89.970
89.970
89.970
89.970
89.970
89.970
89.970
89.970
89.970
89.970
89.970
89.970
89.970
89.970
89.970
2846.570
2845.739
2844.908
2844.077
2843.246
2842.415
2841.584
2840.753
2839.922
2839.091
2838.260
2837.429
2836.598
2835.767
2834.936
2834.105
2833.274
2832.443
2831.612
2830.781
2829.950
2829.119
2828.288
2827.457
2826.626
2825.795
2824.964
2824.133
2823.302
2822.471
2821.640
2820.809
2819.978
2819.147
2818.316
2817.485
2816.654
2815.823
2814.992
2814.161
2813.330
2812.499
2811.668
2810.837
2810.006
2809.175
2808.344
2807.513
2806.682
2805.851
2805.020
2804.189
2803.358
2802.527
2801.696
2800.865
2800.034
2799.203
2798.372
2797.541
2796.710
2795.879
2795.048
2794.217
2793.386
2792.555
2791.724
2790.893
2790.062
2789.231
2788.400
2787.569
2786.738
2785.907
2785.076
2784.245
2783.414
2782.583
2781.752
2780.921
2780.090
2779.259
2778.428
2777.597
2776.766
2775.935
2775.104
2774.273
2773.442
2772.611
2771.780
2770.949
2770.118
2769.287
2768.456
2767.625
2766.794
2765.963
2765.132
2764.301
2763.470
2762.639
2761.808
2760.977
2760.146
2759.315
2758.484
2757.653
2756.822
2755.991
2755.160
2754.329
2753.498
2752.667
2751.836
2751.005
2750.174
2749.343
2748.512
2747.681
2746.850
2746.019
2745.188
2744.357
2743.526
2742.695
2741.864
2741.033
2740.202
2739.371
2738.540
2737.709
2736.878
2736.047
2735.216
2734.385
2733.554
2732.723
2731.892
2731.061
2730.230
2729.399
2728.568
2727.737
2726.906
2726.075
2725.244
2724.413
2723.582
2722.751
2721.920
2721.089
2720.258
2719.427
2718.596
2717.765
2716.934
2716.103
2715.272
2714.441
2713.610
2712.779
2711.948
2711.117
2710.286
2709.455
2708.624
2707.793
2706.962
2706.131
2705.300
2704.469
2703.638
2702.807
2701.976
2701.145
2700.314
2699.483
2698.652
2697.821
2696.990
2696.159
2695.328
2694.497
2693.666
2692.835
2692.004
2691.173
2690.342
2689.511
2688.680
2687.849
2687.018
2686.187
2685.356
2684.525
2683.694
2682.863
2682.032
2681.201
2680.370
2674.627
2668.884
2663.141
2657.398
2651.655
2645.912
2640.169
2634.426
2628.683
2622.940
2617.197
2611.454
2605.711
2599.968
2594.225
2588.482
2582.739
2576.996
2571.253
2565.510
2559.767
2554.024
2548.281
2542.538
2536.795
2531.052
2525.309
2519.566
2513.823
2508.080
2502.337
2496.594
2490.851
2485.108
2479.365
2473.622
2467.879
2462.136
2456.393
2450.650
2444.907
2439.164
2433.421
2427.678
2421.935
2416.192
2410.449
2404.706
2398.963
2393.220
2387.477
2381.734
2375.991
2370.248
2364.505
2358.762
2353.019
2347.276
2341.533
2335.790
2330.047
2324.304
2318.561
2312.818
2307.075
2301.332
2295.589
2289.846
2284.103
2278.360
2272.617
2266.874
2261.131
2255.388
2249.645
2243.902
2238.159
2232.416
2226.673
2220.930
2215.187
2209.444
2203.701
2197.958
2192.215
2186.472
2180.729
2174.986
2169.243
2163.500
2157.757
2152.014
2146.271
2140.528
2134.785
2129.042
2123.299
2117.556
2111.813
2106.070
2100.327
2094.584
2088.841
2083.098
2077.355
2071.612
2065.869
2060.126
2054.383
2048.640
2042.897
2037.154
2031.411
2025.668
2019.925
2014.182
2008.439
2002.696
1996.953
1991.210
1985.467
1979.724
1973.981
1968.238
1962.495
1956.752
1951.009
1945.266
1939.523
1933.780
1928.037
1922.294
1916.551
1910.808
1905.065
1899.322
1893.579
1887.836
1882.093
1876.350
1870.607
1864.864
1859.121
1853.378
1847.635
1841.892
1836.149
1830.406
1824.663
1818.920
1813.177
1807.434
1801.691
1795.948
1790.205
1784.462
1778.719
1772.976
1767.233
1761.490
1755.747
1750.004
1744.261
1738.518
1732.775
1727.032
1721.289
1715.546
1709.803
1704.060
1698.317
1692.574
1686.831
1681.088
1675.345
1669.602
1663.859
1658.116
1652.373
1646.630
1640.887
1635.144
1629.401
1623.658
1617.915
1612.172
1606.429
1600.686
1594.943
1589.200
1583.457
1577.714
1571.971
1566.228
1560.485
1554.742
1548.999
1543.256
1537.513
1531.770
1534.385
1537.000
1539.615
1542.230
1544.845
1547.460
1550.075
1552.690
1555.305
1557.920
1560.535
1563.150
1565.765
1568.380
1570.995
1573.610
1576.225
1578.840
1581.455
1584.070
1586.685
1589.300
1591.915
1594.530
1597.145
1599.760
1602.375
1604.990
1607.605
1610.220
1612.835
1615.450
1618.065
1620.680
1623.295
1625.910
1628.525
1631.140
1633.755
1636.370
1638.985
1641.600
1644.215
1646.830
1649.445
1652.060
1654.675
1657.290
1659.905
1662.520
1665.135
1667.750
1670.365
1672.980
1675.595
1678.210
1680.825
1683.440
1686.055
1688.670
1691.285
1693.900
1696.515
1699.130
1701.745
1704.360
1706.975
1709.590
1712.205
1714.820
1717.435
1720.050
1722.665
1725.280
1727.895
1730.510
1733.125
1735.740
1738.355
1740.970
1743.585
1746.200
1748.815
1751.430
1754.045
1756.660
1759.275
1761.890
1764.505
1767.120
1769.735
1772.350
1774.965
1777.580
1780.195
1782.810
1785.425
1788.040
1790.655
1793.270
1795.885
1798.500
1801.115
1803.730
1806.345
1808.960
1811.575
1814.190
1816.805
1819.420
1822.035
1824.650
1827.265
1829.880
1832.495
1835.110
1837.725
1840.340
1842.955
1845.570
1848.185
1850.800
1853.415
1856.030
1858.645
1861.260
1863.875
1866.490
1869.105
1871.720
1874.335
1876.950
1879.565
1882.180
1884.795
1887.410
1890.025
1892.640
1895.255
1897.870
1900.485
1903.100
1905.715
1908.330
1910.945
1913.560
1916.175
1918.790
1921.405
1924.020
1926.635
1929.250
1931.865
1934.480
1937.095
1939.710
1942.325
1944.940
1947.555
1950.170
1952.785
1955.400
1958.015
1960.630
1963.245
1965.860
1968.475
1971.090
1973.705
1976.320
1978.935
1981.550
1984.165
1986.780
1989.395
1992.010
1994.625
1997.240
1999.855
2002.470
2005.085
2007.700
2010.315
2012.930
2015.545
2018.160
2020.775
2023.390
2026.005
2028.620
2031.235
2033.850
2036.465
2039.080
2041.695
2044.310
2046.925
2049.540
2052.155
2054.770
2056.358
2057.947
2059.535
2061.124
2062.712
2064.301
2065.889
2067.478
2069.066
2070.655
2072.243
2073.832
2075.420
2077.009
2078.597
2080.186
2081.774
2083.363
2084.951
2086.540
2088.128
2089.717
2091.305
2092.894
2094.482
2096.071
2097.659
2099.248
2100.836
2102.425
2104.013
2105.602
2107.190
2108.779
2110.367
2111.956
2113.544
2115.133
2116.721
2118.310
2119.898
2121.487
2123.075
2124.664
2126.252
2127.841
2129.429
2131.018
2132.606
2134.195
2135.783
2137.372
2138.960
2140.549
2142.137
2143.726
2145.314
2146.903
2148.491
2150.080
2151.668
2153.257
2154.845
2156.434
2158.022
2159.611
2161.199
2162.788
2164.376
2165.965
2167.553
2169.142
2170.730
2172.319
2173.907
2175.496
2177.084
2178.673
2180.261
2181.850
2183.438
2185.027
2186.615
2188.204
2189.792
2191.381
2192.969
2194.558
2196.146
2197.735
2199.323
2200.912
2202.500
2204.089
2205.677
2207.266
2208.854
2210.443
2212.031
2213.620
2215.208
2216.797
2218.385
2219.974
2221.562
2223.151
2224.739
2226.328
2227.916
2229.505
2231.093
2232.682
2234.270
2235.859
2237.447
2239.036
2240.624
2242.213
2243.801
2245.390
2246.978
2248.567
2250.155
2251.744
2253.332
2254.921
2256.509
2258.098
2259.686
2261.275
2262.863
2264.452
2266.040
2267.629
2269.217
2270.806
2272.394
2273.983
2275.571
2277.160
2278.748
2280.337
2281.925
2283.514
2285.102
2286.691
2288.279
2289.868
2291.456
2293.045
2294.633
2296.222
2297.810
2299.399
2300.987
2302.576
2304.164
2305.753
2307.341
2308.930
2310.518
2312.107
2313.695
2315.284
2316.872
2318.461
2320.049
2321.638
2323.226
2324.815
2326.403
2327.992
2329.580
2331.169
2332.757
2334.346
2335.934
2337.523
2339.111
2340.700
2342.288
2343.877
2345.465
2347.054
2348.642
2350.231
2351.819
2353.408
2354.996
2356.585
2358.173
2359.762
2361.350
2362.939
2364.527
2366.116
2367.704
2369.293
2370.881
2372.470
2370.734
2368.999
2367.263
2365.528
2363.792
2362.057
2360.321
2358.586
2356.850
2355.115
2353.379
2351.644
2349.908
2348.173
2346.437
2344.702
2342.966
2341.231
2339.495
2337.760
2336.024
2334.289
2332.553
2330.818
2329.082
2327.347
2325.611
2323.876
2322.140
2320.405
2318.669
2316.934
2315.198
2313.463
2311.727
2309.992
2308.256
2306.521
2304.785
2303.050
2301.314
2299.579
2297.843
2296.108
2294.372
2292.637
2290.901
2289.166
2287.430
2285.695
2283.959
2282.224
2280.488
2278.753
2277.017
2275.282
2273.546
2271.811
2270.075
2268.340
2266.604
2264.869
2263.133
2261.398
2259.662
2257.927
2256.191
2254.456
2252.720
2250.985
2249.249
2247.514
2245.778
2244.043
2242.307
2240.572
2238.836
2237.101
2235.365
2233.630
2231.894
2230.159
2228.423
2226.688
2224.952
2223.217
2221.481
2219.746
2218.010
2216.275
2214.539
2212.804
2211.068
2209.333
2207.597
2205.862
2204.126
2202.391
2200.655
2198.920
2197.184
2195.449
2193.713
2191.978
2190.242
2188.507
2186.771
2185.036
2183.300
2181.565
2179.829
2178.094
2176.358
2174.623
2172.887
2171.152
2169.416
2167.681
2165.945
2164.210
2162.474
2160.739
2159.003
2157.268
2155.532
2153.797
2152.061
2150.326
2148.590
2146.855
2145.119
2143.384
2141.648
2139.913
2138.177
2136.442
2134.706
2132.971
2131.235
2129.500
2127.764
2126.029
2124.293
2122.558
2120.822
2119.087
2117.351
2115.616
2113.880
2112.145
2110.409
2108.674
2106.938
2105.203
2103.467
2101.732
2099.996
2098.261
2096.525
2094.790
2093.054
2091.319
2089.583
2087.848
2086.112
2084.377
2082.641
2080.906
2079.170
2077.435
2075.699
2073.964
2072.228
2070.493
2068.757
2067.022
2065.286
2063.551
2061.815
2060.080
2058.344
2056.609
2054.873
2053.138
2051.402
2049.667
2047.931
2046.196
2044.460
2042.725
2040.989
2039.254
2037.518
2035.783
2034.047
2032.312
2030.576
2028.841
2027.105
2025.370
2029.256
2033.142
2037.028
2040.914
2044.800
2048.686
2052.572
2056.458
2060.344
2064.230
2068.116
2072.002
2075.888
2079.774
2083.660
2087.546
2091.432
2095.318
2099.204
2103.090
2106.976
2110.862
2114.748
2118.634
2122.520
2126.406
2130.292
2134.178
2138.064
2141.950
2145.836
2149.722
2153.608
2157.494
2161.380
2165.266
2169.152
2173.038
2176.924
2180.810
2184.696
2188.582
2192.468
2196.354
2200.240
2204.126
2208.012
2211.898
2215.784
2219.670
2223.556
2227.442
2231.328
2235.214
2239.100
2242.986
2246.872
2250.758
2254.644
2258.530
2262.416
2266.302
2270.188
2274.074
2277.960
2281.846
2285.732
2289.618
2293.504
2297.390
2301.276
2305.162
2309.048
2312.934
2316.820
2320.706
2324.592
2328.478
2332.364
2336.250
2340.136
2344.022
2347.908
2351.794
2355.680
2359.566
2363.452
2367.338
2371.224
2375.110
2378.996
2382.882
2386.768
2390.654
2394.540
2398.426
2402.312
2406.198
2410.084
2413.970
2417.856
2421.742
2425.628
2429.514
2433.400
2437.286
2441.172
2445.058
2448.944
2452.830
2456.716
2460.602
2464.488
2468.374
2472.260
2476.146
2480.032
2483.918
2487.804
2491.690
2495.576
2499.462
2503.348
2507.234
2511.120
2515.006
2518.892
2522.778
2526.664
2530.550
2534.436
2538.322
2542.208
2546.094
2549.980
2553.866
2557.752
2561.638
2565.524
2569.410
2573.296
2577.182
2581.068
2584.954
2588.840
2592.726
2596.612
2600.498
2604.384
2608.270
2612.156
2616.042
2619.928
2623.814
2627.700
2631.586
2635.472
2639.358
2643.244
2647.130
2651.016
2654.902
2658.788
2662.674
2666.560
2670.446
2674.332
2678.218
2682.104
2685.990
2689.876
2693.762
2697.648
2701.534
2705.420
2709.306
2713.192
2717.078
2720.964
2724.850
2728.736
2732.622
2736.508
2740.394
2744.280
2748.166
2752.052
2755.938
2759.824
2763.710
2767.596
2771.482
2775.368
2779.254
2783.140
2787.026
2790.912
2794.798
2798.684
2802.570
2801.079
2799.588
2798.097
2796.606
2795.115
2793.624
2792.133
2790.642
2789.151
2787.660
2786.169
2784.678
2783.187
2781.696
2780.205
2778.714
2777.223
2775.732
2774.241
2772.750
2771.259
2769.768
2768.277
2766.786
2765.295
2763.804
2762.313
2760.822
2759.331
2757.840
2756.349
2754.858
2753.367
2751.876
2750.385
2748.894
2747.403
2745.912
2744.421
2742.930
2741.439
2739.948
2738.457
2736.966
2735.475
2733.984
2732.493
2731.002
2729.511
2728.020
2726.529
2725.038
2723.547
2722.056
2720.565
2719.074
2717.583
2716.092
2714.601
2713.110
2711.619
2710.128
2708.637
2707.146
2705.655
2704.164
2702.673
2701.182
2699.691
2698.200
2696.709
2695.218
2693.727
2692.236
2690.745
2689.254
2687.763
2686.272
2684.781
2683.290
2681.799
2680.308
2678.817
2677.326
2675.835
2674.344
2672.853
2671.362
2669.871
2668.380
2666.889
2665.398
2663.907
2662.416
2660.925
2659.434
2657.943
2656.452
2654.961
2653.470
2651.979
2650.488
2648.997
2647.506
2646.015
2644.524
2643.033
2641.542
2640.051
2638.560
2637.069
2635.578
2634.087
2632.596
2631.105
2629.614
2628.123
2626.632
2625.141
2623.650
2622.159
2620.668
2619.177
2617.686
2616.195
2614.704
2613.213
2611.722
2610.231
2608.740
2607.249
2605.758
2604.267
2602.776
2601.285
2599.794
2598.303
2596.812
2595.321
2593.830
2592.339
2590.848
2589.357
2587.866
2586.375
2584.884
2583.393
2581.902
2580.411
2578.920
2577.429
2575.938
2574.447
2572.956
2571.465
2569.974
2568.483
2566.992
2565.501
2564.010
2562.519
2561.028
2559.537
2558.046
2556.555
2555.064
2553.573
2552.082
2550.591
2549.100
2547.609
2546.118
2544.627
2543.136
2541.645
2540.154
2538.663
2537.172
2535.681
2534.190
2532.699
2531.208
2529.717
2528.226
2526.735
2525.244
2523.753
2522.262
2520.771
2519.280
2517.789
2516.298
2514.807
2513.316
2511.825
2510.334
2508.843
2507.352
2505.861
2504.370
2501.560
2498.750
2495.940
2493.130
2490.320
2487.510
2484.700
2481.890
2479.080
2476.270
2473.460
2470.650
2467.840
2465.030
2462.220
2459.410
2456.600
2453.790
2450.980
2448.170
2445.360
2442.550
2439.740
2436.930
2434.120
2431.310
2428.500
2425.690
2422.880
2420.070
2417.260
2414.450
2411.640
2408.830
2406.020
2403.210
2400.400
2397.590
2394.780
2391.970
2389.160
2386.350
2383.540
2380.730
2377.920
2375.110
2372.300
2369.490
2366.680
2363.870
2361.060
2358.250
2355.440
2352.630
2349.820
2347.010
2344.200
2341.390
2338.580
2335.770
2332.960
2330.150
2327.340
2324.530
2321.720
2318.910
2316.100
2313.290
2310.480
2307.670
2304.860
2302.050
2299.240
2296.430
2293.620
2290.810
2288.000
2285.190
2282.380
2279.570
2276.760
2273.950
2271.140
2268.330
2265.520
2262.710
2259.900
2257.090
2254.280
2251.470
2248.660
2245.850
2243.040
2240.230
2237.420
2234.610
2231.800
2228.990
2226.180
2223.370
2220.560
2217.750
2214.940
2212.130
2209.320
2206.510
2203.700
2200.890
2198.080
2195.270
2192.460
2189.650
2186.840
2184.030
2181.220
2178.410
2175.600
2172.790
2169.980
2167.170
2164.360
2161.550
2158.740
2155.930
2153.120
2150.310
2147.500
2144.690
2141.880
2139.070
2136.260
2133.450
2130.640
2127.830
2125.020
2122.210
2119.400
2116.590
2113.780
2110.970
2108.160
2105.350
2102.540
2099.730
2096.920
2094.110
2091.300
2088.490
2085.680
2082.870
2080.060
2077.250
2074.440
2071.630
2068.820
2066.010
2063.200
2060.390
2057.580
2054.770
2051.960
2049.150
2046.340
2043.530
2040.720
2037.910
2035.100
2032.290
2029.480
2026.670
2023.860
2021.050
2018.240
2015.430
2012.620
2009.810
2007.000
2004.190
2001.380
1998.570
1995.760
1992.950
1990.140
1987.330
1984.520
1981.710
1978.900
1976.090
1973.280
1970.470
1967.660
1964.850
