83.367
83.342
83.318
83.293
83.269
83.244
83.220
83.195
83.171
83.146
83.122
83.097
83.073
83.048
83.024
82.999
82.975
82.950
82.926
82.901
82.877
82.852
82.828
82.803
82.779
82.754
82.730
82.705
82.681
82.656
82.632
82.607
82.583
82.558
82.534
82.509
82.485
82.460
82.436
82.411
82.387
82.362
82.338
82.313
82.289
82.264
82.240
82.215
82.191
82.166
82.142
82.117
82.093
82.068
82.044
82.019
82.019
82.019
82.019
82.019
82.019
82.019
82.019
82.019
82.019
82.019
82.019
82.019
82.019
82.019
82.019
82.019
82.019
82.019
82.019
82.019
82.019
82.019
82.019
82.019
82.019
82.019
82.019
82.019
82.019
82.019
82.019
82.019
82.019
82.019
82.019
82.019
82.019
82.019
82.019
82.019
82.019
82.019
82.019
82.019
82.019
82.019
82.019
82.019
82.019
82.019
82.019
82.019
82.019
82.019
82.019
82.019
82.019
82.019
82.019
82.019
82.019
82.019
82.019
82.019
82.019
82.019
82.019
82.019
82.019
82.019
82.019
82.019
82.019
82.019
82.019
82.019
82.019
82.019
82.019
82.019
82.019
82.019
82.019
82.019
82.019
82.019
82.019
82.019
82.019
82.019
82.019
82.019
82.019
82.019
82.019
82.019
82.019
82.019
82.019
82.019
82.019
82.019
82.019
82.019
82.019
82.019
82.019
82.019
82.019
82.019
82.019
82.019
82.019
82.019
82.019
82.019
82.019
82.019
82.019
82.019
82.019
82.019
82.019
82.019
82.019
82.019
82.019
82.019
82.019
82.019
82.019
82.019
82.019
82.019
82.019
82.019
82.019
82.019
82.019
82.019
82.019
82.019
82.019
82.019
82.019
82.019
82.019
82.019
82.019
82.019
82.019
82.019
82.019
82.019
82.019
82.019
82.019
82.019
82.019
82.019
82.019
82.019
82.019
82.019
82.019
82.019
82.019
82.019
82.019
82.019
82.019
82.019
82.019
82.019
82.019
82.019
82.019
82.019
82.019
82.019
82.019
82.019
82.019
82.019
82.019
82.019
82.019
82.019
82.019
82.019
82.019
82.019
82.019
82.019
82.019
82.019
82.019
82.019
82.019
82.019
82.044
82.068
82.093
82.117
82.142
82.166
82.191
82.215
82.240
82.264
82.289
82.313
82.338
82.362
82.387
82.411
82.436
82.460
82.485
82.509
82.534
82.558
82.583
82.607
82.632
82.656
82.681
82.705
82.730
82.754
82.779
82.803
82.828
82.852
82.877
82.901
82.926
82.950
82.975
82.999
83.024
83.048
83.073
83.097
83.122
83.146
83.171
83.195
83.220
83.244
83.269
83.293
83.318
83.342
83.367
83.391
83.416
83.440
83.465
83.489
83.514
83.538
83.563
83.587
83.612
83.636
83.661
83.685
83.710
83.734
83.759
83.783
83.808
83.832
83.857
83.881
83.906
83.930
83.955
83.979
84.004
84.028
84.053
84.077
84.102
84.126
84.151
84.175
84.200
84.224
84.249
84.273
84.298
84.322
84.347
84.371
84.396
84.420
84.445
84.469
84.494
84.518
84.543
84.567
84.592
84.616
84.641
84.665
84.690
84.714
84.739
84.763
84.788
84.812
84.837
84.861
84.886
84.910
84.935
84.959
84.984
85.008
85.033
85.057
85.082
85.106
85.131
85.155
85.180
85.204
85.229
85.253
85.278
85.302
85.327
85.351
85.376
85.400
85.425
85.449
85.474
85.498
85.523
85.547
85.572
85.596
85.621
85.645
85.670
85.694
85.719
85.743
85.768
85.792
85.817
85.841
85.866
85.890
85.915
85.939
85.964
85.988
86.013
86.037
86.062
86.086
86.111
86.135
86.160
86.184
86.209
86.233
86.258
86.282
86.307
86.331
86.356
86.380
86.405
86.429
86.454
86.478
86.503
86.527
86.552
86.576
86.601
86.625
86.650
86.674
86.699
86.723
86.748
86.772
86.797
86.821
86.846
86.870
86.895
86.919
86.895
86.870
86.846
86.821
86.797
86.772
86.748
86.723
86.699
86.674
86.650
86.625
86.601
86.576
86.552
86.527
86.503
86.478
86.454
86.429
86.405
86.380
86.356
86.331
86.307
86.282
86.258
86.233
86.209
86.184
86.160
86.135
86.111
86.086
86.062
86.037
86.013
85.988
85.964
85.939
85.915
85.890
85.866
85.841
85.817
85.792
85.768
85.743
85.719
85.694
85.670
85.645
85.621
85.596
85.572
85.547
85.523
85.498
85.474
85.449
85.425
85.400
85.376
85.351
85.327
85.302
85.278
85.253
85.229
85.204
85.180
85.155
85.131
85.106
85.082
85.057
85.033
85.008
84.984
84.959
84.935
84.910
84.886
84.861
84.837
84.812
84.788
84.763
84.739
84.714
84.690
84.665
84.641
84.616
84.592
84.567
84.543
84.518
84.494
84.469
84.445
84.420
84.396
84.371
84.347
84.322
84.298
84.273
84.249
84.224
84.200
84.175
84.151
84.126
84.102
84.077
84.053
84.028
84.004
83.979
83.955
83.930
83.906
83.881
83.857
83.832
83.808
83.783
83.759
83.734
83.710
83.685
83.661
83.636
83.612
83.587
83.563
83.538
83.514
83.489
83.465
83.440
83.416
83.391
83.367
83.342
83.318
83.293
83.269
83.244
83.220
83.195
83.171
83.146
83.122
83.097
83.073
83.048
83.024
82.999
82.975
82.950
82.926
82.901
82.877
82.852
82.828
82.803
82.779
82.754
82.730
82.705
82.681
82.656
82.632
82.607
82.583
82.558
82.534
82.509
82.485
82.460
82.436
82.411
82.387
82.362
82.338
82.313
82.289
82.264
82.240
82.215
82.191
82.166
82.142
82.117
82.093
82.068
82.044
82.019
82.044
82.068
82.093
82.117
82.142
82.166
82.191
82.215
82.240
82.264
82.289
82.313
82.338
82.362
82.387
82.411
82.436
82.460
82.485
82.509
82.534
82.558
82.583
82.607
82.632
82.656
82.681
82.705
82.730
82.754
82.779
82.803
82.828
82.852
82.877
82.901
82.926
82.950
82.975
82.999
83.024
83.048
83.073
83.097
83.122
83.146
83.171
83.195
83.220
83.244
83.269
83.293
83.318
83.342
83.367
83.391
83.416
83.440
83.465
83.489
83.514
83.538
83.563
83.587
83.612
83.636
83.661
83.685
83.710
83.734
83.759
83.783
83.808
83.832
83.857
83.881
83.906
83.930
83.955
83.979
84.004
84.028
84.053
84.077
84.102
84.126
84.151
84.175
84.200
84.224
84.249
84.273
84.298
84.322
84.347
84.371
84.396
84.420
84.445
84.469
84.494
84.518
84.543
84.567
84.592
84.616
84.641
84.665
84.690
84.714
84.739
84.763
84.788
84.812
84.837
84.861
84.886
84.910
84.935
84.959
84.984
85.008
85.033
85.057
85.082
85.106
85.131
85.155
85.180
85.204
85.229
85.253
85.278
85.302
85.327
85.351
85.376
85.400
85.425
85.449
85.474
85.498
85.523
85.547
85.572
85.596
85.621
85.645
85.670
85.694
85.719
85.743
85.768
85.792
85.817
85.841
85.866
85.890
85.915
85.939
85.964
85.988
86.013
86.037
86.062
86.086
86.111
86.135
86.160
86.184
86.209
86.233
86.258
86.282
86.307
86.331
86.356
86.380
86.405
86.429
86.454
86.478
86.503
86.527
86.552
86.576
86.601
86.625
86.650
86.674
86.699
86.723
86.748
86.772
86.797
86.821
86.846
86.870
86.895
86.919
86.919
86.919
86.919
86.919
86.919
86.919
86.919
86.919
86.919
86.919
86.919
86.919
86.919
86.919
86.919
86.919
86.919
86.919
86.919
86.919
86.919
86.919
86.919
86.919
86.919
86.919
86.919
86.919
86.919
86.919
86.919
86.919
86.919
86.919
86.919
86.919
86.919
86.919
86.919
86.919
86.919
86.919
86.919
86.919
86.919
86.919
86.919
86.919
86.919
86.919
86.919
86.919
86.919
86.919
86.919
86.919
86.919
86.919
86.919
86.919
86.919
86.919
86.919
86.919
86.919
86.919
86.919
86.919
86.919
86.919
86.919
86.919
86.919
86.919
86.919
86.919
86.919
86.919
86.919
86.919
86.919
86.919
86.919
86.919
86.919
86.919
86.919
86.919
86.919
86.919
86.919
86.919
86.919
86.919
86.919
86.919
86.919
86.919
86.919
86.919
86.919
86.919
86.919
86.919
86.919
86.919
86.919
86.919
86.919
86.919
86.919
86.919
86.919
86.919
86.919
86.919
86.919
86.919
86.919
86.919
86.919
86.919
86.919
86.919
86.919
86.919
86.919
86.919
86.919
86.919
86.919
86.919
86.919
86.919
86.919
86.919
86.919
86.919
86.919
86.919
86.919
86.919
86.919
86.919
86.919
86.919
86.919
86.919
86.919
86.919
86.919
86.919
86.919
86.919
86.919
86.919
86.919
86.919
86.919
86.919
86.919
86.919
86.919
86.919
86.919
86.919
86.919
86.919
86.919
86.919
86.919
86.919
86.919
86.919
86.919
86.919
86.919
86.919
86.919
86.919
86.919
86.919
86.919
86.919
86.919
86.919
86.919
86.919
86.919
86.919
86.919
86.919
86.919
86.919
86.919
86.919
86.919
86.919
86.919
86.919
86.895
86.870
86.846
86.821
86.797
86.772
86.748
86.723
86.699
86.674
86.650
86.625
86.601
86.576
86.552
86.527
86.503
86.478
86.454
86.429
86.405
86.380
86.356
86.331
86.307
86.282
86.258
86.233
86.209
86.184
86.160
86.135
86.111
86.086
86.062
86.037
86.013
85.988
85.964
85.939
85.915
85.890
85.866
85.841
85.817
85.792
85.768
85.743
85.719
85.694
85.670
85.645
85.621
85.596
85.572
85.547
85.523
85.498
85.474
85.449
85.425
85.400
85.376
85.351
85.327
85.302
85.278
85.253
85.229
85.204
85.180
85.155
85.131
85.106
85.082
85.057
85.033
85.008
84.984
84.959
84.935
84.910
84.886
84.861
84.837
84.812
84.788
84.763
84.739
84.714
84.690
84.665
84.641
84.616
84.592
84.567
84.543
84.518
84.494
84.469
84.445
84.420
84.396
84.371
84.347
84.322
84.298
84.273
84.249
84.224
84.200
84.175
84.151
84.126
84.102
84.077
84.053
84.028
84.004
83.979
83.955
83.930
83.906
83.881
83.857
83.832
83.808
83.783
83.759
83.734
83.710
83.685
83.661
83.636
83.612
83.587
83.563
83.538
83.514
83.489
83.465
83.440
83.416
83.391
83.367
83.342
83.318
83.293
83.269
83.244
83.220
83.195
83.171
83.146
83.122
83.097
83.073
83.048
83.024
82.999
82.975
82.950
82.926
82.901
82.877
82.852
82.828
82.803
82.779
82.754
82.730
82.705
82.681
82.656
82.632
82.607
82.583
82.558
82.534
82.509
82.485
82.460
82.436
82.411
82.387
82.362
82.338
82.313
82.289
82.264
82.240
82.215
82.191
82.166
82.142
82.117
82.093
82.068
82.044
82.019
82.044
82.068
82.093
82.117
82.142
82.166
82.191
82.215
82.240
82.264
82.289
82.313
82.338
82.362
82.387
82.411
82.436
82.460
82.485
82.509
82.534
82.558
82.583
82.607
82.632
82.656
82.681
82.705
82.730
82.754
82.779
82.803
82.828
82.852
82.877
82.901
82.926
82.950
82.975
82.999
83.024
83.048
83.073
83.097
83.122
83.146
83.171
83.195
83.220
83.244
83.269
83.293
83.318
83.342
83.367
83.391
83.416
83.440
83.465
83.489
83.514
83.538
83.563
83.587
83.612
83.636
83.661
83.685
83.710
83.734
83.759
83.783
83.808
83.832
83.857
83.881
83.906
83.930
83.955
83.979
84.004
84.028
84.053
84.077
84.102
84.126
84.151
84.175
84.200
84.224
84.249
84.273
84.298
84.322
84.347
84.371
84.396
84.420
84.445
84.469
84.494
84.518
84.543
84.567
84.592
84.616
84.641
84.665
84.690
84.714
84.739
84.763
84.788
84.812
84.837
84.861
84.886
84.910
84.935
84.959
84.984
85.008
85.033
85.057
85.082
85.106
85.131
85.155
85.180
85.204
85.229
85.253
85.278
85.302
85.327
85.351
85.376
85.400
85.425
85.449
85.474
85.498
85.523
85.547
85.572
85.596
85.621
85.645
85.670
85.694
85.719
85.743
85.768
85.792
85.817
85.841
85.866
85.890
85.915
85.939
85.964
85.988
86.013
86.037
86.062
86.086
86.111
86.135
86.160
86.184
86.209
86.233
86.258
86.282
86.307
86.331
86.356
86.380
86.405
86.429
86.454
86.478
86.503
86.527
86.552
86.576
86.601
86.625
86.650
86.674
86.699
86.723
86.748
86.772
86.797
86.821
86.846
86.870
86.895
1465.219
1467.687
1470.155
1472.623
1475.091
1477.559
1480.027
1482.495
1484.963
1487.431
1489.899
1492.367
1494.835
1497.303
1499.771
1502.239
1504.707
1507.175
1509.643
1512.111
1514.579
1517.047
1519.515
1521.983
1524.451
1526.919
1529.387
1531.855
1534.323
1536.791
1539.259
1541.727
1544.195
1546.663
1549.131
1551.599
1554.067
1556.535
1559.003
1561.471
1563.939
1566.407
1568.875
1571.343
1573.811
1576.279
1578.747
1581.215
1583.683
1586.151
1588.619
1591.087
1593.555
1596.023
1598.491
1600.959
1603.427
1605.895
1608.363
1610.831
1613.299
1615.767
1618.235
1620.703
1623.171
1625.639
1628.107
1630.575
1633.043
1635.511
1637.979
1640.447
1642.915
1645.383
1647.851
1650.319
1652.787
1655.255
1657.723
1660.191
1662.659
1665.127
1667.595
1670.063
1672.531
1674.999
1677.467
1679.935
1682.403
1684.871
1687.339
1689.807
1692.275
1694.743
1697.211
1699.679
1702.147
1704.615
1707.083
1709.551
1712.019
1714.487
1716.955
1719.423
1721.891
1724.359
1726.827
1729.295
1731.763
1734.231
1736.699
1739.167
1741.635
1744.103
1746.571
1749.039
1751.507
1753.975
1756.443
1758.911
1761.379
1763.847
1766.315
1768.783
1771.251
1773.719
1776.187
1778.655
1781.123
1783.591
1786.059
1788.527
1790.995
1793.463
1795.931
1798.399
1800.867
1803.335
1805.803
1808.271
1810.739
1813.207
1815.675
1818.143
1820.611
1823.079
1825.547
1828.015
1830.483
1832.951
1835.419
1837.887
1840.355
1842.823
1845.291
1847.759
1850.227
1852.695
1855.163
1857.631
1860.099
1862.567
1865.035
1867.503
1869.971
1872.439
1874.907
1877.375
1879.843
1882.311
1884.779
1887.247
1889.715
1892.183
1894.651
1897.119
1899.587
1902.055
1904.523
1906.991
1909.459
1911.927
1914.395
1916.863
1919.331
1921.799
1924.267
1926.735
1929.203
1931.671
1934.139
1936.607
1939.075
1941.543
1944.011
1946.479
1948.947
1951.415
1953.883
1956.351
1958.819
1958.404
1957.988
1957.573
1957.157
1956.742
1956.326
1955.911
1955.495
1955.080
1954.664
1954.249
1953.833
1953.418
1953.002
1952.587
1952.171
1951.756
1951.340
1950.925
1950.509
1950.094
1949.678
1949.263
1948.847
1948.432
1948.016
1947.601
1947.185
1946.770
1946.354
1945.939
1945.523
1945.108
1944.692
1944.277
1943.861
1943.446
1943.030
1942.615
1942.199
1941.784
1941.368
1940.953
1940.537
1940.122
1939.706
1939.291
1938.875
1938.460
1938.044
1937.629
1937.213
1936.798
1936.382
1935.967
1935.551
1935.136
1934.720
1934.305
1933.889
1933.474
1933.058
1932.643
1932.227
1931.812
1931.396
1930.981
1930.565
1930.150
1929.734
1929.319
1928.903
1928.488
1928.072
1927.657
1927.241
1926.826
1926.410
1925.995
1925.579
1925.164
1924.748
1924.333
1923.917
1923.502
1923.086
1922.671
1922.255
1921.840
1921.424
1921.009
1920.593
1920.178
1919.762
1919.347
1918.931
1918.516
1918.100
1917.685
1917.269
1916.854
1916.438
1916.023
1915.607
1915.192
1914.776
1914.361
1913.945
1913.530
1913.114
1912.699
1912.283
1911.868
1911.452
1911.037
1910.621
1910.206
1909.790
1909.375
1908.959
1908.544
1908.128
1907.713
1907.297
1906.882
1906.466
1906.051
1905.635
1905.220
1904.804
1904.389
1903.973
1903.558
1903.142
1902.727
1902.311
1901.896
1901.480
1901.065
1900.649
1900.234
1899.818
1899.403
1898.987
1898.572
1898.156
1897.741
1897.325
1896.910
1896.494
1896.079
1895.663
1895.248
1894.832
1894.417
1894.001
1893.586
1893.170
1892.755
1892.339
1891.924
1891.508
1891.093
1890.677
1890.262
1889.846
1889.431
1889.015
1888.600
1888.184
1887.769
1887.353
1886.938
1886.522
1886.107
1885.691
1885.276
1884.860
1884.445
1884.029
1883.614
1883.198
1882.783
1882.367
1881.952
1881.536
1881.121
1880.705
1880.290
1879.874
1879.459
1879.043
1878.628
1878.212
1877.797
1877.381
1876.966
1876.550
1876.135
1875.719
1880.216
1884.712
1889.209
1893.705
1898.202
1902.698
1907.195
1911.691
1916.188
1920.684
1925.181
1929.677
1934.174
1938.670
1943.167
1947.663
1952.160
1956.656
1961.153
1965.649
1970.146
1974.642
1979.139
1983.635
1988.132
1992.628
1997.125
2001.621
2006.118
2010.614
2015.111
2019.607
2024.104
2028.600
2033.097
2037.593
2042.090
2046.586
2051.083
2055.579
2060.076
2064.572
2069.069
2073.565
2078.062
2082.558
2087.055
2091.551
2096.048
2100.544
2105.041
2109.537
2114.034
2118.530
2123.027
2127.523
2132.020
2136.516
2141.013
2145.509
2150.006
2154.502
2158.999
2163.495
2167.992
2172.488
2176.985
2181.481
2185.978
2190.474
2194.971
2199.467
2203.964
2208.460
2212.957
2217.453
2221.950
2226.446
2230.943
2235.439
2239.936
2244.432
2248.929
2253.425
2257.922
2262.418
2266.915
2271.411
2275.908
2280.404
2284.901
2289.397
2293.894
2298.390
2302.887
2307.383
2311.880
2316.376
2320.873
2325.369
2329.866
2334.362
2338.859
2343.355
2347.852
2352.348
2356.845
2361.341
2365.838
2370.334
2374.831
2379.327
2383.824
2388.320
2392.817
2397.313
2401.810
2406.306
2410.803
2415.299
2419.796
2424.292
2428.789
2433.285
2437.782
2442.278
2446.775
2451.271
2455.768
2460.264
2464.761
2469.257
2473.754
2478.250
2482.747
2487.243
2491.740
2496.236
2500.733
2505.229
2509.726
2514.222
2518.719
2523.215
