106.279
106.279
106.279
106.279
106.279
106.279
106.279
106.279
106.279
106.279
106.279
106.279
106.279
106.279
106.279
106.279
106.279
106.279
106.279
106.279
106.279
106.279
106.279
106.279
106.279
106.279
106.279
106.279
106.279
106.279
106.279
106.279
106.279
106.279
106.279
106.279
106.279
106.279
106.279
106.279
106.279
106.279
106.279
106.279
106.279
106.279
106.279
106.279
106.279
106.279
106.279
106.279
106.279
106.279
106.279
106.279
106.279
106.279
106.279
106.279
106.279
106.279
106.279
106.279
106.279
106.279
106.279
106.279
106.279
106.279
106.279
106.279
106.279
106.279
106.279
106.279
106.279
106.279
106.279
106.279
106.279
106.279
106.279
106.279
106.279
106.279
106.279
106.279
106.279
106.279
106.279
106.279
106.279
106.279
106.279
106.279
106.279
106.279
106.279
106.279
106.279
106.279
106.279
106.279
106.279
106.279
106.279
106.279
106.279
106.279
106.279
106.279
106.279
106.279
106.279
106.279
106.279
106.279
106.279
106.279
106.279
106.279
106.279
106.279
106.279
106.279
106.279
106.279
106.279
106.279
106.279
106.279
106.279
106.279
106.279
106.279
106.279
106.279
106.279
106.279
106.279
106.279
106.279
106.279
106.279
106.279
106.279
106.279
106.279
106.279
106.279
106.279
106.279
106.279
106.279
106.279
106.279
106.279
106.279
106.279
106.279
106.279
106.279
106.279
106.279
106.279
106.279
106.279
106.279
106.279
106.279
106.279
106.279
106.279
106.279
106.279
106.279
106.279
106.279
106.279
106.279
106.279
106.279
106.279
106.279
106.279
106.279
106.279
106.279
106.279
106.279
106.279
106.279
106.279
106.279
106.279
106.279
106.279
106.279
106.279
106.279
106.279
106.279
106.279
106.279
106.279
106.279
106.279
106.279
106.279
106.279
106.279
106.279
106.279
106.279
106.279
106.279
106.279
106.279
106.279
106.279
106.279
106.279
106.279
106.279
106.279
106.279
106.279
106.279
106.279
106.279
106.279
106.279
106.279
106.279
106.279
106.279
106.279
106.279
106.279
106.279
106.279
106.279
106.279
106.279
106.279
106.279
106.279
106.279
106.279
106.279
106.279
106.279
106.279
106.279
106.279
106.279
106.279
106.279
106.279
106.279
106.279
106.279
106.279
106.279
106.279
106.279
106.279
106.279
106.279
106.279
106.279
106.279
106.279
106.279
106.279
106.279
106.279
106.279
106.279
106.279
106.279
106.279
106.279
106.279
106.279
106.279
106.279
106.279
106.279
106.279
106.279
106.279
106.279
106.279
106.279
106.279
106.279
106.279
106.279
106.279
106.279
106.279
106.279
106.279
106.279
106.279
106.279
106.279
106.279
106.279
106.279
106.279
106.279
106.279
106.279
106.279
106.279
106.279
106.279
106.279
106.279
106.279
106.279
106.279
106.279
106.279
106.279
106.279
106.279
106.279
106.279
106.279
106.279
106.279
106.279
106.279
106.279
106.279
106.279
106.279
106.279
106.279
106.279
106.279
106.279
106.279
106.279
106.279
106.279
106.279
106.279
106.279
106.279
106.279
106.279
106.279
106.279
106.279
106.279
106.279
106.279
106.279
106.279
106.279
106.279
106.279
106.279
106.279
106.279
106.279
106.279
106.279
106.279
106.279
106.279
106.279
106.279
106.279
106.279
106.279
106.279
106.279
106.279
106.279
106.279
106.279
106.279
106.279
106.279
106.279
106.279
106.279
106.279
106.279
106.279
106.279
106.279
106.279
106.279
106.279
106.279
106.279
106.279
106.279
106.279
106.279
106.279
106.279
106.279
106.279
106.279
106.279
106.279
106.279
106.279
106.279
106.279
106.279
106.279
106.279
106.279
106.279
106.279
106.279
106.279
106.279
106.279
106.279
106.279
106.279
106.279
106.279
106.279
106.279
106.279
106.279
106.279
106.279
106.279
106.279
106.279
106.279
106.279
106.279
106.279
106.279
106.279
106.279
106.279
106.279
106.279
106.279
106.279
106.279
106.279
106.279
106.279
106.279
106.279
106.279
106.279
106.279
106.279
106.279
106.279
106.279
106.279
106.279
106.279
106.279
106.279
106.279
106.279
106.279
106.279
106.279
106.279
106.279
106.279
106.279
106.279
106.279
106.279
106.279
106.279
106.279
106.279
106.279
106.279
106.279
106.279
106.279
106.279
106.279
106.279
106.279
106.279
106.279
106.279
106.279
106.279
106.279
106.279
106.279
106.279
106.279
106.279
106.279
106.279
106.279
106.279
106.279
106.279
106.279
106.279
106.279
106.279
106.279
106.279
106.279
106.279
106.279
106.279
106.279
106.279
106.279
106.279
106.279
106.279
106.279
106.279
106.279
106.279
106.279
106.279
106.279
106.279
106.279
106.279
106.279
106.279
106.279
106.279
106.279
106.279
106.279
106.279
106.279
106.279
106.279
106.279
106.279
106.279
106.279
106.279
106.279
106.279
106.279
106.279
106.279
106.279
106.279
106.279
106.279
106.279
106.279
106.279
106.279
106.279
106.279
106.279
106.279
106.279
106.279
106.279
106.279
106.279
106.279
106.279
106.279
106.279
106.279
106.279
106.279
106.279
106.279
106.279
106.279
106.279
106.279
106.279
106.279
106.279
106.279
106.279
106.279
106.279
106.279
106.279
106.279
106.279
106.279
106.279
106.279
106.279
106.279
106.279
106.279
106.279
106.279
106.279
106.279
106.279
106.279
106.279
106.279
106.279
106.279
106.279
106.279
106.279
106.279
106.279
106.279
106.279
106.279
106.279
106.279
106.279
106.279
106.279
106.279
106.279
106.279
106.279
106.279
106.279
106.279
106.279
106.279
106.279
106.279
106.279
106.279
106.279
106.279
106.279
106.279
106.279
106.279
106.279
106.279
106.279
106.279
106.279
106.279
106.279
106.279
106.279
106.279
106.279
106.279
106.279
106.279
106.279
106.279
106.279
106.279
106.279
106.279
106.279
106.279
106.279
106.279
106.279
106.279
106.279
106.279
106.279
106.279
106.279
106.279
106.279
106.279
106.279
106.279
106.279
106.279
106.279
106.279
106.279
106.279
106.279
106.279
106.279
106.279
106.279
106.279
106.279
106.279
106.279
106.279
106.279
106.279
106.279
106.279
106.279
106.279
106.279
106.279
106.279
106.279
106.279
106.279
106.279
106.279
106.279
106.279
106.279
106.279
106.279
106.279
106.279
106.279
106.279
106.279
106.279
106.279
106.279
106.279
106.279
106.279
106.279
106.279
106.279
106.279
106.279
106.279
106.279
106.279
106.279
106.279
106.279
106.279
106.279
106.279
106.279
106.279
106.279
106.279
106.279
106.279
106.279
106.279
106.279
106.279
106.279
106.279
106.279
106.279
106.279
106.279
106.279
106.279
106.279
106.279
106.279
106.279
106.279
106.279
106.279
922.479
924.312
926.145
927.978
929.811
931.644
933.477
935.310
937.143
938.976
940.809
942.642
944.475
946.308
948.141
949.974
951.807
953.640
955.473
957.306
959.139
960.972
962.805
964.638
966.471
968.304
970.137
971.970
973.803
975.636
977.469
979.302
981.135
982.968
984.801
986.634
988.467
990.300
992.133
993.966
995.799
997.632
999.465
1001.298
1003.131
1004.964
1006.797
1008.630
1010.463
1012.296
1014.129
1015.962
1017.795
1019.628
1021.461
1023.294
1025.127
1026.960
1028.793
1030.626
1032.459
1034.292
1036.125
1037.958
1039.791
1041.624
1043.457
1045.290
1047.123
1048.956
1050.789
1052.622
1054.455
1056.288
1058.121
1059.954
1061.787
1063.620
1065.453
1067.286
1069.119
1070.952
1072.785
1074.618
1076.451
1078.284
1080.117
1081.950
1083.783
1085.616
1087.449
1089.282
1091.115
1092.948
1094.781
1096.614
1098.447
1100.280
1102.113
1103.946
1105.779
1107.612
1109.445
1111.278
1113.111
1114.944
1116.777
1118.610
1120.443
1122.276
1124.109
1125.942
1127.775
1129.608
1131.441
1133.274
1135.107
1136.940
1138.773
1140.606
1142.439
1144.272
1146.105
1147.938
1149.771
1151.604
1153.437
1155.270
1157.103
1158.936
1160.769
1162.602
1164.435
1166.268
1168.101
1169.934
1171.767
1173.600
1175.433
1177.266
1179.099
1180.932
1182.765
1184.598
1186.431
1188.264
1190.097
1191.930
1193.763
1195.596
1197.429
1199.262
1201.095
1202.928
1204.761
1206.594
1208.427
1210.260
1212.093
1213.926
1215.759
1217.592
1219.425
1221.258
1223.091
1224.924
1226.757
1228.590
1230.423
1232.256
1234.089
1235.922
1237.755
1239.588
1241.421
1243.254
1245.087
1246.920
1248.753
1250.586
1252.419
1254.252
1256.085
1257.918
1259.751
1261.584
1263.417
1265.250
1267.083
1268.916
1270.749
1272.582
1274.415
1276.248
1278.081
1279.914
1281.747
1283.580
1285.413
1287.246
1289.079
1294.798
1300.516
1306.235
1311.953
1317.672
1323.390
1329.109
1334.827
1340.546
1346.264
1351.983
1357.701
1363.420
1369.138
1374.857
1380.575
1386.294
1392.012
1397.731
1403.449
1409.168
1414.886
1420.605
1426.323
1432.042
1437.760
1443.479
1449.197
1454.916
1460.634
1466.353
1472.071
1477.790
1483.508
1489.227
1494.945
1500.664
1506.382
1512.101
1517.819
1523.538
1529.256
1534.975
1540.693
1546.412
1552.130
1557.849
1563.567
1569.286
1575.004
1580.723
1586.441
1592.160
1597.878
1603.597
1609.315
1615.034
1620.752
1626.471
1632.189
1637.908
1643.626
1649.345
1655.063
1660.782
1666.500
1672.219
1677.937
1683.656
1689.374
1695.093
1700.811
1706.530
1712.248
1717.967
1723.685
1729.404
1735.122
1740.841
1746.559
1752.278
1757.996
1763.715
1769.433
1775.152
1780.870
1786.589
1792.307
1798.026
1803.744
1809.463
1815.181
1820.900
1826.618
1832.337
1838.055
1843.774
1849.492
1855.211
1860.929
1866.648
1872.366
1878.085
1883.803
1889.522
1895.240
1900.959
1906.677
1912.396
1918.114
1923.833
1929.551
1935.270
1940.988
1946.707
1952.425
1958.144
1963.862
1969.581
1975.299
1981.018
1986.736
1992.455
1998.173
2003.892
2009.610
2015.329
2021.047
2026.766
2032.484
2038.203
2043.921
2049.640
2055.358
2061.077
2066.795
2072.514
2078.232
2083.951
2089.669
2095.388
2101.106
2106.825
2112.543
2118.262
2123.980
2129.699
2135.417
2141.136
2146.854
2152.573
2158.291
2164.010
2169.728
2175.447
2181.165
2186.884
2192.602
2198.321
2204.039
2209.758
2215.476
2221.195
2226.913
2232.632
2238.350
2244.069
2249.787
2255.506
2261.224
2266.943
2272.661
2278.380
2284.098
2289.817
2295.535
2301.254
2306.972
2312.691
2318.409
2324.128
2329.846
2335.565
2341.283
2347.002
2352.720
2358.439
2364.157
2369.876
2375.594
2381.313
2387.031
2392.750
2398.468
2404.187
2409.905
2415.624
2421.342
2427.061
2432.779
2429.113
2425.447
2421.781
2418.115
2414.449
2410.783
2407.117
2403.451
2399.785
2396.119
2392.453
2388.787
2385.121
2381.455
2377.789
2374.123
2370.457
2366.791
2363.125
2359.459
2355.793
2352.127
2348.461
2344.795
2341.129
2337.463
2333.797
2330.131
2326.465
2322.799
2319.133
2315.467
2311.801
2308.135
2304.469
2300.803
2297.137
2293.471
2289.805
2286.139
2282.473
2278.807
2275.141
2271.475
2267.809
2264.143
2260.477
2256.811
2253.145
2249.479
2245.813
2242.147
2238.481
2234.815
2231.149
2227.483
2223.817
2220.151
2216.485
2212.819
2209.153
2205.487
2201.821
2198.155
2194.489
2190.823
2187.157
2183.491
2179.825
2176.159
2172.493
2168.827
2165.161
2161.495
2157.829
2154.163
2150.497
2146.831
2143.165
2139.499
2135.833
2132.167
2128.501
2124.835
2121.169
2117.503
2113.837
2110.171
2106.505
2102.839
2099.173
2095.507
2091.841
2088.175
2084.509
2080.843
2077.177
2073.511
2069.845
2066.179
2062.513
2058.847
2055.181
2051.515
2047.849
2044.183
2040.517
2036.851
2033.185
2029.519
2025.853
2022.187
2018.521
2014.855
2011.189
2007.523
2003.857
2000.191
1996.525
1992.859
1989.193
1985.527
1981.861
1978.195
1974.529
1970.863
1967.197
1963.531
1959.865
1956.199
1952.533
1948.867
1945.201
1941.535
1937.869
1934.203
1930.537
1926.871
1923.205
1919.539
1915.873
1912.207
1908.541
1904.875
1901.209
1897.543
1893.877
1890.211
1886.545
1882.879
1879.213
1875.547
1871.881
1868.215
1864.549
1860.883
1857.217
1853.551
1849.885
1846.219
1842.553
1838.887
1835.221
1831.555
1827.889
1824.223
1820.557
1816.891
1813.225
1809.559
1805.893
1802.227
1798.561
1794.895
1791.229
1787.563
1783.897
1780.231
1776.565
1772.899
1769.233
1765.567
1761.901
1758.235
1754.569
1750.903
1747.237
1743.571
1739.905
1736.239
1732.573
1728.907
1725.241
1721.575
1717.909
1714.243
1710.577
1706.911
1703.245
1699.579
1701.608
1703.636
1705.665
1707.693
1709.722
1711.750
1713.779
1715.807
1717.836
1719.864
1721.893
1723.921
1725.950
1727.978
1730.007
1732.035
1734.064
1736.092
1738.121
1740.149
1742.178
1744.206
1746.235
1748.263
1750.292
1752.320
1754.349
1756.377
1758.406
1760.434
1762.463
1764.491
1766.520
1768.548
1770.577
1772.605
1774.634
1776.662
1778.691
1780.719
1782.748
1784.776
1786.805
1788.833
1790.862
1792.890
1794.919
1796.947
1798.976
1801.004
1803.033
1805.061
1807.090
1809.118
1811.147
1813.175
1815.204
1817.232
1819.261
1821.289
1823.318
1825.346
1827.375
1829.403
1831.432
1833.460
1835.489
1837.517
1839.546
1841.574
1843.603
1845.631
1847.660
1849.688
1851.717
1853.745
1855.774
1857.802
1859.831
1861.859
1863.888
1865.916
1867.945
1869.973
1872.002
1874.030
1876.059
1878.087
1880.116
1882.144
1884.173
1886.201
1888.230
1890.258
1892.287
1894.315
1896.344
1898.372
1900.401
1902.429
1904.458
1906.486
1908.515
1910.543
1912.572
1914.600
1916.629
1918.657
1920.686
1922.714
1924.743
1926.771
1928.800
1930.828
1932.857
1934.885
1936.914
1938.942
1940.971
1942.999
1945.028
1947.056
1949.085
1951.113
1953.142
1955.170
1957.199
1959.227
1961.256
1963.284
1965.313
1967.341
1969.370
1971.398
1973.427
1975.455
1977.484
1979.512
1981.541
1983.569
1985.598
1987.626
1989.655
1991.683
1993.712
1995.740
1997.769
1999.797
2001.826
2003.854
2005.883
2007.911
2009.940
2011.968
2013.997
2016.025
2018.054
2020.082
2022.111
2024.139
2026.168
2028.196
2030.225
2032.253
2034.282
2036.310
2038.339
2040.367
2042.396
2044.424
2046.453
2048.481
2050.510
2052.538
2054.567
2056.595
2058.624
2060.652
2062.681
2064.709
2066.738
2068.766
2070.795
2072.823
2074.852
2076.880
2078.909
2080.937
2082.966
2084.994
2087.023
2089.051
2091.080
2093.108
2095.137
2097.165
2099.194
2101.222
2103.251
2105.279
2106.354
2107.429
2108.504
2109.579
2110.654
2111.729
2112.804
2113.879
2114.954
2116.029
2117.104
2118.179
2119.254
2120.329
2121.404
2122.479
2123.554
2124.629
2125.704
2126.779
2127.854
2128.929
2130.004
2131.079
2132.154
2133.229
2134.304
2135.379
2136.454
2137.529
2138.604
2139.679
2140.754
2141.829
2142.904
2143.979
2145.054
2146.129
2147.204
2148.279
2149.354
2150.429
2151.504
2152.579
2153.654
2154.729
2155.804
2156.879
2157.954
2159.029
2160.104
2161.179
2162.254
2163.329
2164.404
2165.479
2166.554
2167.629
2168.704
2169.779
2170.854
2171.929
2173.004
2174.079
2175.154
2176.229
2177.304
2178.379
2179.454
2180.529
2181.604
2182.679
2183.754
2184.829
2185.904
2186.979
2188.054
2189.129
2190.204
2191.279
2192.354
2193.429
2194.504
2195.579
2196.654
2197.729
2198.804
2199.879
2200.954
2202.029
2203.104
2204.179
2205.254
2206.329
2207.404
2208.479
2209.554
2210.629
2211.704
2212.779
2213.854
2214.929
2216.004
2217.079
2218.154
2219.229
2220.304
2221.379
2222.454
2223.529
2224.604
2225.679
2226.754
2227.829
2228.904
2229.979
2231.054
2232.129
2233.204
2234.279
2235.354
2236.429
2237.504
2238.579
2239.654
2240.729
2241.804
2242.879
2243.954
2245.029
2246.104
2247.179
2248.254
2249.329
2250.404
2251.479
2252.554
2253.629
2254.704
2255.779
2256.854
2257.929
2259.004
2260.079
2261.154
2262.229
2263.304
2264.379
2265.454
2266.529
2267.604
2268.679
2269.754
2270.829
2271.904
2272.979
2274.054
2275.129
2276.204
2277.279
2278.354
2279.429
2280.504
2281.579
2282.654
2283.729
2284.804
2285.879
2286.954
2288.029
2289.104
2290.179
2291.254
2292.329
2293.404
2294.479
2295.554
2296.629
2297.704
2298.779
2299.854
2300.929
2302.004
2303.079
2304.154
2305.229
2306.304
2307.379
2308.454
2309.529
2310.604
2311.679
2312.754
2313.829
2314.904
2315.979
2317.054
2318.129
2319.204
2320.279
2322.039
2323.798
2325.558
2327.317
2329.077
2330.836
2332.596
2334.355
2336.115
2337.874
2339.634
2341.393
2343.153
2344.912
2346.672
2348.431
2350.191
2351.950
2353.710
2355.469
2357.229
2358.988
2360.748
2362.507
2364.267
2366.026
2367.786
2369.545
2371.305
2373.064
2374.824
2376.583
2378.343
2380.102
2381.862
2383.621
2385.381
2387.140
2388.900
2390.659
2392.419
2394.178
2395.938
2397.697
2399.457
2401.216
2402.976
2404.735
2406.495
2408.254
2410.014
2411.773
2413.533
2415.292
2417.052
2418.811
2420.571
2422.330
2424.090
2425.849
2427.609
2429.368
2431.128
2432.887
2434.647
2436.406
2438.166
2439.925
2441.685
2443.444
2445.204
2446.963
2448.723
2450.482
2452.242
2454.001
2455.761
2457.520
2459.280
2461.039
2462.799
2464.558
2466.318
2468.077
2469.837
2471.596
2473.356
2475.115
2476.875
2478.634
2480.394
2482.153
2483.913
2485.672
2487.432
2489.191
2490.951
2492.710
2494.470
2496.229
2497.989
2499.748
2501.508
2503.267
2505.027
2506.786
2508.546
2510.305
2512.065
2513.824
2515.584
2517.343
2519.103
2520.862
2522.622
2524.381
2526.141
2527.900
2529.660
2531.419
2533.179
2534.938
2536.698
2538.457
2540.217
2541.976
2543.736
2545.495
2547.255
2549.014
2550.774
2552.533
2554.293
2556.052
2557.812
2559.571
2561.331
2563.090
2564.850
2566.609
2568.369
2570.128
2571.888
2573.647
2575.407
2577.166
2578.926
2580.685
2582.445
2584.204
2585.964
2587.723
2589.483
2591.242
2593.002
2594.761
2596.521
2598.280
2600.040
2601.799
2603.559
2605.318
2607.078
2608.837
2610.597
2612.356
2614.116
2615.875
2617.635
2619.394
2621.154
2622.913
2624.673
2626.432
2628.192
2629.951
2631.711
2633.470
2635.230
2636.989
2638.749
2640.508
2642.268
2644.027
2645.787
2647.546
2649.306
2651.065
2652.825
2654.584
2656.344
2658.103
2659.863
2661.622
2663.382
2665.141
2666.901
2668.660
2670.420
2672.179
2668.416
2664.653
2660.890
2657.127
2653.364
2649.601
2645.838
2642.075
2638.312
2634.549
2630.786
2627.023
2623.260
2619.497
2615.734
2611.971
2608.208
2604.445
2600.682
2596.919
2593.156
2589.393
2585.630
2581.867
2578.104
2574.341
2570.578
