78.090
78.090
78.090
78.090
78.090
78.090
78.090
78.090
78.090
78.090
78.090
78.090
78.090
78.090
78.090
78.090
78.090
78.090
78.090
78.090
78.090
78.090
78.090
78.090
78.090
78.090
78.090
78.090
78.090
78.090
78.090
78.090
78.090
78.090
78.090
78.090
78.090
78.090
78.090
78.090
78.090
78.090
78.090
78.090
78.090
78.090
78.090
78.090
78.090
78.090
78.090
78.090
78.090
78.090
78.090
78.090
78.090
78.090
78.090
78.090
78.090
78.090
78.090
78.090
78.090
78.090
78.090
78.090
78.090
78.090
78.090
78.090
78.090
78.090
78.090
78.090
78.090
78.090
78.090
78.090
78.090
78.090
78.090
78.090
78.090
78.090
78.090
78.090
78.090
78.090
78.090
78.090
78.090
78.090
78.090
78.090
78.090
78.090
78.090
78.090
78.090
78.090
78.090
78.090
78.090
78.090
78.090
78.090
78.090
78.090
78.090
78.090
78.090
78.090
78.090
78.090
78.090
78.090
78.090
78.090
78.090
78.090
78.090
78.090
78.090
78.090
78.090
78.090
78.090
78.090
78.090
78.090
78.090
78.090
78.090
78.090
78.090
78.090
78.090
78.090
78.090
78.090
78.090
78.090
78.090
78.090
78.090
78.090
78.090
78.090
78.090
78.090
78.090
78.090
78.090
78.090
78.090
78.090
78.090
78.090
78.090
78.090
78.090
78.090
78.090
78.090
78.090
78.090
78.090
78.090
78.090
78.090
78.090
78.090
78.090
78.090
78.090
78.090
78.090
78.090
78.090
78.090
78.090
78.090
78.090
78.090
78.090
78.090
78.090
78.090
78.090
78.090
78.090
78.090
78.090
78.090
78.090
78.090
78.090
78.090
78.090
78.090
78.090
78.090
78.090
78.090
78.090
78.090
78.090
78.090
78.090
78.090
78.090
78.090
78.090
78.090
78.090
78.090
78.090
78.090
78.090
78.090
78.090
78.090
78.090
78.090
78.090
78.090
78.090
78.090
78.090
78.090
78.090
78.090
78.090
78.090
78.090
78.090
78.090
78.090
78.090
78.090
78.090
78.090
78.090
78.090
78.090
78.090
78.090
78.090
78.090
78.090
78.090
78.090
78.090
78.090
78.090
78.090
78.090
78.090
78.090
78.090
78.090
78.090
78.090
78.090
78.090
78.090
78.090
78.090
78.090
78.090
78.090
78.090
78.090
78.090
78.090
78.090
78.090
78.090
78.090
78.090
78.090
78.090
78.090
78.090
78.090
78.090
78.090
78.090
78.090
78.090
78.090
78.090
78.090
78.090
78.090
78.090
78.090
78.090
78.090
78.090
78.090
78.090
78.090
78.090
78.090
78.090
78.090
78.090
78.090
78.090
78.090
78.090
78.090
78.090
78.090
78.090
78.090
78.090
78.090
78.090
78.090
78.090
78.090
78.090
78.090
78.090
78.090
78.090
78.090
78.090
78.090
78.090
78.090
78.090
78.090
78.090
78.090
78.090
78.090
78.090
78.090
78.090
78.090
78.090
78.090
78.090
78.090
78.090
78.090
78.090
78.090
78.090
78.090
78.090
78.090
78.090
78.090
78.090
78.090
78.090
78.090
78.090
78.090
78.090
78.090
78.090
78.090
78.090
78.090
78.090
78.090
78.090
78.090
78.090
78.090
78.090
78.090
78.090
78.090
78.090
78.090
78.090
78.090
78.090
78.090
78.090
78.090
78.090
78.090
78.090
78.090
78.090
78.090
78.090
78.090
78.090
78.090
78.090
78.090
78.090
78.090
78.090
78.090
78.090
78.090
78.090
78.090
78.090
78.090
78.090
78.090
78.090
78.090
78.090
78.090
78.090
78.090
78.090
78.090
78.090
78.090
78.090
78.090
78.090
78.090
78.090
78.090
78.090
78.090
78.090
78.090
78.090
78.090
78.090
78.090
78.090
78.090
78.090
78.090
78.090
78.090
78.090
78.090
78.090
78.090
78.090
78.090
78.090
78.090
78.090
78.090
78.090
78.090
78.090
78.090
78.090
78.090
78.090
78.090
78.090
78.090
78.090
78.090
78.090
78.090
78.090
78.090
78.090
78.090
78.090
78.090
78.090
78.090
78.090
78.090
78.090
78.090
78.090
78.090
78.090
78.090
78.090
78.090
78.090
78.090
78.090
78.090
78.090
78.090
78.090
78.090
78.090
78.090
78.090
78.090
78.090
78.090
78.090
78.090
78.090
78.090
78.090
78.090
78.090
78.090
78.090
78.090
78.090
78.090
78.090
78.090
78.090
78.090
78.090
78.090
78.090
78.090
78.090
78.090
78.090
78.090
78.090
78.090
78.090
78.090
78.090
78.090
78.090
78.090
78.090
78.090
78.090
78.090
78.090
78.090
78.090
78.090
78.090
78.090
78.090
78.090
78.090
78.090
78.090
78.090
78.090
78.090
78.090
78.090
78.090
78.090
78.090
78.090
78.090
78.090
78.090
78.090
78.090
78.090
78.090
78.090
78.090
78.090
78.090
78.090
78.090
78.090
78.090
78.090
78.090
78.090
78.090
78.090
78.090
78.090
78.090
78.090
78.090
78.090
78.090
78.090
78.090
78.090
78.090
78.090
78.090
78.090
78.090
78.090
78.090
78.090
78.090
78.090
78.090
78.090
78.090
78.090
78.090
78.090
78.090
78.090
78.090
78.090
78.090
78.090
78.090
78.090
78.090
78.090
78.090
78.090
78.090
78.090
78.090
78.090
78.090
78.090
78.090
78.090
78.090
78.090
78.090
78.090
78.090
78.090
78.090
78.090
78.090
78.090
78.090
78.090
78.090
78.090
78.090
78.090
78.090
78.090
78.090
78.090
78.090
78.090
78.090
78.090
78.090
78.090
78.090
78.090
78.090
78.090
78.090
78.090
78.090
78.090
78.090
78.090
78.090
78.090
78.090
78.090
78.090
78.090
78.090
78.090
78.090
78.090
78.090
78.090
78.090
78.090
78.090
78.090
78.090
78.090
78.090
78.090
78.090
78.090
78.090
78.090
78.090
78.090
78.090
78.090
78.090
78.090
78.090
78.090
78.090
78.090
78.090
78.090
78.090
78.090
78.090
78.090
78.090
78.090
78.090
78.090
78.090
78.090
78.090
78.090
78.090
78.090
78.090
78.090
78.090
78.090
78.090
78.090
78.090
78.090
78.090
78.090
78.090
78.090
78.090
78.090
78.090
78.090
78.090
78.090
78.090
78.090
78.090
78.090
78.090
78.090
78.090
78.090
78.090
78.090
78.090
78.090
78.090
78.090
78.090
78.090
78.090
78.090
78.090
78.090
78.090
78.090
78.090
78.090
78.090
78.090
78.090
78.090
78.090
78.090
78.090
78.090
78.090
78.090
78.090
78.090
78.090
78.090
78.090
78.090
78.090
78.090
78.090
78.090
78.090
78.090
78.090
78.090
78.090
78.090
78.090
78.090
78.090
78.090
78.090
78.090
78.090
78.090
78.090
78.090
78.090
78.090
78.090
78.090
78.090
78.090
78.090
78.090
78.090
78.090
78.090
78.090
78.090
78.090
78.090
78.090
78.090
78.090
78.090
78.090
78.090
78.090
78.090
78.090
78.090
78.090
78.090
78.090
78.090
78.090
78.090
78.090
78.090
78.090
78.090
78.090
78.090
78.090
78.090
78.090
78.090
78.090
78.090
78.090
78.090
78.090
78.090
78.090
78.090
78.090
78.090
78.090
78.090
78.090
78.090
78.090
78.090
78.090
78.090
78.090
78.090
78.090
78.090
78.090
78.090
78.090
78.090
78.090
78.090
78.090
78.090
78.090
78.090
78.090
78.090
78.090
78.090
78.090
78.090
78.090
78.090
78.090
78.090
78.090
78.090
78.090
78.090
78.090
78.090
78.090
78.090
78.090
78.090
78.090
78.090
78.090
78.090
78.090
78.090
78.090
78.090
78.090
78.090
78.090
78.090
78.090
78.090
78.090
78.090
78.090
78.090
78.090
78.090
78.090
78.090
78.090
78.090
78.090
78.090
78.090
78.090
78.090
78.090
78.090
78.090
78.090
78.090
78.090
78.090
78.090
78.090
78.090
78.090
78.090
78.090
78.090
78.090
78.090
78.090
78.090
78.090
78.090
78.090
78.090
78.090
78.090
78.090
78.090
78.090
78.090
78.090
78.090
78.090
78.090
78.090
78.090
78.090
78.090
78.090
78.090
78.090
78.090
78.090
78.090
78.090
78.090
78.090
78.090
78.090
78.090
78.090
78.090
78.090
78.090
78.090
78.090
78.090
78.090
78.090
78.090
78.090
78.090
78.090
78.090
78.090
78.090
78.090
78.090
78.090
78.090
78.090
78.090
78.090
78.090
78.090
78.090
78.090
78.090
78.090
78.090
78.090
78.090
78.090
78.090
78.090
78.090
78.090
78.090
78.090
78.090
78.090
78.090
78.090
78.090
78.090
78.090
78.090
78.090
78.090
78.090
78.090
78.090
78.090
78.090
78.090
78.090
78.090
78.090
78.090
78.090
78.090
78.090
78.090
78.090
78.090
78.090
78.090
78.090
78.090
78.090
78.090
78.090
78.090
78.090
78.090
78.090
78.090
78.090
78.090
78.090
78.090
78.090
78.090
78.090
78.090
78.090
78.090
78.090
78.090
78.090
78.090
78.090
78.090
78.090
78.090
78.090
78.090
78.090
78.090
78.090
78.090
78.090
78.090
78.090
78.090
78.090
78.090
78.090
78.090
78.090
78.090
78.090
78.090
78.090
78.090
78.090
78.090
78.090
78.090
78.090
78.090
78.090
78.090
78.090
78.090
78.090
78.090
78.090
78.090
78.090
78.090
78.090
78.090
78.090
78.090
78.090
78.090
78.090
78.090
78.090
78.090
78.090
78.090
78.090
728.090
733.393
738.696
743.999
749.302
754.605
759.908
765.211
770.514
775.817
781.120
786.423
791.726
797.029
802.332
807.635
812.938
818.241
823.544
828.847
834.150
839.453
844.756
850.059
855.362
860.665
865.968
871.271
876.574
881.877
887.180
892.483
897.786
903.089
908.392
913.695
918.998
924.301
929.604
934.907
940.210
945.513
950.816
956.119
961.422
966.725
972.028
977.331
982.634
987.937
993.240
998.543
1003.846
1009.149
1014.452
1019.755
1025.058
1030.361
1035.664
1040.967
1046.270
1051.573
1056.876
1062.179
1067.482
1072.785
1078.088
1083.391
1088.694
1093.997
1099.300
1104.603
1109.906
1115.209
1120.512
1125.815
1131.118
1136.421
1141.724
1147.027
1152.330
1157.633
1162.936
1168.239
1173.542
1178.845
1184.148
1189.451
1194.754
1200.057
1205.360
1210.663
1215.966
1221.269
1226.572
1231.875
1237.178
1242.481
1247.784
1253.087
1258.390
1263.693
1268.996
1274.299
1279.602
1284.905
1290.208
1295.511
1300.814
1306.117
1311.420
1316.723
1322.026
1327.329
1332.632
1337.935
1343.238
1348.541
1353.844
1359.147
1364.450
1369.753
1375.056
1380.359
1385.662
1390.965
1396.268
1401.571
1406.874
1412.177
1417.480
1422.783
1428.086
1433.389
1438.692
1443.995
1449.298
1454.601
1459.904
1465.207
1470.510
1475.813
1481.116
1486.419
1491.722
1497.025
1502.328
1507.631
1512.934
1518.237
1523.540
1528.843
1534.146
1539.449
1544.752
1550.055
1555.358
1560.661
1565.964
1571.267
1576.570
1581.873
1587.176
1592.479
1597.782
1603.085
1608.388
1613.691
1618.994
1624.297
1629.600
1634.903
1640.206
1645.509
1650.812
1656.115
1661.418
1666.721
1672.024
1677.327
1682.630
1687.933
1693.236
1698.539
1703.842
1709.145
1714.448
1719.751
1725.054
1730.357
1735.660
1740.963
1746.266
1751.569
1756.872
1762.175
1767.478
1772.781
1778.084
1783.387
1788.690
1788.421
1788.152
1787.883
1787.614
1787.345
1787.076
1786.807
1786.538
1786.269
1786.000
1785.731
1785.462
1785.193
1784.924
1784.655
1784.386
1784.117
1783.848
1783.579
1783.310
1783.041
1782.772
1782.503
1782.234
1781.965
1781.696
1781.427
1781.158
1780.889
1780.620
1780.351
1780.082
1779.813
1779.544
1779.275
1779.006
1778.737
1778.468
1778.199
1777.930
1777.661
1777.392
1777.123
1776.854
1776.585
1776.316
1776.047
1775.778
1775.509
1775.240
1774.971
1774.702
1774.433
1774.164
1773.895
1773.626
1773.357
1773.088
1772.819
1772.550
1772.281
1772.012
1771.743
1771.474
1771.205
1770.936
1770.667
1770.398
1770.129
1769.860
1769.591
1769.322
1769.053
1768.784
1768.515
1768.246
1767.977
1767.708
1767.439
1767.170
1766.901
1766.632
1766.363
1766.094
1765.825
1765.556
1765.287
1765.018
1764.749
1764.480
1764.211
1763.942
1763.673
1763.404
1763.135
1762.866
1762.597
1762.328
1762.059
1761.790
1761.521
1761.252
1760.983
1760.714
1760.445
1760.176
1759.907
1759.638
1759.369
1759.100
1758.831
1758.562
1758.293
1758.024
1757.755
1757.486
1757.217
1756.948
1756.679
1756.410
1756.141
1755.872
1755.603
1755.334
1755.065
1754.796
1754.527
1754.258
1753.989
1753.720
1753.451
1753.182
1752.913
1752.644
1752.375
1752.106
1751.837
1751.568
1751.299
1751.030
1750.761
1750.492
1750.223
1749.954
1749.685
1749.416
1749.147
1748.878
1748.609
1748.340
1748.071
1747.802
1747.533
1747.264
1746.995
1746.726
1746.457
1746.188
1745.919
1745.650
1745.381
1745.112
1744.843
1744.574
1744.305
1744.036
1743.767
1743.498
1743.229
1742.960
1742.691
1742.422
1742.153
1741.884
1741.615
1741.346
1741.077
1740.808
1740.539
1740.270
1740.001
1739.732
1739.463
1739.194
1738.925
1738.656
1738.387
1738.118
1737.849
1737.580
1737.311
1737.042
1736.773
1736.504
1736.235
1735.966
1735.697
1735.428
1735.159
1734.890
1734.646
1734.402
1734.158
1733.914
1733.670
1733.426
1733.182
1732.938
1732.694
1732.450
1732.206
1731.962
1731.718
1731.474
1731.230
1730.986
1730.742
1730.498
1730.254
1730.010
1729.766
1729.522
1729.278
1729.034
1728.790
1728.546
1728.302
1728.058
1727.814
1727.570
1727.326
1727.082
1726.838
1726.594
1726.350
1726.106
1725.862
1725.618
1725.374
1725.130
1724.886
1724.642
1724.398
1724.154
1723.910
1723.666
1723.422
1723.178
1722.934
1722.690
1722.446
1722.202
1721.958
1721.714
1721.470
1721.226
1720.982
1720.738
1720.494
1720.250
1720.006
1719.762
1719.518
1719.274
1719.030
1718.786
1718.542
1718.298
1718.054
1717.810
1717.566
1717.322
1717.078
1716.834
1716.590
1716.346
1716.102
1715.858
1715.614
1715.370
1715.126
1714.882
1714.638
1714.394
1714.150
1713.906
1713.662
1713.418
1713.174
1712.930
1712.686
1712.442
1712.198
1711.954
1711.710
1711.466
1711.222
1710.978
1710.734
1710.490
1710.246
1710.002
1709.758
1709.514
1709.270
1709.026
1708.782
1708.538
1708.294
1708.050
1707.806
1707.562
1707.318
1707.074
1706.830
1706.586
1706.342
1706.098
1705.854
1705.610
1705.366
1705.122
1704.878
1704.634
1704.390
1704.146
1703.902
1703.658
1703.414
1703.170
1702.926
1702.682
1702.438
1702.194
1701.950
1701.706
1701.462
1701.218
1700.974
1700.730
1700.486
1700.242
1699.998
1699.754
1699.510
1699.266
1699.022
1698.778
1698.534
1698.290
1698.046
1697.802
1697.558
1697.314
1697.070
1696.826
1696.582
1696.338
1696.094
1695.850
1695.606
1695.362
1695.118
1694.874
1694.630
1694.386
1694.142
1693.898
1693.654
1693.410
1693.166
1692.922
1692.678
1692.434
1692.190
1691.946
1691.702
1691.458
1691.214
1690.970
1690.726
1690.482
1690.238
1689.994
1689.750
1689.506
1689.262
1689.018
1688.774
1688.530
1688.286
1688.042
1687.798
1687.554
1687.310
1687.066
1686.822
1686.578
1686.334
1686.090
1688.314
1690.537
1692.761
1694.984
1697.208
1699.431
1701.655
1703.878
1706.102
1708.325
1710.549
1712.772
1714.996
1717.219
1719.443
1721.666
1723.890
1726.113
1728.337
1730.560
1732.784
1735.007
1737.231
1739.454
1741.678
1743.901
1746.125
1748.348
1750.572
1752.795
1755.019
1757.242
1759.466
1761.689
1763.913
1766.136
1768.360
1770.583
1772.807
1775.030
1777.254
1779.477
1781.701
1783.924
1786.148
1788.371
1790.595
1792.818
1795.042
1797.265
1799.489
1801.712
1803.936
1806.159
1808.383
1810.606
1812.830
1815.053
1817.277
1819.500
1821.724
1823.947
1826.171
1828.394
1830.618
1832.841
1835.065
1837.288
1839.512
1841.735
1843.959
1846.182
1848.406
1850.629
1852.853
1855.076
1857.300
1859.523
1861.747
1863.970
1866.194
1868.417
1870.641
1872.864
1875.088
1877.311
1879.535
1881.758
1883.982
1886.205
1888.429
1890.652
1892.876
1895.099
1897.323
1899.546
1901.770
1903.993
1906.217
1908.440
1910.664
1912.887
1915.111
1917.334
1919.558
1921.781
1924.005
1926.228
1928.452
1930.675
1932.899
1935.122
1937.346
1939.569
1941.793
1944.016
1946.240
1948.463
1950.687
1952.910
1955.134
1957.357
1959.581
1961.804
1964.028
1966.251
1968.475
1970.698
1972.922
1975.145
1977.369
1979.592
1981.816
1984.039
1986.263
1988.486
1990.710
1992.933
1995.157
1997.380
1999.604
2001.827
2004.051
2006.274
2008.498
2010.721
2012.945
2015.168
2017.392
2019.615
2021.839
2024.062
2026.286
2028.509
2030.733
2032.956
2035.180
2037.403
2039.627
2041.850
2044.074
2046.297
2048.521
2050.744
2052.968
2055.191
2057.415
2059.638
2061.862
2064.085
2066.309
2068.532
2070.756
2072.979
2075.203
2077.426
2079.650
2081.873
2084.097
2086.320
2088.544
2090.767
2092.991
2095.214
2097.438
2099.661
2101.885
2104.108
2106.332
2108.555
2110.779
2113.002
2115.226
2117.449
2119.673
2121.896
2124.120
2126.343
2128.567
2130.790
2130.008
2129.226
2128.444
2127.662
2126.880
2126.098
2125.316
2124.534
2123.752
2122.970
2122.188
2121.406
2120.624
2119.842
2119.060
2118.278
2117.496
2116.714
2115.932
2115.150
2114.368
2113.586
2112.804
2112.022
2111.240
2110.458
2109.676
2108.894
2108.112
2107.330
2106.548
2105.766
2104.984
2104.202
2103.420
2102.638
2101.856
2101.074
2100.292
2099.510
2098.728
2097.946
2097.164
2096.382
2095.600
2094.818
2094.036
2093.254
2092.472
2091.690
2090.908
2090.126
2089.344
2088.562
2087.780
2086.998
2086.216
2085.434
2084.652
2083.870
2083.088
2082.306
2081.524
2080.742
2079.960
2079.178
2078.396
2077.614
2076.832
2076.050
2075.268
2074.486
2073.704
2072.922
2072.140
2071.358
2070.576
2069.794
2069.012
2068.230
2067.448
2066.666
2065.884
2065.102
2064.320
2063.538
2062.756
2061.974
2061.192
2060.410
2059.628
2058.846
2058.064
2057.282
2056.500
2055.718
2054.936
2054.154
2053.372
2052.590
