73.723
73.723
73.723
73.723
73.723
73.723
73.723
73.723
73.723
73.723
73.723
73.723
73.723
73.723
73.723
73.723
73.723
73.723
73.723
73.723
73.723
73.723
73.723
73.723
73.723
73.723
73.723
73.723
73.723
73.723
73.723
73.723
73.723
73.723
73.723
73.723
73.723
73.723
73.723
73.723
73.723
73.723
73.723
73.723
73.723
73.723
73.723
73.723
73.723
73.723
73.723
73.723
73.723
73.723
73.723
73.723
73.723
73.723
73.723
73.723
73.723
73.723
73.723
73.723
73.723
73.723
73.723
73.723
73.723
73.723
73.723
73.723
73.723
73.723
73.723
73.723
73.723
73.723
73.723
73.723
73.723
73.723
73.723
73.723
73.723
73.723
73.723
73.723
73.723
73.723
73.723
73.723
73.723
73.723
73.723
73.723
73.723
73.723
73.723
73.723
73.723
73.723
73.723
73.723
73.723
73.723
73.723
73.723
73.723
73.723
73.723
73.723
73.723
73.723
73.723
73.723
73.723
73.723
73.723
73.723
73.723
73.723
73.723
73.723
73.723
73.723
73.723
73.723
73.723
73.723
73.723
73.723
73.723
73.723
73.723
73.723
73.723
73.723
73.723
73.723
73.723
73.723
73.723
73.723
73.723
73.723
73.723
73.723
73.723
73.723
73.723
73.723
73.723
73.723
73.723
73.723
73.723
73.723
73.723
73.723
73.723
73.723
73.723
73.723
73.723
73.723
73.723
73.723
73.723
73.723
73.723
73.723
73.723
73.723
73.723
73.723
73.723
73.723
73.723
73.723
73.723
73.723
73.723
73.723
73.723
73.723
73.723
73.723
73.723
73.723
73.723
73.723
73.723
73.723
73.723
73.723
73.723
73.723
73.723
73.723
73.723
73.723
73.723
73.723
73.723
73.723
73.723
73.723
73.723
73.723
73.723
73.723
73.723
73.723
73.723
73.723
73.723
73.723
73.723
73.723
73.723
73.723
73.723
73.723
73.723
73.723
73.723
73.723
73.723
73.723
73.723
73.723
73.723
73.723
73.723
73.723
73.723
73.723
73.723
73.723
73.723
73.723
73.723
73.723
73.723
73.723
73.723
73.723
73.723
73.723
73.723
73.723
73.723
73.723
73.723
73.723
73.723
73.723
73.723
73.723
73.723
73.723
73.723
73.723
73.723
73.723
73.723
73.723
73.723
73.723
73.723
73.723
73.723
73.723
73.723
73.723
73.723
73.723
73.723
73.723
73.723
73.723
73.723
73.723
73.723
73.723
73.723
73.723
73.723
73.723
73.723
73.723
73.723
73.723
73.723
73.723
73.723
73.723
73.723
73.723
73.723
73.723
73.723
73.723
73.723
73.723
73.723
73.723
73.723
73.723
73.723
73.723
73.723
73.723
73.723
73.723
73.723
73.723
73.723
73.723
73.723
73.723
73.723
73.723
73.723
73.723
73.723
73.723
73.723
73.723
73.723
73.723
73.723
73.723
73.723
73.723
73.723
73.723
73.723
73.723
73.723
73.723
73.723
73.723
73.723
73.723
73.723
73.723
73.723
73.723
73.723
73.723
73.723
73.723
73.723
73.723
73.723
73.723
73.723
73.723
73.723
73.723
73.723
73.723
73.723
73.723
73.723
73.723
73.723
73.723
73.723
73.723
73.723
73.723
73.723
73.723
73.723
73.723
73.723
73.723
73.723
73.723
73.723
73.748
73.772
73.797
73.821
73.846
73.870
73.895
73.919
73.944
73.968
73.993
74.017
74.042
74.066
74.091
74.115
74.140
74.164
74.189
74.213
74.238
74.262
74.287
74.311
74.336
74.360
74.385
74.409
74.434
74.458
74.483
74.507
74.532
74.556
74.581
74.605
74.630
74.654
74.679
74.703
74.728
74.752
74.777
74.801
74.826
74.850
74.875
74.899
74.924
74.948
74.973
74.997
75.022
75.046
75.071
75.095
75.120
75.144
75.169
75.193
75.218
75.242
75.267
75.291
75.316
75.340
75.365
75.389
75.414
75.438
75.463
75.487
75.512
75.536
75.561
75.585
75.610
75.634
75.659
75.683
75.708
75.732
75.757
75.781
75.806
75.830
75.855
75.879
75.904
75.928
75.953
75.977
76.002
76.026
76.051
76.075
76.100
76.124
76.149
76.173
76.198
76.222
76.247
76.271
76.296
76.320
76.345
76.369
76.394
76.418
76.443
76.467
76.492
76.516
76.541
76.565
76.590
76.614
76.639
76.663
76.688
76.712
76.737
76.761
76.786
76.810
76.835
76.859
76.884
76.908
76.933
76.957
76.982
77.006
77.031
77.055
77.080
77.104
77.129
77.153
77.178
77.202
77.227
77.251
77.276
77.300
77.325
77.349
77.374
77.398
77.423
77.447
77.472
77.496
77.521
77.545
77.570
77.594
77.619
77.643
77.668
77.692
77.717
77.741
77.766
77.790
77.815
77.839
77.864
77.888
77.913
77.937
77.962
77.986
78.011
78.035
78.060
78.084
78.109
78.133
78.158
78.182
78.207
78.231
78.256
78.280
78.305
78.329
78.354
78.378
78.403
78.427
78.452
78.476
78.501
78.525
78.550
78.574
78.599
78.623
78.599
78.574
78.550
78.525
78.501
78.476
78.452
78.427
78.403
78.378
78.354
78.329
78.305
78.280
78.256
78.231
78.207
78.182
78.158
78.133
78.109
78.084
78.060
78.035
78.011
77.986
77.962
77.937
77.913
77.888
77.864
77.839
77.815
77.790
77.766
77.741
77.717
77.692
77.668
77.643
77.619
77.594
77.570
77.545
77.521
77.496
77.472
77.447
77.423
77.398
77.374
77.349
77.325
77.300
77.276
77.251
77.227
77.202
77.178
77.153
77.129
77.104
77.080
77.055
77.031
77.006
76.982
76.957
76.933
76.908
76.884
76.859
76.835
76.810
76.786
76.761
76.737
76.712
76.688
76.663
76.639
76.614
76.590
76.565
76.541
76.516
76.492
76.467
76.443
76.418
76.394
76.369
76.345
76.320
76.296
76.271
76.247
76.222
76.198
76.173
76.149
76.124
76.100
76.075
76.051
76.026
76.002
75.977
75.953
75.928
75.904
75.879
75.855
75.830
75.806
75.781
75.757
75.732
75.708
75.683
75.659
75.634
75.610
75.585
75.561
75.536
75.512
75.487
75.463
75.438
75.414
75.389
75.365
75.340
75.316
75.291
75.267
75.242
75.218
75.193
75.169
75.144
75.120
75.095
75.071
75.046
75.022
74.997
74.973
74.948
74.924
74.899
74.875
74.850
74.826
74.801
74.777
74.752
74.728
74.703
74.679
74.654
74.630
74.605
74.581
74.556
74.532
74.507
74.483
74.458
74.434
74.409
74.385
74.360
74.336
74.311
74.287
74.262
74.238
74.213
74.189
74.164
74.140
74.115
74.091
74.066
74.042
74.017
73.993
73.968
73.944
73.919
73.895
73.870
73.846
73.821
73.797
73.772
73.748
73.723
73.723
73.723
73.723
73.723
73.723
73.723
73.723
73.723
73.723
73.723
73.723
73.723
73.723
73.723
73.723
73.723
73.723
73.723
73.723
73.723
73.723
73.723
73.723
73.723
73.723
73.723
73.723
73.723
73.723
73.723
73.723
73.723
73.723
73.723
73.723
73.723
73.723
73.723
73.723
73.723
73.723
73.723
73.723
73.723
73.723
73.723
73.723
73.723
73.723
73.723
73.723
73.723
73.723
73.723
73.723
73.723
73.723
73.723
73.723
73.723
73.723
73.723
73.723
73.723
73.723
73.723
73.723
73.723
73.723
73.723
73.723
73.723
73.723
73.723
73.723
73.723
73.723
73.723
73.723
73.723
73.723
73.723
73.723
73.723
73.723
73.723
73.723
73.723
73.723
73.723
73.723
73.723
73.723
73.723
73.723
73.723
73.723
73.723
73.723
73.723
73.723
73.723
73.723
73.723
73.723
73.723
73.723
73.723
73.723
73.723
73.723
73.723
73.723
73.723
73.723
73.723
73.723
73.723
73.723
73.723
73.723
73.723
73.723
73.723
73.723
73.723
73.723
73.723
73.723
73.723
73.723
73.723
73.723
73.723
73.723
73.723
73.723
73.723
73.723
73.723
73.723
73.723
73.723
73.723
73.723
73.723
73.723
73.723
73.723
73.723
73.723
73.723
73.723
73.723
73.723
73.723
73.723
73.723
73.723
73.723
73.723
73.723
73.723
73.723
73.723
73.723
73.723
73.723
73.723
73.723
73.723
73.723
73.723
73.723
73.723
73.723
73.723
73.723
73.723
73.723
73.723
73.723
73.723
73.723
73.723
73.723
73.723
73.723
73.723
73.723
73.723
73.723
73.723
73.723
73.723
73.723
73.723
73.723
73.723
73.723
73.723
73.723
73.723
73.723
73.723
73.723
73.723
73.723
73.723
73.723
73.723
73.723
73.723
73.723
73.723
73.723
73.723
73.723
73.723
73.723
73.723
73.723
73.723
73.723
73.723
73.723
73.723
73.723
73.723
73.723
73.723
73.723
73.723
73.723
73.723
73.723
73.723
73.723
73.723
73.723
73.723
73.723
73.723
73.723
73.723
73.723
73.723
73.723
73.723
73.723
73.723
73.723
73.723
73.723
73.723
73.723
73.723
73.723
73.723
73.723
73.723
73.723
73.723
73.723
73.723
73.723
73.723
73.723
73.723
73.723
73.723
73.723
73.723
73.723
73.723
73.723
73.723
73.723
73.723
73.723
73.723
73.723
73.723
73.723
73.723
73.723
73.723
73.723
73.723
73.723
73.723
73.723
73.723
73.723
73.723
73.723
73.723
73.723
73.723
73.723
73.723
73.723
73.723
73.723
73.723
73.723
73.723
73.723
73.723
73.723
73.723
73.723
73.723
73.723
73.723
73.723
73.723
73.723
73.723
73.723
73.723
73.723
73.723
73.723
73.723
73.723
73.723
73.723
73.723
73.723
73.723
73.723
73.723
73.723
73.723
73.723
73.723
73.723
73.723
73.723
73.723
73.723
73.723
73.723
73.723
73.723
73.723
73.723
73.723
73.723
73.723
73.723
73.723
73.723
73.723
73.723
73.723
73.723
73.723
73.723
73.723
73.723
73.723
73.723
73.723
73.723
73.723
73.723
73.723
73.723
73.723
73.723
73.723
73.723
73.723
73.723
73.723
73.723
73.723
73.723
73.723
73.723
73.723
73.723
73.723
73.723
73.723
73.723
73.723
73.723
73.723
73.723
73.723
73.723
73.723
73.723
73.723
73.723
73.723
73.723
73.723
73.723
73.723
73.723
73.723
73.723
73.723
73.723
73.723
73.723
73.723
73.723
73.723
73.723
73.723
73.723
73.723
73.723
73.723
73.723
73.723
73.723
73.723
73.723
73.723
73.723
73.723
73.723
73.723
73.723
73.723
73.723
73.723
73.723
73.723
73.723
73.723
73.723
73.723
73.723
73.723
73.723
73.723
73.723
73.723
73.723
73.723
73.723
73.723
73.723
73.723
73.723
73.723
73.723
73.723
73.723
73.723
73.723
73.723
73.723
73.723
73.723
73.723
73.723
73.723
73.723
73.723
73.723
73.723
73.723
73.723
73.723
73.723
73.723
73.723
73.723
73.723
73.723
73.723
73.723
73.723
73.723
73.723
73.723
73.723
73.723
73.723
73.723
73.723
73.723
73.723
73.723
73.723
73.723
73.723
73.723
73.723
73.723
73.723
73.723
73.723
73.723
73.723
73.723
73.723
73.723
73.723
73.723
73.723
73.723
73.723
73.723
73.723
73.723
73.723
73.723
73.723
73.723
73.723
73.723
73.723
73.723
73.723
73.723
73.723
73.723
73.723
73.723
73.723
73.723
73.723
73.723
73.723
73.723
73.723
73.723
73.723
73.723
73.723
73.723
73.723
73.723
73.723
73.723
73.723
73.723
73.723
73.723
73.723
73.723
73.723
73.723
73.723
73.723
73.723
73.723
73.723
73.723
73.723
73.723
73.723
73.723
73.723
73.723
73.723
73.723
73.723
73.723
73.723
73.723
73.723
73.723
73.723
73.723
73.723
73.723
73.723
73.723
73.723
73.723
73.723
73.723
73.723
73.723
73.723
73.723
73.723
73.723
73.723
73.723
73.723
73.723
73.723
73.723
73.723
73.723
73.723
73.723
73.723
78.623
78.599
78.574
78.550
78.525
78.501
78.476
78.452
78.427
78.403
78.378
78.354
78.329
78.305
78.280
78.256
78.231
78.207
78.182
78.158
78.133
78.109
78.084
78.060
78.035
78.011
77.986
77.962
77.937
77.913
77.888
77.864
77.839
77.815
77.790
77.766
77.741
77.717
77.692
77.668
77.643
77.619
77.594
77.570
77.545
77.521
77.496
77.472
77.447
77.423
77.398
77.374
77.349
77.325
77.300
77.276
77.251
77.227
77.202
77.178
77.153
77.129
77.104
77.080
77.055
77.031
77.006
76.982
76.957
76.933
76.908
76.884
76.859
76.835
76.810
76.786
76.761
76.737
76.712
76.688
76.663
76.639
76.614
76.590
76.565
76.541
76.516
76.492
76.467
76.443
76.418
76.394
76.369
76.345
76.320
76.296
76.271
76.247
76.222
76.198
76.173
76.149
76.124
76.100
76.075
76.051
76.026
76.002
75.977
75.953
75.928
75.904
75.879
75.855
75.830
75.806
75.781
75.757
75.732
75.708
75.683
75.659
75.634
75.610
75.585
75.561
75.536
75.512
75.487
75.463
75.438
75.414
75.389
75.365
75.340
75.316
75.291
75.267
75.242
75.218
75.193
75.169
75.144
75.120
75.095
75.071
75.046
75.022
74.997
74.973
74.948
74.924
74.899
74.875
74.850
74.826
74.801
74.777
74.752
74.728
74.703
74.679
74.654
74.630
74.605
74.581
74.556
74.532
74.507
74.483
74.458
74.434
74.409
74.385
74.360
74.336
74.311
74.287
74.262
74.238
74.213
74.189
74.164
74.140
74.115
74.091
74.066
74.042
74.017
73.993
73.968
73.944
73.919
73.895
73.870
73.846
73.821
73.797
73.772
73.748
73.723
73.723
73.723
73.723
73.723
73.723
73.723
73.723
73.723
73.723
73.723
73.723
73.723
73.723
73.723
73.723
73.723
73.723
73.723
73.723
73.723
73.723
73.723
73.723
73.723
73.723
73.723
73.723
73.723
73.723
73.723
73.723
73.723
73.723
73.723
73.723
73.723
73.723
73.723
73.723
73.723
73.723
73.723
73.723
73.723
73.723
73.723
73.723
73.723
73.723
73.723
73.723
73.723
73.723
73.723
73.723
73.723
73.723
73.723
73.723
73.723
73.723
73.723
73.723
73.723
73.723
73.723
73.723
73.723
73.723
73.723
73.723
73.723
73.723
73.723
73.723
73.723
73.723
73.723
73.723
73.723
73.723
73.723
73.723
73.723
73.723
73.723
73.723
73.723
73.723
73.723
73.723
73.723
73.723
73.723
73.723
73.723
73.723
73.723
73.723
73.723
73.723
73.723
73.723
73.723
73.723
73.723
73.723
73.723
73.723
73.723
73.723
73.723
73.723
73.723
73.723
73.723
73.723
73.723
73.723
73.723
73.723
73.723
73.723
73.723
73.723
73.723
73.723
73.723
73.723
73.723
73.723
73.723
73.723
73.723
73.723
73.723
73.723
73.723
73.723
73.723
73.723
73.723
73.723
73.723
73.723
73.723
73.723
73.723
73.723
73.723
73.723
73.723
73.723
73.723
73.723
73.723
73.723
73.723
73.723
73.723
73.723
73.723
73.723
73.723
73.723
73.723
73.723
73.723
73.723
73.723
73.723
73.723
73.723
73.723
73.723
73.723
73.723
73.723
73.723
73.723
73.723
73.723
73.723
73.723
73.723
73.723
73.723
73.723
73.723
73.723
73.723
73.723
73.723
73.723
73.723
73.723
73.723
73.723
73.723
239.823
246.935
254.046
261.158
268.269
275.381
282.492
289.604
296.715
303.827
310.938
318.050
325.161
332.273
339.384
346.496
353.607
360.719
367.830
374.942
382.053
389.165
396.276
403.388
410.499
417.611
424.722
431.834
438.945
446.057
453.168
460.280
467.391
474.503
481.614
488.726
495.837
502.949
510.060
517.172
524.283
531.395
538.506
545.618
552.729
559.841
566.952
574.064
581.175
588.287
595.398
602.510
609.621
616.733
623.844
630.956
638.067
645.179
652.290
659.402
666.513
673.625
680.736
687.848
694.959
702.071
709.182
716.294
723.405
730.517
737.628
744.740
751.851
758.963
766.074
773.186
780.297
787.409
794.520
801.632
808.743
815.855
822.966
830.078
837.189
844.301
851.412
858.524
865.635
872.747
879.858
886.970
894.081
901.193
908.304
915.416
922.527
929.639
936.750
943.862
950.973
958.085
965.196
972.308
979.419
986.531
993.642
1000.754
1007.865
1014.977
1022.088
1029.200
1036.311
1043.423
1050.534
1057.646
1064.757
1071.869
1078.980
1086.092
1093.203
1100.315
1107.426
1114.538
1121.649
1128.761
1135.872
1142.984
1150.095
1157.207
1164.318
1171.430
1178.541
1185.653
1192.764
1199.876
1206.987
1214.099
1221.210
1228.322
1235.433
1242.545
1249.656
1256.768
1263.879
1270.991
1278.102
1285.214
1292.325
1299.437
1306.548
1313.660
1320.771
1327.883
1334.994
1342.106
1349.217
1356.329
1363.440
1370.552
1377.663
1384.775
1391.886
1398.998
1406.109
1413.221
1420.332
1427.444
1434.555
1441.667
1448.778
1455.890
1463.001
1470.113
1477.224
1484.336
1491.447
1498.559
1505.670
1512.782
1519.893
1527.005
1534.116
1541.228
1548.339
1555.451
1562.562
1569.674
1576.785
1583.897
1591.008
1598.120
1605.231
1612.343
1619.454
1626.566
1633.677
1640.789
1647.900
1655.012
1662.123
1667.964
1673.805
1679.646
1685.487
1691.328
1697.169
1703.010
1708.851
1714.692
1720.533
1726.374
1732.215
1738.056
1743.897
1749.738
1755.579
1761.420
