95.102
95.127
95.151
95.176
95.200
95.225
95.249
95.274
95.298
95.323
95.347
95.372
95.396
95.421
95.445
95.470
95.494
95.519
95.543
95.568
95.592
95.617
95.641
95.666
95.690
95.715
95.739
95.764
95.788
95.813
95.837
95.862
95.886
95.911
95.935
95.960
95.984
96.009
96.033
96.058
96.082
96.107
96.131
96.156
96.180
96.205
96.229
96.254
96.278
96.303
96.327
96.352
96.376
96.401
96.425
96.450
96.474
96.499
96.523
96.548
96.572
96.597
96.621
96.646
96.670
96.695
96.719
96.744
96.768
96.793
96.817
96.842
96.866
96.891
96.915
96.940
96.964
96.989
97.013
97.038
97.062
97.087
97.111
97.136
97.160
97.185
97.209
97.234
97.258
97.283
97.307
97.332
97.356
97.381
97.405
97.430
97.454
97.479
97.503
97.528
97.552
97.577
97.601
97.626
97.650
97.675
97.699
97.724
97.748
97.773
97.797
97.822
97.846
97.871
97.895
97.920
97.944
97.969
97.993
98.018
98.042
98.067
98.091
98.116
98.140
98.165
98.189
98.214
98.238
98.263
98.287
98.312
98.336
98.361
98.385
98.410
98.434
98.459
98.483
98.508
98.532
98.557
98.581
98.606
98.630
98.655
98.655
98.655
98.655
98.655
98.655
98.655
98.655
98.655
98.655
98.655
98.655
98.655
98.655
98.655
98.655
98.655
98.655
98.655
98.655
98.655
98.655
98.655
98.655
98.655
98.655
98.655
98.655
98.655
98.655
98.655
98.655
98.655
98.655
98.655
98.655
98.655
98.655
98.655
98.655
98.655
98.655
98.655
98.655
98.655
98.655
98.655
98.655
98.655
98.655
98.655
98.655
98.655
98.655
98.655
98.655
98.655
98.655
98.655
98.655
98.655
98.655
98.655
98.655
98.655
98.655
98.655
98.655
98.655
98.655
98.655
98.655
98.655
98.655
98.655
98.655
98.655
98.655
98.655
98.655
98.655
98.655
98.655
98.655
98.655
98.655
98.655
98.655
98.655
98.655
98.655
98.655
98.655
98.655
98.655
98.655
98.655
98.655
98.655
98.655
98.655
98.655
98.655
98.655
98.655
98.655
98.655
98.655
98.655
98.655
98.655
98.655
98.655
98.655
98.655
98.655
98.655
98.655
98.655
98.655
98.655
98.655
98.655
98.655
98.655
98.655
98.655
98.655
98.655
98.655
98.655
98.655
98.655
98.655
98.655
98.655
98.655
98.655
98.655
98.655
98.655
98.655
98.655
98.655
98.655
98.655
98.655
98.655
98.655
98.655
98.655
98.655
98.655
98.655
98.655
98.655
98.655
98.655
98.655
98.655
98.655
98.655
98.655
98.655
98.655
98.655
98.655
98.655
98.655
98.655
98.655
98.655
98.655
98.655
98.655
98.655
98.655
98.655
98.655
98.655
98.655
98.655
98.655
98.655
98.655
98.655
98.655
98.655
98.655
98.655
98.655
98.655
98.655
98.655
98.655
98.655
98.655
98.655
98.655
98.655
98.655
98.630
98.606
98.581
98.557
98.532
98.508
98.483
98.459
98.434
98.410
98.385
98.361
98.336
98.312
98.287
98.263
98.238
98.214
98.189
98.165
98.140
98.116
98.091
98.067
98.042
98.018
97.993
97.969
97.944
97.920
97.895
97.871
97.846
97.822
97.797
97.773
97.748
97.724
97.699
97.675
97.650
97.626
97.601
97.577
97.552
97.528
97.503
97.479
97.454
97.430
97.405
97.381
97.356
97.332
97.307
97.283
97.258
97.234
97.209
97.185
97.160
97.136
97.111
97.087
97.062
97.038
97.013
96.989
96.964
96.940
96.915
96.891
96.866
96.842
96.817
96.793
96.768
96.744
96.719
96.695
96.670
96.646
96.621
96.597
96.572
96.548
96.523
96.499
96.474
96.450
96.425
96.401
96.376
96.352
96.327
96.303
96.278
96.254
96.229
96.205
96.180
96.156
96.131
96.107
96.082
96.058
96.033
96.009
95.984
95.960
95.935
95.911
95.886
95.862
95.837
95.813
95.788
95.764
95.739
95.715
95.690
95.666
95.641
95.617
95.592
95.568
95.543
95.519
95.494
95.470
95.445
95.421
95.396
95.372
95.347
95.323
95.298
95.274
95.249
95.225
95.200
95.176
95.151
95.127
95.102
95.078
95.053
95.029
95.004
94.980
94.955
94.931
94.906
94.882
94.857
94.833
94.808
94.784
94.759
94.735
94.710
94.686
94.661
94.637
94.612
94.588
94.563
94.539
94.514
94.490
94.465
94.441
94.416
94.392
94.367
94.343
94.318
94.294
94.269
94.245
94.220
94.196
94.171
94.147
94.122
94.098
94.073
94.049
94.024
94.000
93.975
93.951
93.926
93.902
93.877
93.853
93.828
93.804
93.779
93.755
93.779
93.804
93.828
93.853
93.877
93.902
93.926
93.951
93.975
94.000
94.024
94.049
94.073
94.098
94.122
94.147
94.171
94.196
94.220
94.245
94.269
94.294
94.318
94.343
94.367
94.392
94.416
94.441
94.465
94.490
94.514
94.539
94.563
94.588
94.612
94.637
94.661
94.686
94.710
94.735
94.759
94.784
94.808
94.833
94.857
94.882
94.906
94.931
94.955
94.980
95.004
95.029
95.053
95.078
95.102
95.127
95.151
95.176
95.200
95.225
95.249
95.274
95.298
95.323
95.347
95.372
95.396
95.421
95.445
95.470
95.494
95.519
95.543
95.568
95.592
95.617
95.641
95.666
95.690
95.715
95.739
95.764
95.788
95.813
95.837
95.862
95.886
95.911
95.935
95.960
95.984
96.009
96.033
96.058
96.082
96.107
96.131
96.156
96.180
96.205
96.229
96.254
96.278
96.303
96.327
96.352
96.376
96.401
96.425
96.450
96.474
96.499
96.523
96.548
96.572
96.597
96.621
96.646
96.670
96.695
96.719
96.744
96.768
96.793
96.817
96.842
96.866
96.891
96.915
96.940
96.964
96.989
97.013
97.038
97.062
97.087
97.111
97.136
97.160
97.185
97.209
97.234
97.258
97.283
97.307
97.332
97.356
97.381
97.405
97.430
97.454
97.479
97.503
97.528
97.552
97.577
97.601
97.626
97.650
97.675
97.699
97.724
97.748
97.773
97.797
97.822
97.846
97.871
97.895
97.920
97.944
97.969
97.993
98.018
98.042
98.067
98.091
98.116
98.140
98.165
98.189
98.214
98.238
98.263
98.287
98.312
98.336
98.361
98.385
98.410
98.434
98.459
98.483
98.508
98.532
98.557
98.581
98.606
98.630
98.655
98.655
98.655
98.655
98.655
98.655
98.655
98.655
98.655
98.655
98.655
98.655
98.655
98.655
98.655
98.655
98.655
98.655
98.655
98.655
98.655
98.655
98.655
98.655
98.655
98.655
98.655
98.655
98.655
98.655
98.655
98.655
98.655
98.655
98.655
98.655
98.655
98.655
98.655
98.655
98.655
98.655
98.655
98.655
98.655
98.655
98.655
98.655
98.655
98.655
98.655
98.655
98.655
98.655
98.655
98.655
98.655
98.655
98.655
98.655
98.655
98.655
98.655
98.655
98.655
98.655
98.655
98.655
98.655
98.655
98.655
98.655
98.655
98.655
98.655
98.655
98.655
98.655
98.655
98.655
98.655
98.655
98.655
98.655
98.655
98.655
98.655
98.655
98.655
98.655
98.655
98.655
98.655
98.655
98.655
98.655
98.655
98.655
98.655
98.655
98.655
98.655
98.655
98.655
98.655
98.655
98.655
98.655
98.655
98.655
98.655
98.655
98.655
98.655
98.655
98.655
98.655
98.655
98.655
98.655
98.655
98.655
98.655
98.655
98.655
98.655
98.655
98.655
98.655
98.655
98.655
98.655
98.655
98.655
98.655
98.655
98.655
98.655
98.655
98.655
98.655
98.655
98.655
98.655
98.655
98.655
98.655
98.655
98.655
98.655
98.655
98.655
98.655
98.655
98.655
98.655
98.655
98.655
98.655
98.655
98.655
98.655
98.655
98.655
98.655
98.655
98.655
98.655
98.655
98.655
98.655
98.655
98.655
98.655
98.655
98.655
98.655
98.655
98.655
98.655
98.655
98.655
98.655
98.655
98.655
98.655
98.655
98.655
98.655
98.655
98.655
98.655
98.655
98.655
98.655
98.655
98.655
98.655
98.655
98.655
98.655
98.655
98.655
98.655
98.655
98.655
98.655
98.655
98.655
98.655
98.655
98.655
98.655
98.655
98.655
98.655
98.655
98.655
98.655
98.655
98.655
98.655
98.655
98.655
98.655
98.655
98.655
98.655
98.655
98.655
98.655
98.655
98.655
98.655
98.655
98.655
98.655
98.655
98.655
98.655
98.655
98.655
98.655
98.655
98.655
98.655
98.655
98.655
98.655
98.655
98.655
98.655
98.655
98.655
98.655
98.655
98.655
98.655
98.655
98.655
98.655
98.655
98.655
98.655
98.655
98.655
98.655
98.655
98.655
98.655
98.655
98.655
98.655
98.655
98.655
98.655
98.655
98.655
98.655
98.655
98.655
98.655
98.655
98.655
98.655
98.655
98.655
98.655
98.655
98.655
98.655
98.655
98.655
98.655
98.655
98.655
98.655
98.655
98.655
98.655
98.655
98.655
98.655
98.655
98.655
98.655
98.655
98.655
98.655
98.655
98.655
98.655
98.655
98.655
98.655
98.655
98.655
98.655
98.655
98.655
98.655
98.655
98.655
98.655
98.655
98.655
98.655
98.655
98.655
98.655
98.655
98.655
98.655
98.655
98.655
98.655
98.655
98.655
98.655
98.655
98.655
98.655
98.655
98.655
98.655
98.655
98.655
98.655
98.655
98.655
98.655
98.655
98.655
98.655
98.655
98.655
98.655
98.655
98.655
98.655
98.655
98.655
98.655
98.655
98.655
98.655
98.655
98.655
98.655
98.655
98.655
98.655
98.655
98.655
98.655
98.655
98.655
98.655
98.655
98.655
98.655
98.655
98.655
98.655
98.655
98.655
98.655
98.655
98.655
98.655
98.655
98.655
98.655
98.655
98.655
98.655
98.655
98.655
98.655
98.655
328.355
333.340
338.325
343.310
348.295
353.280
358.265
363.250
368.235
373.220
378.205
383.190
388.175
393.160
398.145
403.130
408.115
413.100
418.085
423.070
428.055
433.040
438.025
443.010
447.995
452.980
457.965
462.950
467.935
472.920
477.905
482.890
487.875
492.860
497.845
502.830
507.815
512.800
517.785
522.770
527.755
532.740
537.725
542.710
547.695
552.680
557.665
562.650
567.635
572.620
577.605
582.590
587.575
592.560
597.545
602.530
607.515
612.500
617.485
622.470
627.455
632.440
637.425
642.410
647.395
652.380
657.365
662.350
667.335
672.320
677.305
682.290
687.275
692.260
697.245
702.230
707.215
712.200
717.185
722.170
727.155
732.140
737.125
742.110
747.095
752.080
757.065
762.050
767.035
772.020
777.005
781.990
786.975
791.960
796.945
801.930
806.915
811.900
816.885
821.870
826.855
831.840
836.825
841.810
846.795
851.780
856.765
861.750
866.735
871.720
876.705
881.690
886.675
891.660
896.645
901.630
906.615
911.600
916.585
921.570
926.555
931.540
936.525
941.510
946.495
951.480
956.465
961.450
966.435
971.420
976.405
981.390
986.375
991.360
996.345
1001.330
1006.315
1011.300
1016.285
1021.270
1026.255
1031.240
1036.225
1041.210
1046.195
1051.180
1056.165
1061.150
1066.135
1071.120
1076.105
1081.090
1086.075
1091.060
1096.045
1101.030
1106.015
1111.000
1115.985
1120.970
1125.955
1130.940
1135.925
1140.910
1145.895
1150.880
1155.865
1160.850
1165.835
1170.820
1175.805
1180.790
1185.775
1190.760
1195.745
1200.730
1205.715
1210.700
1215.685
1220.670
1225.655
1230.640
1235.625
1240.610
1245.595
1250.580
1255.565
1260.550
1265.535
1270.520
1275.505
1280.490
1285.475
1290.460
1295.445
1300.430
1305.415
1310.400
1315.385
1320.370
1325.355
1326.333
1327.311
1328.289
1329.267
1330.245
1331.223
1332.201
1333.179
1334.157
1335.135
1336.113
1337.091
1338.069
1339.047
1340.025
1341.003
1341.981
1342.959
1343.937
1344.915
1345.893
1346.871
1347.849
1348.827
1349.805
1350.783
1351.761
1352.739
1353.717
1354.695
1355.673
1356.651
1357.629
1358.607
1359.585
1360.563
1361.541
1362.519
1363.497
1364.475
1365.453
1366.431
1367.409
1368.387
1369.365
1370.343
1371.321
1372.299
1373.277
1374.255
1375.233
1376.211
1377.189
1378.167
1379.145
1380.123
1381.101
1382.079
1383.057
1384.035
1385.013
1385.991
1386.969
1387.947
1388.925
1389.903
1390.881
1391.859
1392.837
1393.815
1394.793
1395.771
1396.749
1397.727
1398.705
1399.683
1400.661
1401.639
1402.617
1403.595
1404.573
1405.551
1406.529
1407.507
1408.485
1409.463
1410.441
1411.419
1412.397
1413.375
1414.353
1415.331
1416.309
1417.287
1418.265
1419.243
1420.221
1421.199
1422.177
1423.155
1424.133
1425.111
1426.089
1427.067
1428.045
1429.023
1430.001
1430.979
1431.957
1432.935
1433.913
1434.891
1435.869
1436.847
1437.825
1438.803
1439.781
1440.759
1441.737
1442.715
1443.693
1444.671
1445.649
1446.627
1447.605
1448.583
1449.561
1450.539
1451.517
1452.495
1453.473
1454.451
1455.429
1456.407
1457.385
1458.363
1459.341
1460.319
1461.297
1462.275
1463.253
1464.231
1465.209
1466.187
1467.165
1468.143
1469.121
1470.099
1471.077
1472.055
1473.033
1474.011
1474.989
1475.967
1476.945
1477.923
1478.901
1479.879
1480.857
1481.835
1482.813
1483.791
1484.769
1485.747
1486.725
1487.703
1488.681
1489.659
1490.637
1491.615
1492.593
1493.571
1494.549
1495.527
1496.505
1497.483
1498.461
1499.439
1500.417
1501.395
1502.373
1503.351
1504.329
1505.307
1506.285
1507.263
1508.241
1509.219
1510.197
1511.175
1512.153
1513.131
1514.109
1515.087
1516.065
1517.043
1518.021
1518.999
1519.977
1520.955
1522.983
1525.011
1527.039
1529.067
1531.095
1533.123
1535.151
1537.179
1539.207
1541.235
1543.263
1545.291
1547.319
1549.347
1551.375
1553.403
1555.431
1557.459
1559.487
1561.515
1563.543
1565.571
1567.599
1569.627
1571.655
1573.683
1575.711
1577.739
1579.767
1581.795
1583.823
1585.851
1587.879
1589.907
1591.935
1593.963
1595.991
1598.019
1600.047
1602.075
1604.103
1606.131
1608.159
1610.187
1612.215
1614.243
1616.271
1618.299
1620.327
1622.355
1624.383
1626.411
1628.439
1630.467
1632.495
1634.523
1636.551
1638.579
1640.607
1642.635
1644.663
1646.691
1648.719
1650.747
1652.775
1654.803
1656.831
1658.859
1660.887
1662.915
1664.943
1666.971
1668.999
1671.027
1673.055
1675.083
1677.111
1679.139
1681.167
1683.195
1685.223
1687.251
1689.279
1691.307
1693.335
1695.363
1697.391
1699.419
1701.447
1703.475
1705.503
1707.531
1709.559
1711.587
1713.615
1715.643
1717.671
1719.699
1721.727
1723.755
1725.783
1727.811
1729.839
1731.867
1733.895
1735.923
1737.951
1739.979
1742.007
1744.035
1746.063
1748.091
1750.119
1752.147
1754.175
1756.203
1758.231
1760.259
1762.287
1764.315
1766.343
1768.371
1770.399
1772.427
1774.455
1776.483
1778.511
1780.539
1782.567
1784.595
1786.623
1788.651
1790.679
1792.707
1794.735
1796.763
1798.791
1800.819
1802.847
1804.875
1806.903
1808.931
1810.959
1812.987
1815.015
1817.043
1819.071
1821.099
1823.127
1825.155
1827.183
1829.211
1831.239
1833.267
1835.295
1837.323
1839.351
1841.379
1843.407
1845.435
1847.463
1849.491
1851.519
1853.547
1855.575
1857.603
1859.631
1861.659
1863.687
1865.715
1867.743
1869.771
1871.799
1873.827
1875.855
1877.883
1879.911
1881.939
1883.967
1885.995
1888.023
1890.051
1892.079
1894.107
1896.135
1898.163
1900.191
1902.219
1904.247
1906.275
1908.303
1910.331
1912.359
1914.387
1916.415
1918.443
1920.471
1922.499
1924.527
1926.555
1926.579
1926.604
1926.628
1926.653
1926.677
1926.702
1926.726
1926.751
1926.775
1926.800
1926.824
1926.849
1926.873
1926.898
1926.922
1926.947
1926.971
1926.996
1927.020
1927.045
1927.069
1927.094
1927.118
1927.143
1927.167
1927.192
1927.216
1927.241
1927.265
1927.290
1927.314
1927.339
1927.363
1927.388
1927.412
1927.437
1927.461
1927.486
1927.510
1927.535
1927.559
1927.584
1927.608
1927.633
1927.657
1927.682
1927.706
1927.731
1927.755
1927.780
1927.804
1927.829
1927.853
1927.878
1927.902
1927.927
1927.951
1927.976
1928.000
1928.025
1928.049
1928.074
1928.098
1928.123
1928.147
1928.172
1928.196
1928.221
1928.245
1928.270
1928.294
1928.319
1928.343
1928.368
1928.392
1928.417
1928.441
1928.466
1928.490
1928.515
1928.539
1928.564
1928.588
1928.613
1928.637
1928.662
1928.686
1928.711
1928.735
1928.760
1928.784
1928.809
1928.833
1928.858
1928.882
1928.907
1928.931
1928.956
1928.980
1929.005
1929.029
1929.054
1929.078
1929.103
1929.127
1929.152
1929.176
1929.201
1929.225
1929.250
1929.274
1929.299
1929.323
1929.348
1929.372
1929.397
1929.421
1929.446
1929.470
1929.495
1929.519
1929.544
1929.568
1929.593
1929.617
1929.642
1929.666
1929.691
1929.715
1929.740
1929.764
1929.789
1929.813
1929.838
1929.862
1929.887
1929.911
1929.936
1929.960
1929.985
1930.009
1930.034
1930.058
1930.083
1930.107
1930.132
1930.156
1930.181
1930.205
1930.230
1930.254
1930.279
1930.303
1930.328
1930.352
1930.377
1930.401
1930.426
1930.450
1930.475
1930.499
1930.524
1930.548
1930.573
1930.597
1930.622
1930.646
1930.671
1930.695
1930.720
1930.744
1930.769
1930.793
1930.818
1930.842
1930.867
1930.891
1930.916
1930.940
1930.965
1930.989
1931.014
1931.038
1931.063
1931.087
1931.112
1931.136
1931.161
1931.185
1931.210
1931.234
1931.259
1931.283
1931.308
1931.332
1931.357
1931.381
1931.406
1931.430
1931.455
1932.921
1934.388
1935.854
1937.321
1938.787
1940.254
1941.720
1943.187
1944.653
1946.120
1947.586
1949.053
1950.519
1951.986
1953.452
1954.919
1956.385
1957.852
1959.318
1960.785
1962.251
1963.718
1965.184
1966.651
1968.117
1969.584
1971.050
1972.517
1973.983
1975.450
1976.916
1978.383
1979.849
1981.316
1982.782
1984.249
1985.715
1987.182
1988.648
1990.115
1991.581
1993.048
1994.514
1995.981
1997.447
1998.914
2000.380
2001.847
2003.313
2004.780
2006.246
2007.713
2009.179
2010.646
