78.686
78.686
78.686
78.686
78.686
78.686
78.686
78.686
78.686
78.686
78.686
78.686
78.686
78.686
78.686
78.686
78.686
78.686
78.686
78.686
78.686
78.686
78.686
78.686
78.686
78.686
78.686
78.686
78.686
78.686
78.686
78.686
78.686
78.686
78.686
78.686
78.686
78.686
78.686
78.686
78.686
78.686
78.686
78.686
78.686
78.686
78.686
78.686
78.686
78.686
78.686
78.686
78.686
78.686
78.686
78.686
78.686
78.686
78.686
78.686
78.686
78.686
78.686
78.686
78.686
78.686
78.686
78.686
78.686
78.686
78.686
78.686
78.686
78.686
78.686
78.686
78.686
78.686
78.686
78.686
78.686
78.686
78.686
78.686
78.686
78.686
78.686
78.686
78.686
78.686
78.686
78.686
78.686
78.686
78.686
78.686
78.686
78.686
78.686
78.686
78.686
78.686
78.686
78.686
78.686
78.686
78.686
78.686
78.686
78.686
78.686
73.786
73.786
73.786
73.786
73.786
73.786
73.786
73.786
73.786
73.786
73.786
73.786
73.786
73.786
73.786
73.786
73.786
73.786
73.786
73.786
73.786
73.786
73.786
73.786
73.786
73.786
73.786
73.786
73.786
73.786
73.786
73.786
73.786
73.786
73.786
73.786
73.786
73.786
73.786
73.786
73.786
73.786
73.786
73.786
73.786
73.786
73.786
73.786
73.786
73.786
73.786
73.786
73.786
73.786
73.786
73.786
73.786
73.786
73.786
73.786
73.786
73.786
73.786
73.786
73.786
73.786
73.786
73.786
73.786
73.786
73.786
73.786
73.786
73.786
73.786
73.786
73.786
73.786
73.786
73.786
73.786
73.786
73.786
73.786
73.786
73.786
73.786
73.786
73.786
73.786
73.786
73.786
73.786
73.786
73.786
73.786
73.786
73.786
73.786
73.786
73.786
73.786
73.786
73.786
73.786
73.786
73.786
73.786
73.786
73.786
73.786
73.786
73.786
73.786
73.786
73.786
73.786
73.786
73.786
73.786
73.786
73.786
73.786
73.786
73.786
73.786
73.786
73.786
73.786
73.786
73.786
73.786
73.786
73.786
73.786
73.786
73.786
73.786
73.786
73.786
73.786
73.786
73.786
73.786
73.786
73.786
73.786
73.786
73.786
73.786
73.786
73.786
73.786
73.786
73.786
73.786
73.786
73.786
73.786
73.786
73.786
73.786
73.786
73.786
73.786
73.786
73.786
73.786
73.786
73.786
73.786
73.786
73.786
73.786
73.786
73.786
73.786
73.786
73.786
73.786
73.786
73.786
73.786
73.786
73.786
73.786
73.786
73.786
73.786
73.786
73.786
73.786
73.786
73.786
73.786
73.786
73.786
73.786
73.786
73.786
73.786
73.786
73.786
73.786
73.786
73.786
73.786
73.786
73.786
73.786
73.786
73.786
73.786
73.786
73.786
73.786
73.786
73.786
73.786
73.786
73.786
73.786
73.786
73.786
73.786
73.786
73.786
73.786
73.786
73.786
73.786
73.786
73.786
73.786
73.786
73.786
73.786
73.786
73.786
73.786
73.786
73.786
73.786
73.786
73.786
73.786
73.786
73.786
73.786
73.786
73.786
73.786
73.786
73.786
73.786
73.786
73.786
73.786
73.786
73.786
73.786
73.786
73.786
73.786
73.786
73.786
73.786
73.786
73.786
73.786
73.786
73.786
73.786
73.786
73.786
73.786
73.786
73.786
73.786
73.786
73.786
73.786
73.786
73.786
73.786
73.786
73.786
73.786
73.786
73.786
73.786
73.786
73.786
73.786
73.786
73.786
73.786
73.786
73.786
73.786
73.786
73.786
73.786
73.786
73.786
73.786
73.786
73.786
73.786
73.786
73.786
73.786
73.786
73.786
73.786
73.786
73.786
73.786
73.786
73.786
73.786
73.786
73.786
73.786
73.786
73.786
73.786
73.786
73.786
73.786
73.786
73.786
73.786
73.786
73.786
73.786
73.786
73.786
73.786
73.786
73.786
73.786
73.786
73.786
73.786
73.786
73.786
73.786
73.786
73.786
73.786
73.786
73.786
73.786
73.786
73.786
73.786
73.786
73.786
73.786
73.786
73.786
73.786
73.786
73.786
73.786
73.786
73.786
73.786
73.786
73.786
73.786
73.786
73.786
73.786
73.786
73.786
73.786
73.786
73.786
73.786
73.786
73.786
73.786
73.786
73.786
73.786
73.786
73.786
73.786
73.786
73.786
73.786
73.786
73.786
73.786
73.786
73.786
73.786
73.786
1833.286
1837.245
1841.204
1845.163
1849.122
1853.081
1857.040
1860.999
1864.958
1868.917
1872.876
1876.835
1880.794
1884.753
1888.712
1892.671
1896.630
1900.589
1904.548
1908.507
1912.466
1916.425
1920.384
1924.343
1928.302
1932.261
1936.220
1940.179
1944.138
1948.097
1952.056
1956.015
1959.974
1963.933
1967.892
1971.851
1975.810
1979.769
1983.728
1987.687
1991.646
1995.605
1999.564
2003.523
2007.482
2011.441
2015.400
2019.359
2023.318
2027.277
2031.236
2035.195
2039.154
2043.113
2047.072
2051.031
2054.990
2058.949
2062.908
2066.867
2070.826
2074.785
2078.744
2082.703
2086.662
2090.621
2094.580
2098.539
2102.498
2106.457
2110.416
2114.375
2118.334
2122.293
2126.252
2130.211
2134.170
2138.129
2142.088
2146.047
2150.006
2153.965
2157.924
2161.883
2165.842
2169.801
2173.760
2177.719
2181.678
2185.637
2189.596
2193.555
2197.514
2201.473
2205.432
2209.391
2213.350
2217.309
2221.268
2225.227
2229.186
2233.145
2237.104
2241.063
2245.022
2248.981
2252.940
2256.899
2260.858
2264.817
2268.776
2272.735
2276.694
2280.653
2284.612
2288.571
2292.530
2296.489
2300.448
2304.407
2308.366
2312.325
2316.284
2320.243
2324.202
2328.161
2332.120
2336.079
2340.038
2343.997
2347.956
2351.915
2355.874
2359.833
2363.792
2367.751
2371.710
2375.669
2379.628
2383.587
2387.546
2391.505
2395.464
2399.423
2403.382
2407.341
2411.300
2415.259
2419.218
2423.177
2427.136
2431.095
2435.054
2439.013
2442.972
2446.931
2450.890
2454.849
2458.808
2462.767
2466.726
2470.685
2474.644
2478.603
2482.562
2486.521
2490.480
2494.439
2498.398
2502.357
2506.316
2510.275
2514.234
2518.193
2522.152
2526.111
2530.070
2534.029
2537.988
2541.947
2545.906
2549.865
2553.824
2557.783
2561.742
2565.701
2569.660
2573.619
2577.578
2581.537
2585.496
2589.455
2593.414
2597.373
2601.332
2605.291
2609.250
2613.209
2617.168
2621.127
2625.086
2625.232
2625.379
2625.525
2625.672
2625.818
2625.965
2626.111
2626.258
2626.404
2626.551
2626.697
2626.844
2626.990
2627.137
2627.283
2627.430
2627.576
2627.723
2627.869
2628.016
2628.162
2628.309
2628.455
2628.602
2628.748
2628.895
2629.041
2629.188
2629.334
2629.481
2629.627
2629.774
2629.920
2630.067
2630.213
2630.360
2630.506
2630.653
2630.799
2630.946
2631.092
2631.239
2631.385
2631.532
2631.678
2631.825
2631.971
2632.118
2632.264
2632.411
2632.557
2632.704
2632.850
2632.997
2633.143
2633.290
2633.436
2633.583
2633.729
2633.876
2634.022
2634.169
2634.315
2634.462
2634.608
2634.755
2634.901
2635.048
2635.194
2635.341
2635.487
2635.634
2635.780
2635.927
2636.073
2636.220
2636.366
2636.513
2636.659
2636.806
2636.952
2637.099
2637.245
2637.392
2637.538
2637.685
2637.831
2637.978
2638.124
2638.271
2638.417
2638.564
2638.710
2638.857
2639.003
2639.150
2639.296
2639.443
2639.589
2639.736
2639.882
2640.029
2640.175
2640.322
2640.468
2640.615
2640.761
2640.908
2641.054
2641.201
2641.347
2641.494
2641.640
2641.787
2641.933
2642.080
2642.226
2642.373
2642.519
2642.666
2642.812
2642.959
2643.105
2643.252
2643.398
2643.545
2643.691
2643.838
2643.984
2644.131
2644.277
2644.424
2644.570
2644.717
2644.863
2645.010
2645.156
2645.303
2645.449
2645.596
2645.742
2645.889
2646.035
2646.182
2646.328
2646.475
2646.621
2646.768
2646.914
2647.061
2647.207
2647.354
2647.500
2647.647
2647.793
2647.940
2648.086
2648.233
2648.379
2648.526
2648.672
2648.819
2648.965
2649.112
2649.258
2649.405
2649.551
2649.698
2649.844
2649.991
2650.137
2650.284
2650.430
2650.577
2650.723
2650.870
2651.016
2651.163
2651.309
2651.456
2651.602
2651.749
2651.895
2652.042
2652.188
2652.335
2652.481
2652.628
2652.774
2652.921
2653.067
2653.214
2653.360
2653.507
2653.653
2653.800
2653.946
2654.093
2654.239
2654.386
2651.673
2648.961
2646.248
2643.536
2640.823
2638.111
2635.398
2632.686
2629.973
2627.261
2624.548
2621.836
2619.123
2616.411
2613.698
2610.986
2608.273
2605.561
2602.848
2600.136
2597.423
2594.711
2591.998
2589.286
2586.573
2583.861
2581.148
2578.436
2575.723
2573.011
2570.298
2567.586
2564.873
2562.161
2559.448
2556.736
2554.023
2551.311
2548.598
2545.886
2543.173
2540.461
2537.748
2535.036
2532.323
2529.611
2526.898
2524.186
2521.473
2518.761
2516.048
2513.336
2510.623
2507.911
2505.198
2502.486
2499.773
2497.061
2494.348
2491.636
2488.923
2486.211
2483.498
2480.786
2478.073
2475.361
2472.648
2469.936
2467.223
2464.511
2461.798
2459.086
2456.373
2453.661
2450.948
2448.236
2445.523
2442.811
2440.098
2437.386
2434.673
2431.961
2429.248
2426.536
2423.823
2421.111
2418.398
2415.686
2412.973
2410.261
2407.548
2404.836
2402.123
2399.411
2396.698
2393.986
2391.273
2388.561
2385.848
2383.136
2380.423
2377.711
2374.998
2372.286
2369.573
2366.861
2364.148
2361.436
2358.723
2356.011
2353.298
2350.586
2347.873
2345.161
2342.448
2339.736
2337.023
2334.311
2331.598
2328.886
2326.173
2323.461
2320.748
2318.036
2315.323
2312.611
2309.898
2307.186
2304.473
2301.761
2299.048
2296.336
2293.623
2290.911
2288.198
2285.486
2282.773
2280.061
2277.348
2274.636
2271.923
2269.211
2266.498
2263.786
2261.073
2258.361
2255.648
2252.936
2250.223
2247.511
2244.798
2242.086
2239.373
2236.661
2233.948
2231.236
2228.523
2225.811
2223.098
2220.386
2217.673
2214.961
2212.248
2209.536
2206.823
2204.111
2201.398
2198.686
2195.973
2193.261
2190.548
2187.836
2185.123
2182.411
2179.698
2176.986
2174.273
2171.561
2168.848
2166.136
2163.423
2160.711
2157.998
2155.286
2152.573
2149.861
2147.148
2144.436
2141.723
2139.011
2136.298
2133.586
2130.873
2128.161
2125.448
2122.736
2120.023
2117.311
2114.598
2111.886
2112.790
2113.694
2114.598
2115.502
2116.406
2117.310
2118.214
2119.118
2120.022
2120.926
2121.830
2122.734
2123.638
2124.542
2125.446
2126.350
2127.254
2128.158
2129.062
2129.966
2130.870
2131.774
2132.678
2133.582
2134.486
2135.390
2136.294
2137.198
2138.102
2139.006
2139.910
2140.814
2141.718
2142.622
2143.526
2144.430
2145.334
2146.238
2147.142
2148.046
2148.950
2149.854
2150.758
2151.662
2152.566
2153.470
2154.374
2155.278
2156.182
2157.086
2157.990
2158.894
2159.798
2160.702
2161.606
2162.510
2163.414
2164.318
2165.222
2166.126
2167.030
2167.934
2168.838
2169.742
2170.646
2171.550
2172.454
2173.358
2174.262
2175.166
2176.070
2176.974
2177.878
2178.782
2179.686
2180.590
2181.494
2182.398
2183.302
2184.206
2185.110
2186.014
2186.918
2187.822
2188.726
2189.630
2190.534
2191.438
2192.342
2193.246
2194.150
2195.054
2195.958
2196.862
2197.766
2198.670
2199.574
2200.478
2201.382
2202.286
2203.190
2204.094
2204.998
2205.902
2206.806
2207.710
2208.614
2209.518
2210.422
2211.326
2212.230
2213.134
2214.038
2214.942
2215.846
2216.750
2217.654
2218.558
2219.462
2220.366
2221.270
2222.174
2223.078
2223.982
2224.886
2225.790
2226.694
2227.598
2228.502
2229.406
2230.310
2231.214
2232.118
2233.022
2233.926
2234.830
2235.734
2236.638
2237.542
2238.446
2239.350
2240.254
2241.158
2242.062
2242.966
2243.870
2244.774
2245.678
2246.582
2247.486
2248.390
2249.294
2250.198
2251.102
2252.006
2252.910
2253.814
2254.718
2255.622
2256.526
2257.430
2258.334
2259.238
2260.142
2261.046
2261.950
2262.854
2263.758
2264.662
2265.566
2266.470
2267.374
2268.278
2269.182
2270.086
2270.990
2271.894
2272.798
2273.702
2274.606
2275.510
2276.414
2277.318
2278.222
2279.126
2280.030
2280.934
2281.838
2282.742
2283.646
2284.550
2285.454
2286.358
2287.262
2288.166
2289.070
2289.974
2290.878
2291.782
2292.686
2291.464
2290.242
2289.020
2287.798
2286.576
2285.354
2284.132
2282.910
2281.688
2280.466
2279.244
2278.022
2276.800
2275.578
2274.356
2273.134
2271.912
2270.690
2269.468
2268.246
2267.024
2265.802
2264.580
2263.358
2262.136
2260.914
2259.692
2258.470
2257.248
2256.026
2254.804
2253.582
2252.360
2251.138
2249.916
2248.694
2247.472
2246.250
2245.028
2243.806
2242.584
2241.362
2240.140
2238.918
2237.696
2236.474
2235.252
2234.030
2232.808
2231.586
2230.364
2229.142
2227.920
2226.698
2225.476
2224.254
2223.032
2221.810
2220.588
2219.366
2218.144
2216.922
2215.700
2214.478
2213.256
2212.034
2210.812
2209.590
2208.368
2207.146
2205.924
2204.702
2203.480
2202.258
2201.036
2199.814
2198.592
2197.370
2196.148
2194.926
2193.704
2192.482
2191.260
2190.038
2188.816
2187.594
2186.372
2185.150
2183.928
2182.706
2181.484
2180.262
2179.040
2177.818
2176.596
2175.374
2174.152
2172.930
2171.708
2170.486
2169.264
2168.042
2166.820
2165.598
2164.376
2163.154
2161.932
2160.710
2159.488
2158.266
2157.044
2155.822
2154.600
2153.378
2152.156
2150.934
2149.712
2148.490
2147.268
2146.046
2144.824
2143.602
2142.380
2141.158
2139.936
2138.714
2137.492
2136.270
2135.048
2133.826
2132.604
2131.382
2130.160
2128.938
2127.716
2126.494
2125.272
2124.050
2122.828
2121.606
2120.384
2119.162
2117.940
2116.718
2115.496
2114.274
2113.052
2111.830
2110.608
2109.386
2108.164
2106.942
2105.720
2104.498
2103.276
2102.054
2100.832
2099.610
2098.388
2097.166
2095.944
2094.722
2093.500
2092.278
2091.056
2089.834
2088.612
2087.390
2086.168
2084.946
2083.724
2082.502
2081.280
2080.058
2078.836
2077.614
2076.392
2075.170
2073.948
2072.726
2071.504
2070.282
2069.060
2067.838
2066.616
2065.394
2064.172
2062.950
2061.728
2060.506
2059.284
2058.062
2056.840
2055.618
2054.396
2053.174
2051.952
2050.730
2049.508
2048.286
2048.970
2049.655
2050.339
2051.024
2051.708
2052.393
2053.077
2053.762
2054.446
2055.131
2055.815
2056.500
2057.184
2057.869
2058.553
2059.238
2059.922
2060.607
2061.291
2061.976
2062.660
2063.345
2064.029
2064.714
2065.398
2066.083
2066.767
2067.452
2068.136
2068.821
2069.505
2070.190
2070.874
2071.559
2072.243
2072.928
2073.612
2074.297
2074.981
2075.666
2076.350
2077.035
2077.719
2078.404
2079.088
2079.773
2080.457
2081.142
2081.826
2082.511
2083.195
2083.880
2084.564
2085.249
2085.933
2086.618
2087.302
2087.987
2088.671
2089.356
2090.040
2090.725
2091.409
2092.094
2092.778
2093.463
2094.147
2094.832
2095.516
2096.201
2096.885
2097.570
2098.254
2098.939
2099.623
2100.308
2100.992
2101.677
2102.361
2103.046
2103.730
2104.415
2105.099
2105.784
2106.468
2107.153
2107.837
2108.522
2109.206
2109.891
2110.575
2111.260
2111.944
2112.629
2113.313
2113.998
2114.682
2115.367
2116.051
2116.736
2117.420
2118.105
2118.789
2119.474
2120.158
2120.843
2121.527
2122.212
2122.896
2123.581
2124.265
2124.950
2125.634
2126.319
2127.003
2127.688
2128.372
2129.057
2129.741
2130.426
2131.110
2131.795
2132.479
2133.164
2133.848
2134.533
2135.217
2135.902
2136.586
2137.271
2137.955
2138.640
2139.324
2140.009
2140.693
2141.378
2142.062
2142.747
2143.431
2144.116
2144.800
2145.485
2146.169
2146.854
2147.538
2148.223
2148.907
2149.592
2150.276
2150.961
2151.645
2152.330
2153.014
2153.699
2154.383
2155.068
2155.752
2156.437
2157.121
2157.806
2158.490
2159.175
2159.859
2160.544
2161.228
2161.913
2162.597
2163.282
2163.966
2164.651
2165.335
2166.020
2166.704
2167.389
2168.073
2168.758
2169.442
2170.127
2170.811
2171.496
2172.180
2172.865
2173.549
2174.234
2174.918
2175.603
2176.287
2176.972
2177.656
2178.341
2179.025
2179.710
2180.394
2181.079
2181.763
2182.448
2183.132
2183.817
2184.501
2185.186
2186.457
2187.728
2188.999
2190.270
2191.541
2192.812
2194.083
2195.354
2196.625
2197.896
2199.167
2200.438
2201.709
2202.980
2204.251
2205.522
2206.793
2208.064
2209.335
2210.606
2211.877
2213.148
2214.419
2215.690
2216.961
2218.232
2219.503
2220.774
2222.045
2223.316
2224.587
2225.858
2227.129
2228.400
2229.671
2230.942
2232.213
2233.484
2234.755
2236.026
2237.297
2238.568
2239.839
2241.110
2242.381
2243.652
2244.923
2246.194
2247.465
2248.736
2250.007
2251.278
2252.549
2253.820
2255.091
2256.362
2257.633
2258.904
2260.175
2261.446
2262.717
2263.988
2265.259
2266.530
2267.801
2269.072
2270.343
2271.614
2272.885
2274.156
2275.427
2276.698
2277.969
2279.240
2280.511
2281.782
2283.053
2284.324
2285.595
2286.866
2288.137
2289.408
2290.679
2291.950
2293.221
2294.492
2295.763
2297.034
2298.305
2299.576
2300.847
2302.118
2303.389
2304.660
2305.931
2307.202
2308.473
2309.744
2311.015
2312.286
2313.557
2314.828
2316.099
2317.370
2318.641
2319.912
2321.183
2322.454
2323.725
2324.996
2326.267
2327.538
2328.809
2330.080
2331.351
2332.622
2333.893
2335.164
2336.435
2337.706
2338.977
2340.248
2341.519
2342.790
2344.061
2345.332
2346.603
2347.874
2349.145
2350.416
2351.687
2352.958
2354.229
2355.500
2356.771
2358.042
2359.313
2360.584
2361.855
2363.126
2364.397
2365.668
2366.939
2368.210
2369.481
2370.752
2372.023
2373.294
2374.565
2375.836
2377.107
2378.378
2379.649
2380.920
2382.191
2383.462
2384.733
2386.004
2387.275
2388.546
2389.817
2391.088
2392.359
2393.630
2394.901
2396.172
2397.443
2398.714
2399.985
2401.256
2402.527
2403.798
2405.069
2406.340
2407.611
2408.882
2410.153
2411.424
2412.695
2413.966
2415.237
2416.508
2417.779
2419.050
2420.321
2421.592
2422.863
2424.134
2425.405
2426.676
2427.947
2429.218
2430.489
2431.760
2433.031
2434.302
2435.573
2436.844
2438.115
2439.386
2438.652
2437.919
2437.185
2436.452
2435.718
2434.985
2434.251
2433.518
2432.784
2432.051
2431.317
2430.584
2429.850
2429.117
2428.383
2427.650
2426.916
2426.183
2425.449
2424.716
2423.982
2423.249
2422.515
2421.782
2421.048
2420.315
2419.581
2418.848
2418.114
2417.381
2416.647
2415.914
2415.180
2414.447
2413.713
2412.980
2412.246
2411.513
2410.779
2410.046
2409.312
2408.579
2407.845
2407.112
2406.378
2405.645
2404.911
2404.178
2403.444
2402.711
2401.977
2401.244
2400.510
2399.777
2399.043
2398.310
2397.576
2396.843
2396.109
2395.376
2394.642
2393.909
2393.175
2392.442
2391.708
2390.975
2390.241
2389.508
2388.774
2388.041
2387.307
2386.574
2385.840
2385.107
2384.373
2383.640
2382.906
2382.173
2381.439
2380.706
2379.972
2379.239
2378.505
2377.772
2377.038
2376.305
2375.571
2374.838
