111.932
111.932
111.932
111.932
111.932
111.932
111.932
111.932
111.932
111.932
111.932
111.932
111.932
111.932
111.932
111.932
111.932
111.932
111.932
111.932
111.932
111.932
111.932
111.932
111.932
111.932
111.932
111.932
111.932
111.932
111.932
111.932
111.932
111.932
111.932
111.932
111.932
111.932
111.932
111.932
111.932
111.932
111.932
111.932
111.932
111.932
111.932
111.932
111.932
111.932
111.932
111.932
111.932
111.932
111.932
111.932
111.932
111.932
111.932
111.932
111.932
111.932
111.932
111.932
111.932
111.932
111.932
111.932
111.932
111.932
111.932
111.932
111.932
111.932
111.932
111.932
111.932
111.932
111.932
111.932
111.932
111.932
111.932
111.932
111.932
111.932
111.932
111.932
111.932
111.932
111.932
111.932
111.932
111.932
111.932
111.932
111.932
111.932
111.932
111.932
111.932
111.932
111.932
111.932
111.932
111.932
111.932
111.932
111.932
111.932
111.932
111.932
111.932
111.932
111.932
111.932
111.932
111.932
111.932
111.932
111.932
111.932
111.932
111.932
111.932
111.932
111.932
111.932
111.932
111.932
111.932
111.932
111.932
111.932
111.932
111.932
111.932
111.932
111.932
111.932
111.932
111.932
111.932
111.932
111.932
111.932
111.932
111.932
111.932
111.932
111.932
111.932
111.932
111.932
111.932
111.932
111.932
111.932
111.932
111.932
111.932
111.932
111.932
111.932
111.932
111.932
111.932
111.932
111.932
111.932
111.932
111.932
111.932
111.932
111.932
111.932
111.932
111.932
111.932
111.932
111.932
111.932
111.932
111.932
111.932
111.932
111.932
111.932
111.932
111.932
111.932
111.932
111.932
111.932
111.932
111.932
111.932
111.932
111.932
111.932
111.932
111.932
111.932
111.932
111.932
111.932
111.932
111.932
111.932
111.932
111.932
111.932
111.932
111.932
111.932
111.932
111.932
111.932
111.932
111.932
111.932
102.132
102.157
102.181
102.206
102.230
102.255
102.279
102.304
102.328
102.353
102.377
102.402
102.426
102.451
102.475
102.500
102.524
102.549
102.573
102.598
102.622
102.647
102.671
102.696
102.720
102.745
102.769
102.794
102.818
102.843
102.867
102.892
102.916
102.941
102.965
102.990
103.014
103.039
103.063
103.088
103.112
103.137
103.161
103.186
103.210
103.235
103.259
103.284
103.308
103.333
103.357
103.382
103.406
103.431
103.455
103.480
103.504
103.529
103.553
103.578
103.602
103.627
103.651
103.676
103.700
103.725
103.749
103.774
103.798
103.823
103.847
103.872
103.896
103.921
103.945
103.970
103.994
104.019
104.043
104.068
104.092
104.117
104.141
104.166
104.190
104.215
104.239
104.264
104.288
104.313
104.337
104.362
104.386
104.411
104.435
104.460
104.484
104.509
104.533
104.558
104.582
104.607
104.631
104.656
104.680
104.705
104.729
104.754
104.778
104.803
104.827
104.852
104.876
104.901
104.925
104.950
104.974
104.999
105.023
105.048
105.072
105.097
105.121
105.146
105.170
105.195
105.219
105.244
105.268
105.293
105.317
105.342
105.366
105.391
105.415
105.440
105.464
105.489
105.513
105.538
105.562
105.587
105.611
105.636
105.660
105.685
105.709
105.734
105.758
105.783
105.807
105.832
105.856
105.881
105.905
105.930
105.954
105.979
106.003
106.028
106.052
106.077
106.101
106.126
106.150
106.175
106.199
106.224
106.248
106.273
106.297
106.322
106.346
106.371
106.395
106.420
106.444
106.469
106.493
106.518
106.542
106.567
106.591
106.616
106.640
106.665
106.689
106.714
106.738
106.763
106.787
106.812
106.836
106.861
106.885
106.910
106.934
106.959
106.983
107.008
107.032
107.032
107.032
107.032
107.032
107.032
107.032
107.032
107.032
107.032
107.032
107.032
107.032
107.032
107.032
107.032
107.032
107.032
107.032
107.032
107.032
107.032
107.032
107.032
107.032
107.032
107.032
107.032
107.032
107.032
107.032
107.032
107.032
107.032
107.032
107.032
107.032
107.032
107.032
107.032
107.032
107.032
107.032
107.032
107.032
107.032
107.032
107.032
107.032
107.032
107.032
107.032
107.032
107.032
107.032
107.032
107.032
107.032
107.032
107.032
107.032
107.032
107.032
107.032
107.032
107.032
107.032
107.032
107.032
107.032
107.032
107.032
107.032
107.032
107.032
107.032
107.032
107.032
107.032
107.032
107.032
107.032
107.032
107.032
107.032
107.032
107.032
107.032
107.032
107.032
107.032
107.032
107.032
107.032
107.032
107.032
107.032
107.032
107.032
107.032
107.032
107.032
107.032
107.032
107.032
107.032
107.032
107.032
107.032
107.032
107.032
107.032
107.032
107.032
107.032
107.032
107.032
107.032
107.032
107.032
107.032
107.032
107.032
107.032
107.032
107.032
107.032
107.032
107.032
107.032
107.032
107.032
107.032
107.032
107.032
107.032
107.032
107.032
107.032
107.032
107.032
107.032
107.032
107.032
107.032
107.032
107.032
107.032
107.032
107.032
107.032
107.032
107.032
107.032
107.032
107.032
107.032
107.032
107.032
107.032
107.032
107.032
107.032
107.032
107.032
107.032
107.032
107.032
107.032
107.032
107.032
107.032
107.032
107.032
107.032
107.032
107.032
107.032
107.032
107.032
107.032
107.032
107.032
107.032
107.032
107.032
107.032
107.032
107.032
107.032
107.032
107.032
107.032
107.032
107.032
107.032
107.032
107.032
107.032
107.032
326.932
329.914
332.895
335.877
338.858
341.840
344.821
347.803
350.784
353.766
356.747
359.729
362.710
365.692
368.673
371.655
374.636
377.618
380.599
383.581
386.562
389.544
392.525
395.507
398.488
401.470
404.451
407.433
410.414
413.396
416.377
419.359
422.340
425.322
428.303
431.285
434.266
437.248
440.229
443.211
446.192
449.174
452.155
455.137
458.118
461.100
464.081
467.063
470.044
473.026
476.007
478.989
481.970
484.952
487.933
490.915
493.896
496.878
499.859
502.841
505.822
508.804
511.785
514.767
517.748
520.730
523.711
526.693
529.674
532.656
535.637
538.619
541.600
544.582
547.563
550.545
553.526
556.508
559.489
562.471
565.452
568.434
571.415
574.397
577.378
580.360
583.341
586.323
589.304
592.286
595.267
598.249
601.230
604.212
607.193
610.175
613.156
616.138
619.119
622.101
625.082
628.064
631.045
634.027
637.008
639.990
642.971
645.953
648.934
651.916
654.897
657.879
660.860
663.842
666.823
669.805
672.786
675.768
678.749
681.731
684.712
687.694
690.675
693.657
696.638
699.620
702.601
705.583
708.564
711.546
714.527
717.509
720.490
723.472
726.453
729.435
732.416
735.398
738.379
741.361
744.342
747.324
750.305
753.287
756.268
759.250
762.231
765.213
768.194
771.176
774.157
777.139
780.120
783.102
786.083
789.065
792.046
795.028
798.009
800.991
803.972
806.954
809.935
812.917
815.898
818.880
821.861
824.843
827.824
830.806
833.787
836.769
839.750
842.732
845.713
848.695
851.676
854.658
857.639
860.621
863.602
866.584
869.565
872.547
875.528
878.510
881.491
884.473
887.454
890.436
893.417
896.399
899.380
902.362
905.343
908.325
911.306
914.288
917.269
920.251
923.232
925.065
926.898
928.731
930.564
932.397
934.230
936.063
937.896
939.729
941.562
943.395
945.228
947.061
948.894
950.727
952.560
954.393
956.226
958.059
959.892
961.725
963.558
965.391
967.224
969.057
970.890
972.723
974.556
976.389
978.222
980.055
981.888
983.721
985.554
987.387
989.220
991.053
992.886
994.719
996.552
998.385
1000.218
1002.051
1003.884
1005.717
1007.550
1009.383
1011.216
1013.049
1014.882
1016.715
1018.548
1020.381
1022.214
1024.047
1025.880
1027.713
1029.546
1031.379
1033.212
1035.045
1036.878
1038.711
1040.544
1042.377
1044.210
1046.043
1047.876
1049.709
1051.542
1053.375
1055.208
1057.041
1058.874
1060.707
1062.540
1064.373
1066.206
1068.039
1069.872
1071.705
1073.538
1075.371
1077.204
1079.037
1080.870
1082.703
1084.536
1086.369
1088.202
1090.035
1091.868
1093.701
1095.534
1097.367
1099.200
1101.033
1102.866
1104.699
1106.532
1108.365
1110.198
1112.031
1113.864
1115.697
1117.530
1119.363
1121.196
1123.029
1124.862
1126.695
1128.528
1130.361
1132.194
1134.027
1135.860
1137.693
1139.526
1141.359
1143.192
1145.025
1146.858
1148.691
1150.524
1152.357
1154.190
1156.023
1157.856
1159.689
1161.522
1163.355
1165.188
1167.021
1168.854
1170.687
1172.520
1174.353
1176.186
1178.019
1179.852
1181.685
1183.518
1185.351
1187.184
1189.017
1190.850
1192.683
1194.516
1196.349
1198.182
1200.015
1201.848
1203.681
1205.514
1207.347
1209.180
1211.013
1212.846
1214.679
1216.512
1218.345
1220.178
1222.011
1223.844
1225.677
1227.510
1229.343
1231.176
1233.009
1234.842
1236.675
1238.508
1240.341
1242.174
1244.007
1245.840
1247.673
1249.506
1251.339
1253.172
1255.005
1256.838
1258.671
1260.504
1262.337
1264.170
1266.003
1267.836
1269.669
1271.502
1273.335
1275.168
1277.001
1278.834
1280.667
1282.500
1284.333
1286.166
1287.999
1289.832
1295.551
1301.269
1306.988
1312.706
1318.425
1324.143
1329.862
1335.580
1341.299
1347.017
1352.736
1358.454
1364.173
1369.891
1375.610
1381.328
1387.047
1392.765
1398.484
1404.202
1409.921
1415.639
1421.358
1427.076
1432.795
1438.513
1444.232
1449.950
1455.669
1461.387
1467.106
1472.824
1478.543
1484.261
1489.980
1495.698
1501.417
1507.135
1512.854
1518.572
1524.291
1530.009
1535.728
1541.446
1547.165
1552.883
1558.602
1564.320
1570.039
1575.757
1581.476
1587.194
1592.913
1598.631
1604.350
1610.068
1615.787
1621.505
1627.224
1632.942
1638.661
1644.379
1650.098
1655.816
1661.535
1667.253
1672.972
1678.690
1684.409
1690.127
1695.846
1701.564
1707.283
1713.001
1718.720
1724.438
1730.157
1735.875
1741.594
1747.312
1753.031
1758.749
1764.468
1770.186
1775.905
1781.623
1787.342
1793.060
1798.779
1804.497
1810.216
1815.934
1821.653
1827.371
1833.090
1838.808
1844.527
1850.245
1855.964
1861.682
1867.401
1873.119
1878.838
1884.556
1890.275
1895.993
1901.712
1907.430
1913.149
1918.867
1924.586
1930.304
1936.023
1941.741
1947.460
1953.178
1958.897
1964.615
1970.334
1976.052
1981.771
1987.489
1993.208
1998.926
2004.645
2010.363
2016.082
2021.800
2027.519
2033.237
2038.956
2044.674
2050.393
2056.111
2061.830
2067.548
2073.267
2078.985
2084.704
2090.422
2096.141
2101.859
2107.578
2113.296
2119.015
2124.733
2130.452
2136.170
2141.889
2147.607
2153.326
2159.044
2164.763
2170.481
2176.200
2181.918
2187.637
2193.355
2199.074
2204.792
2210.511
2216.229
2221.948
2227.666
2233.385
2239.103
2244.822
2250.540
2256.259
2261.977
2267.696
2273.414
2279.133
2284.851
2290.570
2296.288
2302.007
2307.725
2313.444
2319.162
2324.881
2330.599
2336.318
2342.036
2347.755
2353.473
2359.192
2364.910
2370.629
2376.347
2382.066
2387.784
2393.503
2399.221
2404.940
2410.658
2416.377
2422.095
2427.814
2433.532
2429.866
2426.200
2422.534
2418.868
2415.202
2411.536
2407.870
2404.204
2400.538
2396.872
2393.206
2389.540
2385.874
2382.208
2378.542
2374.876
2371.210
2367.544
2363.878
2360.212
2356.546
2352.880
2349.214
2345.548
2341.882
2338.216
2334.550
2330.884
2327.218
2323.552
2319.886
2316.220
2312.554
2308.888
2305.222
2301.556
2297.890
2294.224
2290.558
2286.892
2283.226
2279.560
2275.894
2272.228
2268.562
2264.896
2261.230
2257.564
2253.898
2250.232
2246.566
2242.900
2239.234
2235.568
2231.902
2228.236
2224.570
2220.904
2217.238
2213.572
2209.906
2206.240
2202.574
2198.908
2195.242
2191.576
2187.910
2184.244
2180.578
2176.912
2173.246
2169.580
2165.914
2162.248
2158.582
2154.916
2151.250
2147.584
2143.918
2140.252
2136.586
2132.920
2129.254
2125.588
2121.922
2118.256
2114.590
2110.924
2107.258
2103.592
2099.926
2096.260
2092.594
2088.928
2085.262
2081.596
2077.930
2074.264
2070.598
2066.932
2063.266
2059.600
2055.934
2052.268
2048.602
2044.936
2041.270
2037.604
2033.938
2030.272
2026.606
2022.940
2019.274
2015.608
2011.942
2008.276
2004.610
2000.944
1997.278
1993.612
1989.946
1986.280
1982.614
1978.948
1975.282
1971.616
1967.950
1964.284
1960.618
1956.952
1953.286
1949.620
1945.954
1942.288
1938.622
1934.956
1931.290
1927.624
1923.958
1920.292
1916.626
1912.960
1909.294
1905.628
1901.962
1898.296
1894.630
1890.964
1887.298
1883.632
1879.966
1876.300
1872.634
1868.968
1865.302
1861.636
1857.970
1854.304
1850.638
1846.972
1843.306
1839.640
1835.974
1832.308
1828.642
1824.976
1821.310
1817.644
1813.978
1810.312
1806.646
1802.980
1799.314
1795.648
1791.982
1788.316
1784.650
1780.984
1777.318
1773.652
1769.986
1766.320
1762.654
1758.988
1755.322
1751.656
1747.990
1744.324
1740.658
1736.992
1733.326
1729.660
1725.994
1722.328
1718.662
1714.996
1711.330
1707.664
1703.998
1700.332
1702.361
1704.389
1706.418
1708.446
1710.475
1712.503
1714.532
1716.560
1718.589
1720.617
1722.646
1724.674
1726.703
1728.731
1730.760
1732.788
1734.817
1736.845
1738.874
1740.902
1742.931
1744.959
1746.988
1749.016
1751.045
1753.073
1755.102
1757.130
1759.159
1761.187
1763.216
1765.244
1767.273
1769.301
1771.330
1773.358
1775.387
1777.415
1779.444
1781.472
1783.501
1785.529
1787.558
1789.586
1791.615
1793.643
1795.672
1797.700
1799.729
1801.757
1803.786
1805.814
1807.843
1809.871
1811.900
1813.928
1815.957
1817.985
1820.014
1822.042
1824.071
1826.099
1828.128
1830.156
1832.185
1834.213
1836.242
1838.270
1840.299
1842.327
1844.356
1846.384
1848.413
1850.441
1852.470
1854.498
1856.527
1858.555
1860.584
1862.612
1864.641
1866.669
1868.698
1870.726
1872.755
1874.783
1876.812
1878.840
1880.869
1882.897
1884.926
1886.954
1888.983
1891.011
1893.040
1895.068
1897.097
1899.125
1901.154
1903.182
1905.211
1907.239
1909.268
1911.296
1913.325
1915.353
1917.382
1919.410
1921.439
1923.467
1925.496
1927.524
1929.553
1931.581
1933.610
1935.638
1937.667
1939.695
1941.724
1943.752
1945.781
1947.809
1949.838
1951.866
1953.895
1955.923
1957.952
1959.980
1962.009
1964.037
1966.066
1968.094
1970.123
1972.151
1974.180
1976.208
1978.237
1980.265
1982.294
1984.322
1986.351
1988.379
1990.408
1992.436
1994.465
1996.493
1998.522
2000.550
2002.579
2004.607
2006.636
2008.664
2010.693
2012.721
2014.750
2016.778
2018.807
2020.835
2022.864
2024.892
2026.921
2028.949
2030.978
2033.006
2035.035
2037.063
2039.092
2041.120
2043.149
2045.177
2047.206
2049.234
2051.263
2053.291
2055.320
2057.348
2059.377
2061.405
2063.434
2065.462
2067.491
2069.519
2071.548
2073.576
2075.605
2077.633
2079.662
2081.690
2083.719
2085.747
2087.776
2089.804
2091.833
2093.861
2095.890
2097.918
2099.947
2101.975
2104.004
2106.032
2107.107
2108.182
2109.257
2110.332
2111.407
2112.482
2113.557
2114.632
2115.707
2116.782
2117.857
2118.932
2120.007
2121.082
2122.157
2123.232
2124.307
2125.382
2126.457
2127.532
2128.607
2129.682
2130.757
2131.832
2132.907
2133.982
2135.057
2136.132
2137.207
2138.282
2139.357
2140.432
2141.507
2142.582
2143.657
2144.732
2145.807
2146.882
2147.957
2149.032
2150.107
2151.182
2152.257
2153.332
2154.407
2155.482
2156.557
2157.632
2158.707
2159.782
2160.857
2161.932
2163.007
2164.082
2165.157
2166.232
2167.307
2168.382
2169.457
2170.532
2171.607
2172.682
2173.757
2174.832
2175.907
2176.982
2178.057
2179.132
2180.207
2181.282
2182.357
2183.432
2184.507
2185.582
2186.657
2187.732
2188.807
2189.882
2190.957
2192.032
2193.107
2194.182
2195.257
2196.332
2197.407
2198.482
2199.557
2200.632
2201.707
2202.782
2203.857
2204.932
2206.007
2207.082
2208.157
2209.232
2210.307
2211.382
2212.457
2213.532
2214.607
2215.682
2216.757
2217.832
2218.907
2219.982
2221.057
2222.132
2223.207
2224.282
2225.357
2226.432
2227.507
2228.582
2229.657
2230.732
2231.807
2232.882
2233.957
2235.032
2236.107
2237.182
2238.257
2239.332
2240.407
2241.482
2242.557
2243.632
2244.707
2245.782
2246.857
2247.932
2249.007
2250.082
2251.157
2252.232
2253.307
2254.382
2255.457
2256.532
2257.607
2258.682
2259.757
2260.832
2261.907
2262.982
2264.057
2265.132
2266.207
2267.282
2268.357
2269.432
2270.507
2271.582
2272.657
2273.732
2274.807
2275.882
2276.957
2278.032
2279.107
2280.182
2281.257
2282.332
2283.407
2284.482
2285.557
2286.632
2287.707
2288.782
2289.857
2290.932
2292.007
2293.082
2294.157
2295.232
2296.307
2297.382
2298.457
2299.532
2300.607
2301.682
2302.757
2303.832
2304.907
2305.982
2307.057
2308.132
2309.207
2310.282
2311.357
2312.432
2313.507
2314.582
2315.657
2316.732
2317.807
2318.882
2319.957
2321.032
2322.792
2324.551
2326.311
2328.070
2329.830
2331.589
2333.349
2335.108
2336.868
2338.627
2340.387
2342.146
2343.906
2345.665
2347.425
2349.184
2350.944
2352.703
2354.463
2356.222
2357.982
2359.741
2361.501
2363.260
2365.020
2366.779
2368.539
2370.298
2372.058
2373.817
2375.577
2377.336
2379.096
2380.855
2382.615
2384.374
2386.134
2387.893
2389.653
2391.412
2393.172
2394.931
2396.691
2398.450
2400.210
2401.969
2403.729
2405.488
2407.248
2409.007
2410.767
2412.526
2414.286
2416.045
2417.805
2419.564
2421.324
2423.083
2424.843
2426.602
2428.362
2430.121
2431.881
2433.640
2435.400
2437.159
2438.919
2440.678
2442.438
2444.197
2445.957
2447.716
2449.476
2451.235
2452.995
2454.754
2456.514
2458.273
2460.033
2461.792
2463.552
2465.311
2467.071
2468.830
2470.590
2472.349
2474.109
2475.868
2477.628
2479.387
2481.147
2482.906
2484.666
2486.425
2488.185
2489.944
2491.704
2493.463
2495.223
2496.982
2498.742
2500.501
2502.261
2504.020
2505.780
2507.539
2509.299
2511.058
2512.818
2514.577
2516.337
2518.096
2519.856
2521.615
2523.375
2525.134
2526.894
2528.653
2530.413
2532.172
2533.932
2535.691
2537.451
2539.210
2540.970
2542.729
2544.489
2546.248
2548.008
2549.767
2551.527
2553.286
2555.046
2556.805
2558.565
2560.324
2562.084
2563.843
2565.603
2567.362
2569.122
2570.881
2572.641
2574.400
2576.160
2577.919
2579.679
2581.438
2583.198
2584.957
2586.717
2588.476
2590.236
2591.995
2593.755
2595.514
2597.274
2599.033
2600.793
2602.552
2604.312
2606.071
2607.831
2609.590
2611.350
2613.109
2614.869
2616.628
2618.388
2620.147
2621.907
2623.666
2625.426
2627.185
2628.945
2630.704
2632.464
2634.223
