87.712
87.712
87.712
87.712
87.712
87.712
87.712
87.712
87.712
87.712
87.712
87.712
87.712
87.712
87.712
87.712
87.712
87.712
87.712
87.712
87.712
87.712
87.712
87.712
87.712
87.712
87.712
87.712
87.712
87.712
87.712
87.712
87.712
87.712
87.712
87.712
87.712
87.712
87.712
87.712
87.712
87.712
87.712
87.712
87.712
87.712
87.712
87.712
87.712
87.712
87.712
87.712
87.712
87.712
87.712
87.712
87.712
87.712
87.712
87.712
87.712
87.712
87.712
87.712
87.712
87.712
87.712
87.712
87.712
87.712
87.712
87.712
87.712
87.712
87.712
87.712
87.712
87.712
87.712
87.712
87.712
87.712
87.712
87.712
87.712
87.712
87.712
87.712
87.712
87.712
87.712
87.712
87.712
87.712
87.712
87.712
87.712
87.712
87.712
87.712
87.712
87.712
87.712
87.712
87.712
87.712
87.712
87.712
87.712
87.712
87.712
87.712
87.712
87.712
87.712
87.712
87.712
87.712
87.712
87.712
87.712
87.712
87.712
87.712
87.712
87.712
87.712
87.712
87.712
87.712
87.712
87.712
87.712
87.712
87.712
87.712
87.712
87.712
87.712
87.712
87.712
87.712
87.712
87.712
87.712
87.712
87.712
87.712
87.712
87.712
87.712
87.712
87.712
87.712
87.712
87.712
87.712
87.712
87.712
87.712
87.712
87.712
87.712
87.712
87.712
87.712
87.712
87.712
87.712
87.712
87.712
87.712
87.712
87.712
87.712
87.712
87.712
87.712
87.712
87.712
87.712
87.712
87.712
87.712
87.712
87.712
87.712
87.712
87.712
87.712
87.712
87.712
87.712
87.712
87.712
87.712
87.712
87.712
87.712
87.712
87.712
87.712
87.712
87.712
87.712
87.712
87.712
87.712
87.712
87.712
87.712
87.712
87.712
87.712
87.712
87.712
87.712
87.712
87.712
87.712
87.712
87.712
87.712
87.712
87.712
87.712
87.712
87.712
87.712
87.712
87.712
87.712
87.712
87.712
87.712
87.712
87.712
87.712
87.712
87.712
87.712
87.712
87.712
87.712
87.712
87.712
87.712
87.712
87.712
87.712
87.712
87.712
87.712
87.712
87.712
87.712
87.712
87.712
87.712
87.712
87.712
87.712
87.712
87.712
87.712
87.712
87.712
87.712
87.712
87.712
87.712
87.712
87.712
87.712
87.712
87.712
87.712
87.712
87.712
87.712
87.712
87.712
87.712
87.712
87.712
87.712
87.712
87.712
87.712
87.712
87.712
87.712
87.712
87.712
87.712
87.712
87.712
87.712
87.712
87.712
87.712
87.712
87.712
87.712
87.712
87.712
87.712
87.712
87.712
87.712
87.712
87.712
87.712
87.712
87.712
87.712
87.712
87.712
87.712
87.712
87.712
87.712
87.712
87.712
87.712
87.712
87.712
87.712
87.712
87.712
87.712
87.712
87.712
87.712
87.712
87.712
87.712
87.712
87.712
87.712
87.712
87.712
87.712
87.712
87.712
87.712
87.712
87.712
87.712
87.712
87.712
87.712
87.712
87.712
87.712
87.712
87.712
87.712
87.712
87.712
87.712
87.712
87.712
87.712
87.712
87.712
87.712
87.712
87.712
87.712
87.712
87.712
87.712
87.712
87.712
87.712
87.712
87.712
87.712
87.712
87.712
87.712
87.712
87.712
87.712
87.712
87.712
87.712
87.712
87.712
87.712
87.712
87.712
87.712
87.712
87.712
87.712
87.712
87.712
87.712
87.712
87.712
87.712
87.712
87.712
87.712
87.712
87.712
87.712
87.712
87.712
87.712
87.712
87.712
87.712
87.712
87.712
87.712
87.712
87.712
87.712
87.712
87.712
87.712
87.712
87.712
87.712
87.712
87.712
87.712
87.712
87.712
87.712
87.712
87.712
87.712
87.712
87.712
87.712
87.712
87.712
87.712
87.712
87.712
87.712
87.712
87.712
87.712
87.712
87.712
87.712
87.712
87.712
87.712
87.712
87.712
87.712
87.712
87.712
87.712
87.712
87.712
87.712
87.712
87.712
87.712
87.712
87.712
87.712
87.712
87.712
87.712
87.712
87.712
87.712
87.712
87.712
87.712
87.712
87.712
87.712
87.712
87.712
87.712
87.712
87.712
87.712
87.712
87.712
87.712
87.712
87.712
87.712
87.712
87.712
87.712
87.712
87.712
87.712
87.712
87.712
87.712
87.712
87.712
87.712
87.712
87.712
87.712
87.712
87.712
87.712
87.712
87.712
87.712
87.712
87.712
87.712
87.712
87.712
87.712
87.712
87.712
87.712
87.712
87.712
87.712
87.712
87.712
87.712
87.712
87.712
87.712
87.712
87.712
87.712
87.712
87.712
87.712
87.712
87.712
87.712
87.712
87.712
87.712
87.712
87.712
87.712
87.712
87.712
87.712
87.712
87.712
87.712
87.712
87.712
87.712
87.712
87.712
87.712
87.712
87.712
87.712
87.712
87.712
87.712
87.712
87.712
87.712
87.712
87.712
87.712
87.712
87.712
87.712
87.712
87.712
87.712
87.712
87.712
87.712
87.712
87.712
87.712
87.712
87.712
87.712
87.712
87.712
87.712
87.712
87.712
87.712
87.712
87.712
87.712
87.712
87.712
87.712
87.712
87.712
87.712
87.712
87.712
87.712
87.712
87.712
87.712
87.712
87.712
87.712
87.712
87.712
87.712
87.712
87.712
87.712
87.712
87.712
87.712
87.712
87.712
87.712
87.712
87.712
87.712
87.712
87.712
87.712
87.712
87.712
87.712
87.712
87.712
87.712
87.712
87.712
87.712
87.712
87.712
87.712
87.712
87.712
87.712
87.712
87.712
87.712
87.712
87.712
87.712
87.712
87.712
87.712
87.712
87.712
87.712
87.712
87.712
87.712
87.712
87.712
87.712
87.712
87.712
87.712
87.712
87.712
87.712
87.712
87.712
87.712
87.712
87.712
87.712
87.712
87.712
87.712
87.712
87.712
87.712
87.712
87.712
87.712
87.712
87.712
87.712
87.712
87.712
87.712
87.712
87.712
87.712
87.712
87.712
87.712
87.712
87.712
87.712
87.712
87.712
87.712
87.712
87.712
87.712
87.712
87.712
87.712
87.712
87.712
87.712
87.712
87.712
87.712
87.712
87.712
87.712
87.712
87.712
87.712
87.712
87.712
87.712
87.712
87.712
87.712
87.712
87.712
87.712
87.712
87.908
88.103
88.299
88.494
88.690
88.885
89.081
89.276
89.472
89.667
89.863
90.058
90.254
90.449
90.645
90.840
91.036
91.231
91.427
91.622
91.818
92.013
92.209
92.404
92.600
92.795
92.991
93.186
93.382
93.577
93.773
93.968
94.164
94.359
94.555
94.750
94.946
95.141
95.337
95.532
95.728
95.923
96.119
96.314
96.510
96.705
96.901
97.096
97.292
97.487
97.683
97.878
98.074
98.269
98.465
98.660
98.856
99.051
99.247
99.442
99.638
99.833
100.029
100.224
100.420
100.615
100.811
101.006
101.202
101.397
101.593
101.788
101.984
102.179
102.375
102.570
102.766
102.961
103.157
103.352
103.548
103.743
103.939
104.134
104.330
104.525
104.721
104.916
105.112
105.307
105.503
105.698
105.894
106.089
106.285
106.480
106.676
106.871
107.067
107.262
107.458
107.653
107.849
108.044
108.240
108.435
108.631
108.826
109.022
109.217
109.413
109.608
109.804
109.999
110.195
110.390
110.586
110.781
110.977
111.172
111.368
111.563
111.759
111.954
112.150
112.345
112.541
112.736
112.932
113.127
113.323
113.518
113.714
113.909
114.105
114.300
114.496
114.691
114.887
115.082
115.278
115.473
115.669
115.864
116.060
116.255
116.451
116.646
116.842
117.037
117.233
117.428
117.624
117.819
118.015
118.210
118.406
118.601
118.797
118.992
119.188
119.383
119.579
119.774
119.970
120.165
120.361
120.556
120.752
120.947
121.143
121.338
121.534
121.729
121.925
122.120
122.316
122.511
122.707
122.902
123.098
123.293
123.489
123.684
123.880
124.075
124.271
124.466
124.662
124.857
125.053
125.248
125.444
125.639
125.835
126.030
126.226
126.421
126.617
1749.412
1749.168
1748.924
1748.680
1748.436
1748.192
1747.948
1747.704
1747.460
1747.216
1746.972
1746.728
1746.484
1746.240
1745.996
1745.752
1745.508
1745.264
1745.020
1744.776
1744.532
1744.288
1744.044
1743.800
1743.556
1743.312
1743.068
1742.824
1742.580
1742.336
1742.092
1741.848
1741.604
1741.360
1741.116
1740.872
1740.628
1740.384
1740.140
1739.896
1739.652
1739.408
1739.164
1738.920
1738.676
1738.432
1738.188
1737.944
1737.700
1737.456
1737.212
1736.968
1736.724
1736.480
1736.236
1735.992
1735.748
1735.504
1735.260
1735.016
1734.772
1734.528
1734.284
1734.040
1733.796
1733.552
1733.308
1733.064
1732.820
1732.576
1732.332
1732.088
1731.844
1731.600
1731.356
1731.112
1730.868
1730.624
1730.380
1730.136
1729.892
1729.648
1729.404
1729.160
1728.916
1728.672
1728.428
1728.184
1727.940
1727.696
1727.452
1727.208
1726.964
1726.720
1726.476
1726.232
1725.988
1725.744
1725.500
1725.256
1725.012
1724.768
1724.524
1724.280
1724.036
1723.792
1723.548
1723.304
1723.060
1722.816
1722.572
1722.328
1722.084
1721.840
1721.596
1721.352
1721.108
1720.864
1720.620
1720.376
1720.132
1719.888
1719.644
1719.400
1719.156
1718.912
1718.668
1718.424
1718.180
1717.936
1717.692
1717.448
1717.204
1716.960
1716.716
1716.472
1716.228
1715.984
1715.740
1715.496
1715.252
1715.008
1714.764
1714.520
1714.276
1714.032
1713.788
1713.544
1713.300
1713.056
1712.812
1712.568
1712.324
1712.080
1711.836
1711.592
1711.348
1711.104
1710.860
1710.616
1710.372
1710.128
1709.884
1709.640
1709.396
1709.152
1708.908
1708.664
1708.420
1708.176
1707.932
1707.688
1707.444
1707.200
1706.956
1706.712
1706.468
1706.224
1705.980
1705.736
1705.492
1705.248
1705.004
1704.760
1704.516
1704.272
1704.028
1703.784
1703.540
1703.296
1703.052
1702.808
1702.564
1702.320
1702.076
1701.832
1701.588
1701.344
1701.100
1700.856
1700.612
1702.836
1705.059
1707.283
1709.506
1711.730
1713.953
1716.177
1718.400
1720.624
1722.847
1725.071
1727.294
1729.518
1731.741
1733.965
1736.188
1738.412
1740.635
1742.859
1745.082
1747.306
1749.529
1751.753
1753.976
1756.200
1758.423
1760.647
1762.870
1765.094
1767.317
1769.541
1771.764
1773.988
1776.211
1778.435
1780.658
1782.882
1785.105
1787.329
1789.552
1791.776
1793.999
1796.223
1798.446
1800.670
1802.893
1805.117
1807.340
1809.564
1811.787
1814.011
1816.234
1818.458
1820.681
1822.905
1825.128
1827.352
1829.575
1831.799
1834.022
1836.246
1838.469
1840.693
1842.916
1845.140
1847.363
1849.587
1851.810
1854.034
1856.257
1858.481
1860.704
1862.928
1865.151
1867.375
1869.598
1871.822
1874.045
1876.269
1878.492
1880.716
1882.939
1885.163
1887.386
1889.610
1891.833
1894.057
1896.280
1898.504
1900.727
1902.951
1905.174
1907.398
1909.621
1911.845
1914.068
1916.292
1918.515
1920.739
1922.962
1925.186
1927.409
1929.633
1931.856
1934.080
1936.303
1938.527
1940.750
1942.974
1945.197
1947.421
1949.644
1951.868
1954.091
1956.315
1958.538
1960.762
1962.985
1965.209
1967.432
1969.656
1971.879
1974.103
1976.326
1978.550
1980.773
1982.997
1985.220
1987.444
1989.667
1991.891
1994.114
1996.338
1998.561
2000.785
2003.008
2005.232
2007.455
2009.679
2011.902
2014.126
2016.349
2018.573
2020.796
2023.020
2025.243
2027.467
2029.690
2031.914
2034.137
2036.361
2038.584
2040.808
2043.031
2045.255
2047.478
2049.702
2051.925
2054.149
2056.372
2058.596
2060.819
2063.043
2065.266
2067.490
2069.713
2071.937
2074.160
2076.384
2078.607
2080.831
2083.054
2085.278
2087.501
2089.725
2091.948
2094.172
2096.395
2098.619
2100.842
2103.066
2105.289
2107.513
2109.736
2111.960
2114.183
2116.407
2118.630
2120.854
2123.077
2125.301
2127.524
2129.748
2131.971
2134.195
2136.418
2138.642
2140.865
2143.089
2145.312
2144.530
2143.748
2142.966
2142.184
2141.402
2140.620
2139.838
2139.056
2138.274
2137.492
2136.710
2135.928
2135.146
2134.364
2133.582
2132.800
2132.018
2131.236
2130.454
2129.672
2128.890
2128.108
2127.326
2126.544
2125.762
2124.980
2124.198
2123.416
2122.634
2121.852
2121.070
2120.288
2119.506
2118.724
2117.942
2117.160
2116.378
2115.596
2114.814
2114.032
2113.250
2112.468
2111.686
2110.904
2110.122
2109.340
2108.558
2107.776
2106.994
2106.212
2105.430
2104.648
2103.866
2103.084
2102.302
2101.520
2100.738
2099.956
2099.174
2098.392
2097.610
2096.828
2096.046
2095.264
2094.482
2093.700
2092.918
2092.136
2091.354
2090.572
2089.790
2089.008
2088.226
2087.444
2086.662
2085.880
2085.098
2084.316
2083.534
2082.752
2081.970
2081.188
2080.406
2079.624
2078.842
2078.060
2077.278
2076.496
2075.714
2074.932
2074.150
2073.368
2072.586
2071.804
2071.022
2070.240
2069.458
2068.676
2067.894
2067.112
2066.330
2065.548
2064.766
2063.984
2063.202
2062.420
2061.638
2060.856
2060.074
2059.292
2058.510
2057.728
2056.946
2056.164
2055.382
2054.600
2053.818
2053.036
2052.254
2051.472
2050.690
2049.908
2049.126
2048.344
2047.562
2046.780
2045.998
2045.216
2044.434
2043.652
2042.870
2042.088
2041.306
2040.524
2039.742
2038.960
2038.178
2037.396
2036.614
2035.832
2035.050
2034.268
2033.486
2032.704
2031.922
2031.140
2030.358
2029.576
2028.794
2028.012
2027.230
2026.448
2025.666
2024.884
2024.102
2023.320
2022.538
2021.756
2020.974
2020.192
2019.410
2018.628
2017.846
2017.064
2016.282
2015.500
2014.718
2013.936
2013.154
2012.372
2011.590
2010.808
2010.026
2009.244
2008.462
2007.680
2006.898
2006.116
2005.334
2004.552
2003.770
2002.988
2002.206
2001.424
2000.642
1999.860
1999.078
1998.296
1997.514
1996.732
1995.950
1995.168
1994.386
1993.604
1992.822
1992.040
1991.258
1990.476
1989.694
1988.912
1987.544
1986.175
1984.807
1983.438
1982.070
1980.701
1979.333
1977.964
1976.596
1975.227
1973.859
1972.490
1971.122
1969.753
1968.385
1967.016
1965.648
1964.279
1962.911
1961.542
1960.174
1958.805
1957.437
1956.068
1954.700
1953.331
1951.963
1950.594
1949.226
1947.857
1946.489
1945.120
1943.752
1942.383
1941.015
1939.646
1938.278
1936.909
1935.541
1934.172
1932.804
1931.435
1930.067
1928.698
1927.330
1925.961
1924.593
1923.224
1921.856
1920.487
1919.119
1917.750
1916.382
1915.013
1913.645
1912.276
1910.908
1909.539
1908.171
1906.802
1905.434
1904.065
1902.697
1901.328
1899.960
1898.591
1897.223
1895.854
1894.486
1893.117
1891.749
1890.380
1889.012
1887.643
1886.275
1884.906
1883.538
1882.169
1880.801
1879.432
1878.064
1876.695
1875.327
1873.958
1872.590
1871.221
1869.853
1868.484
1867.116
1865.747
1864.379
1863.010
1861.642
1860.273
1858.905
1857.536
1856.168
1854.799
1853.431
1852.062
1850.694
1849.325
1847.957
1846.588
1845.220
1843.851
1842.483
1841.114
1839.746
1838.377
1837.009
1835.640
1834.272
1832.903
1831.535
1830.166
1828.798
1827.429
1826.061
1824.692
1823.324
1821.955
1820.587
1819.218
1817.850
1816.481
1815.113
1813.744
1812.376
1811.007
1809.639
1808.270
1806.902
1805.533
1804.165
1802.796
1801.428
1800.059
1798.691
1797.322
1795.954
1794.585
1793.217
1791.848
1790.480
1789.111
1787.743
1786.374
1785.006
1783.637
1782.269
1780.900
1779.532
1778.163
1776.795
1775.426
1774.058
1772.689
1771.321
1769.952
1768.584
1767.215
1765.847
1764.478
1763.110
1761.741
1760.373
1759.004
1757.636
1756.267
1754.899
1753.530
1752.162
1750.793
1749.425
1748.056
1746.688
1745.319
1743.951
1742.582
1741.214
1739.845
1738.477
1737.108
1735.740
1734.371
1733.003
1731.634
1730.266
1728.897
1727.529
1726.160
1724.792
1723.423
1722.055
1720.686
1719.318
1717.949
1716.581
1715.212
1717.339
1719.465
1721.592
1723.718
1725.845
1727.971
1730.098
1732.224
1734.351
1736.477
1738.604
1740.730
1742.857
1744.983
1747.110
1749.236
1751.363
1753.489
1755.616
1757.742
1759.869
1761.995
1764.122
1766.248
1768.375
1770.501
1772.628
1774.754
1776.881
1779.007
1781.134
1783.260
1785.387
1787.513
1789.640
1791.766
1793.893
1796.019
1798.146
1800.272
1802.399
1804.525
1806.652
1808.778
1810.905
1813.031
1815.158
1817.284
1819.411
1821.537
1823.664
1825.790
1827.917
1830.043
1832.170
1834.296
1836.423
1838.549
1840.676
1842.802
1844.929
1847.055
1849.182
1851.308
1853.435
1855.561
1857.688
1859.814
1861.941
1864.067
1866.194
1868.320
1870.447
1872.573
1874.700
1876.826
1878.953
1881.079
1883.206
1885.332
1887.459
1889.585
1891.712
1893.838
1895.965
1898.091
1900.218
1902.344
1904.471
1906.597
1908.724
1910.850
1912.977
1915.103
1917.230
1919.356
1921.483
1923.609
1925.736
1927.862
1929.989
1932.115
1934.242
1936.368
1938.495
1940.621
1942.748
1944.874
1947.001
1949.127
1951.254
1953.380
1955.507
1957.633
1959.760
1961.886
1964.013
1966.139
1968.266
1970.392
1972.519
1974.645
1976.772
1978.898
1981.025
1983.151
1985.278
1987.404
1989.531
1991.657
1993.784
1995.910
1998.037
2000.163
2002.290
2004.416
2006.543
2008.669
2010.796
2012.922
2015.049
2017.175
2019.302
2021.428
2023.555
2025.681
2027.808
2029.934
2032.061
2034.187
2036.314
2038.440
2040.567
2042.693
2044.820
2046.946
2049.073
2051.199
2053.326
2055.452
2057.579
2059.705
2061.832
2063.958
2066.085
2068.211
2070.338
2072.464
2074.591
2076.717
2078.844
2080.970
2083.097
2085.223
2087.350
2089.476
2091.603
2093.729
2095.856
2097.982
2100.109
2102.235
2104.362
2106.488
2108.615
2110.741
2112.868
2114.994
2117.121
2119.247
2121.374
2123.500
2125.627
2127.753
2129.880
2132.006
2134.133
2136.259
2138.386
2140.512
2136.920
2133.327
2129.735
2126.142
2122.550
2118.957
2115.365
2111.772
2108.180
2104.587
2100.995
2097.402
2093.810
2090.217
2086.625
2083.032
2079.440
2075.847
2072.255
2068.662
2065.070
2061.477
2057.885
2054.292
2050.700
2047.107
2043.515
2039.922
2036.330
2032.737
2029.145
2025.552
2021.960
2018.367
2014.775
2011.182
2007.590
2003.997
2000.405
1996.812
1993.220
1989.627
1986.035
1982.442
1978.850
1975.257
1971.665
1968.072
1964.480
1960.887
1957.295
1953.702
1950.110
1946.517
1942.925
1939.332
1935.740
1932.147
1928.555
1924.962
1921.370
1917.777
1914.185
1910.592
1907.000
1903.407
1899.815
1896.222
1892.630
1889.037
1885.445
1881.852
