110.821
110.894
110.967
111.040
111.113
111.186
111.259
111.332
111.405
111.478
111.551
111.624
111.697
111.770
111.843
111.916
111.989
112.062
112.135
112.208
112.281
112.354
112.427
112.500
112.573
112.646
112.719
112.792
112.865
112.938
113.011
113.084
113.157
113.230
113.303
113.376
113.449
113.522
113.595
113.668
113.741
113.814
113.887
113.960
114.033
114.106
114.179
114.252
114.325
114.398
114.471
114.544
114.617
114.690
114.763
114.836
114.909
114.982
115.055
115.128
115.201
115.274
115.347
115.420
115.493
115.566
115.639
115.712
115.785
115.858
115.931
116.004
116.077
116.150
116.223
116.296
116.369
116.442
116.515
116.588
116.661
116.734
116.807
116.880
116.953
117.026
117.099
117.172
117.245
117.318
117.391
117.464
117.537
117.610
117.683
117.756
117.829
117.781
117.732
117.684
117.635
117.587
117.538
117.490
117.441
117.393
117.344
117.296
117.247
117.199
117.150
117.102
117.053
117.005
116.956
116.908
116.859
116.811
116.762
116.714
116.665
116.617
116.568
116.520
116.471
116.423
116.374
116.326
116.277
116.229
116.180
116.132
116.083
116.035
115.986
115.938
115.889
115.841
115.792
115.744
115.695
115.647
115.598
115.550
115.501
115.453
115.404
115.356
115.307
115.259
115.210
115.162
115.113
115.065
115.016
114.968
114.919
114.871
114.822
114.774
114.725
114.677
114.628
114.580
114.531
114.483
114.434
114.386
114.337
114.289
114.240
114.192
114.143
114.095
114.046
113.998
113.949
113.901
113.852
113.804
113.755
113.707
113.658
113.610
113.561
113.513
113.464
113.416
113.367
113.319
113.270
113.222
113.173
113.125
113.076
113.028
112.979
112.931
112.882
112.834
112.785
112.737
112.688
112.640
112.591
112.543
112.494
112.446
112.397
112.349
112.300
112.252
112.203
112.155
112.106
112.058
112.009
111.961
111.912
111.864
111.815
111.767
111.718
111.670
111.621
111.573
111.524
111.476
111.427
111.379
111.330
111.282
111.233
111.185
111.136
111.088
111.039
110.991
110.942
110.894
110.845
110.797
110.748
110.700
110.651
110.603
110.554
110.506
110.457
110.409
110.360
110.312
110.263
110.215
110.166
110.118
110.069
110.021
109.972
109.924
109.875
109.827
109.778
109.730
109.681
109.633
109.584
109.536
109.487
109.439
109.390
109.342
109.293
109.245
109.196
109.148
109.099
109.051
109.002
108.954
108.905
108.857
108.808
108.760
108.711
108.663
108.614
108.566
108.517
108.469
108.420
108.372
108.323
108.275
108.226
108.178
108.129
108.129
108.129
108.129
108.129
108.129
108.129
108.129
108.129
108.129
108.129
108.129
108.129
108.129
108.129
108.129
108.129
108.129
108.129
108.129
108.129
108.129
108.129
108.129
108.129
108.129
108.129
108.129
108.129
108.129
108.129
108.129
108.129
108.129
108.129
108.129
108.129
108.129
108.129
108.129
108.129
108.129
108.129
108.129
108.129
108.129
108.129
108.129
108.129
108.129
108.129
108.129
108.129
108.129
108.129
108.129
108.129
108.129
108.129
108.129
108.129
108.129
108.129
108.129
108.129
108.129
108.129
108.129
108.129
108.129
108.129
108.129
108.129
108.129
108.129
108.129
108.129
108.129
108.129
108.129
108.129
108.129
108.129
108.129
108.129
108.129
108.129
108.129
108.129
108.129
108.129
108.129
108.129
108.129
108.129
108.129
108.129
108.129
108.129
108.129
108.129
108.129
108.129
108.129
108.129
108.129
108.129
108.129
108.129
108.129
108.129
108.129
108.129
108.129
108.129
108.129
108.129
108.129
108.129
108.129
108.129
108.129
108.129
108.129
108.129
108.129
108.129
108.129
108.129
108.129
108.129
108.129
108.129
108.129
108.129
108.129
108.129
108.129
108.129
108.129
108.129
108.129
108.129
108.129
108.129
108.129
108.129
108.129
108.129
108.129
108.129
108.129
108.129
108.129
108.129
108.129
108.129
108.129
108.129
108.129
108.129
108.129
108.129
108.129
108.129
108.129
108.129
108.129
108.129
108.129
108.129
108.129
108.129
108.129
108.129
108.129
108.129
108.129
108.129
108.129
108.129
108.129
108.129
108.129
108.129
108.129
108.129
108.129
108.129
108.129
108.129
108.129
108.129
108.129
108.129
108.129
108.129
108.129
108.129
108.129
108.129
108.129
108.129
108.129
108.129
108.129
108.129
108.129
108.129
108.129
108.129
108.129
108.129
108.129
108.129
108.129
108.129
108.129
108.129
108.129
108.129
108.129
108.129
108.129
108.129
108.129
108.129
108.129
108.129
108.129
108.129
108.129
108.129
108.129
108.129
108.129
108.129
108.129
108.129
108.129
108.129
108.129
108.129
108.129
108.129
108.129
108.129
108.129
108.129
108.129
108.129
108.129
108.129
108.129
108.129
108.129
108.129
108.129
108.129
108.129
108.129
108.129
108.129
108.129
108.129
108.129
108.129
108.129
108.129
108.129
108.129
108.129
108.129
108.129
108.129
108.129
108.129
108.129
108.129
108.129
108.129
108.129
108.129
108.129
108.129
108.129
108.129
108.129
108.129
108.129
108.129
108.129
108.129
108.129
108.129
108.129
108.129
108.129
108.129
108.129
108.129
108.129
108.129
108.129
108.129
108.129
108.129
108.129
108.129
108.129
108.129
108.129
108.129
108.129
108.129
108.129
108.129
108.129
108.129
108.129
108.129
108.129
108.129
108.129
108.129
108.129
108.129
108.129
108.129
108.129
108.129
108.129
108.129
108.129
108.129
108.129
108.129
108.129
108.129
108.129
108.129
108.129
108.129
108.129
108.129
108.129
108.129
108.129
108.129
108.129
108.129
108.129
108.129
108.129
108.129
108.129
108.129
108.129
108.129
108.129
108.129
108.129
108.129
108.129
108.129
108.129
108.129
108.129
108.129
108.129
108.129
108.129
108.129
108.129
108.129
108.129
108.129
108.129
108.129
108.129
108.129
108.129
108.129
108.129
108.129
108.129
108.129
108.129
108.129
108.129
108.129
108.129
108.129
108.129
108.129
108.129
108.129
108.129
108.129
108.129
108.129
108.129
108.129
108.129
108.129
108.129
108.129
108.129
108.129
108.129
108.129
108.129
108.129
108.129
108.129
108.129
108.129
108.129
108.129
108.129
108.129
108.129
108.129
108.129
108.129
108.129
108.129
108.129
108.129
108.129
108.129
108.129
108.129
108.129
108.129
108.129
108.129
108.129
108.129
108.129
108.129
108.129
108.129
108.129
108.129
108.129
108.129
108.129
108.129
108.129
108.129
108.129
108.129
108.129
108.129
108.129
108.129
108.129
108.129
108.129
108.129
108.129
108.129
108.129
108.129
108.129
108.129
108.129
108.129
108.129
108.129
108.129
108.129
108.129
108.129
108.129
108.129
108.129
108.129
108.129
108.129
108.129
108.129
108.129
108.129
108.129
108.129
108.129
108.129
108.129
108.129
108.129
108.129
108.129
108.129
108.129
108.129
108.129
108.129
108.129
108.129
108.129
108.129
108.129
108.129
108.129
108.129
108.129
108.129
108.129
108.129
108.129
108.129
108.129
108.129
108.129
108.129
108.129
108.129
108.129
108.129
108.129
108.129
108.129
108.129
108.129
108.129
108.129
108.129
108.129
108.129
108.129
108.129
108.129
108.129
108.129
108.129
108.129
108.129
108.129
108.129
108.129
108.129
108.129
108.129
108.129
108.129
108.129
108.129
108.129
108.129
108.129
108.129
108.129
108.129
108.129
108.129
108.129
108.129
108.129
108.129
108.129
108.129
108.129
108.129
108.129
108.129
108.129
108.129
108.129
108.129
108.129
108.129
108.129
108.129
108.129
108.129
108.129
108.129
108.129
108.129
108.129
108.129
108.129
108.129
108.129
108.129
108.129
108.129
108.129
108.129
108.129
108.129
108.129
108.129
108.129
108.129
108.129
108.129
108.129
1334.829
1335.807
1336.785
1337.763
1338.741
1339.719
1340.697
1341.675
1342.653
1343.631
1344.609
1345.587
1346.565
1347.543
1348.521
1349.499
1350.477
1351.455
1352.433
1353.411
1354.389
1355.367
1356.345
1357.323
1358.301
1359.279
1360.257
1361.235
1362.213
1363.191
1364.169
1365.147
1366.125
1367.103
1368.081
1369.059
1370.037
1371.015
1371.993
1372.971
1373.949
1374.927
1375.905
1376.883
1377.861
1378.839
1379.817
1380.795
1381.773
1382.751
1383.729
1384.707
1385.685
1386.663
1387.641
1388.619
1389.597
1390.575
1391.553
1392.531
1393.509
1394.487
1395.465
1396.443
1397.421
1398.399
1399.377
1400.355
1401.333
1402.311
1403.289
1404.267
1405.245
1406.223
1407.201
1408.179
1409.157
1410.135
1411.113
1412.091
1413.069
1414.047
1415.025
1416.003
1416.981
1417.959
1418.937
1419.915
1420.893
1421.871
1422.849
1423.827
1424.805
1425.783
1426.761
1427.739
1428.717
1429.695
1430.673
1431.651
1432.629
1433.607
1434.585
1435.563
1436.541
1437.519
1438.497
1439.475
1440.453
1441.431
1442.409
1443.387
1444.365
1445.343
1446.321
1447.299
1448.277
1449.255
1450.233
1451.211
1452.189
1453.167
1454.145
1455.123
1456.101
1457.079
1458.057
1459.035
1460.013
1460.991
1461.969
1462.947
1463.925
1464.903
1465.881
1466.859
1467.837
1468.815
1469.793
1470.771
1471.749
1472.727
1473.705
1474.683
1475.661
1476.639
1477.617
1478.595
1479.573
1480.551
1481.529
1482.507
1483.485
1484.463
1485.441
1486.419
1487.397
1488.375
1489.353
1490.331
1491.309
1492.287
1493.265
1494.243
1495.221
1496.199
1497.177
1498.155
1499.133
1500.111
1501.089
1502.067
1503.045
1504.023
1505.001
1505.979
1506.957
1507.935
1508.913
1509.891
1510.869
1511.847
1512.825
1513.803
1514.781
1515.759
1516.737
1517.715
1518.693
1519.671
1520.649
1521.627
1522.605
1523.583
1524.561
1525.539
1526.517
1527.495
1528.473
1529.451
1530.429
1532.457
1534.485
1536.513
1538.541
1540.569
1542.597
1544.625
1546.653
1548.681
1550.709
1552.737
1554.765
1556.793
1558.821
1560.849
1562.877
1564.905
1566.933
1568.961
1570.989
1573.017
1575.045
1577.073
1579.101
1581.129
1583.157
1585.185
1587.213
1589.241
1591.269
1593.297
1595.325
1597.353
1599.381
1601.409
1603.437
1605.465
1607.493
1609.521
1611.549
1613.577
1615.605
1617.633
1619.661
1621.689
1623.717
1625.745
1627.773
1629.801
1631.829
1633.857
1635.885
1637.913
1639.941
1641.969
1643.997
1646.025
1648.053
1650.081
1652.109
1654.137
1656.165
1658.193
1660.221
1662.249
1664.277
1666.305
1668.333
1670.361
1672.389
1674.417
1676.445
1678.473
1680.501
1682.529
1684.557
1686.585
1688.613
1690.641
1692.669
1694.697
1696.725
1698.753
1700.781
1702.809
1704.837
1706.865
1708.893
1710.921
1712.949
1714.977
1717.005
1719.033
1721.061
1723.089
1725.117
1727.145
1729.173
1731.201
1733.229
1735.257
1737.285
1739.313
1741.341
1743.369
1745.397
1747.425
1749.453
1751.481
1753.509
1755.537
1757.565
1759.593
1761.621
1763.649
1765.677
1767.705
1769.733
1771.761
1773.789
1775.817
1777.845
1779.873
1781.901
1783.929
1785.957
1787.985
1790.013
1792.041
1794.069
1796.097
1798.125
1800.153
1802.181
1804.209
1806.237
1808.265
1810.293
1812.321
1814.349
1816.377
1818.405
1820.433
1822.461
1824.489
1826.517
1828.545
1830.573
1832.601
1834.629
1836.657
1838.685
1840.713
1842.741
1844.769
1846.797
1848.825
1850.853
1852.881
1854.909
1856.937
1858.965
1860.993
1863.021
1865.049
1867.077
1869.105
1871.133
1873.161
1875.189
1877.217
1879.245
1881.273
1883.301
1885.329
1887.357
1889.385
1891.413
1893.441
1895.469
1897.497
1899.525
1901.553
1903.581
1905.609
1907.637
1909.665
1911.693
1913.721
1915.749
1917.777
1919.805
1921.833
1923.861
1925.889
1927.917
1929.945
1931.973
1934.001
1936.029
1936.054
1936.078
1936.103
1936.127
1936.152
1936.176
1936.201
1936.225
1936.250
1936.274
1936.299
1936.323
1936.348
1936.372
1936.397
1936.421
1936.446
1936.470
1936.495
1936.519
1936.544
1936.568
1936.593
1936.617
1936.642
1936.666
1936.691
1936.715
1936.740
1936.764
1936.789
1936.813
1936.838
1936.862
1936.887
1936.911
1936.936
1936.960
1936.985
1937.009
1937.034
1937.058
1937.083
1937.107
1937.132
1937.156
1937.181
1937.205
1937.230
1937.254
1937.279
1937.303
1937.328
1937.352
1937.377
1937.401
1937.426
1937.450
1937.475
1937.499
1937.524
1937.548
1937.573
1937.597
1937.622
1937.646
1937.671
1937.695
1937.720
1937.744
1937.769
1937.793
1937.818
1937.842
1937.867
1937.891
1937.916
1937.940
1937.965
1937.989
1938.014
1938.038
1938.063
1938.087
1938.112
1938.136
1938.161
1938.185
1938.210
1938.234
1938.259
1938.283
1938.308
1938.332
1938.357
1938.381
1938.406
1938.430
1938.455
1938.479
1938.504
1938.528
1938.553
1938.577
1938.602
1938.626
1938.651
1938.675
1938.700
1938.724
1938.749
1938.773
1938.798
1938.822
1938.847
1938.871
1938.896
1938.920
1938.945
1938.969
1938.994
1939.018
1939.043
1939.067
1939.092
1939.116
1939.141
1939.165
1939.190
1939.214
1939.239
1939.263
1939.288
1939.312
1939.337
1939.361
1939.386
1939.410
1939.435
1939.459
1939.484
1939.508
1939.533
1939.557
1939.582
1939.606
1939.631
1939.655
1939.680
1939.704
1939.729
1939.753
1939.778
1939.802
1939.827
1939.851
1939.876
1939.900
1939.925
1939.949
1939.974
1939.998
1940.023
1940.047
1940.072
1940.096
1940.121
1940.145
1940.170
1940.194
1940.219
1940.243
1940.268
1940.292
1940.317
1940.341
1940.366
1940.390
1940.415
1940.439
1940.464
1940.488
1940.513
1940.537
1940.562
1940.586
1940.611
1940.635
1940.660
1940.684
1940.709
1940.733
1940.758
1940.782
1940.807
1940.831
1940.856
1940.880
1940.905
1940.929
1942.396
1943.862
1945.329
1946.795
1948.262
1949.728
1951.195
1952.661
1954.128
1955.594
1957.061
1958.527
1959.994
1961.460
1962.927
1964.393
1965.860
1967.326
1968.793
1970.259
1971.726
1973.192
1974.659
1976.125
1977.592
1979.058
1980.525
1981.991
1983.458
1984.924
1986.391
1987.857
1989.324
1990.790
1992.257
1993.723
1995.190
1996.656
1998.123
1999.589
2001.056
2002.522
2003.989
2005.455
2006.922
2008.388
2009.855
2011.321
2012.788
2014.254
2015.721
2017.187
2018.654
2020.120
2021.587
2023.053
2024.520
2025.986
2027.453
2028.919
2030.386
2031.852
2033.319
2034.785
2036.252
2037.718
2039.185
2040.651
2042.118
2043.584
2045.051
2046.517
2047.984
2049.450
2050.917
2052.383
2053.850
2055.316
2056.783
2058.249
2059.716
2061.182
2062.649
2064.115
2065.582
2067.048
2068.515
2069.981
2071.448
2072.914
2074.381
2075.847
2077.314
2078.780
2080.247
2081.713
2083.180
2084.646
2086.113
2087.579
2089.046
2090.512
2091.979
2093.445
2094.912
2096.378
2097.845
2099.311
2100.778
2102.244
2103.711
2105.177
2106.644
2108.110
2109.577
2111.043
2112.510
2113.976
2115.443
2116.909
2118.376
2119.842
2121.309
2122.775
2124.242
2125.708
2127.175
2128.641
2130.108
2131.574
2133.041
2134.507
2135.974
2137.440
2138.907
2140.373
2141.840
2143.306
2144.773
2146.239
2147.706
2149.172
2150.639
2152.105
2153.572
2155.038
2156.505
2157.971
2159.438
2160.904
2162.371
2163.837
2165.304
2166.770
2168.237
2169.703
2171.170
2172.636
2174.103
2175.569
2177.036
2178.502
2179.969
2181.435
2182.902
2184.368
2185.835
2187.301
2188.768
2190.234
2191.701
2193.167
2194.634
2196.100
2197.567
2199.033
2200.500
2201.966
2203.433
2204.899
2206.366
2207.832
2209.299
2210.765
2212.232
2213.698
2215.165
2216.631
2218.098
2219.564
2221.031
2222.497
2223.964
2225.430
2226.897
2228.363
2229.830
2231.296
2232.763
2234.229
2234.278
2234.326
2234.375
2234.423
2234.472
2234.520
2234.569
2234.617
2234.666
2234.714
2234.763
2234.811
2234.860
2234.908
2234.957
2235.005
2235.054
2235.102
2235.151
2235.199
2235.248
2235.296
2235.345
2235.393
2235.442
2235.490
2235.539
2235.587
2235.636
2235.684
2235.733
2235.781
2235.830
2235.878
2235.927
2235.975
2236.024
2236.072
2236.121
2236.169
2236.218
2236.266
2236.315
2236.363
2236.412
2236.460
2236.509
2236.557
2236.606
2236.654
2236.703
2236.751
2236.800
2236.848
2236.897
2236.945
2236.994
2237.042
2237.091
2237.139
2237.188
2237.236
2237.285
2237.333
2237.382
2237.430
2237.479
2237.527
2237.576
2237.624
2237.673
2237.721
2237.770
2237.818
2237.867
2237.915
2237.964
2238.012
2238.061
2238.109
2238.158
2238.206
2238.255
2238.303
2238.352
2238.400
2238.449
2238.497
2238.546
2238.594
2238.643
2238.691
2238.740
2238.788
2238.837
2238.885
2238.934
2238.982
2239.031
2239.079
2239.128
2239.176
2239.225
2239.273
2239.322
2239.370
2239.419
2239.467
2239.516
2239.564
2239.613
2239.661
2239.710
2239.758
2239.807
2239.855
2239.904
2239.952
2240.001
2240.049
2240.098
2240.146
2240.195
2240.243
2240.292
2240.340
2240.389
2240.437
2240.486
2240.534
2240.583
2240.631
2240.680
2240.728
2240.777
2240.825
2240.874
2240.922
2240.971
2241.019
2241.068
2241.116
2241.165
2241.213
2241.262
2241.310
2241.359
2241.407
2241.456
2241.504
2241.553
2241.601
2241.650
2241.698
2241.747
2241.795
2241.844
2241.892
2241.941
2241.989
2242.038
2242.086
2242.135
2242.183
2242.232
2242.280
2242.329
2242.377
2242.426
2242.474
2242.523
2242.571
2242.620
2242.668
2242.717
2242.765
2242.814
2242.862
2242.911
2242.959
2243.008
2243.056
2243.105
2243.153
2243.202
2243.250
2243.299
2243.347
2243.396
2243.444
2243.493
2243.541
2243.590
2243.638
2243.687
2243.735
2243.784
2243.832
2243.881
2243.929
2243.905
2243.881
2243.857
2243.833
2243.809
2243.785
2243.761
2243.737
2243.713
2243.689
2243.665
2243.641
2243.617
2243.593
2243.569
2243.545
2243.521
2243.497
2243.473
2243.449
2243.425
2243.401
2243.377
2243.353
2243.329
2243.305
2243.281
2243.257
2243.233
2243.209
2243.185
2243.161
2243.137
2243.113
2243.089
2243.065
2243.041
2243.017
2242.993
2242.969
2242.945
2242.921
2242.897
2242.873
2242.849
2242.825
2242.801
2242.777
2242.753
2242.729
2242.705
2242.681
2242.657
2242.633
2242.609
2242.585
2242.561
2242.537
2242.513
2242.489
2242.465
2242.441
2242.417
2242.393
2242.369
2242.345
2242.321
2242.297
2242.273
2242.249
2242.225
2242.201
2242.177
2242.153
2242.129
2242.105
2242.081
2242.057
2242.033
2242.009
2241.985
2241.961
2241.937
2241.913
2241.889
2241.865
2241.841
2241.817
2241.793
2241.769
2241.745
2241.721
2241.697
2241.673
2241.649
2241.625
2241.601
2241.577
2241.553
2241.529
2241.505
2241.481
2241.457
