109.422
109.397
109.373
109.348
109.324
109.299
109.275
109.250
109.226
109.201
109.177
109.152
109.128
109.103
109.079
109.054
109.030
109.005
108.981
108.956
108.932
108.907
108.883
108.858
108.834
108.809
108.785
108.760
108.736
108.711
108.687
108.662
108.638
108.613
108.589
108.564
108.540
108.515
108.491
108.466
108.442
108.417
108.393
108.368
108.344
108.319
108.295
108.270
108.246
108.221
108.197
108.172
108.148
108.123
108.099
108.074
108.050
108.025
108.001
107.976
107.952
107.927
107.903
107.878
107.854
107.829
107.805
107.780
107.756
107.731
107.707
107.682
107.658
107.633
107.609
107.584
107.560
107.535
107.511
107.486
107.462
107.437
107.413
107.388
107.364
107.339
107.315
107.290
107.266
107.241
107.217
107.192
107.168
107.143
107.119
107.094
107.070
107.045
107.021
106.996
106.972
106.947
106.923
106.898
106.874
106.849
106.825
106.800
106.776
106.751
106.727
106.702
106.678
106.653
106.629
106.604
106.580
106.555
106.531
106.506
106.482
106.457
106.433
106.408
106.384
106.359
106.335
106.310
106.286
106.261
106.237
106.212
106.188
106.163
106.139
106.114
106.090
106.065
106.041
106.016
105.992
105.967
105.943
105.918
105.894
105.869
105.845
105.820
105.796
105.771
105.747
105.722
105.698
105.673
105.649
105.624
105.600
105.575
105.551
105.526
105.502
105.477
105.453
105.428
105.404
105.379
105.355
105.330
105.306
105.281
105.257
105.232
105.208
105.183
105.159
105.134
105.110
105.085
105.061
105.036
105.012
104.987
104.963
104.938
104.914
104.889
104.865
104.840
104.816
104.791
104.767
104.742
104.718
104.693
104.669
104.644
104.620
104.595
104.571
104.546
104.571
104.595
104.620
104.644
104.669
104.693
104.718
104.742
104.767
104.791
104.816
104.840
104.865
104.889
104.914
104.938
104.963
104.987
105.012
105.036
105.061
105.085
105.110
105.134
105.159
105.183
105.208
105.232
105.257
105.281
105.306
105.330
105.355
105.379
105.404
105.428
105.453
105.477
105.502
105.526
105.551
105.575
105.600
105.624
105.649
105.673
105.698
105.722
105.747
105.771
105.796
105.820
105.845
105.869
105.894
105.918
105.943
105.967
105.992
106.016
106.041
106.065
106.090
106.114
106.139
106.163
106.188
106.212
106.237
106.261
106.286
106.310
106.335
106.359
106.384
106.408
106.433
106.457
106.482
106.506
106.531
106.555
106.580
106.604
106.629
106.653
106.678
106.702
106.727
106.751
106.776
106.800
106.825
106.849
106.874
106.898
106.923
106.947
106.972
106.996
107.021
107.045
107.070
107.094
107.119
107.143
107.168
107.192
107.217
107.241
107.266
107.290
107.315
107.339
107.364
107.388
107.413
107.437
107.462
107.486
107.511
107.535
107.560
107.584
107.609
107.633
107.658
107.682
107.707
107.731
107.756
107.780
107.805
107.829
107.854
107.878
107.903
107.927
107.952
107.976
108.001
108.025
108.050
108.074
108.099
108.123
108.148
108.172
108.197
108.221
108.246
108.270
108.295
108.319
108.344
108.368
108.393
108.417
108.442
108.466
108.491
108.515
108.540
108.564
108.589
108.613
108.638
108.662
108.687
108.711
108.736
108.760
108.785
108.809
108.834
108.858
108.883
108.907
108.932
108.956
108.981
109.005
109.030
109.054
109.079
109.103
109.128
109.152
109.177
109.201
109.226
109.250
109.275
109.299
109.324
109.348
109.373
109.397
109.422
1619.646
1621.748
1623.850
1625.952
1628.054
1630.156
1632.258
1634.360
1636.462
1638.564
1640.666
1642.768
1644.870
1646.972
1649.074
1651.176
1653.278
1655.380
1657.482
1659.584
1661.686
1663.788
1665.890
1667.992
1670.094
1672.196
1674.298
1676.400
1678.502
1680.604
1682.706
1684.808
1686.910
1689.012
1691.114
1693.216
1695.318
1697.420
1699.522
1701.624
1703.726
1705.828
1707.930
1710.032
1712.134
1714.236
1716.338
1718.440
1720.542
1722.644
1724.746
1726.848
1728.950
1731.052
1733.154
1735.256
1737.358
1739.460
1741.562
1743.664
1745.766
1747.868
1749.970
1752.072
1754.174
1756.276
1758.378
1760.480
1762.582
1764.684
1766.786
1768.888
1770.990
1773.092
1775.194
1777.296
1779.398
1781.500
1783.602
1785.704
1787.806
1789.908
1792.010
1794.112
1796.214
1798.316
1800.418
1802.520
1804.622
1806.724
1808.826
1810.928
1813.030
1815.132
1817.234
1819.336
1821.438
1823.540
1825.642
1827.744
1829.846
1831.948
1834.050
1836.152
1838.254
1840.356
1842.458
1844.560
1846.662
1848.764
1850.866
1852.968
1855.070
1857.172
1859.274
1861.376
1863.478
1865.580
1867.682
1869.784
1871.886
1873.988
1876.090
1878.192
1880.294
1882.396
1884.498
1886.600
1888.702
1890.804
1892.906
1895.008
1897.110
1899.212
1901.314
1903.416
1905.518
1907.620
1909.722
1911.824
1913.926
1916.028
1918.130
1920.232
1922.334
1924.436
1926.538
1928.640
1930.742
1932.844
1934.946
1937.048
1939.150
1941.252
1943.354
1945.456
1947.558
1949.660
1951.762
1953.864
1955.966
1958.068
1960.170
1962.272
1964.374
1966.476
1968.578
1970.680
1972.782
1974.884
1976.986
1979.088
1981.190
1983.292
1985.394
1987.496
1989.598
1991.700
1993.802
1995.904
1998.006
2000.108
2002.210
2004.312
2006.414
2008.516
2010.618
2012.720
2014.822
2016.924
2019.026
2021.128
2023.230
2025.332
2027.434
2029.536
2031.638
2033.740
2035.842
2037.944
2040.046
2040.559
2041.072
2041.585
2042.098
2042.611
2043.124
2043.637
2044.150
2044.663
2045.176
2045.689
2046.202
2046.715
2047.228
2047.741
2048.254
2048.767
2049.280
2049.793
2050.306
2050.819
2051.332
2051.845
2052.358
2052.871
2053.384
2053.897
2054.410
2054.923
2055.436
2055.949
2056.462
2056.975
2057.488
2058.001
2058.514
2059.027
2059.540
2060.053
2060.566
2061.079
2061.592
2062.105
2062.618
2063.131
2063.644
2064.157
2064.670
2065.183
2065.696
2066.209
2066.722
2067.235
2067.748
2068.261
2068.774
2069.287
2069.800
2070.313
2070.826
2071.339
2071.852
2072.365
2072.878
2073.391
2073.904
2074.417
2074.930
2075.443
2075.956
2076.469
2076.982
2077.495
2078.008
2078.521
2079.034
2079.547
2080.060
2080.573
2081.086
2081.599
2082.112
2082.625
2083.138
2083.651
2084.164
2084.677
2085.190
2085.703
2086.216
2086.729
2087.242
2087.755
2088.268
2088.781
2089.294
2089.807
2090.320
2090.833
2091.346
2091.859
2092.372
2092.885
2093.398
2093.911
2094.424
2094.937
2095.450
2095.963
2096.476
2096.989
2097.502
2098.015
2098.528
2099.041
2099.554
2100.067
2100.580
2101.093
2101.606
2102.119
2102.632
2103.145
2103.658
2104.171
2104.684
2105.197
2105.710
2106.223
2106.736
2107.249
2107.762
2108.275
2108.788
2109.301
2109.814
2110.327
2110.840
2111.353
2111.866
2112.379
2112.892
2113.405
2113.918
2114.431
2114.944
2115.457
2115.970
2116.483
2116.996
2117.509
2118.022
2118.535
2119.048
2119.561
2120.074
2120.587
2121.100
2121.613
2122.126
2122.639
2123.152
2123.665
2124.178
2124.691
2125.204
2125.717
2126.230
2126.743
2127.256
2127.769
2128.282
2128.795
2129.308
2129.821
2130.334
2130.847
2131.360
2131.873
2132.386
2132.899
2133.412
2133.925
2134.438
2134.951
2135.464
2135.977
2136.490
2137.003
2137.516
2138.029
2138.542
2139.055
2139.568
2140.081
2140.594
2141.107
2141.620
2142.133
2142.646
2141.204
2139.762
2138.320
2136.878
2135.436
2133.994
2132.552
2131.110
2129.668
2128.226
2126.784
2125.342
2123.900
2122.458
2121.016
2119.574
2118.132
2116.690
2115.248
2113.806
2112.364
2110.922
2109.480
2108.038
2106.596
2105.154
2103.712
2102.270
2100.828
2099.386
2097.944
2096.502
2095.060
2093.618
2092.176
2090.734
2089.292
2087.850
2086.408
2084.966
2083.524
2082.082
2080.640
2079.198
2077.756
2076.314
2074.872
2073.430
2071.988
2070.546
2069.104
2067.662
2066.220
2064.778
2063.336
2061.894
2060.452
2059.010
2057.568
2056.126
2054.684
2053.242
2051.800
2050.358
2048.916
2047.474
2046.032
2044.590
2043.148
2041.706
2040.264
2038.822
2037.380
2035.938
2034.496
2033.054
2031.612
2030.170
2028.728
2027.286
2025.844
2024.402
2022.960
2021.518
2020.076
2018.634
2017.192
2015.750
2014.308
2012.866
2011.424
2009.982
2008.540
2007.098
2005.656
2004.214
2002.772
2001.330
1999.888
1998.446
1997.004
1995.562
1994.120
1992.678
1991.236
1989.794
1988.352
1986.910
1985.468
1984.026
1982.584
1981.142
1979.700
1978.258
1976.816
1975.374
1973.932
1972.490
1971.048
1969.606
1968.164
1966.722
1965.280
1963.838
1962.396
1960.954
1959.512
1958.070
1956.628
1955.186
1953.744
1952.302
1950.860
1949.418
1947.976
1946.534
1945.092
1943.650
1942.208
1940.766
1939.324
1937.882
1936.440
1934.998
1933.556
1932.114
1930.672
1929.230
1927.788
1926.346
1924.904
1923.462
1922.020
1920.578
1919.136
1917.694
1916.252
1914.810
1913.368
1911.926
1910.484
1909.042
1907.600
1906.158
1904.716
1903.274
1901.832
1900.390
1898.948
1897.506
1896.064
1894.622
1893.180
1891.738
1890.296
1888.854
1887.412
1885.970
1884.528
1883.086
1881.644
1880.202
1878.760
1877.318
1875.876
1874.434
1872.992
1871.550
1870.108
1868.666
1867.224
1865.782
1864.340
1862.898
1861.456
1860.014
1858.572
1857.130
1855.688
1854.246
1856.617
1858.987
1861.358
1863.728
1866.099
1868.469
1870.840
1873.210
1875.581
1877.951
1880.322
1882.692
1885.063
1887.433
1889.804
1892.174
1894.545
1896.915
1899.286
1901.656
1904.027
1906.397
1908.768
1911.138
1913.509
1915.879
1918.250
1920.620
1922.991
1925.361
1927.732
1930.102
1932.473
1934.843
1937.214
1939.584
1941.955
1944.325
1946.696
1949.066
1951.437
1953.807
1956.178
1958.548
1960.919
1963.289
1965.660
1968.030
1970.401
1972.771
1975.142
1977.512
1979.883
1982.253
1984.624
1986.994
1989.365
1991.735
1994.106
1996.476
1998.847
2001.217
2003.588
2005.958
2008.329
2010.699
2013.070
2015.440
2017.811
2020.181
2022.552
2024.922
2027.293
2029.663
2032.034
2034.404
2036.775
2039.145
2041.516
2043.886
2046.257
2048.627
2050.998
2053.368
2055.739
2058.109
2060.480
2062.850
2065.221
2067.591
2069.962
2072.332
2074.703
2077.073
2079.444
2081.814
2084.185
2086.555
2088.926
2091.296
2093.667
2096.037
2098.408
2100.778
2103.149
2105.519
2107.890
2110.260
2112.631
2115.001
2117.372
2119.742
2122.113
2124.483
2126.854
2129.224
2131.595
2133.965
2136.336
2138.706
2141.077
2143.447
2145.818
2148.188
2150.559
2152.929
2155.300
2157.670
2160.041
2162.411
2164.782
2167.152
2169.523
2171.893
2174.264
2176.634
2179.005
2181.375
2183.746
2186.116
2188.487
2190.857
2193.228
2195.598
2197.969
2200.339
2202.710
2205.080
2207.451
2209.821
2212.192
2214.562
2216.933
2219.303
2221.674
2224.044
2226.415
2228.785
2231.156
2233.526
2235.897
2238.267
2240.638
2243.008
2245.379
2247.749
2250.120
2252.490
2254.861
2257.231
2259.602
2261.972
2264.343
2266.713
2269.084
2271.454
2273.825
2276.195
2278.566
2280.936
2283.307
2285.677
2288.048
2290.418
2292.789
2295.159
2297.530
2299.900
2302.271
2304.641
2307.012
2309.382
2311.753
2314.123
2316.494
2318.864
2321.235
2323.605
2325.976
2328.346
2327.491
2326.636
2325.781
2324.926
2324.071
2323.216
2322.361
2321.506
2320.651
2319.796
2318.941
2318.086
2317.231
2316.376
2315.521
2314.666
2313.811
2312.956
2312.101
2311.246
2310.391
2309.536
2308.681
2307.826
2306.971
2306.116
2305.261
2304.406
2303.551
2302.696
2301.841
2300.986
2300.131
2299.276
2298.421
2297.566
2296.711
2295.856
2295.001
2294.146
2293.291
2292.436
2291.581
2290.726
2289.871
2289.016
2288.161
2287.306
2286.451
2285.596
2284.741
2283.886
2283.031
2282.176
2281.321
2280.466
2279.611
2278.756
2277.901
2277.046
2276.191
2275.336
2274.481
2273.626
2272.771
2271.916
2271.061
2270.206
2269.351
2268.496
2267.641
2266.786
2265.931
2265.076
2264.221
2263.366
2262.511
2261.656
2260.801
2259.946
2259.091
2258.236
2257.381
2256.526
2255.671
2254.816
2253.961
2253.106
2252.251
2251.396
2250.541
2249.686
2248.831
2247.976
2247.121
2246.266
2245.411
2244.556
2243.701
2242.846
2241.991
2241.136
2240.281
2239.426
2238.571
2237.716
2236.861
2236.006
2235.151
2234.296
2233.441
2232.586
2231.731
2230.876
2230.021
2229.166
2228.311
2227.456
2226.601
2225.746
2224.891
2224.036
2223.181
2222.326
2221.471
2220.616
2219.761
2218.906
2218.051
2217.196
2216.341
2215.486
2214.631
2213.776
2212.921
2212.066
2211.211
2210.356
2209.501
2208.646
2207.791
2206.936
2206.081
2205.226
2204.371
2203.516
2202.661
2201.806
2200.951
2200.096
2199.241
2198.386
2197.531
2196.676
2195.821
2194.966
2194.111
2193.256
2192.401
2191.546
2190.691
2189.836
2188.981
2188.126
2187.271
2186.416
2185.561
2184.706
2183.851
2182.996
2182.141
2181.286
2180.431
2179.576
2178.721
2177.866
2177.011
2176.156
2175.301
2174.446
2173.591
2172.736
2171.881
2171.026
2170.171
2169.316
2168.461
2167.606
2166.751
2165.896
2165.041
2164.186
2163.331
2162.476
2161.621
2160.766
2159.911
2159.056
2158.201
2157.346
2155.122
2152.898
2150.674
2148.450
2146.226
2144.002
2141.778
2139.554
2137.330
2135.106
2132.882
2130.658
2128.434
2126.210
2123.986
2121.762
2119.538
2117.314
2115.090
2112.866
2110.642
2108.418
2106.194
2103.970
2101.746
2099.522
2097.298
2095.074
2092.850
2090.626
2088.402
2086.178
2083.954
2081.730
2079.506
2077.282
2075.058
2072.834
2070.610
2068.386
2066.162
2063.938
2061.714
2059.490
2057.266
2055.042
2052.818
2050.594
2048.370
2046.146
2043.922
2041.698
2039.474
2037.250
2035.026
2032.802
2030.578
2028.354
2026.130
2023.906
2021.682
2019.458
2017.234
2015.010
2012.786
2010.562
2008.338
2006.114
2003.890
2001.666
1999.442
1997.218
1994.994
1992.770
1990.546
1988.322
1986.098
1983.874
1981.650
1979.426
1977.202
1974.978
1972.754
1970.530
1968.306
1966.082
1963.858
1961.634
1959.410
1957.186
1954.962
1952.738
1950.514
1948.290
1946.066
1943.842
1941.618
1939.394
1937.170
1934.946
1932.722
1930.498
1928.274
1926.050
1923.826
1921.602
1919.378
1917.154
1914.930
1912.706
1910.482
1908.258
1906.034
1903.810
1901.586
1899.362
1897.138
1894.914
1892.690
1890.466
1888.242
1886.018
1883.794
1881.570
1879.346
1877.122
1874.898
1872.674
1870.450
1868.226
1866.002
1863.778
1861.554
1859.330
1857.106
1854.882
1852.658
1850.434
1848.210
1845.986
1843.762
1841.538
1839.314
1837.090
1834.866
1832.642
1830.418
1828.194
1825.970
1823.746
1821.522
1819.298
1817.074
1814.850
1812.626
1810.402
1808.178
1805.954
1803.730
1801.506
1799.282
1797.058
1794.834
1792.610
1790.386
1788.162
1785.938
1783.714
1781.490
1779.266
1777.042
1774.818
1772.594
1770.370
1768.146
1765.922
1763.698
1761.474
1759.250
1757.026
1754.802
1752.578
1750.354
1748.130
1745.906
1743.682
1741.458
1739.234
1737.010
1734.786
1732.562
1730.338
1728.114
1725.890
1723.666
1721.442
1719.218
1716.994
1714.770
1712.546
1714.868
1717.189
1719.511
1721.832
1724.154
1726.475
1728.797
1731.118
1733.440
1735.761
1738.083
1740.404
1742.726
1745.047
1747.369
1749.690
1752.012
1754.333
1756.655
1758.976
1761.298
1763.619
1765.941
1768.262
1770.584
1772.905
1775.227
1777.548
1779.870
1782.191
1784.513
1786.834
1789.156
1791.477
1793.799
1796.120
1798.442
1800.763
1803.085
1805.406
1807.728
1810.049
1812.371
1814.692
1817.014
1819.335
1821.657
1823.978
1826.300
1828.621
1830.943
1833.264
1835.586
1837.907
1840.229
1842.550
1844.872
1847.193
1849.515
1851.836
1854.158
1856.479
1858.801
1861.122
1863.444
1865.765
1868.087
1870.408
1872.730
1875.051
1877.373
1879.694
1882.016
1884.337
1886.659
1888.980
1891.302
1893.623
1895.945
1898.266
1900.588
1902.909
1905.231
1907.552
1909.874
1912.195
1914.517
1916.838
1919.160
1921.481
1923.803
1926.124
1928.446
1930.767
1933.089
1935.410
1937.732
1940.053
1942.375
1944.696
1947.018
1949.339
1951.661
1953.982
1956.304
1958.625
1960.947
1963.268
1965.590
1967.911
1970.233
1972.554
1974.876
1977.197
1979.519
1981.840
1984.162
1986.483
1988.805
1991.126
1993.448
1995.769
1998.091
2000.412
2002.734
2005.055
2007.377
2009.698
2012.020
2014.341
2016.663
2018.984
2021.306
2023.627
2025.949
2028.270
2030.592
2032.913
2035.235
2037.556
2039.878
2042.199
2044.521
2046.842
2049.164
2051.485
2053.807
2056.128
2058.450
2060.771
2063.093
2065.414
2067.736
2070.057
2072.379
2074.700
2077.022
2079.343
2081.665
2083.986
2086.308
2088.629
2090.951
2093.272
2095.594
2097.915
2100.237
2102.558
2104.880
2107.201
2109.523
2111.844
2114.166
2116.487
2118.809
2121.130
2123.452
2125.773
2128.095
2130.416
2132.738
2135.059
2137.381
2139.702
2142.024
2144.345
2146.667
2148.988
2151.310
2153.631
2155.953
2158.274
2160.596
2162.917
2165.239
2167.560
2169.882
2172.203
2174.525
2176.846
2180.268
2183.689
2187.111
2190.532
2193.954
2197.375
2200.797
2204.218
2207.640
2211.061
2214.483
2217.904
2221.326
2224.747
2228.169
2231.590
2235.012
2238.433
2241.855
2245.276
2248.698
2252.119
2255.541
2258.962
2262.384
2265.805
2269.227
2272.648
2276.070
2279.491
2282.913
2286.334
2289.756
2293.177
2296.599
2300.020
2303.442
2306.863
2310.285
2313.706
2317.128
2320.549
2323.971
2327.392
2330.814
2334.235
2337.657
2341.078
2344.500
2347.921
2351.343
2354.764
2358.186
2361.607
2365.029
2368.450
2371.872
2375.293
2378.715
2382.136
2385.558
2388.979
2392.401
2395.822
2399.244
2402.665
2406.087
2409.508
2412.930
2416.351
2419.773
2423.194
2426.616
2430.037
2433.459
2436.880
2440.302
2443.723
2447.145
2450.566
2453.988
2457.409
2460.831
2464.252
2467.674
2471.095
2474.517
2477.938
2481.360
2484.781
2488.203
2491.624
2495.046
2498.467
2501.889
2505.310
2508.732
2512.153
2515.575
2518.996
2522.418
2525.839
2529.261
2532.682
2536.104
2539.525
2542.947
2546.368
2549.790
2553.211
2556.633
2560.054
2563.476
2566.897
2570.319
2573.740
2577.162
2580.583
2584.005
2587.426
2590.848
2594.269
2597.691
2601.112
2604.534
2607.955
2611.377
2614.798
2618.220
2621.641
2625.063
2628.484
2631.906
2635.327
2638.749
2642.170
2645.592
2649.013
2652.435
2655.856
2659.278
2662.699
2666.121
2669.542
2672.964
2676.385
2679.807
2683.228
2686.650
2690.071
2693.493
2696.914
2700.336
2703.757
2707.179
2710.600
2714.022
2717.443
2720.865
2724.286
2727.708
2731.129
2734.551
2737.972
2741.394
2744.815
2748.237
2751.658
2755.080
2758.501
2761.923
2765.344
2768.766
2772.187
2775.609
2779.030
2782.452
2785.873
2789.295
2792.716
2796.138
2799.559
2802.981
2806.402
2809.824
2813.245
2816.667
2820.088
2823.510
2826.931
2830.353
2833.774
2837.196
2840.617
2844.039
2847.460
2850.882
2854.303
2857.725
2861.146
