102.983
103.007
103.032
103.056
103.081
103.105
103.130
103.154
103.179
103.203
103.228
103.252
103.277
103.301
103.326
103.350
103.375
103.399
103.424
103.448
103.473
103.497
103.522
103.546
103.571
103.595
103.620
103.644
103.669
103.693
103.718
103.742
103.767
103.791
103.816
103.840
103.865
103.889
103.914
103.938
103.963
103.987
104.012
104.036
104.061
104.085
104.110
104.134
104.159
104.183
104.208
104.232
104.257
104.281
104.306
104.330
104.355
104.379
104.404
104.428
104.453
104.477
104.502
104.526
104.551
104.575
104.600
104.624
104.649
104.673
104.698
104.722
104.747
104.722
104.698
104.673
104.649
104.624
104.600
104.575
104.551
104.526
104.502
104.477
104.453
104.428
104.404
104.379
104.355
104.330
104.306
104.281
104.257
104.232
104.208
104.183
104.159
104.134
104.110
104.085
104.061
104.036
104.012
103.987
103.963
103.938
103.914
103.889
103.865
103.840
103.816
103.791
103.767
103.742
103.718
103.693
103.669
103.644
103.620
103.595
103.571
103.546
103.522
103.497
103.473
103.448
103.424
103.399
103.375
103.350
103.326
103.301
103.277
103.252
103.228
103.203
103.179
103.154
103.130
103.105
103.081
103.056
103.032
103.007
102.983
102.958
102.934
102.909
102.885
102.860
102.836
102.811
102.787
102.762
102.738
102.713
102.689
102.664
102.640
102.615
102.591
102.566
102.542
102.517
102.493
102.468
102.444
102.419
102.395
102.370
102.346
102.321
102.297
102.272
102.248
102.223
102.199
102.174
102.150
102.125
102.101
102.076
102.052
102.027
102.003
101.978
101.954
101.929
101.905
101.880
101.856
101.831
101.807
101.782
101.758
101.733
101.709
101.684
101.660
101.635
101.611
101.586
101.562
101.537
101.513
101.488
101.464
101.439
101.415
101.390
101.366
101.341
101.317
101.292
101.268
101.243
101.219
101.194
101.170
101.145
101.121
101.096
101.072
101.047
101.023
100.998
100.974
100.949
100.925
100.900
100.876
100.851
100.827
100.802
100.778
100.753
100.729
100.704
100.680
100.655
100.631
100.606
100.582
100.557
100.533
100.508
100.484
100.459
100.435
100.410
100.386
100.361
100.337
100.312
100.288
100.263
100.239
100.214
100.190
100.165
100.141
100.116
100.092
100.067
100.043
100.018
99.994
99.969
99.945
99.920
99.896
99.871
99.847
99.847
99.847
99.847
99.847
99.847
99.847
99.847
99.847
99.847
99.847
99.847
99.847
99.847
99.847
99.847
99.847
99.847
99.847
99.847
99.847
99.847
99.847
99.847
99.847
99.847
99.847
99.847
99.847
99.847
99.847
99.847
99.847
99.847
99.847
99.847
99.847
99.847
99.847
99.847
99.847
99.847
99.847
99.847
99.847
99.847
99.847
99.847
99.847
99.847
99.847
99.847
99.847
99.847
99.847
99.847
99.847
99.847
99.847
99.847
99.847
99.847
99.847
99.847
99.847
99.847
99.847
99.847
99.847
99.847
99.847
99.847
99.847
99.847
99.847
99.847
99.847
99.847
99.847
99.847
99.847
99.847
99.847
99.847
99.847
99.847
99.847
99.847
99.847
99.847
99.847
99.847
99.847
99.847
99.847
99.847
99.847
99.847
99.847
99.847
99.847
99.847
99.847
99.847
99.847
99.847
99.847
99.847
99.847
99.847
99.847
99.847
99.847
99.847
99.847
99.847
99.847
99.847
99.847
99.847
99.847
99.847
99.847
99.847
99.847
99.847
99.847
99.847
99.847
99.847
99.847
99.847
99.847
99.847
99.847
99.847
99.847
99.847
99.847
99.847
99.847
99.847
99.847
99.847
99.847
99.847
99.847
99.847
99.847
99.847
99.847
99.847
99.847
99.847
99.847
99.847
99.847
99.847
99.847
99.847
99.847
99.847
99.847
99.847
99.847
99.847
99.847
99.847
99.847
99.847
99.847
99.847
99.847
99.847
99.847
99.847
99.847
99.847
99.847
99.847
99.847
99.847
99.847
99.847
99.847
99.847
99.847
99.847
99.847
99.847
99.847
99.847
99.847
99.847
99.847
99.847
99.847
99.847
99.847
99.847
99.847
99.847
99.847
99.847
99.847
99.847
99.847
99.847
99.847
99.847
99.847
99.847
99.847
99.847
99.847
99.847
99.847
99.847
99.847
99.847
99.847
99.847
99.847
99.847
99.847
99.847
99.847
99.847
99.847
99.847
99.847
99.847
99.847
99.847
99.847
99.847
99.847
99.847
99.847
99.847
99.847
99.847
99.847
99.847
99.847
99.847
99.847
99.847
99.847
99.847
99.847
99.847
99.847
99.847
99.847
99.847
99.847
99.847
99.847
99.847
99.847
99.847
99.847
99.847
99.847
99.847
99.847
99.847
99.847
99.847
99.847
99.847
99.847
99.847
99.847
99.847
99.847
99.847
99.847
99.847
99.847
99.847
99.847
99.847
99.847
99.847
99.847
99.847
99.847
99.847
99.847
99.847
99.847
99.847
99.847
99.847
99.847
99.847
99.847
99.847
99.847
99.847
99.847
99.847
99.847
99.847
99.847
99.847
99.847
99.847
99.847
99.847
99.847
99.847
99.847
99.847
99.847
99.847
99.847
99.847
99.847
99.847
99.847
99.847
99.847
99.847
99.847
99.847
99.847
99.847
99.847
99.847
99.847
99.847
99.847
99.847
99.847
99.847
99.847
99.847
99.847
99.847
99.847
99.847
99.847
99.847
99.847
99.847
99.847
99.847
99.847
99.847
99.847
99.847
99.847
99.847
99.847
99.847
99.847
99.847
99.847
99.847
99.847
99.847
99.847
99.847
99.847
99.847
99.847
99.847
99.847
99.847
99.847
99.847
99.847
99.847
99.847
99.847
99.847
99.847
99.847
99.847
99.847
99.847
99.847
99.847
99.847
99.847
99.847
99.847
99.847
99.847
99.847
99.847
99.847
99.847
99.847
99.847
99.847
99.847
99.847
99.847
99.847
99.847
99.847
99.847
99.847
99.847
99.847
99.847
99.847
99.847
99.847
99.847
99.847
99.847
99.847
99.847
99.847
99.847
99.847
99.847
99.847
99.847
99.847
99.847
99.847
99.847
99.847
99.847
99.847
99.847
99.847
99.847
99.847
99.847
99.847
99.847
99.847
99.847
99.847
99.847
99.847
99.847
99.847
99.847
99.847
99.847
99.847
99.847
99.847
99.847
99.847
99.847
99.847
99.847
99.847
99.847
99.847
99.847
99.847
99.847
99.847
99.847
99.847
99.847
99.847
99.847
99.847
99.847
99.847
99.847
99.847
99.847
99.847
99.847
99.847
99.847
99.847
99.847
99.847
99.847
99.847
99.847
99.847
99.847
99.847
99.847
99.847
99.847
99.847
99.847
99.847
99.847
99.847
99.847
99.847
99.847
99.847
99.847
99.847
99.847
99.847
99.847
99.847
99.847
99.847
99.847
99.847
99.847
99.847
99.847
99.847
99.847
99.847
99.847
99.847
99.847
99.847
99.847
99.847
99.847
99.847
99.847
99.847
99.847
99.847
99.847
99.847
99.847
99.847
99.847
99.847
99.847
99.847
99.847
99.847
99.847
99.847
99.847
99.847
99.847
99.847
99.847
99.847
99.847
99.847
99.847
99.847
99.847
99.847
99.847
99.847
99.847
99.847
99.847
99.847
99.847
99.847
99.847
99.847
99.847
99.847
99.847
99.847
99.847
99.847
99.847
99.847
99.847
99.847
99.847
99.847
99.847
99.847
99.847
99.847
99.847
99.847
99.847
99.847
99.847
99.847
99.847
99.847
99.847
99.847
99.847
99.847
99.847
99.847
99.847
99.847
99.847
99.847
99.847
99.847
99.847
99.847
99.847
99.847
99.847
99.847
99.847
99.847
99.847
99.847
99.847
99.847
99.847
99.847
99.847
99.847
99.847
99.847
99.847
99.847
99.847
99.847
99.847
99.847
99.847
99.847
99.847
99.847
99.847
99.847
99.847
99.847
99.847
99.847
99.847
99.847
99.847
99.847
99.847
99.847
99.847
99.847
99.847
99.847
99.847
99.847
99.847
99.847
99.847
99.847
99.847
99.847
99.847
99.847
99.847
99.847
99.847
99.847
99.847
99.847
99.847
99.847
99.847
99.847
99.847
99.847
99.847
99.847
99.847
99.847
99.847
99.847
99.847
99.847
99.847
99.847
99.847
99.847
99.847
99.847
99.847
99.847
99.847
99.847
99.847
99.847
99.847
99.847
99.847
99.847
99.847
99.847
99.847
99.847
99.847
99.847
99.847
99.847
99.847
99.847
99.847
99.847
99.847
99.847
99.847
99.847
99.847
99.847
99.847
99.847
99.847
99.847
99.847
99.847
99.847
99.847
99.847
99.847
99.847
99.847
99.847
99.847
99.847
99.847
99.847
99.847
99.847
99.847
99.847
99.847
99.847
99.847
99.847
99.847
99.847
99.847
99.847
99.847
99.847
99.847
99.847
99.847
99.847
99.847
99.847
99.847
99.847
99.847
99.847
99.847
99.847
99.847
99.847
99.847
99.847
99.847
99.847
99.847
99.847
99.847
99.847
99.847
99.847
99.847
99.847
99.847
99.847
99.847
99.847
99.847
99.847
99.847
99.847
99.847
99.847
99.847
99.847
99.847
99.847
99.847
99.847
99.847
99.847
99.847
99.847
99.847
99.847
99.847
99.847
99.847
99.847
99.847
99.847
99.847
99.847
99.847
99.847
99.847
99.847
99.847
99.847
99.847
99.847
99.847
99.822
99.798
99.773
99.749
99.724
99.700
99.675
99.651
99.626
99.602
99.577
99.553
99.528
99.504
99.479
99.455
99.430
99.406
99.381
99.357
99.332
99.308
99.283
99.259
99.234
99.210
99.185
99.161
99.136
99.112
99.087
99.063
99.038
99.014
98.989
98.965
98.940
98.916
98.891
98.867
98.842
98.818
98.793
98.769
98.744
98.720
98.695
98.671
98.646
98.622
98.597
98.573
98.548
98.524
98.499
98.475
98.450
98.426
98.401
98.377
98.352
98.328
98.303
98.279
98.254
98.230
98.205
98.181
98.156
98.132
98.107
98.083
98.058
98.034
98.009
97.985
97.960
97.936
97.911
97.887
97.862
97.838
97.813
97.789
97.764
97.740
97.715
97.691
97.666
97.642
97.617
97.593
97.568
97.544
97.519
97.495
97.470
97.446
97.421
97.397
97.372
97.348
97.323
97.299
97.274
97.250
97.225
97.201
97.176
97.152
97.127
97.103
97.078
97.054
97.029
97.005
96.980
96.956
96.931
96.907
96.882
96.858
96.833
96.809
96.784
96.760
96.735
96.711
96.686
96.662
96.637
96.613
96.588
96.564
96.539
96.515
96.490
96.466
96.441
96.417
96.392
96.368
96.343
96.319
96.294
96.270
96.245
96.221
96.196
96.172
96.147
96.123
96.098
96.074
96.049
96.025
96.000
95.976
95.951
95.927
95.902
95.878
95.853
95.829
95.804
95.780
95.755
95.731
95.706
95.682
95.657
95.633
95.608
95.584
95.559
95.535
95.510
95.486
95.461
95.437
95.412
95.388
95.363
95.339
95.314
95.290
95.265
95.241
95.216
95.192
95.167
95.143
95.118
95.094
95.069
95.045
95.020
94.996
94.971
94.947
94.971
94.996
95.020
95.045
95.069
95.094
95.118
95.143
95.167
95.192
95.216
95.241
95.265
95.290
95.314
95.339
95.363
95.388
95.412
95.437
95.461
95.486
95.510
95.535
95.559
95.584
95.608
95.633
95.657
95.682
95.706
95.731
95.755
95.780
95.804
95.829
95.853
95.878
95.902
95.927
95.951
95.976
96.000
96.025
96.049
96.074
96.098
96.123
96.147
96.172
96.196
96.221
96.245
96.270
96.294
96.319
96.343
96.368
96.392
96.417
96.441
96.466
96.490
96.515
96.539
96.564
96.588
96.613
96.637
96.662
96.686
96.711
96.735
96.760
96.784
96.809
96.833
96.858
96.882
96.907
96.931
96.956
96.980
97.005
97.029
97.054
97.078
97.103
97.127
97.152
97.176
97.201
97.225
97.250
97.274
97.299
97.323
97.348
97.372
97.397
97.421
97.446
97.470
97.495
97.519
97.544
97.568
97.593
97.617
97.642
97.666
97.691
97.715
97.740
97.764
97.789
97.813
97.838
97.862
97.887
97.911
97.936
97.960
97.985
98.009
98.034
98.058
98.083
98.107
98.132
98.156
98.181
98.205
98.230
98.254
98.279
98.303
98.328
98.352
98.377
98.401
98.426
98.450
98.475
98.499
98.524
98.548
98.573
98.597
98.622
98.646
98.671
98.695
98.720
98.744
98.769
98.793
98.818
98.842
98.867
98.891
98.916
98.940
98.965
98.989
99.014
99.038
99.063
99.087
99.112
99.136
99.161
99.185
99.210
99.234
99.259
99.283
99.308
99.332
99.357
99.381
99.406
99.430
99.455
99.479
99.504
99.528
99.553
99.577
99.602
99.626
99.651
99.675
99.700
99.724
99.749
99.773
99.798
99.822
1248.347
1253.015
1257.683
1262.351
1267.019
1271.687
1276.355
1281.023
1285.691
1290.359
1295.027
1299.695
1304.363
1309.031
1313.699
1318.367
1323.035
1327.703
1332.371
1337.039
1341.707
1346.375
1351.043
1355.711
1360.379
1365.047
1369.715
1374.383
1379.051
1383.719
1388.387
1393.055
1397.723
1402.391
1407.059
1411.727
1416.395
1421.063
1425.731
1430.399
1435.067
1439.735
1444.403
1449.071
1453.739
1458.407
1463.075
1467.743
1472.411
1477.079
1481.747
1486.415
1491.083
1495.751
1500.419
1505.087
1509.755
1514.423
1519.091
1523.759
1528.427
1533.095
1537.763
1542.431
1547.099
1551.767
1556.435
1561.103
1565.771
1570.439
1575.107
1579.775
1584.443
1589.111
1593.779
1598.447
1603.115
1607.783
1612.451
1617.119
1621.787
1626.455
1631.123
1635.791
1640.459
1645.127
1649.795
1654.463
1659.131
1663.799
1668.467
1673.135
1677.803
1682.471
1687.139
1691.807
1696.475
1701.143
1705.811
1710.479
1715.147
1719.815
1724.483
1729.151
1733.819
1738.487
1743.155
1747.823
1752.491
1757.159
1761.827
1766.495
1771.163
1775.831
1780.499
1785.167
1789.835
1794.503
1799.171
1803.839
1808.507
1813.175
1817.843
1822.511
1827.179
1831.847
1836.515
1841.183
1845.851
1850.519
1855.187
1859.855
1864.523
1869.191
1873.859
1878.527
1883.195
1887.863
1892.531
1897.199
1901.867
1906.535
1911.203
1915.871
1920.539
1925.207
1929.875
1934.543
1939.211
1943.879
1948.547
1953.215
1957.883
1962.551
1967.219
1971.887
1976.555
1981.223
1985.891
1990.559
1995.227
1999.895
2004.563
2009.231
2013.899
2018.567
2023.235
2027.903
2032.571
2037.239
2041.907
2046.575
2051.243
2055.911
2060.579
2065.247
2069.915
2074.583
2079.251
2083.919
2088.587
2093.255
2097.923
2102.591
2107.259
2111.927
2116.595
2121.263
2125.931
2130.599
2135.267
2139.935
2144.603
2149.271
2153.939
2158.607
2163.275
2167.943
2172.611
2177.279
2181.947
2182.289
2182.631
2182.973
2183.315
2183.657
2183.999
2184.341
2184.683
2185.025
2185.367
2185.709
2186.051
2186.393
2186.735
2187.077
2187.419
2187.761
2188.103
2188.445
2188.787
2189.129
2189.471
2189.813
2190.155
2190.497
2190.839
2191.181
2191.523
2191.865
2192.207
2192.549
2192.891
2193.233
2193.575
2193.917
2194.259
2194.601
2194.943
2195.285
2195.627
2195.969
2196.311
2196.653
2196.995
2197.337
2197.679
2198.021
2198.363
2198.705
2199.047
2199.389
2199.731
2200.073
2200.415
2200.757
2201.099
2201.441
2201.783
2202.125
2202.467
2202.809
2203.151
2203.493
2203.835
2204.177
2204.519
2204.861
2205.203
2205.545
2205.887
2206.229
2206.571
2206.913
2207.255
2207.597
2207.939
2208.281
2208.623
2208.965
2209.307
2209.649
2209.991
2210.333
2210.675
2211.017
2211.359
2211.701
2212.043
2212.385
2212.727
2213.069
2213.411
2213.753
2214.095
2214.437
2214.779
2215.121
2215.463
2215.805
2216.147
2216.489
2216.831
2217.173
2217.515
2217.857
2218.199
2218.541
2218.883
2219.225
2219.567
2219.909
2220.251
2220.593
2220.935
2221.277
2221.619
2221.961
2222.303
2222.645
2222.987
2223.329
2223.671
2224.013
2224.355
2224.697
2225.039
2225.381
2225.723
2226.065
2226.407
2226.749
2227.091
2227.433
2227.775
2228.117
2228.459
2228.801
2229.143
2229.485
2229.827
2230.169
2230.511
2230.853
2231.195
2231.537
2231.879
2232.221
2232.563
2232.905
2233.247
2233.589
2233.931
2234.273
2234.615
2234.957
2235.299
2235.641
2235.983
2236.325
2236.667
2237.009
2237.351
2237.693
2238.035
2238.377
2238.719
2239.061
2239.403
2239.745
2240.087
2240.429
2240.771
2241.113
2241.455
2241.797
2242.139
2242.481
2242.823
2243.165
2243.507
2243.849
2244.191
2244.533
2244.875
2245.217
2245.559
2245.901
2246.243
2246.585
2246.927
2247.269
2247.611
2247.953
2248.295
2248.637
2248.979
2249.321
2249.663
2250.005
2250.347
2247.219
2244.091
2240.963
2237.835
2234.707
2231.579
2228.451
2225.323
2222.195
2219.067
2215.939
2212.811
2209.683
2206.555
2203.427
2200.299
2197.171
2194.043
2190.915
2187.787
2184.659
2181.531
2178.403
2175.275
2172.147
2169.019
2165.891
2162.763
2159.635
2156.507
2153.379
2150.251
2147.123
2143.995
2140.867
2137.739
2134.611
2131.483
2128.355
2125.227
2122.099
2118.971
2115.843
2112.715
2109.587
2106.459
2103.331
2100.203
2097.075
2093.947
2090.819
2087.691
2084.563
2081.435
2078.307
2075.179
2072.051
2068.923
2065.795
2062.667
2059.539
2056.411
2053.283
2050.155
2047.027
2043.899
2040.771
2037.643
2034.515
2031.387
2028.259
2025.131
2022.003
2018.875
2015.747
2012.619
2009.491
2006.363
2003.235
2000.107
1996.979
1993.851
1990.723
1987.595
1984.467
1981.339
1978.211
1975.083
1971.955
1968.827
1965.699
1962.571
1959.443
1956.315
1953.187
1950.059
1946.931
1943.803
1940.675
1937.547
1934.419
1931.291
1928.163
1925.035
1921.907
1918.779
1915.651
1912.523
1909.395
1906.267
1903.139
1900.011
1896.883
1893.755
1890.627
1887.499
1884.371
1881.243
1878.115
1874.987
1871.859
1868.731
1865.603
1862.475
1859.347
1856.219
1853.091
