88.366
88.390
88.415
88.439
88.464
88.488
88.513
88.537
88.562
88.586
88.611
88.635
88.660
88.684
88.709
88.733
88.758
88.782
88.807
88.831
88.856
88.880
88.905
88.929
88.954
88.978
89.003
89.027
89.052
89.076
89.101
89.125
89.150
89.174
89.199
89.223
89.248
89.272
89.297
89.321
89.346
89.370
89.395
89.419
89.444
89.468
89.493
89.517
89.542
89.566
89.591
89.615
89.640
89.664
89.689
89.713
89.738
89.762
89.787
89.811
89.836
89.860
89.885
89.909
89.934
89.958
89.958
89.958
89.958
89.958
89.958
89.958
89.958
89.958
89.958
89.958
89.958
89.958
89.958
89.958
89.958
89.958
89.958
89.958
89.958
89.958
89.958
89.958
89.958
89.958
89.958
89.958
89.958
89.958
89.958
89.958
89.958
89.958
89.958
89.958
89.958
89.958
89.958
89.958
89.958
89.958
89.958
89.958
89.958
89.958
89.958
89.958
89.958
89.958
89.958
89.958
89.958
89.958
89.958
89.958
89.958
89.958
89.958
89.958
89.958
89.958
89.958
89.958
89.958
89.958
89.958
89.958
89.958
89.958
89.958
89.958
89.958
89.958
89.958
89.958
89.958
89.958
89.958
89.958
89.958
89.958
89.958
89.958
89.958
89.958
89.958
89.958
89.958
89.958
89.958
89.958
89.958
89.958
89.958
89.958
89.958
89.958
89.958
89.958
89.958
89.958
89.958
89.958
89.958
89.958
89.958
89.958
89.958
89.958
89.958
89.958
89.958
89.958
89.958
89.958
89.958
89.958
89.958
89.958
89.958
89.958
89.958
89.958
89.958
89.958
89.958
89.958
89.958
89.958
89.958
89.958
89.958
89.958
89.958
89.958
89.958
89.958
89.958
89.958
89.958
89.958
89.958
89.958
89.958
89.958
89.958
89.958
89.958
89.958
89.958
89.958
89.958
89.958
89.958
89.958
89.958
89.958
89.958
89.958
89.958
89.958
89.958
89.958
89.958
89.958
89.958
89.958
89.958
89.958
89.958
89.958
89.958
89.958
89.958
89.958
89.958
89.958
89.958
89.958
89.958
89.958
89.958
89.958
89.958
89.958
89.958
89.958
89.958
89.958
89.958
89.958
89.958
89.958
89.958
89.958
89.958
89.958
89.958
89.958
89.958
2846.558
2845.727
2844.896
2844.065
2843.234
2842.403
2841.572
2840.741
2839.910
2839.079
2838.248
2837.417
2836.586
2835.755
2834.924
2834.093
2833.262
2832.431
2831.600
2830.769
2829.938
2829.107
2828.276
2827.445
2826.614
2825.783
2824.952
2824.121
2823.290
2822.459
2821.628
2820.797
2819.966
2819.135
2818.304
2817.473
2816.642
2815.811
2814.980
2814.149
2813.318
2812.487
2811.656
2810.825
2809.994
2809.163
2808.332
2807.501
2806.670
2805.839
2805.008
2804.177
2803.346
2802.515
2801.684
2800.853
2800.022
2799.191
2798.360
2797.529
2796.698
2795.867
2795.036
2794.205
2793.374
2792.543
2791.712
2790.881
2790.050
2789.219
2788.388
2787.557
2786.726
2785.895
2785.064
2784.233
2783.402
2782.571
2781.740
2780.909
2780.078
2779.247
2778.416
2777.585
2776.754
2775.923
2775.092
2774.261
2773.430
2772.599
2771.768
2770.937
2770.106
2769.275
2768.444
2767.613
2766.782
2765.951
2765.120
2764.289
2763.458
2762.627
2761.796
2760.965
2760.134
2759.303
2758.472
2757.641
2756.810
2755.979
2755.148
2754.317
2753.486
2752.655
2751.824
2750.993
2750.162
2749.331
2748.500
2747.669
2746.838
2746.007
2745.176
2744.345
2743.514
2742.683
2741.852
2741.021
2740.190
2739.359
2738.528
2737.697
2736.866
2736.035
2735.204
2734.373
2733.542
2732.711
2731.880
2731.049
2730.218
2729.387
2728.556
2727.725
2726.894
2726.063
2725.232
2724.401
2723.570
2722.739
2721.908
2721.077
2720.246
2719.415
2718.584
2717.753
2716.922
2716.091
2715.260
2714.429
2713.598
2712.767
2711.936
2711.105
2710.274
2709.443
2708.612
2707.781
2706.950
2706.119
2705.288
2704.457
2703.626
2702.795
2701.964
2701.133
2700.302
2699.471
2698.640
2697.809
2696.978
2696.147
2695.316
2694.485
2693.654
2692.823
2691.992
2691.161
2690.330
2689.499
2688.668
2687.837
2687.006
2686.175
2685.344
2684.513
2683.682
2682.851
2682.020
2681.189
2680.358
2674.615
2668.872
2663.129
2657.386
2651.643
2645.900
2640.157
2634.414
2628.671
2622.928
2617.185
2611.442
2605.699
2599.956
2594.213
2588.470
2582.727
2576.984
2571.241
2565.498
2559.755
2554.012
2548.269
2542.526
2536.783
2531.040
2525.297
2519.554
2513.811
2508.068
2502.325
2496.582
2490.839
2485.096
2479.353
2473.610
2467.867
2462.124
2456.381
2450.638
2444.895
2439.152
2433.409
2427.666
2421.923
2416.180
2410.437
2404.694
2398.951
2393.208
2387.465
2381.722
2375.979
2370.236
2364.493
2358.750
2353.007
2347.264
2341.521
2335.778
2330.035
2324.292
2318.549
2312.806
2307.063
2301.320
2295.577
2289.834
2284.091
2278.348
2272.605
2266.862
2261.119
2255.376
2249.633
2243.890
2238.147
2232.404
2226.661
2220.918
2215.175
2209.432
2203.689
2197.946
2192.203
2186.460
2180.717
2174.974
2169.231
2163.488
2157.745
2152.002
2146.259
2140.516
2134.773
2129.030
2123.287
2117.544
2111.801
2106.058
2100.315
2094.572
2088.829
2083.086
2077.343
2071.600
2065.857
2060.114
2054.371
2048.628
2042.885
2037.142
2031.399
2025.656
2019.913
2014.170
2008.427
2002.684
1996.941
1991.198
1985.455
1979.712
1973.969
1968.226
1962.483
1956.740
1950.997
1945.254
1939.511
1933.768
1928.025
1922.282
1916.539
1910.796
1905.053
1899.310
1893.567
1887.824
1882.081
1876.338
1870.595
1864.852
1859.109
1853.366
1847.623
1841.880
1836.137
1830.394
1824.651
1818.908
1813.165
1807.422
1801.679
1795.936
1790.193
1784.450
1778.707
1772.964
1767.221
1761.478
1755.735
1749.992
1744.249
1738.506
1732.763
1727.020
1721.277
1715.534
1709.791
1704.048
1698.305
1692.562
1686.819
1681.076
1675.333
1669.590
1663.847
1658.104
1652.361
1646.618
1640.875
1635.132
1629.389
1623.646
1617.903
1612.160
1606.417
1600.674
1594.931
1589.188
1583.445
1577.702
1571.959
1566.216
1560.473
1554.730
1548.987
1543.244
1537.501
1531.758
1534.373
1536.988
1539.603
1542.218
1544.833
1547.448
1550.063
1552.678
1555.293
1557.908
1560.523
1563.138
1565.753
1568.368
1570.983
1573.598
1576.213
1578.828
1581.443
1584.058
1586.673
1589.288
1591.903
1594.518
1597.133
1599.748
1602.363
1604.978
1607.593
1610.208
1612.823
1615.438
1618.053
1620.668
1623.283
1625.898
1628.513
1631.128
1633.743
1636.358
1638.973
1641.588
1644.203
1646.818
1649.433
1652.048
1654.663
1657.278
1659.893
1662.508
1665.123
1667.738
1670.353
1672.968
1675.583
1678.198
1680.813
1683.428
1686.043
1688.658
1691.273
1693.888
1696.503
1699.118
1701.733
1704.348
1706.963
1709.578
1712.193
1714.808
1717.423
1720.038
1722.653
1725.268
1727.883
1730.498
1733.113
1735.728
1738.343
1740.958
1743.573
1746.188
1748.803
1751.418
1754.033
1756.648
1759.263
1761.878
1764.493
1767.108
1769.723
1772.338
1774.953
1777.568
1780.183
1782.798
1785.413
1788.028
1790.643
1793.258
1795.873
1798.488
1801.103
1803.718
1806.333
1808.948
1811.563
1814.178
1816.793
1819.408
1822.023
1824.638
1827.253
1829.868
1832.483
1835.098
1837.713
1840.328
1842.943
1845.558
1848.173
1850.788
1853.403
1856.018
1858.633
1861.248
1863.863
1866.478
1869.093
1871.708
1874.323
1876.938
1879.553
1882.168
1884.783
1887.398
1890.013
1892.628
1895.243
1897.858
1900.473
1903.088
1905.703
1908.318
1910.933
1913.548
1916.163
1918.778
1921.393
1924.008
1926.623
1929.238
1931.853
1934.468
1937.083
1939.698
1942.313
1944.928
1947.543
1950.158
1952.773
1955.388
1958.003
1960.618
1963.233
1965.848
1968.463
1971.078
1973.693
1976.308
1978.923
1981.538
1984.153
1986.768
1989.383
1991.998
1994.613
1997.228
1999.843
2002.458
2005.073
2007.688
2010.303
2012.918
2015.533
2018.148
2020.763
2023.378
2025.993
2028.608
2031.223
2033.838
2036.453
2039.068
2041.683
2044.298
2046.913
2049.528
2052.143
2054.758
2056.347
2057.935
2059.524
2061.112
2062.701
2064.289
2065.878
2067.466
2069.055
2070.643
2072.232
2073.820
2075.409
2076.997
2078.586
2080.174
2081.763
2083.351
2084.940
2086.528
2088.117
2089.705
2091.294
2092.882
2094.471
2096.059
2097.648
2099.236
2100.825
2102.413
2104.002
2105.590
2107.179
2108.767
2110.356
2111.944
2113.533
2115.121
2116.710
2118.298
2119.887
2121.475
2123.064
2124.652
2126.241
2127.829
2129.418
2131.006
2132.595
2134.183
2135.772
2137.360
2138.949
2140.537
2142.126
2143.714
2145.303
2146.891
2148.480
2150.068
2151.657
2153.245
2154.834
2156.422
2158.011
2159.599
2161.188
2162.776
2164.365
2165.953
2167.542
2169.130
2170.719
2172.307
2173.896
2175.484
2177.073
2178.661
2180.250
2181.838
2183.427
2185.015
2186.604
2188.192
2189.781
2191.369
2192.958
2194.546
2196.135
2197.723
2199.312
2200.900
2202.489
2204.077
2205.666
2207.254
2208.843
2210.431
2212.020
2213.608
2215.197
2216.785
2218.374
2219.962
2221.551
2223.139
2224.728
2226.316
2227.905
2229.493
2231.082
2232.670
2234.259
2235.847
2237.436
2239.024
2240.613
2242.201
2243.790
2245.378
2246.967
2248.555
2250.144
2251.732
2253.321
2254.909
2256.498
2258.086
2259.675
2261.263
2262.852
2264.440
2266.029
2267.617
2269.206
2270.794
2272.383
2273.971
2275.560
2277.148
2278.737
2280.325
2281.914
2283.502
2285.091
2286.679
2288.268
2289.856
2291.445
2293.033
2294.622
2296.210
2297.799
2299.387
2300.976
2302.564
2304.153
2305.741
2307.330
2308.918
2310.507
2312.095
2313.684
2315.272
2316.861
2318.449
2320.038
2321.626
2323.215
2324.803
2326.392
2327.980
2329.569
2331.157
2332.746
2334.334
2335.923
2337.511
2339.100
2340.688
2342.277
2343.865
2345.454
2347.042
2348.631
2350.219
2351.808
2353.396
2354.985
2356.573
2358.162
2359.750
2361.339
2362.927
2364.516
2366.104
2367.693
2369.281
2370.870
2372.458
2370.723
2368.987
2367.252
2365.516
2363.781
2362.045
2360.310
2358.574
2356.839
2355.103
2353.368
2351.632
2349.897
2348.161
2346.426
2344.690
2342.955
2341.219
2339.484
2337.748
2336.013
2334.277
2332.542
2330.806
2329.071
2327.335
2325.600
2323.864
2322.129
2320.393
2318.658
2316.922
2315.187
2313.451
2311.716
2309.980
2308.245
2306.509
2304.774
2303.038
2301.303
2299.567
2297.832
2296.096
2294.361
2292.625
2290.890
2289.154
2287.419
2285.683
2283.948
2282.212
2280.477
2278.741
2277.006
2275.270
2273.535
2271.799
2270.064
2268.328
2266.593
2264.857
2263.122
2261.386
2259.651
2257.915
2256.180
2254.444
2252.709
2250.973
2249.238
2247.502
2245.767
2244.031
2242.296
2240.560
2238.825
2237.089
2235.354
2233.618
2231.883
2230.147
2228.412
2226.676
2224.941
2223.205
2221.470
2219.734
2217.999
2216.263
2214.528
2212.792
2211.057
2209.321
2207.586
2205.850
2204.115
2202.379
2200.644
2198.908
2197.173
2195.437
2193.702
2191.966
2190.231
2188.495
2186.760
2185.024
2183.289
2181.553
2179.818
2178.082
2176.347
2174.611
2172.876
2171.140
2169.405
2167.669
2165.934
2164.198
2162.463
2160.727
2158.992
2157.256
2155.521
2153.785
2152.050
2150.314
2148.579
2146.843
2145.108
2143.372
2141.637
2139.901
2138.166
2136.430
2134.695
2132.959
2131.224
2129.488
2127.753
2126.017
2124.282
2122.546
2120.811
2119.075
2117.340
2115.604
2113.869
2112.133
2110.398
2108.662
2106.927
2105.191
2103.456
2101.720
2099.985
2098.249
2096.514
2094.778
2093.043
2091.307
2089.572
2087.836
2086.101
2084.365
2082.630
2080.894
2079.159
2077.423
2075.688
2073.952
2072.217
2070.481
2068.746
2067.010
2065.275
2063.539
2061.804
2060.068
2058.333
2056.597
2054.862
2053.126
2051.391
2049.655
2047.920
2046.184
2044.449
2042.713
2040.978
2039.242
2037.507
2035.771
2034.036
2032.300
2030.565
2028.829
2027.094
2025.358
2029.244
2033.130
2037.016
2040.902
2044.788
2048.674
2052.560
2056.446
2060.332
2064.218
2068.104
2071.990
2075.876
2079.762
2083.648
2087.534
2091.420
2095.306
2099.192
2103.078
2106.964
2110.850
2114.736
2118.622
2122.508
2126.394
2130.280
2134.166
2138.052
2141.938
2145.824
2149.710
2153.596
2157.482
2161.368
2165.254
2169.140
2173.026
2176.912
2180.798
2184.684
2188.570
2192.456
2196.342
2200.228
2204.114
2208.000
2211.886
2215.772
2219.658
2223.544
2227.430
2231.316
2235.202
2239.088
2242.974
2246.860
2250.746
2254.632
2258.518
2262.404
2266.290
2270.176
2274.062
2277.948
2281.834
2285.720
2289.606
2293.492
2297.378
2301.264
2305.150
2309.036
2312.922
2316.808
2320.694
2324.580
2328.466
2332.352
2336.238
2340.124
2344.010
2347.896
2351.782
2355.668
2359.554
2363.440
2367.326
2371.212
2375.098
2378.984
2382.870
2386.756
2390.642
2394.528
2398.414
2402.300
2406.186
2410.072
2413.958
2417.844
2421.730
2425.616
2429.502
2433.388
2437.274
2441.160
2445.046
2448.932
2452.818
2456.704
2460.590
2464.476
2468.362
2472.248
2476.134
2480.020
2483.906
2487.792
2491.678
2495.564
2499.450
2503.336
2507.222
2511.108
2514.994
2518.880
2522.766
2526.652
2530.538
2534.424
2538.310
2542.196
2546.082
2549.968
2553.854
2557.740
2561.626
2565.512
2569.398
2573.284
2577.170
2581.056
2584.942
2588.828
2592.714
2596.600
2600.486
2604.372
2608.258
2612.144
2616.030
2619.916
2623.802
2627.688
2631.574
2635.460
2639.346
2643.232
2647.118
2651.004
2654.890
2658.776
2662.662
2666.548
2670.434
2674.320
2678.206
2682.092
2685.978
2689.864
2693.750
2697.636
2701.522
2705.408
2709.294
2713.180
2717.066
2720.952
2724.838
2728.724
2732.610
2736.496
2740.382
2744.268
2748.154
2752.040
2755.926
2759.812
2763.698
2767.584
2771.470
2775.356
2779.242
2783.128
2787.014
2790.900
2794.786
2798.672
2802.558
2801.067
2799.576
2798.085
2796.594
2795.103
2793.612
2792.121
2790.630
2789.139
2787.648
2786.157
2784.666
2783.175
2781.684
2780.193
2778.702
2777.211
2775.720
2774.229
2772.738
2771.247
2769.756
2768.265
2766.774
2765.283
2763.792
2762.301
2760.810
2759.319
2757.828
2756.337
2754.846
2753.355
2751.864
2750.373
2748.882
2747.391
2745.900
2744.409
2742.918
2741.427
2739.936
2738.445
2736.954
2735.463
2733.972
2732.481
2730.990
2729.499
2728.008
2726.517
2725.026
2723.535
2722.044
2720.553
2719.062
2717.571
2716.080
2714.589
2713.098
2711.607
2710.116
2708.625
2707.134
2705.643
2704.152
2702.661
2701.170
2699.679
2698.188
2696.697
2695.206
2693.715
2692.224
2690.733
2689.242
2687.751
2686.260
2684.769
2683.278
2681.787
2680.296
2678.805
2677.314
2675.823
2674.332
2672.841
2671.350
2669.859
2668.368
2666.877
2665.386
2663.895
2662.404
2660.913
2659.422
2657.931
2656.440
2654.949
2653.458
2651.967
2650.476
2648.985
2647.494
2646.003
2644.512
2643.021
2641.530
2640.039
2638.548
2637.057
2635.566
2634.075
2632.584
2631.093
2629.602
2628.111
2626.620
2625.129
2623.638
2622.147
2620.656
2619.165
2617.674
2616.183
2614.692
2613.201
2611.710
2610.219
2608.728
2607.237
2605.746
2604.255
2602.764
2601.273
2599.782
2598.291
2596.800
2595.309
2593.818
2592.327
2590.836
2589.345
2587.854
2586.363
2584.872
2583.381
2581.890
2580.399
2578.908
2577.417
2575.926
2574.435
2572.944
2571.453
2569.962
2568.471
2566.980
2565.489
2563.998
2562.507
2561.016
2559.525
2558.034
2556.543
2555.052
2553.561
2552.070
2550.579
2549.088
2547.597
2546.106
2544.615
2543.124
2541.633
2540.142
2538.651
2537.160
2535.669
2534.178
2532.687
2531.196
2529.705
2528.214
2526.723
2525.232
2523.741
2522.250
2520.759
2519.268
2517.777
2516.286
2514.795
2513.304
2511.813
2510.322
2508.831
2507.340
2505.849
2504.358
2501.548
2498.738
2495.928
2493.118
2490.308
2487.498
2484.688
2481.878
2479.068
2476.258
2473.448
2470.638
2467.828
2465.018
2462.208
2459.398
2456.588
2453.778
2450.968
2448.158
2445.348
2442.538
2439.728
2436.918
2434.108
2431.298
2428.488
2425.678
2422.868
2420.058
2417.248
2414.438
2411.628
2408.818
2406.008
2403.198
2400.388
2397.578
2394.768
2391.958
2389.148
2386.338
2383.528
2380.718
2377.908
2375.098
2372.288
2369.478
2366.668
2363.858
2361.048
2358.238
2355.428
2352.618
2349.808
2346.998
2344.188
2341.378
2338.568
2335.758
2332.948
2330.138
2327.328
2324.518
2321.708
2318.898
2316.088
2313.278
2310.468
2307.658
2304.848
2302.038
2299.228
2296.418
2293.608
2290.798
2287.988
2285.178
2282.368
2279.558
2276.748
2273.938
2271.128
2268.318
2265.508
2262.698
2259.888
2257.078
2254.268
2251.458
2248.648
2245.838
2243.028
2240.218
2237.408
2234.598
2231.788
2228.978
2226.168
2223.358
2220.548
2217.738
2214.928
2212.118
2209.308
2206.498
2203.688
2200.878
2198.068
2195.258
2192.448
2189.638
2186.828
2184.018
2181.208
2178.398
2175.588
2172.778
2169.968
2167.158
2164.348
2161.538
2158.728
2155.918
2153.108
2150.298
2147.488
2144.678
2141.868
2139.058
2136.248
2133.438
2130.628
2127.818
2125.008
2122.198
2119.388
2116.578
2113.768
2110.958
2108.148
2105.338
2102.528
2099.718
2096.908
2094.098
2091.288
2088.478
2085.668
2082.858
2080.048
2077.238
2074.428
2071.618
2068.808
2065.998
2063.188
2060.378
2057.568
2054.758
2051.948
2049.138
2046.328
2043.518
2040.708
2037.898
2035.088
2032.278
2029.468
2026.658
2023.848
2021.038
2018.228
2015.418
2012.608
2009.798
2006.988
2004.178
2001.368
1998.558
1995.748
1992.938
1990.128
1987.318
1984.508
1981.698
1978.888
1976.078
1973.268
1970.458
1967.648
1964.838
1962.028
1959.218
1956.408
1953.598
1950.788
1947.978
1945.168
1942.358
1936.860
1931.361
1925.863
1920.364
1914.866
1909.367
1903.869
1898.370
1892.872
1887.373
1881.875
1876.376
1870.878
1865.379
1859.881
1854.382
1848.884
1843.385
1837.887
1832.388
1826.890
1821.391
1815.893
1810.394
1804.896
1799.397
1793.899
1788.400
1782.902
1777.403
1771.905
1766.406
1760.908
1755.409
1749.911
1744.412
1738.914
1733.415
1727.917
1722.418
1716.920
1711.421
1705.923
1700.424
1694.926
1689.427
1683.929
1678.430
1672.932
1667.433
1661.935
1656.436
1650.938
1645.439
1639.941
1634.442
1628.944
1623.445
1617.947
1612.448
1606.950
1601.451
1595.953
1590.454
1584.956
1579.457
1573.959
1568.460
1562.962
1557.463
1551.965
1546.466
1540.968
1535.469
1529.971
1524.472
1518.974
1513.475
1507.977
1502.478
1496.980
1491.481
1485.983
1480.484
1474.986
1469.487
1463.989
1458.490
1452.992
1447.493
1441.995
1436.496
1430.998
1425.499
1420.001
1414.502
1409.004
1403.505
1398.007
1392.508
1387.010
1381.511
1376.013
1370.514
1365.016
1359.517
1354.019
1348.520
1343.022
1337.523
1332.025
1326.526
1321.028
1315.529
1310.031
1304.532
1299.034
1293.535
1288.037
1282.538
1277.040
1271.541
1266.043
1260.544
1255.046
1249.547
1244.049
1238.550
1233.052
1227.553
1222.055
1216.556
1211.058
1205.559
