79.572
79.572
79.572
79.572
79.572
79.572
79.572
79.572
79.572
79.572
79.572
79.572
79.572
79.572
79.572
79.572
79.572
79.572
79.572
79.572
79.572
79.572
79.572
79.572
79.572
79.572
79.572
79.572
79.572
79.572
79.572
79.572
79.572
79.572
79.572
79.572
79.572
79.572
79.572
79.572
79.572
79.572
79.572
79.572
79.572
79.572
79.572
79.572
79.572
79.572
79.572
79.572
79.572
79.572
79.572
79.572
79.572
79.572
79.572
79.572
79.572
79.572
79.572
79.572
79.572
79.572
79.572
79.572
79.572
79.572
79.572
79.572
79.572
79.572
79.572
79.572
79.572
79.572
79.572
79.572
79.572
79.572
79.572
79.572
79.572
79.572
79.572
79.572
79.572
79.572
79.572
79.572
79.572
79.572
79.572
79.572
79.572
79.572
79.572
79.572
79.572
79.572
79.572
79.572
79.572
79.572
79.572
79.572
79.572
79.572
79.572
79.572
79.572
79.572
79.572
79.572
79.572
79.572
79.572
79.572
79.572
79.572
79.572
79.572
79.572
79.572
79.572
79.572
79.572
79.572
79.572
79.572
79.572
79.572
79.572
79.572
79.572
79.572
79.572
79.572
79.572
79.572
79.572
79.572
79.572
79.572
79.572
79.572
79.572
79.572
79.572
79.572
79.572
79.572
79.572
79.572
79.572
79.572
79.572
79.572
79.572
79.572
79.572
79.572
79.572
79.572
79.572
79.572
79.572
79.572
79.572
79.572
79.572
79.572
79.572
79.572
79.572
79.572
79.572
79.572
79.572
79.572
79.572
79.572
79.572
79.572
79.572
79.572
79.572
79.572
79.572
79.572
79.572
79.572
79.572
79.572
79.572
79.572
79.572
79.572
79.572
79.572
79.572
79.572
79.572
79.572
79.572
79.572
79.572
79.572
79.572
79.572
79.572
79.572
79.572
79.572
79.572
79.572
79.572
79.572
79.572
79.572
79.572
79.572
79.572
79.572
79.572
79.572
79.572
79.572
79.572
79.572
79.572
79.572
79.572
79.572
79.572
79.572
79.572
79.572
79.572
79.572
79.572
79.572
79.572
79.572
79.572
79.572
79.572
79.572
79.572
79.572
79.572
79.572
79.572
79.572
79.572
79.572
79.572
79.572
79.572
79.572
79.572
79.572
79.572
79.572
79.572
79.572
79.572
79.572
79.572
79.572
79.572
79.572
79.572
79.572
79.572
79.572
79.572
79.572
79.572
79.572
79.572
79.572
79.572
79.572
79.572
79.572
79.572
79.572
79.572
79.572
79.572
79.572
79.572
79.572
79.572
79.572
79.572
79.572
79.572
79.572
79.572
79.572
79.572
79.572
79.572
79.572
79.572
79.572
79.572
79.572
79.572
79.572
79.572
79.572
79.572
79.572
79.572
79.572
79.572
79.572
79.572
79.572
79.572
79.572
79.572
79.572
79.572
79.572
79.572
79.572
79.572
79.572
79.572
79.572
79.572
79.572
79.572
79.572
79.572
79.572
79.572
79.572
79.572
79.572
79.572
79.572
79.572
79.572
79.572
79.572
79.572
79.572
79.572
79.572
79.572
79.572
79.572
79.572
79.572
79.572
79.572
79.572
79.572
79.572
79.572
79.572
79.572
79.572
79.572
79.572
79.572
79.572
79.572
79.572
79.572
79.572
79.572
79.572
79.572
79.572
79.572
79.572
79.572
79.572
79.572
79.572
79.572
79.572
79.572
79.572
79.572
79.572
79.572
79.572
79.572
79.572
79.572
79.572
79.572
79.572
79.572
79.572
79.572
79.572
79.572
79.572
79.572
79.572
79.572
79.572
79.572
79.572
79.572
79.572
79.572
79.572
79.572
79.572
79.572
79.572
79.572
79.572
79.572
79.572
79.572
79.572
79.572
79.572
79.572
79.572
79.572
79.572
79.572
79.572
79.572
79.572
79.572
79.572
79.572
79.572
79.572
79.572
79.572
79.572
79.572
79.572
79.572
79.572
79.572
79.572
79.572
79.572
79.572
79.572
79.572
79.572
79.572
79.572
79.572
79.572
79.572
79.572
79.572
79.572
79.572
79.572
79.572
79.572
79.572
79.572
79.572
79.572
79.572
79.572
79.572
79.572
79.572
79.572
79.572
79.572
79.572
79.572
79.572
79.572
79.572
79.572
79.572
79.572
79.572
79.572
79.572
79.572
79.572
79.572
79.572
79.572
79.572
79.572
79.572
79.572
79.572
79.572
79.572
79.572
79.572
79.572
79.572
79.572
79.572
79.572
79.572
79.572
79.572
79.572
79.572
79.572
79.572
79.572
79.572
79.572
79.572
79.572
79.572
79.572
79.572
79.572
79.572
79.572
79.572
79.572
79.572
79.572
79.572
79.572
79.572
79.572
79.572
79.572
79.572
79.572
79.572
79.572
79.572
79.572
79.572
79.572
79.572
79.572
79.572
79.572
79.572
79.572
79.572
79.572
79.572
79.572
79.572
79.572
79.572
79.572
79.572
79.572
79.572
79.572
79.572
79.572
79.572
79.572
79.572
79.572
79.572
79.572
79.572
79.572
79.572
79.572
79.572
79.572
79.572
79.572
79.572
79.572
79.572
79.572
79.572
79.572
79.572
79.572
79.572
79.572
79.572
79.572
79.572
79.572
79.572
79.572
79.572
79.572
79.572
79.572
79.572
79.572
79.572
79.572
79.572
79.572
79.572
79.572
79.572
79.572
79.572
79.572
79.572
79.572
79.572
79.572
79.572
79.572
79.572
79.572
79.572
79.572
79.572
79.572
79.572
79.572
79.572
79.572
79.572
79.572
79.572
79.572
79.572
79.572
79.572
79.572
79.572
79.572
79.572
79.572
79.572
79.572
79.572
79.572
79.572
79.572
79.572
79.572
79.572
79.572
79.572
79.572
79.572
79.572
79.572
79.572
79.572
79.572
79.572
79.572
79.572
79.572
79.572
79.572
79.572
79.572
79.572
79.572
79.572
79.572
79.572
79.572
79.572
79.572
79.572
79.572
79.572
79.572
79.572
79.572
79.572
79.572
79.572
79.572
79.572
79.572
79.572
79.572
79.572
79.572
79.572
79.572
79.572
79.572
79.572
79.572
79.572
79.572
79.572
79.572
79.572
79.572
79.572
79.572
79.572
79.572
79.572
79.572
79.572
79.572
79.572
79.572
79.572
79.572
79.572
79.572
79.572
79.572
79.572
79.572
79.572
79.572
79.572
79.572
79.572
79.572
79.572
79.572
79.572
79.572
79.572
79.572
79.572
79.572
79.572
79.572
79.572
79.572
79.572
79.572
79.572
79.572
79.572
79.572
79.572
79.572
79.572
79.572
79.572
79.572
79.572
79.572
79.572
79.572
79.572
79.572
79.572
79.572
79.572
79.572
79.572
79.572
79.572
79.572
79.572
79.572
79.572
79.572
79.572
79.572
79.572
79.572
79.572
79.572
79.572
79.572
79.572
79.572
79.572
79.572
79.572
79.572
79.572
79.572
79.572
79.572
79.572
79.572
79.572
79.572
79.572
79.572
79.572
79.572
79.572
79.572
79.572
79.572
79.572
79.572
79.572
79.572
79.572
79.572
79.572
79.572
79.572
79.572
79.572
79.572
79.572
79.572
79.572
79.572
79.572
79.572
79.572
79.572
79.572
79.572
79.572
79.572
79.572
79.572
79.572
79.572
79.572
79.572
79.572
79.572
79.572
79.572
79.572
79.572
79.572
79.572
79.572
79.572
79.572
79.572
79.572
79.572
79.572
79.572
79.572
79.572
79.572
79.572
79.572
79.572
79.572
79.572
79.572
79.572
79.572
79.572
79.572
79.572
79.572
79.572
79.572
79.572
79.572
79.572
79.572
79.572
79.572
79.572
79.572
79.572
79.572
79.572
79.572
79.572
79.572
79.572
79.572
79.572
79.572
79.572
79.572
79.572
79.572
79.572
79.572
79.572
79.572
79.572
79.572
79.572
79.572
79.572
79.572
79.572
79.572
79.572
79.572
79.572
79.572
79.572
79.572
79.572
79.572
79.572
79.572
79.572
79.572
79.572
79.572
79.572
79.572
79.572
79.572
79.572
79.572
79.572
79.572
79.572
79.572
79.572
79.572
79.572
79.572
79.572
79.572
79.572
79.572
79.572
79.572
79.572
79.572
79.572
79.572
79.572
79.572
79.572
79.572
79.572
79.572
79.572
79.572
79.572
79.572
79.572
79.572
79.572
79.572
79.572
79.572
79.572
79.572
79.572
79.572
79.572
79.572
79.572
79.572
79.572
79.572
79.572
79.572
79.572
79.572
79.572
79.547
79.523
79.498
79.474
79.449
79.425
79.400
79.376
79.351
79.327
79.302
79.278
79.253
79.229
79.204
79.180
79.155
79.131
79.106
79.082
79.057
79.033
79.008
78.984
78.959
78.935
78.910
78.886
78.861
78.837
78.812
78.788
78.763
78.739
78.714
78.690
78.665
78.641
78.616
78.592
78.567
78.543
78.518
78.494
78.469
78.445
78.420
78.396
78.371
78.347
78.322
78.298
78.273
78.249
78.224
78.200
78.175
78.151
78.126
78.102
78.077
78.053
78.028
78.004
77.979
77.955
77.930
77.906
77.881
77.857
77.832
77.808
77.783
77.759
77.734
77.710
77.685
77.661
77.636
77.612
77.587
77.563
77.538
77.514
77.489
77.465
77.440
77.416
77.391
77.367
77.342
77.318
77.293
77.269
77.244
77.220
77.195
77.171
77.146
77.122
77.097
77.073
77.048
77.024
76.999
76.975
76.950
76.926
76.901
76.877
76.852
76.828
76.803
76.779
76.754
76.730
76.705
76.681
76.656
76.632
76.607
76.583
76.558
76.534
76.509
76.485
76.460
76.436
76.411
76.387
76.362
76.338
76.313
76.289
76.264
76.240
76.215
76.191
76.166
76.142
76.117
76.093
76.068
76.044
76.019
75.995
75.970
75.946
75.921
75.897
75.872
75.848
75.823
75.799
75.774
75.750
75.725
75.701
75.676
75.652
75.627
75.603
75.578
75.554
75.529
75.505
75.480
75.456
75.431
75.407
75.382
75.358
75.333
75.309
75.284
75.260
75.235
75.211
75.186
75.162
75.137
75.113
75.088
75.064
75.039
75.015
74.990
74.966
74.941
74.917
74.892
74.868
74.843
74.819
74.794
74.770
74.745
74.721
74.696
74.672
74.672
74.672
74.672
74.672
74.672
74.672
74.672
74.672
74.672
74.672
74.672
74.672
74.672
74.672
74.672
74.672
74.672
74.672
74.672
74.672
74.672
74.672
74.672
74.672
74.672
74.672
74.672
74.672
74.672
74.672
74.672
74.672
74.672
74.672
74.672
74.672
74.672
74.672
74.672
74.672
74.672
74.672
74.672
74.672
74.672
74.672
74.672
74.672
74.672
74.672
74.672
74.672
74.672
74.672
74.672
74.672
74.672
74.672
74.672
74.672
74.672
74.672
74.672
74.672
74.672
74.672
74.672
74.672
74.672
74.672
74.672
74.672
74.672
74.672
74.672
74.672
74.672
74.672
74.672
74.672
74.672
74.672
74.672
74.672
74.672
74.672
74.672
74.672
74.672
74.672
74.672
74.672
74.672
74.672
74.672
74.672
74.672
74.672
74.672
74.672
74.672
74.672
74.672
74.672
74.672
74.672
74.672
74.672
74.672
74.672
74.672
74.672
74.672
74.672
74.672
74.672
74.672
74.672
74.672
74.672
74.672
74.672
74.672
74.672
74.672
74.672
74.672
74.672
74.672
74.672
74.672
74.672
74.672
74.672
74.672
74.672
74.672
74.672
74.672
74.672
74.672
74.672
74.672
74.672
74.672
74.672
74.672
74.672
74.672
74.672
74.672
74.672
74.672
74.672
74.672
74.672
74.672
74.672
74.672
74.672
74.672
74.672
74.672
74.672
74.672
74.672
74.672
74.672
74.672
74.672
74.672
74.672
74.672
74.672
74.672
74.672
74.672
74.672
74.672
74.672
74.672
74.672
74.672
74.672
74.672
74.672
74.672
74.672
74.672
74.672
74.672
74.672
74.672
74.672
74.672
74.672
74.672
74.672
74.672
895.772
897.605
899.438
901.271
903.104
904.937
906.770
908.603
910.436
912.269
914.102
915.935
917.768
919.601
921.434
923.267
925.100
926.933
928.766
930.599
932.432
934.265
936.098
937.931
939.764
941.597
943.430
945.263
947.096
948.929
950.762
952.595
954.428
956.261
958.094
959.927
961.760
963.593
965.426
967.259
969.092
970.925
972.758
974.591
976.424
978.257
980.090
981.923
983.756
985.589
987.422
989.255
991.088
992.921
994.754
996.587
998.420
1000.253
1002.086
1003.919
1005.752
1007.585
1009.418
1011.251
1013.084
1014.917
1016.750
1018.583
1020.416
1022.249
1024.082
1025.915
1027.748
1029.581
1031.414
1033.247
1035.080
1036.913
1038.746
1040.579
1042.412
1044.245
1046.078
1047.911
1049.744
1051.577
1053.410
1055.243
1057.076
1058.909
1060.742
1062.575
1064.408
1066.241
1068.074
1069.907
1071.740
1073.573
1075.406
1077.239
1079.072
1080.905
1082.738
1084.571
1086.404
1088.237
1090.070
1091.903
1093.736
1095.569
1097.402
1099.235
1101.068
1102.901
1104.734
1106.567
1108.400
1110.233
1112.066
1113.899
1115.732
1117.565
1119.398
1121.231
1123.064
1124.897
1126.730
1128.563
1130.396
1132.229
1134.062
1135.895
1137.728
1139.561
1141.394
1143.227
1145.060
1146.893
1148.726
1150.559
1152.392
1154.225
1156.058
1157.891
1159.724
1161.557
1163.390
1165.223
1167.056
1168.889
1170.722
1172.555
1174.388
1176.221
1178.054
1179.887
1181.720
1183.553
1185.386
1187.219
1189.052
1190.885
1192.718
1194.551
1196.384
1198.217
1200.050
1201.883
1203.716
1205.549
1207.382
1209.215
1211.048
1212.881
1214.714
1216.547
1218.380
1220.213
1222.046
1223.879
1225.712
1227.545
1229.378
1231.211
1233.044
1234.877
1236.710
1238.543
1240.376
1242.209
1244.042
1245.875
1247.708
1249.541
1251.374
1253.207
1255.040
1256.873
1258.706
1260.539
1262.372
1268.090
1273.809
1279.527
1285.246
1290.964
1296.683
1302.401
1308.120
1313.838
1319.557
1325.275
1330.994
1336.712
1342.431
1348.149
1353.868
1359.586
1365.305
1371.023
1376.742
1382.460
1388.179
1393.897
1399.616
1405.334
1411.053
1416.771
1422.490
1428.208
1433.927
1439.645
1445.364
1451.082
1456.801
1462.519
1468.238
1473.956
1479.675
1485.393
1491.112
1496.830
1502.549
1508.267
1513.986
1519.704
1525.423
1531.141
1536.860
1542.578
1548.297
1554.015
1559.734
1565.452
1571.171
1576.889
1582.608
1588.326
1594.045
1599.763
1605.482
1611.200
1616.919
1622.637
1628.356
1634.074
1639.793
1645.511
1651.230
1656.948
1662.667
1668.385
1674.104
1679.822
1685.541
1691.259
1696.978
1702.696
1708.415
1714.133
1719.852
1725.570
1731.289
1737.007
1742.726
1748.444
1754.163
1759.881
1765.600
1771.318
1777.037
1782.755
1788.474
1794.192
1799.911
1805.629
1811.348
1817.066
1822.785
1828.503
1834.222
1839.940
1845.659
1851.377
1857.096
1862.814
1868.533
1874.251
1879.970
1885.688
1891.407
1897.125
1902.844
1908.562
1914.281
1919.999
1925.718
1931.436
1937.155
1942.873
1948.592
1954.310
1960.029
1965.747
1971.466
1977.184
1982.903
1988.621
1994.340
2000.058
2005.777
2011.495
2017.214
2022.932
2028.651
2034.369
2040.088
2045.806
2051.525
2057.243
2062.962
2068.680
2074.399
2080.117
2085.836
2091.554
2097.273
2102.991
2108.710
2114.428
2120.147
2125.865
2131.584
2137.302
2143.021
2148.739
2154.458
2160.176
2165.895
2171.613
2177.332
2183.050
2188.769
2194.487
2200.206
2205.924
2211.643
2217.361
2223.080
2228.798
2234.517
2240.235
2245.954
2251.672
2257.391
2263.109
2268.828
2274.546
2280.265
2285.983
2291.702
2297.420
2303.139
2308.857
2314.576
2320.294
2326.013
2331.731
2337.450
2343.168
2348.887
2354.605
2360.324
2366.042
2371.761
2377.479
2383.198
2388.916
2394.635
2400.353
2406.072
2402.406
2398.740
2395.074
2391.408
2387.742
2384.076
2380.410
2376.744
2373.078
2369.412
2365.746
2362.080
2358.414
2354.748
2351.082
2347.416
2343.750
2340.084
2336.418
2332.752
2329.086
2325.420
2321.754
2318.088
2314.422
2310.756
2307.090
2303.424
2299.758
2296.092
2292.426
2288.760
2285.094
2281.428
2277.762
2274.096
2270.430
2266.764
2263.098
2259.432
2255.766
2252.100
2248.434
2244.768
2241.102
2237.436
2233.770
2230.104
2226.438
2222.772
2219.106
2215.440
2211.774
2208.108
2204.442
2200.776
2197.110
2193.444
2189.778
2186.112
2182.446
2178.780
2175.114
2171.448
2167.782
2164.116
2160.450
2156.784
2153.118
2149.452
2145.786
2142.120
2138.454
2134.788
2131.122
2127.456
2123.790
2120.124
2116.458
2112.792
2109.126
2105.460
2101.794
2098.128
2094.462
2090.796
2087.130
2083.464
2079.798
2076.132
2072.466
2068.800
2065.134
2061.468
2057.802
2054.136
2050.470
2046.804
2043.138
2039.472
2035.806
2032.140
2028.474
2024.808
2021.142
2017.476
2013.810
2010.144
2006.478
2002.812
1999.146
1995.480
1991.814
1988.148
1984.482
1980.816
1977.150
1973.484
1969.818
1966.152
1962.486
1958.820
1955.154
1951.488
1947.822
1944.156
1940.490
1936.824
1933.158
1929.492
1925.826
1922.160
1918.494
1914.828
1911.162
1907.496
1903.830
1900.164
1896.498
1892.832
1889.166
1885.500
1881.834
1878.168
1874.502
1870.836
1867.170
1863.504
1859.838
1856.172
1852.506
1848.840
1845.174
1841.508
1837.842
1834.176
1830.510
1826.844
1823.178
1819.512
1815.846
1812.180
1808.514
1804.848
1801.182
1797.516
1793.850
1790.184
1786.518
1782.852
1779.186
1775.520
1771.854
1768.188
1764.522
1760.856
1757.190
1753.524
1749.858
1746.192
1742.526
1738.860
1735.194
1731.528
1727.862
1724.196
1720.530
1716.864
1713.198
1709.532
1705.866
1702.200
1698.534
1694.868
1691.202
1687.536
1683.870
1680.204
1676.538
1672.872
1674.900
1676.929
1678.957
1680.986
1683.014
1685.043
1687.071
1689.100
1691.128
1693.157
1695.185
1697.214
1699.242
1701.271
1703.299
1705.328
1707.356
1709.385
1711.413
1713.442
1715.470
1717.499
1719.527
1721.556
1723.584
1725.613
1727.641
1729.670
1731.698
1733.727
1735.755
1737.784
1739.812
1741.841
