75.414
75.414
75.414
75.414
75.414
75.414
75.414
75.414
75.414
75.414
75.414
75.414
75.414
75.414
75.414
75.414
75.414
75.414
75.414
75.414
75.414
75.414
75.414
75.414
75.414
75.414
75.414
75.414
75.414
75.414
75.414
75.414
75.414
75.414
75.414
75.414
75.414
75.414
75.414
75.414
75.414
75.414
75.414
75.414
75.414
75.414
75.414
75.414
75.414
75.414
75.414
75.414
75.414
75.414
75.414
75.414
75.414
75.414
75.414
75.414
75.414
75.414
75.414
75.414
75.414
75.414
75.414
75.414
75.414
75.414
75.414
75.414
75.414
75.414
75.414
75.414
75.414
75.414
75.414
75.414
75.414
75.414
75.414
75.414
75.414
75.414
75.414
75.414
75.414
75.414
75.414
75.414
75.414
75.414
75.414
75.414
75.414
75.414
75.414
75.414
75.414
75.414
75.414
75.414
75.414
75.414
75.414
75.414
75.414
75.414
75.414
75.414
75.414
75.414
75.414
75.414
75.414
75.414
75.414
75.414
75.414
75.414
75.414
75.414
75.414
75.414
75.414
75.414
75.414
75.414
75.414
75.414
75.414
75.414
75.414
75.414
75.414
75.414
75.414
75.414
75.414
75.414
75.414
75.414
75.414
75.414
75.414
75.414
75.414
75.414
75.414
75.414
75.414
75.414
75.414
75.414
75.414
75.414
75.414
75.414
75.414
75.414
75.414
75.414
75.414
75.414
75.414
75.414
75.414
75.414
75.414
75.414
75.414
75.414
75.414
75.414
75.414
75.414
75.414
75.414
75.414
75.414
75.414
75.414
75.414
75.414
75.414
75.414
75.414
75.414
75.414
75.414
75.414
75.414
75.414
75.414
75.414
75.414
75.414
75.414
75.414
75.414
75.414
75.414
75.414
75.414
75.414
75.414
75.414
75.414
75.414
75.414
75.414
75.414
75.414
75.414
75.414
75.414
75.414
75.414
75.414
75.414
75.414
75.414
75.414
75.414
75.414
75.414
75.414
75.414
75.414
75.414
75.414
75.414
75.414
75.414
75.414
75.414
75.414
75.414
75.414
75.414
75.414
75.414
75.414
75.414
75.414
75.414
75.414
75.414
75.414
75.414
75.414
75.414
75.414
75.414
75.414
75.414
75.414
75.414
75.414
75.414
75.414
75.414
75.414
75.414
75.414
75.414
75.414
75.414
75.414
75.414
75.414
75.414
75.414
75.414
75.414
75.414
75.414
75.414
75.414
75.414
75.414
75.414
75.414
75.414
75.414
75.414
75.414
75.414
75.414
75.414
75.414
75.414
75.414
75.414
75.414
75.414
75.414
75.414
75.414
75.414
75.414
75.414
75.414
75.414
75.414
75.414
75.414
75.414
75.414
75.414
75.414
75.414
75.414
75.414
75.414
75.414
75.414
75.414
75.414
75.414
75.414
75.414
75.414
75.414
75.414
75.414
75.414
75.414
75.414
75.414
75.414
75.414
75.414
75.414
75.414
75.414
75.414
75.414
75.414
75.414
75.414
75.414
75.414
75.414
75.414
75.414
75.414
75.414
75.414
75.414
75.414
75.414
75.414
75.414
75.414
75.414
75.414
75.414
75.414
75.414
75.414
75.414
75.414
75.414
75.414
75.414
75.414
75.414
75.414
75.414
75.414
75.414
75.414
75.414
75.414
75.414
75.414
75.414
75.414
75.414
75.414
75.414
75.414
75.414
75.414
75.414
75.414
75.414
75.414
75.414
75.414
75.414
75.414
75.414
75.414
75.414
75.414
75.414
75.414
75.414
75.414
75.414
75.414
75.414
75.414
75.414
75.414
75.414
75.414
75.414
75.414
75.414
75.414
75.414
75.414
75.414
75.414
75.414
75.414
75.414
75.414
75.414
75.414
75.414
75.414
75.414
75.414
75.414
75.414
75.414
75.414
75.414
75.414
75.414
75.414
75.414
75.414
75.414
75.414
75.414
75.414
75.414
75.414
75.414
75.414
75.414
75.414
75.414
75.414
75.414
75.414
75.414
75.414
75.414
75.414
75.414
75.414
75.414
75.414
75.414
75.414
75.414
75.414
75.414
75.414
75.414
75.414
75.414
75.414
75.414
75.414
75.414
75.414
75.414
75.414
75.414
75.414
75.414
75.414
75.414
75.414
75.414
75.414
75.414
75.414
75.414
75.414
75.414
75.414
75.414
75.414
75.414
75.414
75.414
75.414
75.414
75.414
75.414
75.414
75.414
75.414
75.414
75.414
75.414
75.414
75.414
75.414
75.414
75.414
75.414
75.414
75.414
75.414
75.414
75.414
75.414
75.414
75.414
75.414
75.414
75.414
75.414
75.414
75.414
75.414
75.414
75.414
75.414
75.414
75.414
75.414
75.414
75.414
75.414
730.314
735.617
740.920
746.223
751.526
756.829
762.132
767.435
772.738
778.041
783.344
788.647
793.950
799.253
804.556
809.859
815.162
820.465
825.768
831.071
836.374
841.677
846.980
852.283
857.586
862.889
868.192
873.495
878.798
884.101
889.404
894.707
900.010
905.313
910.616
915.919
921.222
926.525
931.828
937.131
942.434
947.737
953.040
958.343
963.646
968.949
974.252
979.555
984.858
990.161
995.464
1000.767
1006.070
1011.373
1016.676
1021.979
1027.282
1032.585
1037.888
1043.191
1048.494
1053.797
1059.100
1064.403
1069.706
1075.009
1080.312
1085.615
1090.918
1096.221
1101.524
1106.827
1112.130
1117.433
1122.736
1128.039
1133.342
1138.645
1143.948
1149.251
1154.554
1159.857
1165.160
1170.463
1175.766
1181.069
1186.372
1191.675
1196.978
1202.281
1207.584
1212.887
1218.190
1223.493
1228.796
1234.099
1239.402
1244.705
1250.008
1255.311
1260.614
1265.917
1271.220
1276.523
1281.826
1287.129
1292.432
1297.735
1303.038
1308.341
1313.644
1318.947
1324.250
1329.553
1334.856
1340.159
1345.462
1350.765
1356.068
1361.371
1366.674
1371.977
1377.280
1382.583
1387.886
1393.189
1398.492
1403.795
1409.098
1414.401
1419.704
1425.007
1430.310
1435.613
1440.916
1446.219
1451.522
1456.825
1462.128
1467.431
1472.734
1478.037
1483.340
1488.643
1493.946
1499.249
1504.552
1509.855
1515.158
1520.461
1525.764
1531.067
1536.370
1541.673
1546.976
1552.279
1557.582
1562.885
1568.188
1573.491
1578.794
1584.097
1589.400
1594.703
1600.006
1605.309
1610.612
1615.915
1621.218
1626.521
1631.824
1637.127
1642.430
1647.733
1653.036
1658.339
1663.642
1668.945
1674.248
1679.551
1684.854
1690.157
1695.460
1700.763
1706.066
1711.369
1716.672
1721.975
1727.278
1732.581
1737.884
1743.187
1748.490
1753.793
1759.096
1764.399
1769.702
1775.005
1780.308
1785.611
1790.914
1790.645
1790.376
1790.107
1789.838
1789.569
1789.300
1789.031
1788.762
1788.493
1788.224
1787.955
1787.686
1787.417
1787.148
1786.879
1786.610
1786.341
1786.072
1785.803
1785.534
1785.265
1784.996
1784.727
1784.458
1784.189
1783.920
1783.651
1783.382
1783.113
1782.844
1782.575
1782.306
1782.037
1781.768
1781.499
1781.230
1780.961
1780.692
1780.423
1780.154
1779.885
1779.616
1779.347
1779.078
1778.809
1778.540
1778.271
1778.002
1777.733
1777.464
1777.195
1776.926
1776.657
1776.388
1776.119
1775.850
1775.581
1775.312
1775.043
1774.774
1774.505
1774.236
1773.967
1773.698
1773.429
1773.160
1772.891
1772.622
1772.353
1772.084
1771.815
1771.546
1771.277
1771.008
1770.739
1770.470
1770.201
1769.932
1769.663
1769.394
1769.125
1768.856
1768.587
1768.318
1768.049
1767.780
1767.511
1767.242
1766.973
1766.704
1766.435
1766.166
1765.897
1765.628
1765.359
1765.090
1764.821
1764.552
1764.283
1764.014
1763.745
1763.476
1763.207
1762.938
1762.669
1762.400
1762.131
1761.862
1761.593
1761.324
1761.055
1760.786
1760.517
1760.248
1759.979
1759.710
1759.441
1759.172
1758.903
1758.634
1758.365
1758.096
1757.827
1757.558
1757.289
1757.020
1756.751
1756.482
1756.213
1755.944
1755.675
1755.406
1755.137
1754.868
1754.599
1754.330
1754.061
1753.792
1753.523
1753.254
1752.985
1752.716
1752.447
1752.178
1751.909
1751.640
1751.371
1751.102
1750.833
1750.564
1750.295
1750.026
1749.757
1749.488
1749.219
1748.950
1748.681
1748.412
1748.143
1747.874
1747.605
1747.336
1747.067
1746.798
1746.529
1746.260
1745.991
1745.722
1745.453
1745.184
1744.915
1744.646
1744.377
1744.108
1743.839
1743.570
1743.301
1743.032
1742.763
1742.494
1742.225
1741.956
1741.687
1741.418
1741.149
1740.880
1740.611
1740.342
1740.073
1739.804
1739.535
1739.266
1738.997
1738.728
1738.459
1738.190
1737.921
1737.652
1737.383
1737.114
1736.870
1736.626
1736.382
1736.138
1735.894
1735.650
1735.406
1735.162
1734.918
1734.674
1734.430
1734.186
1733.942
1733.698
1733.454
1733.210
1732.966
1732.722
1732.478
1732.234
1731.990
1731.746
1731.502
1731.258
1731.014
1730.770
1730.526
1730.282
1730.038
1729.794
1729.550
1729.306
1729.062
1728.818
1728.574
1728.330
1728.086
1727.842
1727.598
1727.354
1727.110
1726.866
1726.622
1726.378
1726.134
1725.890
1725.646
1725.402
1725.158
1724.914
1724.670
1724.426
1724.182
1723.938
1723.694
1723.450
1723.206
1722.962
1722.718
1722.474
1722.230
1721.986
1721.742
1721.498
1721.254
1721.010
1720.766
1720.522
1720.278
1720.034
1719.790
1719.546
1719.302
1719.058
1718.814
1718.570
1718.326
1718.082
1717.838
1717.594
1717.350
1717.106
1716.862
1716.618
1716.374
1716.130
1715.886
1715.642
1715.398
1715.154
1714.910
1714.666
1714.422
1714.178
1713.934
1713.690
1713.446
1713.202
1712.958
1712.714
1712.470
1712.226
1711.982
1711.738
1711.494
1711.250
1711.006
1710.762
1710.518
1710.274
1710.030
1709.786
1709.542
1709.298
1709.054
1708.810
1708.566
1708.322
1708.078
1707.834
1707.590
1707.346
1707.102
1706.858
1706.614
1706.370
1706.126
1705.882
1705.638
1705.394
1705.150
1704.906
1704.662
1704.418
1704.174
1703.930
1703.686
1703.442
1703.198
1702.954
1702.710
1702.466
1702.222
1701.978
1701.734
1701.490
1701.246
1701.002
1700.758
1700.514
1700.270
1700.026
1699.782
1699.538
1699.294
1699.050
1698.806
1698.562
1698.318
1698.074
1697.830
1697.586
1697.342
1697.098
1696.854
1696.610
1696.366
1696.122
1695.878
1695.634
1695.390
1695.146
1694.902
1694.658
1694.414
1694.170
1693.926
1693.682
1693.438
1693.194
1692.950
1692.706
1692.462
1692.218
1691.974
1691.730
1691.486
1691.242
1690.998
1690.754
1690.510
1690.266
1690.022
1689.778
1689.534
1689.290
1689.046
1688.802
1688.558
1688.314
1690.538
1692.761
1694.985
1697.208
1699.432
1701.655
1703.879
1706.102
1708.326
1710.549
1712.773
1714.996
1717.220
1719.443
1721.667
1723.890
1726.114
1728.337
1730.561
1732.784
1735.008
1737.231
1739.455
1741.678
1743.902
1746.125
1748.349
1750.572
1752.796
1755.019
1757.243
1759.466
1761.690
1763.913
1766.137
1768.360
1770.584
1772.807
1775.031
1777.254
1779.478
1781.701
1783.925
1786.148
1788.372
1790.595
1792.819
1795.042
1797.266
1799.489
1801.713
1803.936
1806.160
1808.383
1810.607
1812.830
1815.054
1817.277
1819.501
1821.724
1823.948
1826.171
1828.395
1830.618
1832.842
1835.065
1837.289
1839.512
1841.736
1843.959
1846.183
1848.406
1850.630
1852.853
1855.077
1857.300
1859.524
1861.747
1863.971
1866.194
1868.418
1870.641
1872.865
1875.088
1877.312
1879.535
1881.759
1883.982
1886.206
1888.429
1890.653
1892.876
1895.100
1897.323
1899.547
1901.770
1903.994
1906.217
1908.441
1910.664
1912.888
1915.111
1917.335
1919.558
1921.782
1924.005
1926.229
1928.452
1930.676
1932.899
1935.123
1937.346
1939.570
1941.793
1944.017
1946.240
1948.464
1950.687
1952.911
1955.134
1957.358
1959.581
1961.805
1964.028
1966.252
1968.475
1970.699
1972.922
1975.146
1977.369
1979.593
1981.816
1984.040
1986.263
1988.487
1990.710
1992.934
1995.157
1997.381
1999.604
2001.828
2004.051
2006.275
2008.498
2010.722
2012.945
2015.169
2017.392
2019.616
2021.839
2024.063
2026.286
2028.510
2030.733
2032.957
2035.180
2037.404
2039.627
2041.851
2044.074
2046.298
2048.521
2050.745
2052.968
2055.192
2057.415
2059.639
2061.862
2064.086
2066.309
2068.533
2070.756
2072.980
2075.203
2077.427
2079.650
2081.874
2084.097
2086.321
2088.544
2090.768
2092.991
2095.215
2097.438
2099.662
2101.885
2104.109
2106.332
2108.556
2110.779
2113.003
2115.226
2117.450
2119.673
2121.897
2124.120
2126.344
2128.567
2130.791
2133.014
2132.232
2131.450
2130.668
2129.886
2129.104
2128.322
2127.540
2126.758
2125.976
2125.194
2124.412
2123.630
2122.848
2122.066
2121.284
2120.502
2119.720
2118.938
2118.156
2117.374
2116.592
2115.810
2115.028
2114.246
2113.464
2112.682
2111.900
2111.118
2110.336
2109.554
2108.772
2107.990
2107.208
2106.426
2105.644
2104.862
2104.080
2103.298
2102.516
2101.734
2100.952
2100.170
2099.388
2098.606
2097.824
2097.042
2096.260
2095.478
2094.696
2093.914
2093.132
2092.350
2091.568
2090.786
2090.004
2089.222
2088.440
2087.658
2086.876
2086.094
2085.312
2084.530
2083.748
2082.966
2082.184
2081.402
2080.620
2079.838
2079.056
2078.274
2077.492
2076.710
2075.928
2075.146
2074.364
2073.582
2072.800
2072.018
2071.236
2070.454
2069.672
2068.890
2068.108
2067.326
2066.544
2065.762
2064.980
2064.198
2063.416
2062.634
2061.852
2061.070
2060.288
2059.506
2058.724
2057.942
2057.160
2056.378
2055.596
2054.814
2054.032
2053.250
2052.468
2051.686
2050.904
2050.122
2049.340
2048.558
2047.776
2046.994
2046.212
2045.430
2044.648
2043.866
2043.084
2042.302
2041.520
2040.738
2039.956
2039.174
2038.392
2037.610
2036.828
2036.046
2035.264
2034.482
2033.700
2032.918
2032.136
2031.354
2030.572
2029.790
2029.008
2028.226
2027.444
2026.662
2025.880
2025.098
2024.316
2023.534
2022.752
2021.970
2021.188
2020.406
2019.624
2018.842
2018.060
2017.278
2016.496
2015.714
2014.932
2014.150
2013.368
2012.586
2011.804
2011.022
2010.240
2009.458
2008.676
2007.894
2007.112
2006.330
2005.548
2004.766
2003.984
2003.202
2002.420
2001.638
2000.856
2000.074
1999.292
1998.510
1997.728
1996.946
1996.164
1995.382
1994.600
1993.818
1993.036
1992.254
1991.472
1990.690
1989.908
1989.126
1988.344
1987.562
1986.780
1985.998
1985.216
1984.434
1983.652
1982.870
1982.088
1981.306
1980.524
1979.742
1978.960
1978.178
1977.396
1976.614
1975.246
1973.877
1972.509
1971.140
1969.772
1968.403
1967.035
1965.666
1964.298
1962.929
1961.561
1960.192
1958.824
1957.455
1956.087
1954.718
1953.350
1951.981
1950.613
1949.244
1947.876
1946.507
1945.139
1943.770
1942.402
1941.033
1939.665
1938.296
1936.928
1935.559
1934.191
1932.822
1931.454
1930.085
1928.717
1927.348
1925.980
1924.611
1923.243
1921.874
1920.506
1919.137
1917.769
1916.400
1915.032
1913.663
1912.295
1910.926
1909.558
1908.189
1906.821
1905.452
1904.084
1902.715
1901.347
1899.978
1898.610
1897.241
1895.873
1894.504
1893.136
1891.767
1890.399
1889.030
1887.662
1886.293
1884.925
1883.556
1882.188
1880.819
1879.451
1878.082
1876.714
1875.345
1873.977
1872.608
1871.240
1869.871
1868.503
1867.134
1865.766
1864.397
1863.029
1861.660
1860.292
1858.923
1857.555
1856.186
1854.818
1853.449
1852.081
1850.712
1849.344
1847.975
1846.607
1845.238
1843.870
1842.501
1841.133
1839.764
1838.396
1837.027
1835.659
1834.290
1832.922
1831.553
1830.185
1828.816
1827.448
1826.079
1824.711
1823.342
1821.974
1820.605
1819.237
1817.868
1816.500
1815.131
1813.763
1812.394
1811.026
1809.657
1808.289
1806.920
1805.552
1804.183
1802.815
1801.446
1800.078
1798.709
1797.341
1795.972
1794.604
1793.235
1791.867
1790.498
1789.130
1787.761
1786.393
1785.024
1783.656
1782.287
1780.919
1779.550
1778.182
1776.813
1775.445
1774.076
1772.708
1771.339
1769.971
1768.602
1767.234
1765.865
1764.497
1763.128
1761.760
1760.391
1759.023
1757.654
1756.286
1754.917
1753.549
1752.180
1750.812
1749.443
1748.075
1746.706
1745.338
1743.969
1742.601
1741.232
1739.864
1738.495
1737.127
1735.758
1734.390
1733.021
1731.653
1730.284
1728.916
1727.547
1726.179
1724.810
1723.442
1722.073
1720.705
1719.336
1717.968
1716.599
1715.231
1713.862
1712.494
1711.125
1709.757
1708.388
1707.020
1705.651
1704.283
1702.914
1705.041
1707.167
1709.294
1711.420
1713.547
1715.673
1717.800
1719.926
1722.053
1724.179
1726.306
1728.432
1730.559
1732.685
1734.812
1736.938
1739.065
1741.191
1743.318
1745.444
1747.571
1749.697
1751.824
1753.950
1756.077
1758.203
1760.330
1762.456
1764.583
1766.709
1768.836
1770.962
1773.089
1775.215
1777.342
1779.468
1781.595
1783.721
1785.848
1787.974
1790.101
1792.227
1794.354
1796.480
1798.607
1800.733
1802.860
1804.986
1807.113
1809.239
1811.366
1813.492
1815.619
1817.745
1819.872
1821.998
1824.125
1826.251
1828.378
1830.504
1832.631
1834.757
1836.884
1839.010
1841.137
1843.263
1845.390
1847.516
1849.643
1851.769
1853.896
1856.022
1858.149
1860.275
1862.402
1864.528
1866.655
1868.781
1870.908
1873.034
1875.161
1877.287
1879.414
1881.540
1883.667
1885.793
1887.920
1890.046
1892.173
1894.299
1896.426
1898.552
1900.679
1902.805
1904.932
1907.058
1909.185
1911.311
1913.438
1915.564
1917.691
1919.817
1921.944
1924.070
1926.197
1928.323
1930.450
1932.576
1934.703
1936.829
1938.956
1941.082
1943.209
1945.335
1947.462
1949.588
1951.715
1953.841
1955.968
1958.094
1960.221
1962.347
1964.474
1966.600
1968.727
1970.853
1972.980
1975.106
1977.233
1979.359
1981.486
1983.612
1985.739
1987.865
1989.992
1992.118
1994.245
1996.371
1998.498
2000.624
2002.751
2004.877
2007.004
2009.130
2011.257
2013.383
2015.510
2017.636
2019.763
2021.889
2024.016
2026.142
2028.269
2030.395
2032.522
2034.648
2036.775
2038.901
2041.028
2043.154
2045.281
2047.407
2049.534
2051.660
2053.787
2055.913
2058.040
2060.166
2062.293
2064.419
2066.546
2068.672
2070.799
2072.925
2075.052
2077.178
2079.305
2081.431
2083.558
2085.684
2087.811
2089.937
2092.064
2094.190
2096.317
2098.443
2100.570
2102.696
2104.823
2106.949
2109.076
2111.202
2113.329
2115.455
2117.582
2119.708
2121.835
2123.961
2126.088
2128.214
2124.622
2121.029
2117.437
2113.844
2110.252
2106.659
2103.067
2099.474
2095.882
2092.289
2088.697
2085.104
2081.512
2077.919
2074.327
2070.734
2067.142
2063.549
2059.957
2056.364
2052.772
2049.179
2045.587
2041.994
2038.402
2034.809
2031.217
2027.624
2024.032
2020.439
2016.847
2013.254
2009.662
2006.069
2002.477
1998.884
1995.292
1991.699
1988.107
1984.514
1980.922
1977.329
1973.737
1970.144
1966.552
1962.959
1959.367
1955.774
1952.182
1948.589
1944.997
1941.404
1937.812
1934.219
1930.627
1927.034
1923.442
1919.849
1916.257
1912.664
1909.072
1905.479
1901.887
