119.519
119.519
119.519
119.519
119.519
119.519
119.519
119.519
119.519
119.519
119.519
119.519
119.519
119.519
119.519
119.519
119.519
119.519
119.519
119.519
119.519
119.519
119.519
119.519
119.519
119.519
119.519
119.519
119.519
119.519
119.519
119.519
119.519
119.519
119.519
119.519
119.519
119.519
119.519
119.519
119.519
119.519
119.519
119.519
119.519
119.519
119.519
119.519
119.519
119.519
119.519
119.519
119.519
119.519
119.519
119.519
119.519
119.519
119.519
119.519
119.519
119.519
119.519
119.519
119.519
119.519
119.519
119.519
119.519
119.519
119.519
119.519
119.519
119.519
119.519
119.519
119.519
119.519
119.519
119.519
119.519
119.519
119.519
119.519
119.519
119.519
119.519
119.519
119.519
119.519
119.519
119.519
119.519
119.519
119.519
119.519
119.519
119.519
119.519
119.519
119.519
119.519
119.519
119.519
119.519
119.519
119.519
119.519
119.519
119.519
119.519
119.519
119.519
119.519
119.519
119.519
119.519
119.519
119.519
119.519
119.519
119.519
119.519
119.519
119.519
119.519
119.519
119.519
119.519
119.519
119.519
119.519
119.519
119.519
119.519
119.519
119.519
119.519
119.519
119.519
119.519
119.519
539.819
543.264
546.710
550.155
553.601
557.046
560.492
563.937
567.383
570.828
574.274
577.719
581.165
584.610
588.056
591.501
594.947
598.392
601.838
605.283
608.729
612.174
615.620
619.065
622.511
625.956
629.402
632.847
636.293
639.738
643.184
646.629
650.075
653.520
656.966
660.411
663.857
667.302
670.748
674.193
677.639
681.084
684.530
687.975
691.421
694.866
698.312
701.757
705.203
708.648
712.094
715.539
718.985
722.430
725.876
729.321
732.767
736.212
739.658
743.103
746.549
749.994
753.440
756.885
760.331
763.776
767.222
770.667
774.113
777.558
781.004
784.449
787.895
791.340
794.786
798.231
801.677
805.122
808.568
812.013
815.459
818.904
822.350
825.795
829.241
832.686
836.132
839.577
843.023
846.468
849.914
853.359
856.805
860.250
863.696
867.141
870.587
874.032
877.478
880.923
884.369
887.814
891.260
894.705
898.151
901.596
905.042
908.487
911.933
915.378
918.824
922.269
925.715
929.160
932.606
936.051
939.497
942.942
946.388
949.833
953.279
956.724
960.170
963.615
967.061
970.506
973.952
977.397
980.843
984.288
987.734
991.179
994.625
998.070
1001.516
1004.961
1008.407
1011.852
1015.298
1018.743
1022.189
1025.634
1029.080
1032.525
1035.971
1039.416
1042.862
1046.307
1049.753
1053.198
1056.644
1060.089
1063.535
1066.980
1070.426
1073.871
1077.317
1080.762
1084.208
1087.653
1091.099
1094.544
1097.990
1101.435
1104.881
1108.326
1111.772
1115.217
1118.663
1122.108
1125.554
1128.999
1132.445
1135.890
1139.336
1142.781
1146.227
1149.672
1153.118
1156.563
1160.009
1163.454
1166.900
1170.345
1173.791
1177.236
1180.682
1184.127
1187.573
1191.018
1194.464
1197.909
1201.355
1204.800
1208.246
1211.691
1215.137
1218.582
1222.028
1225.473
1228.919
1233.587
1238.255
1242.923
1247.591
1252.259
1256.927
1261.595
1266.263
1270.931
1275.599
1280.267
1284.935
1289.603
1294.271
1298.939
1303.607
1308.275
1312.943
1317.611
1322.279
1326.947
1331.615
1336.283
1340.951
1345.619
1350.287
1354.955
1359.623
1364.291
1368.959
1373.627
1378.295
1382.963
1387.631
1392.299
1396.967
1401.635
1406.303
1410.971
1415.639
1420.307
1424.975
1429.643
1434.311
1438.979
1443.647
1448.315
1452.983
1457.651
1462.319
1466.987
1471.655
1476.323
1480.991
1485.659
1490.327
1494.995
1499.663
1504.331
1508.999
1513.667
1518.335
1523.003
1527.671
1532.339
1537.007
1541.675
1546.343
1551.011
1555.679
1560.347
1565.015
1569.683
1574.351
1579.019
1583.687
1588.355
1593.023
1597.691
1602.359
1607.027
1611.695
1616.363
1621.031
1625.699
1630.367
1635.035
1639.703
1644.371
1649.039
1653.707
1658.375
1663.043
1667.711
1672.379
1677.047
1681.715
1686.383
1691.051
1695.719
1700.387
1705.055
1709.723
1714.391
1719.059
1723.727
1728.395
1733.063
1737.731
1742.399
1747.067
1751.735
1756.403
1761.071
1765.739
1770.407
1775.075
1779.743
1784.411
1789.079
1793.747
1798.415
1803.083
1807.751
1812.419
1817.087
1821.755
1826.423
1831.091
1835.759
1840.427
1845.095
1849.763
1854.431
1859.099
1863.767
1868.435
1873.103
1877.771
1882.439
1887.107
1891.775
1896.443
1901.111
1905.779
1910.447
1915.115
1919.783
1924.451
1929.119
1933.787
1938.455
1943.123
1947.791
1952.459
1957.127
1961.795
1966.463
1971.131
1975.799
1980.467
1985.135
1989.803
1994.471
1999.139
2003.807
2008.475
2013.143
2017.811
2022.479
2027.147
2031.815
2036.483
2041.151
2045.819
2050.487
2055.155
2059.823
2064.491
2069.159
2073.827
2078.495
2083.163
2087.831
2092.499
2097.167
2101.835
2106.503
2111.171
2115.839
2120.507
2125.175
2129.843
2134.511
2139.179
2143.847
2148.515
2153.183
2157.851
2162.519
2162.861
2163.203
2163.545
2163.887
2164.229
2164.571
2164.913
2165.255
2165.597
2165.939
2166.281
2166.623
2166.965
2167.307
2167.649
2167.991
2168.333
2168.675
2169.017
2169.359
2169.701
2170.043
2170.385
2170.727
2171.069
2171.411
2171.753
2172.095
2172.437
2172.779
2173.121
2173.463
2173.805
2174.147
2174.489
2174.831
2175.173
2175.515
2175.857
2176.199
2176.541
2176.883
2177.225
2177.567
2177.909
2178.251
2178.593
2178.935
2179.277
2179.619
2179.961
2180.303
2180.645
2180.987
2181.329
2181.671
2182.013
2182.355
2182.697
2183.039
2183.381
2183.723
2184.065
2184.407
2184.749
2185.091
2185.433
2185.775
2186.117
2186.459
2186.801
2187.143
2187.485
2187.827
2188.169
2188.511
2188.853
2189.195
2189.537
2189.879
2190.221
2190.563
2190.905
2191.247
2191.589
2191.931
2192.273
2192.615
2192.957
2193.299
2193.641
2193.983
2194.325
2194.667
2195.009
2195.351
2195.693
2196.035
2196.377
2196.719
2197.061
2197.403
2197.745
2198.087
2198.429
2198.771
2199.113
2199.455
2199.797
2200.139
2200.481
2200.823
2201.165
2201.507
2201.849
2202.191
2202.533
2202.875
2203.217
2203.559
2203.901
2204.243
2204.585
2204.927
2205.269
2205.611
2205.953
2206.295
2206.637
2206.979
2207.321
2207.663
2208.005
2208.347
2208.689
2209.031
2209.373
2209.715
2210.057
2210.399
2210.741
2211.083
2211.425
2211.767
2212.109
2212.451
2212.793
2213.135
2213.477
2213.819
2214.161
2214.503
2214.845
2215.187
2215.529
2215.871
2216.213
2216.555
2216.897
2217.239
2217.581
2217.923
2218.265
2218.607
2218.949
2219.291
2219.633
2219.975
2220.317
2220.659
2221.001
2221.343
2221.685
2222.027
2222.369
2222.711
2223.053
2223.395
2223.737
2224.079
2224.421
2224.763
2225.105
2225.447
2225.789
2226.131
2226.473
2226.815
2227.157
2227.499
2227.841
2228.183
2228.525
2228.867
2229.209
2229.551
2229.893
2230.235
2230.577
2230.919
2227.791
2224.663
2221.535
2218.407
2215.279
2212.151
2209.023
2205.895
2202.767
2199.639
2196.511
2193.383
2190.255
2187.127
2183.999
2180.871
2177.743
2174.615
2171.487
2168.359
2165.231
2162.103
2158.975
2155.847
2152.719
2149.591
2146.463
2143.335
2140.207
2137.079
2133.951
2130.823
2127.695
2124.567
2121.439
2118.311
2115.183
2112.055
2108.927
2105.799
2102.671
2099.543
2096.415
2093.287
2090.159
2087.031
2083.903
2080.775
2077.647
2074.519
2071.391
2068.263
2065.135
2062.007
2058.879
2055.751
2052.623
2049.495
2046.367
2043.239
2040.111
2036.983
2033.855
2030.727
2027.599
2024.471
2021.343
2018.215
2015.087
2011.959
2008.831
2005.703
2002.575
1999.447
1996.319
1993.191
1990.063
1986.935
1983.807
1980.679
1977.551
1974.423
1971.295
1968.167
1965.039
1961.911
1958.783
1955.655
1952.527
1949.399
1946.271
1943.143
1940.015
1936.887
1933.759
1930.631
1927.503
1924.375
1921.247
1918.119
1914.991
1911.863
1908.735
1905.607
1902.479
1899.351
1896.223
1893.095
1889.967
1886.839
1883.711
1880.583
1877.455
1874.327
1871.199
1868.071
1864.943
1861.815
1858.687
1855.559
1852.431
1849.303
1846.175
1843.047
1839.919
1836.791
1833.663
1830.535
1827.407
1824.279
1821.151
1818.023
1814.895
1811.767
1808.639
1805.511
1802.383
1799.255
1796.127
1792.999
1789.871
1786.743
1783.615
1780.487
1777.359
1774.231
1771.103
1767.975
1764.847
1761.719
1758.591
1755.463
1752.335
1749.207
1746.079
1742.951
1739.823
1736.695
1733.567
1730.439
1727.311
1724.183
1721.055
1717.927
1714.799
1711.671
1708.543
1705.415
1702.287
1699.159
1696.031
1692.903
1689.775
1686.647
1683.519
1680.391
1677.263
1674.135
1671.007
1667.879
1664.751
1661.623
1658.495
1655.367
1652.239
1649.111
1645.983
1642.855
1639.727
1636.599
1633.471
1630.343
1627.215
1624.087
1620.959
1617.831
1614.703
1611.575
1608.447
1605.319
1609.327
1613.335
1617.343
1621.351
1625.359
1629.367
1633.375
1637.383
1641.391
1645.399
1649.407
1653.415
1657.423
1661.431
1665.439
1669.447
1673.455
1677.463
1681.471
1685.479
1689.487
1693.495
1697.503
1701.511
1705.519
1709.527
1713.535
1717.543
1721.551
1725.559
1729.567
1733.575
1737.583
1741.591
1745.599
1749.607
1753.615
1757.623
1761.631
1765.639
1769.647
1773.655
1777.663
1781.671
1785.679
1789.687
1793.695
1797.703
1801.711
1805.719
1809.727
1813.735
1817.743
1821.751
1825.759
1829.767
1833.775
1837.783
1841.791
1845.799
1849.807
1853.815
1857.823
1861.831
1865.839
1869.847
1873.855
1877.863
1881.871
1885.879
1889.887
1893.895
1897.903
1901.911
1905.919
1909.927
1913.935
1917.943
1921.951
1925.959
1929.967
1933.975
1937.983
1941.991
1945.999
1950.007
1954.015
1958.023
1962.031
1966.039
1970.047
1974.055
1978.063
1982.071
1986.079
1990.087
1994.095
1998.103
2002.111
2006.119
2010.127
2014.135
2018.143
2022.151
2026.159
2030.167
2034.175
2038.183
2042.191
2046.199
2050.207
2054.215
2058.223
2062.231
2066.239
2070.247
2074.255
2078.263
2082.271
2086.279
2090.287
2094.295
2098.303
2102.311
2106.319
2110.327
2114.335
2118.343
2122.351
2126.359
2130.367
2134.375
2138.383
2142.391
2146.399
2150.407
2154.415
2158.423
2162.431
2166.439
2170.447
2174.455
2178.463
2182.471
2186.479
2190.487
2194.495
2198.503
2202.511
2206.519
2210.527
2214.535
2218.543
2222.551
2226.559
2230.567
2234.575
2238.583
2242.591
2246.599
2250.607
2254.615
2258.623
2262.631
2266.639
2270.647
2274.655
2278.663
2282.671
2286.679
2290.687
2294.695
2298.703
2302.711
2306.719
2310.727
2314.735
2318.743
2322.751
2326.759
2330.767
2334.775
2338.783
2342.791
2346.799
2350.807
2354.815
2358.823
2362.831
2366.839
2370.847
2374.855
2378.863
2382.871
2386.879
2390.887
2394.895
2398.903
2402.911
2406.919
2404.450
2401.982
2399.513
2397.045
2394.576
2392.108
2389.639
2387.171
2384.702
2382.234
2379.765
2377.297
2374.828
2372.360
2369.891
2367.423
2364.954
2362.486
2360.017
2357.549
2355.080
2352.612
2350.143
2347.675
2345.206
2342.738
2340.269
2337.801
2335.332
2332.864
2330.395
2327.927
2325.458
2322.990
2320.521
2318.053
2315.584
2313.116
2310.647
2308.179
2305.710
2303.242
2300.773
2298.305
2295.836
2293.368
2290.899
2288.431
2285.962
2283.494
2281.025
2278.557
2276.088
2273.620
2271.151
2268.683
2266.214
2263.746
2261.277
2258.809
2256.340
2253.872
2251.403
2248.935
2246.466
2243.998
2241.529
2239.061
2236.592
2234.124
2231.655
2229.187
2226.718
2224.250
2221.781
2219.313
2216.844
2214.376
2211.907
2209.439
2206.970
2204.502
2202.033
2199.565
2197.096
2194.628
2192.159
2189.691
2187.222
2184.754
2182.285
2179.817
2177.348
2174.880
2172.411
2169.943
2167.474
2165.006
2162.537
2160.069
2157.600
2155.132
2152.663
2150.195
2147.726
2145.258
2142.789
2140.321
2137.852
2135.384
2132.915
2130.447
2127.978
2125.510
2123.041
2120.573
2118.104
2115.636
2113.167
2110.699
2108.230
2105.762
2103.293
2100.825
2098.356
2095.888
2093.419
2090.951
2088.482
2086.014
2083.545
2081.077
2078.608
2076.140
2073.671
2071.203
2068.734
2066.266
2063.797
2061.329
2058.860
2056.392
2053.923
2051.455
2048.986
2046.518
2044.049
2041.581
2039.112
2036.644
2034.175
2031.707
2029.238
2026.770
2024.301
2021.833
2019.364
2016.896
2014.427
2011.959
2009.490
2007.022
2004.553
2002.085
1999.616
1997.148
1994.679
1992.211
1989.742
1987.274
1984.805
1982.337
1979.868
1977.400
1974.931
1972.463
1969.994
1967.526
1965.057
1962.589
1960.120
1957.652
1955.183
1952.715
1950.246
1947.778
1945.309
1942.841
1940.372
1937.904
1935.435
1932.967
1930.498
1928.030
1925.561
1923.093
1920.624
1918.156
1915.687
1913.219
1912.046
1910.873
1909.700
1908.527
1907.354
1906.181
1905.008
1903.835
1902.662
1901.489
1900.316
1899.143
1897.970
1896.797
1895.624
1894.451
1893.278
1892.105
1890.932
1889.759
1888.586
1887.413
1886.240
1885.067
1883.894
1882.721
1881.548
1880.375
1879.202
1878.029
1876.856
1875.683
1874.510
1873.337
1872.164
1870.991
1869.818
1868.645
1867.472
1866.299
1865.126
1863.953
1862.780
1861.607
1860.434
1859.261
1858.088
1856.915
1855.742
1854.569
1853.396
1852.223
1851.050
1849.877
1848.704
1847.531
1846.358
1845.185
1844.012
1842.839
1841.666
1840.493
1839.320
1838.147
1836.974
1835.801
1834.628
1833.455
1832.282
1831.109
1829.936
1828.763
1827.590
1826.417
1825.244
1824.071
1822.898
1821.725
1820.552
1819.379
1818.206
1817.033
1815.860
1814.687
1813.514
1812.341
1811.168
1809.995
1808.822
1807.649
1806.476
1805.303
1804.130
1802.957
1801.784
1800.611
1799.438
1798.265
1797.092
1795.919
1794.746
1793.573
1792.400
1791.227
1790.054
1788.881
1787.708
1786.535
1785.362
1784.189
1783.016
1781.843
1780.670
1779.497
1778.324
1777.151
1775.978
1774.805
1773.632
1772.459
1771.286
1770.113
1768.940
1767.767
1766.594
1765.421
1764.248
1763.075
1761.902
1760.729
1759.556
1758.383
1757.210
1756.037
1754.864
1753.691
1752.518
1751.345
1750.172
1748.999
1747.826
1746.653
1745.480
1744.307
1743.134
1741.961
1740.788
1739.615
1738.442
1737.269
1736.096
1734.923
1733.750
1732.577
1731.404
1730.231
1729.058
1727.885
1726.712
1725.539
1724.366
1723.193
1722.020
1720.847
1719.674
1718.501
1717.328
1716.155
1714.982
1713.809
1712.636
1711.463
1710.290
1709.117
1707.944
1706.771
1705.598
1704.425
1703.252
1702.079
1700.906
1699.733
1698.560
1697.387
1696.214
1695.041
1693.868
1692.695
1691.522
1690.349
1689.176
1688.003
1686.830
1685.657
1684.484
1683.311
1682.138
1680.965
1679.792
1678.619
1675.564
1672.510
1669.455
1666.401
1663.346
1660.292
1657.237
1654.183
1651.128
1648.074
1645.019
1641.965
1638.910
1635.856
1632.801
1629.747
1626.692
1623.638
1620.583
1617.529
1614.474
1611.420
1608.365
1605.311
1602.256
1599.202
1596.147
1593.093
1590.038
1586.984
1583.929
1580.875
1577.820
1574.766
1571.711
1568.657
1565.602
1562.548
1559.493
1556.439
1553.384
1550.330
1547.275
1544.221
1541.166
1538.112
1535.057
1532.003
1528.948
1525.894
1522.839
1519.785
1516.730
1513.676
1510.621
1507.567
1504.512
1501.458
1498.403
1495.349
1492.294
1489.240
1486.185
1483.131
1480.076
1477.022
1473.967
1470.913
1467.858
1464.804
1461.749
1458.695
1455.640
1452.586
1449.531
1446.477
1443.422
1440.368
1437.313
1434.259
1431.204
1428.150
1425.095
1422.041
1418.986
1415.932
1412.877
1409.823
1406.768
1403.714
1400.659
1397.605
1394.550
1391.496
1388.441
1385.387
1382.332
1379.278
1376.223
1373.169
1370.114
1367.060
1364.005
1360.951
1357.896
1354.842
1351.787
1348.733
1345.678
1342.624
1339.569
1336.515
1333.460
1330.406
1327.351
1324.297
1321.242
1318.188
1315.133
1312.079
1309.024
1305.970
1302.915
1299.861
1296.806
1293.752
1290.697
1287.643
1284.588
1281.534
1278.479
1275.425
1272.370
1269.316
1266.261
1263.207
1260.152
1257.098
1254.043
1250.989
1247.934
1244.880
1241.825
1238.771
1235.716
1232.662
1229.607
1226.553
1223.498
1220.444
1217.389
1214.335
1211.280
1208.226
1205.171
1202.117
1199.062
1196.008
1192.953
1189.899
1186.844
1183.790
1180.735
1177.681
1174.626
1171.572
1168.517
1165.463
1162.408
1159.354
1156.299
1153.245
1150.190
1147.136
1144.081
1141.027
1137.972
1134.918
1131.863
1128.809
1125.754
1122.700
1119.645
1116.591
1113.536
1110.482
1107.427
1104.373
1101.318
1098.264
1095.209
1092.155
1089.100
1086.046
1082.991
1079.937
1076.882
1073.828
1070.773
1067.719
1071.189
1074.659
1078.129
1081.599
1085.069
1088.539
1092.009
1095.479
1098.949
1102.419
1105.889
1109.359
1112.829
1116.299
1119.769
1123.239
1126.709
1130.179
1133.649
1137.119
1140.589
1144.059
1147.529
1150.999
1154.469
1157.939
1161.409
1164.879
1168.349
1171.819
1175.289
1178.759
1182.229
1185.699
1189.169
1192.639
1196.109
1199.579
1203.049
1206.519
1209.989
1213.459
1216.929
1220.399
1223.869
1227.339
1230.809
1234.279
1237.749
1241.219
1244.689
1248.159
1251.629
1255.099
1258.569
1262.039
1265.509
1268.979
1272.449
1275.919
1279.389
1282.859
1286.329
1289.799
1293.269
1296.739
1300.209
1303.679
1307.149
1310.619
1314.089
1317.559
1321.029
1324.499
1327.969
1331.439
1334.909
1338.379
1341.849
1345.319
1348.789
1352.259
1355.729
1359.199
1362.669
1366.139
1369.609
1373.079
1376.549
1380.019
1383.489
1386.959
1390.429
1393.899
1397.369
1400.839
1404.309
1407.779
1411.249
1414.719
1418.189
1421.659
1425.129
1428.599
1432.069
1435.539
1439.009
1442.479
1445.949
1449.419
1452.889
1456.359
1459.829
1463.299
1466.769
1470.239
1473.709
1477.179
1480.649
1484.119
1487.589
1491.059
1494.529
1497.999
1501.469
1504.939
1508.409
1511.879
1515.349
1518.819
1522.289
1525.759
1529.229
1532.699
1536.169
1539.639
1543.109
1546.579
1550.049
1553.519
1556.989
1560.459
1563.929
1567.399
1570.869
1574.339
1577.809
1581.279
1584.749
1588.219
1591.689
1595.159
1598.629
1602.099
1605.569
1609.039
1612.509
1615.979
1619.449
1622.919
1626.389
1629.859
1633.329
1636.799
1640.269
1643.739
1647.209
1650.679
1654.149
1657.619
1661.089
1664.559
1668.029
1671.499
1674.969
1678.439
1681.909
1685.379
1688.849
1692.319
1695.789
1699.259
1702.729
1706.199
1709.669
1713.139
1716.609
1720.079
1723.549
1727.019
1730.489
1733.959
1737.429
1740.899
1744.369
1747.839
1751.309
1754.779
1758.249
1761.719
1754.827
1747.936
1741.044
1734.153
1727.261
1720.370
1713.478
1706.587
1699.695
1692.804
1685.912
1679.021
1672.129
1665.238
1658.346
1651.455
1644.563
1637.672
1630.780
1623.889
1616.997
1610.106
1603.214
1596.323
1589.431
1582.540
1575.648
1568.757
1561.865
1554.974
1548.082
1541.191
1534.299
1527.408
1520.516
1513.625
1506.733
1499.842
1492.950
1486.059
1479.167
1472.276
1465.384
1458.493
1451.601
1444.710
1437.818
1430.927
1424.035
1417.144
1410.252
1403.361
1396.469
1389.578
1382.686
1375.795
1368.903
