90.037
90.037
90.037
90.037
90.037
90.037
90.037
90.037
90.037
90.037
90.037
90.037
90.037
90.037
90.037
90.037
90.037
90.037
90.037
90.037
90.037
90.037
90.037
90.037
90.037
90.037
90.037
90.037
90.037
90.037
90.037
90.037
90.037
90.037
90.037
90.037
90.037
90.037
90.037
90.037
90.037
90.037
90.037
90.037
90.037
90.037
90.037
90.037
90.037
90.037
90.037
90.037
90.037
90.037
90.037
90.037
90.037
90.037
90.037
90.037
90.037
90.037
90.037
90.037
90.037
90.037
90.037
90.037
90.037
90.037
90.037
90.037
90.037
90.037
90.037
90.037
90.037
90.037
90.037
90.037
90.037
90.037
90.037
90.037
90.037
90.037
90.037
90.037
90.037
90.037
90.037
90.037
90.037
90.037
90.037
90.037
90.037
90.037
90.037
90.037
90.037
90.037
90.037
90.037
90.037
90.037
90.037
90.037
90.037
90.037
90.037
90.037
90.037
90.037
90.037
90.037
90.037
90.037
90.037
90.037
90.037
90.037
90.037
90.037
90.037
90.037
90.037
90.037
90.037
90.037
90.037
90.037
90.037
90.037
90.037
90.037
90.037
90.037
90.037
90.037
90.037
90.037
90.037
90.037
90.037
90.037
90.037
90.037
90.037
90.037
90.037
90.037
90.037
90.037
90.037
90.037
90.037
90.037
90.037
90.037
90.037
90.037
90.037
90.037
90.037
90.037
90.037
90.037
90.037
90.037
90.037
90.037
90.037
90.037
90.037
90.037
90.037
90.037
90.037
90.037
90.037
90.037
90.037
90.037
90.037
90.037
90.037
90.037
90.037
90.037
90.037
90.037
90.037
90.037
90.037
90.037
90.037
90.037
90.037
90.037
90.037
90.037
90.037
90.037
90.037
90.037
90.037
90.037
90.037
90.037
90.037
90.037
90.037
90.037
90.037
90.037
90.037
90.037
90.037
90.037
90.037
90.037
90.037
90.037
90.037
90.037
90.037
90.037
90.037
90.037
90.037
90.037
90.037
90.037
90.037
90.037
90.037
90.037
90.037
90.037
90.037
90.037
90.037
90.037
90.037
90.037
90.037
90.037
90.037
90.037
90.037
90.037
90.037
90.037
90.037
90.037
90.037
90.037
90.037
90.037
90.037
90.037
90.037
90.037
90.037
90.037
90.037
90.037
90.037
90.037
90.037
90.037
90.037
90.037
90.037
90.037
90.037
90.037
90.037
90.037
90.037
90.037
90.037
90.037
90.037
90.037
90.037
90.037
90.037
90.037
90.037
90.037
90.037
90.037
90.037
90.037
90.037
90.037
90.037
90.037
90.037
90.037
90.037
90.037
90.037
90.037
90.037
90.037
90.037
90.037
90.037
90.037
90.037
90.037
90.037
90.037
90.037
90.037
90.037
90.037
90.037
90.037
90.037
90.037
1512.337
1514.365
1516.393
1518.421
1520.449
1522.477
1524.505
1526.533
1528.561
1530.589
1532.617
1534.645
1536.673
1538.701
1540.729
1542.757
1544.785
1546.813
1548.841
1550.869
1552.897
1554.925
1556.953
1558.981
1561.009
1563.037
1565.065
1567.093
1569.121
1571.149
1573.177
1575.205
1577.233
1579.261
1581.289
1583.317
1585.345
1587.373
1589.401
1591.429
1593.457
1595.485
1597.513
1599.541
1601.569
1603.597
1605.625
1607.653
1609.681
1611.709
1613.737
1615.765
1617.793
1619.821
1621.849
1623.877
1625.905
1627.933
1629.961
1631.989
1634.017
1636.045
1638.073
1640.101
1642.129
1644.157
1646.185
1648.213
1650.241
1652.269
1654.297
1656.325
1658.353
1660.381
1662.409
1664.437
1666.465
1668.493
1670.521
1672.549
1674.577
1676.605
1678.633
1680.661
1682.689
1684.717
1686.745
1688.773
1690.801
1692.829
1694.857
1696.885
1698.913
1700.941
1702.969
1704.997
1707.025
1709.053
1711.081
1713.109
1715.137
1717.165
1719.193
1721.221
1723.249
1725.277
1727.305
1729.333
1731.361
1733.389
1735.417
1737.445
1739.473
1741.501
1743.529
1745.557
1747.585
1749.613
1751.641
1753.669
1755.697
1757.725
1759.753
1761.781
1763.809
1765.837
1767.865
1769.893
1771.921
1773.949
1775.977
1778.005
1780.033
1782.061
1784.089
1786.117
1788.145
1790.173
1792.201
1794.229
1796.257
1798.285
1800.313
1802.341
1804.369
1806.397
1808.425
1810.453
1812.481
1814.509
1816.537
1818.565
1820.593
1822.621
1824.649
1826.677
1828.705
1830.733
1832.761
1834.789
1836.817
1838.845
1840.873
1842.901
1844.929
1846.957
1848.985
1851.013
1853.041
1855.069
1857.097
1859.125
1861.153
1863.181
1865.209
1867.237
1869.265
1871.293
1873.321
1875.349
1877.377
1879.405
1881.433
1883.461
1885.489
1887.517
1889.545
1891.573
1893.601
1895.629
1897.657
1899.685
1901.713
1903.741
1905.769
1907.797
1909.825
1911.853
1913.881
1915.909
1917.937
1917.962
1917.986
1918.011
1918.035
1918.060
1918.084
1918.109
1918.133
1918.158
1918.182
1918.207
1918.231
1918.256
1918.280
1918.305
1918.329
1918.354
1918.378
1918.403
1918.427
1918.452
1918.476
1918.501
1918.525
1918.550
1918.574
1918.599
1918.623
1918.648
1918.672
1918.697
1918.721
1918.746
1918.770
1918.795
1918.819
1918.844
1918.868
1918.893
1918.917
1918.942
1918.966
1918.991
1919.015
1919.040
1919.064
1919.089
1919.113
1919.138
1919.162
1919.187
1919.211
1919.236
1919.260
1919.285
1919.309
1919.334
1919.358
1919.383
1919.407
1919.432
1919.456
1919.481
1919.505
1919.530
1919.554
1919.579
1919.603
1919.628
1919.652
1919.677
1919.701
1919.726
1919.750
1919.775
1919.799
1919.824
1919.848
1919.873
1919.897
1919.922
1919.946
1919.971
1919.995
1920.020
1920.044
1920.069
1920.093
1920.118
1920.142
1920.167
1920.191
1920.216
1920.240
1920.265
1920.289
1920.314
1920.338
1920.363
1920.387
1920.412
1920.436
1920.461
1920.485
1920.510
1920.534
1920.559
1920.583
1920.608
1920.632
1920.657
1920.681
1920.706
1920.730
1920.755
1920.779
1920.804
1920.828
1920.853
1920.877
1920.902
1920.926
1920.951
1920.975
1921.000
1921.024
1921.049
1921.073
1921.098
1921.122
1921.147
1921.171
1921.196
1921.220
1921.245
1921.269
1921.294
1921.318
1921.343
1921.367
1921.392
1921.416
1921.441
1921.465
1921.490
1921.514
1921.539
1921.563
1921.588
1921.612
1921.637
1921.661
1921.686
1921.710
1921.735
1921.759
1921.784
1921.808
1921.833
1921.857
1921.882
1921.906
1921.931
1921.955
1921.980
1922.004
1922.029
1922.053
1922.078
1922.102
1922.127
1922.151
1922.176
1922.200
1922.225
1922.249
1922.274
1922.298
1922.323
1922.347
1922.372
1922.396
1922.421
1922.445
1922.470
1922.494
1922.519
1922.543
1922.568
1922.592
1922.617
1922.641
1922.666
1922.690
1922.715
1922.739
1922.764
1922.788
1922.813
1922.837
1924.304
1925.770
1927.237
1928.703
1930.170
1931.636
1933.103
1934.569
1936.036
1937.502
1938.969
1940.435
1941.902
1943.368
1944.835
1946.301
1947.768
1949.234
1950.701
1952.167
1953.634
1955.100
1956.567
1958.033
1959.500
1960.966
1962.433
1963.899
1965.366
1966.832
1968.299
1969.765
1971.232
1972.698
1974.165
1975.631
1977.098
1978.564
1980.031
1981.497
1982.964
1984.430
1985.897
1987.363
1988.830
1990.296
1991.763
1993.229
1994.696
1996.162
1997.629
1999.095
2000.562
2002.028
2003.495
2004.961
2006.428
2007.894
2009.361
2010.827
2012.294
2013.760
2015.227
2016.693
2018.160
2019.626
2021.093
2022.559
2024.026
2025.492
2026.959
2028.425
2029.892
2031.358
2032.825
2034.291
2035.758
2037.224
2038.691
2040.157
2041.624
2043.090
2044.557
2046.023
2047.490
2048.956
2050.423
2051.889
2053.356
2054.822
2056.289
2057.755
2059.222
2060.688
2062.155
2063.621
2065.088
2066.554
2068.021
2069.487
2070.954
2072.420
2073.887
2075.353
2076.820
2078.286
2079.753
2081.219
2082.686
2084.152
2085.619
2087.085
2088.552
2090.018
2091.485
2092.951
2094.418
2095.884
2097.351
2098.817
2100.284
2101.750
2103.217
2104.683
2106.150
2107.616
2109.083
2110.549
2112.016
2113.482
2114.949
2116.415
2117.882
2119.348
2120.815
2122.281
2123.748
2125.214
2126.681
2128.147
2129.614
2131.080
2132.547
2134.013
2135.480
2136.946
2138.413
2139.879
2141.346
2142.812
2144.279
2145.745
2147.212
2148.678
2150.145
2151.611
2153.078
2154.544
2156.011
2157.477
2158.944
2160.410
2161.877
2163.343
2164.810
2166.276
2167.743
2169.209
2170.676
2172.142
2173.609
2175.075
2176.542
2178.008
2179.475
2180.941
2182.408
2183.874
2185.341
2186.807
2188.274
2189.740
2191.207
2192.673
2194.140
2195.606
2197.073
2198.539
2200.006
2201.472
2202.939
2204.405
2205.872
2207.338
2208.805
2210.271
2211.738
2213.204
2214.671
2216.137
2216.186
2216.234
2216.283
2216.331
2216.380
2216.428
2216.477
2216.525
2216.574
2216.622
2216.671
2216.719
2216.768
2216.816
2216.865
2216.913
2216.962
2217.010
2217.059
2217.107
2217.156
2217.204
2217.253
2217.301
2217.350
2217.398
2217.447
2217.495
2217.544
2217.592
2217.641
2217.689
2217.738
2217.786
2217.835
2217.883
2217.932
2217.980
2218.029
2218.077
2218.126
2218.174
2218.223
2218.271
2218.320
2218.368
2218.417
2218.465
2218.514
2218.562
2218.611
2218.659
2218.708
2218.756
2218.805
2218.853
2218.902
2218.950
2218.999
2219.047
2219.096
2219.144
2219.193
2219.241
2219.290
2219.338
2219.387
2219.435
2219.484
2219.532
2219.581
2219.629
2219.678
2219.726
2219.775
2219.823
2219.872
2219.920
2219.969
2220.017
2220.066
2220.114
2220.163
2220.211
2220.260
2220.308
2220.357
2220.405
2220.454
2220.502
2220.551
2220.599
2220.648
2220.696
2220.745
2220.793
2220.842
2220.890
2220.939
2220.987
2221.036
2221.084
2221.133
2221.181
2221.230
2221.278
2221.327
2221.375
2221.424
2221.472
2221.521
2221.569
2221.618
2221.666
2221.715
2221.763
2221.812
2221.860
2221.909
2221.957
2222.006
2222.054
2222.103
2222.151
2222.200
2222.248
2222.297
2222.345
2222.394
2222.442
2222.491
2222.539
2222.588
2222.636
2222.685
2222.733
2222.782
2222.830
2222.879
2222.927
2222.976
2223.024
2223.073
2223.121
2223.170
2223.218
2223.267
2223.315
2223.364
2223.412
2223.461
2223.509
2223.558
2223.606
2223.655
2223.703
2223.752
2223.800
2223.849
2223.897
2223.946
2223.994
2224.043
2224.091
2224.140
2224.188
2224.237
2224.285
2224.334
2224.382
2224.431
2224.479
2224.528
2224.576
2224.625
2224.673
2224.722
2224.770
2224.819
2224.867
2224.916
2224.964
2225.013
2225.061
2225.110
2225.158
2225.207
2225.255
2225.304
2225.352
2225.401
2225.449
2225.498
2225.546
2225.595
2225.643
2225.692
2225.740
2225.789
2225.837
2225.813
2225.789
2225.765
2225.741
2225.717
2225.693
2225.669
2225.645
2225.621
2225.597
2225.573
2225.549
2225.525
2225.501
2225.477
2225.453
2225.429
2225.405
2225.381
2225.357
2225.333
2225.309
2225.285
2225.261
2225.237
2225.213
2225.189
2225.165
2225.141
2225.117
2225.093
2225.069
2225.045
2225.021
2224.997
2224.973
2224.949
2224.925
2224.901
2224.877
2224.853
2224.829
2224.805
2224.781
2224.757
2224.733
2224.709
2224.685
2224.661
2224.637
2224.613
2224.589
2224.565
2224.541
2224.517
2224.493
2224.469
2224.445
2224.421
2224.397
2224.373
2224.349
2224.325
2224.301
2224.277
2224.253
2224.229
2224.205
2224.181
2224.157
2224.133
2224.109
2224.085
2224.061
2224.037
2224.013
2223.989
2223.965
2223.941
2223.917
2223.893
2223.869
2223.845
2223.821
2223.797
2223.773
2223.749
2223.725
2223.701
2223.677
2223.653
2223.629
2223.605
2223.581
2223.557
2223.533
2223.509
2223.485
2223.461
2223.437
2223.413
2223.389
2223.365
2223.341
2223.317
2223.293
2223.269
2223.245
2223.221
2223.197
2223.173
2223.149
2223.125
2223.101
2223.077
2223.053
2223.029
2223.005
2222.981
2222.957
2222.933
2222.909
2222.885
2222.861
2222.837
2222.813
2222.789
2222.765
2222.741
2222.717
2222.693
2222.669
2222.645
2222.621
2222.597
2222.573
2222.549
2222.525
2222.501
2222.477
2222.453
2222.429
2222.405
2222.381
2222.357
2222.333
2222.309
2222.285
2222.261
2222.237
2222.213
2222.189
2222.165
2222.141
2222.117
2222.093
2222.069
2222.045
2222.021
2221.997
2221.973
2221.949
2221.925
2221.901
2221.877
2221.853
2221.829
2221.805
2221.781
2221.757
2221.733
2221.709
2221.685
2221.661
2221.637
2221.613
2221.589
2221.565
2221.541
2221.517
2221.493
2221.469
2221.445
2221.421
2221.397
2221.373
2221.349
2221.325
2221.301
2221.277
2221.253
2221.229
2221.205
2221.181
2221.157
2221.133
2221.109
2221.085
2221.061
2221.037
2221.721
2222.405
2223.089
2223.773
2224.457
2225.141
2225.825
2226.509
2227.193
2227.877
2228.561
2229.245
2229.929
2230.613
2231.297
2231.981
2232.665
2233.349
2234.033
2234.717
2235.401
2236.085
2236.769
2237.453
2238.137
2238.821
2239.505
2240.189
2240.873
2241.557
2242.241
2242.925
2243.609
2244.293
2244.977
2245.661
2246.345
2247.029
2247.713
2248.397
2249.081
2249.765
2250.449
2251.133
2251.817
2252.501
2253.185
2253.869
2254.553
2255.237
2255.921
2256.605
2257.289
2257.973
2258.657
2259.341
2260.025
2260.709
2261.393
2262.077
2262.761
2263.445
2264.129
2264.813
2265.497
2266.181
2266.865
2267.549
2268.233
2268.917
2269.601
2270.285
2270.969
2271.653
2272.337
2273.021
2273.705
2274.389
2275.073
2275.757
2276.441
2277.125
2277.809
2278.493
2279.177
2279.861
2280.545
2281.229
2281.913
2282.597
2283.281
2283.965
2284.649
2285.333
2286.017
2286.701
2287.385
2288.069
2288.753
2289.437
2290.121
2290.805
2291.489
2292.173
2292.857
2293.541
2294.225
2294.909
2295.593
2296.277
2296.961
2297.645
2298.329
2299.013
2299.697
2300.381
2301.065
2301.749
2302.433
2303.117
2303.801
2304.485
2305.169
2305.853
2306.537
2307.221
2307.905
2308.589
2309.273
2309.957
2310.641
2311.325
2312.009
2312.693
2313.377
2314.061
2314.745
2315.429
2316.113
2316.797
2317.481
2318.165
2318.849
2319.533
2320.217
2320.901
2321.585
2322.269
2322.953
2323.637
2324.321
2325.005
2325.689
2326.373
2327.057
2327.741
2328.425
2329.109
2329.793
2330.477
2331.161
2331.845
2332.529
2333.213
2333.897
2334.581
2335.265
2335.949
2336.633
2337.317
2338.001
2338.685
2339.369
2340.053
2340.737
2341.421
2342.105
2342.789
2343.473
2344.157
2344.841
2345.525
2346.209
2346.893
2347.577
2348.261
2348.945
2349.629
2350.313
2350.997
2351.681
2352.365
2353.049
2353.733
2354.417
2355.101
2355.785
2356.469
2357.153
2357.837
2356.444
2355.051
2353.658
2352.265
2350.872
2349.479
2348.086
2346.693
2345.300
2343.907
2342.514
2341.121
2339.728
2338.335
2336.942
2335.549
2334.156
2332.763
2331.370
2329.977
2328.584
2327.191
2325.798
2324.405
2323.012
2321.619
2320.226
2318.833
2317.440
2316.047
2314.654
2313.261
2311.868
2310.475
2309.082
2307.689
2306.296
2304.903
2303.510
2302.117
2300.724
2299.331
2297.938
2296.545
2295.152
2293.759
2292.366
2290.973
2289.580
2288.187
2286.794
2285.401
2284.008
2282.615
2281.222
2279.829
2278.436
2277.043
2275.650
2274.257
2272.864
2271.471
2270.078
2268.685
2267.292
2265.899
2264.506
2263.113
2261.720
2260.327
2258.934
2257.541
2256.148
2254.755
2253.362
2251.969
2250.576
2249.183
2247.790
2246.397
2245.004
2243.611
2242.218
2240.825
2239.432
2238.039
2236.646
2235.253
2233.860
2232.467
2231.074
2229.681
2228.288
2226.895
2225.502
2224.109
2222.716
2221.323
2219.930
2218.537
2217.144
2215.751
2214.358
2212.965
2211.572
2210.179
2208.786
2207.393
2206.000
2204.607
2203.214
2201.821
2200.428
2199.035
2197.642
2196.249
2194.856
2193.463
2192.070
2190.677
2189.284
2187.891
2186.498
2185.105
2183.712
2182.319
2180.926
2179.533
2178.140
2176.747
2175.354
2173.961
2172.568
2171.175
2169.782
2168.389
2166.996
2165.603
2164.210
2162.817
2161.424
2160.031
2158.638
2157.245
2155.852
2154.459
2153.066
2151.673
2150.280
2148.887
2147.494
2146.101
2144.708
2143.315
2141.922
2140.529
2139.136
2137.743
2136.350
2134.957
2133.564
2132.171
2130.778
2129.385
2127.992
2126.599
2125.206
2123.813
2122.420
2121.027
2119.634
2118.241
2116.848
2115.455
2114.062
2112.669
2111.276
2109.883
2108.490
2107.097
2105.704
2104.311
2102.918
2101.525
2100.132
2098.739
2097.346
2095.953
2094.560
2093.167
2091.774
2090.381
2088.988
2087.595
2086.202
2084.809
2083.416
2082.023
2080.630
2079.237
2078.944
2078.651
2078.358
2078.065
2077.772
2077.479
2077.186
2076.893
2076.600
2076.307
2076.014
2075.721
2075.428
2075.135
2074.842
2074.549
2074.256
2073.963
2073.670
2073.377
2073.084
2072.791
2072.498
2072.205
2071.912
2071.619
2071.326
2071.033
2070.740
2070.447
2070.154
2069.861
2069.568
2069.275
2068.982
2068.689
2068.396
2068.103
2067.810
2067.517
2067.224
2066.931
2066.638
2066.345
2066.052
2065.759
2065.466
2065.173
2064.880
2064.587
2064.294
2064.001
2063.708
2063.415
2063.122
2062.829
2062.536
2062.243
2061.950
2061.657
2061.364
2061.071
2060.778
2060.485
2060.192
2059.899
2059.606
2059.313
2059.020
2058.727
2058.434
2058.141
2057.848
2057.555
2057.262
2056.969
2056.676
2056.383
2056.090
2055.797
2055.504
2055.211
2054.918
2054.625
2054.332
2054.039
2053.746
2053.453
2053.160
2052.867
2052.574
2052.281
2051.988
2051.695
2051.402
2051.109
2050.816
2050.523
2050.230
2049.937
2049.644
2049.351
2049.058
2048.765
2048.472
2048.179
2047.886
2047.593
2047.300
2047.007
2046.714
2046.421
2046.128
2045.835
2045.542
2045.249
2044.956
2044.663
2044.370
2044.077
2043.784
2043.491
2043.198
2042.905
2042.612
2042.319
2042.026
2041.733
2041.440
2041.147
2040.854
2040.561
2040.268
2039.975
2039.682
2039.389
2039.096
2038.803
2038.510
2038.217
2037.924
2037.631
2037.338
2037.045
2036.752
2036.459
2036.166
2035.873
2035.580
2035.287
2034.994
2034.701
2034.408
2034.115
2033.822
2033.529
2033.236
2032.943
2032.650
2032.357
2032.064
2031.771
2031.478
2031.185
2030.892
2030.599
2030.306
2030.013
2029.720
2029.427
2029.134
2028.841
2028.548
2028.255
2027.962
2027.669
2027.376
2027.083
2026.790
2026.497
2026.204
2025.911
2025.618
2025.325
2025.032
2024.739
2024.446
2024.153
2023.860
2023.567
2023.274
2022.981
2022.688
2022.395
2022.102
2021.809
2021.516
2021.223
2020.930
2020.637
2012.964
2005.290
1997.617
1989.943
1982.270
1974.596
1966.923
1959.249
1951.576
1943.902
1936.229
1928.555
1920.882
1913.208
1905.535
1897.861
1890.188
1882.514
1874.841
1867.167
1859.494
1851.820
1844.147
1836.473
1828.800
1821.126
1813.453
1805.779
1798.106
1790.432
1782.759
1775.085
1767.412
1759.738
1752.065
1744.391
1736.718
1729.044
1721.371
1713.697
1706.024
1698.350
1690.677
1683.003
1675.330
1667.656
1659.983
1652.309
1644.636
1636.962
1629.289
1621.615
1613.942
1606.268
1598.595
1590.921
1583.248
1575.574
1567.901
1560.227
1552.554
1544.880
1537.207
1529.533
1521.860
1514.186
1506.513
1498.839
1491.166
1483.492
1475.819
1468.145
1460.472
1452.798
1445.125
