88.667
88.667
88.667
88.667
88.667
88.667
88.667
88.667
88.667
88.667
88.667
88.667
88.667
88.667
88.667
88.667
88.667
88.667
88.667
88.667
88.667
88.667
88.667
1843.267
1847.226
1851.185
1855.144
1859.103
1863.062
1867.021
1870.980
1874.939
1878.898
1882.857
1886.816
1890.775
1894.734
1898.693
1902.652
1906.611
1910.570
1914.529
1918.488
1922.447
1926.406
1930.365
1934.324
1938.283
1942.242
1946.201
1950.160
1954.119
1958.078
1962.037
1965.996
1969.955
1973.914
1977.873
1981.832
1985.791
1989.750
1993.709
1997.668
2001.627
2005.586
2009.545
2013.504
2017.463
2021.422
2025.381
2029.340
2033.299
2037.258
2041.217
2045.176
2049.135
2053.094
2057.053
2061.012
2064.971
2068.930
2072.889
2076.848
2080.807
2084.766
2088.725
2092.684
2096.643
2100.602
2104.561
2108.520
2112.479
2116.438
2120.397
2124.356
2128.315
2132.274
2136.233
2140.192
2144.151
2148.110
2152.069
2156.028
2159.987
2163.946
2167.905
2171.864
2175.823
2179.782
2183.741
2187.700
2191.659
2195.618
2199.577
2203.536
2207.495
2211.454
2215.413
2219.372
2223.331
2227.290
2231.249
2235.208
2239.167
2243.126
2247.085
2251.044
2255.003
2258.962
2262.921
2266.880
2270.839
2274.798
2278.757
2282.716
2286.675
2290.634
2294.593
2298.552
2302.511
2306.470
2310.429
2314.388
2318.347
2322.306
2326.265
2330.224
2334.183
2338.142
2342.101
2346.060
2350.019
2353.978
2357.937
2361.896
2365.855
2369.814
2373.773
2377.732
2381.691
2385.650
2389.609
2393.568
2397.527
2401.486
2405.445
2409.404
2413.363
2417.322
2421.281
2425.240
2429.199
2433.158
2437.117
2441.076
2445.035
2448.994
2452.953
2456.912
2460.871
2464.830
2468.789
2472.748
2476.707
2480.666
2484.625
2488.584
2492.543
2496.502
2500.461
2504.420
2508.379
2512.338
2516.297
2520.256
2524.215
2528.174
2532.133
2536.092
2540.051
2544.010
2547.969
2551.928
2555.887
2559.846
2563.805
2567.764
2571.723
2575.682
2579.641
2583.600
2587.559
2591.518
2595.477
2599.436
2603.395
2607.354
2611.313
2615.272
2619.231
2623.190
2627.149
2631.108
2635.067
2635.214
2635.360
2635.507
2635.653
2635.800
2635.946
2636.093
2636.239
2636.386
2636.532
2636.679
2636.825
2636.972
2637.118
2637.265
2637.411
2637.558
2637.704
2637.851
2637.997
2638.144
2638.290
2638.437
2638.583
2638.730
2638.876
2639.023
2639.169
2639.316
2639.462
2639.609
2639.755
2639.902
2640.048
2640.195
2640.341
2640.488
2640.634
2640.781
2640.927
2641.074
2641.220
2641.367
2641.513
2641.660
2641.806
2641.953
2642.099
2642.246
2642.392
2642.539
2642.685
2642.832
2642.978
2643.125
2643.271
2643.418
2643.564
2643.711
2643.857
2644.004
2644.150
2644.297
2644.443
2644.590
2644.736
2644.883
2645.029
2645.176
2645.322
2645.469
2645.615
2645.762
2645.908
2646.055
2646.201
2646.348
2646.494
2646.641
2646.787
2646.934
2647.080
2647.227
2647.373
2647.520
2647.666
2647.813
2647.959
2648.106
2648.252
2648.399
2648.545
2648.692
2648.838
2648.985
2649.131
2649.278
2649.424
2649.571
2649.717
2649.864
2650.010
2650.157
2650.303
2650.450
2650.596
2650.743
2650.889
2651.036
2651.182
2651.329
2651.475
2651.622
2651.768
2651.915
2652.061
2652.208
2652.354
2652.501
2652.647
2652.794
2652.940
2653.087
2653.233
2653.380
2653.526
2653.673
2653.819
2653.966
2654.112
2654.259
2654.405
2654.552
2654.698
2654.845
2654.991
2655.138
2655.284
2655.431
2655.577
2655.724
2655.870
2656.017
2656.163
2656.310
2656.456
2656.603
2656.749
2656.896
2657.042
2657.189
2657.335
2657.482
2657.628
2657.775
2657.921
2658.068
2658.214
2658.361
2658.507
2658.654
2658.800
2658.947
2659.093
2659.240
2659.386
2659.533
2659.679
2659.826
2659.972
2660.119
2660.265
2660.412
2660.558
2660.705
2660.851
2660.998
2661.144
2661.291
2661.437
2661.584
2661.730
2661.877
2662.023
2662.170
2662.316
2662.463
2662.609
2662.756
2662.902
2663.049
2663.195
2663.342
2663.488
2663.635
2663.781
2663.928
2664.074
2664.221
2664.367
2661.655
2658.942
2656.230
2653.517
2650.805
2648.092
2645.380
2642.667
2639.955
2637.242
2634.530
2631.817
2629.105
2626.392
2623.680
2620.967
2618.255
2615.542
2612.830
2610.117
2607.405
2604.692
2601.980
2599.267
2596.555
2593.842
2591.130
2588.417
2585.705
2582.992
2580.280
2577.567
2574.855
2572.142
2569.430
2566.717
2564.005
2561.292
2558.580
2555.867
2553.155
2550.442
2547.730
2545.017
2542.305
2539.592
2536.880
2534.167
2531.455
2528.742
2526.030
2523.317
2520.605
2517.892
2515.180
2512.467
2509.755
2507.042
2504.330
2501.617
2498.905
2496.192
2493.480
2490.767
2488.055
2485.342
2482.630
2479.917
2477.205
2474.492
2471.780
2469.067
2466.355
2463.642
2460.930
2458.217
2455.505
2452.792
2450.080
2447.367
2444.655
2441.942
2439.230
2436.517
2433.805
2431.092
2428.380
2425.667
2422.955
2420.242
2417.530
2414.817
2412.105
2409.392
2406.680
2403.967
2401.255
2398.542
2395.830
2393.117
2390.405
2387.692
2384.980
2382.267
2379.555
2376.842
2374.130
2371.417
2368.705
2365.992
2363.280
2360.567
2357.855
2355.142
2352.430
2349.717
2347.005
2344.292
2341.580
2338.867
2336.155
2333.442
2330.730
2328.017
2325.305
2322.592
2319.880
2317.167
2314.455
2311.742
2309.030
2306.317
2303.605
2300.892
2298.180
2295.467
2292.755
2290.042
2287.330
2284.617
2281.905
2279.192
2276.480
2273.767
2271.055
2268.342
2265.630
2262.917
2260.205
2257.492
2254.780
2252.067
2249.355
2246.642
2243.930
2241.217
2238.505
2235.792
2233.080
2230.367
2227.655
2224.942
2222.230
2219.517
2216.805
2214.092
2211.380
2208.667
2205.955
2203.242
2200.530
2197.817
2195.105
2192.392
2189.680
2186.967
2184.255
2181.542
2178.830
2176.117
2173.405
2170.692
2167.980
2165.267
2162.555
2159.842
2157.130
2154.417
2151.705
2148.992
2146.280
2143.567
2140.855
2138.142
2135.430
2132.717
2130.005
2127.292
2124.580
2121.867
2122.771
2123.675
2124.579
2125.483
2126.387
2127.291
2128.195
2129.099
2130.003
2130.907
2131.811
2132.715
2133.619
2134.523
2135.427
2136.331
2137.235
2138.139
2139.043
2139.947
2140.851
2141.755
2142.659
2143.563
2144.467
2145.371
2146.275
2147.179
2148.083
2148.987
2149.891
2150.795
2151.699
2152.603
2153.507
2154.411
2155.315
2156.219
2157.123
2158.027
2158.931
2159.835
2160.739
2161.643
2162.547
2163.451
2164.355
2165.259
2166.163
2167.067
2167.971
2168.875
2169.779
2170.683
2171.587
2172.491
2173.395
2174.299
2175.203
2176.107
2177.011
2177.915
2178.819
2179.723
2180.627
2181.531
2182.435
2183.339
2184.243
2185.147
2186.051
2186.955
2187.859
2188.763
2189.667
2190.571
2191.475
2192.379
2193.283
2194.187
2195.091
2195.995
2196.899
2197.803
2198.707
2199.611
2200.515
2201.419
2202.323
2203.227
2204.131
2205.035
2205.939
2206.843
2207.747
2208.651
2209.555
2210.459
2211.363
2212.267
2213.171
2214.075
2214.979
2215.883
2216.787
2217.691
2218.595
2219.499
2220.403
2221.307
2222.211
2223.115
2224.019
2224.923
2225.827
2226.731
2227.635
2228.539
2229.443
2230.347
2231.251
2232.155
2233.059
2233.963
2234.867
2235.771
2236.675
2237.579
2238.483
2239.387
2240.291
2241.195
2242.099
2243.003
2243.907
2244.811
2245.715
2246.619
2247.523
2248.427
2249.331
2250.235
2251.139
2252.043
2252.947
2253.851
2254.755
2255.659
2256.563
2257.467
2258.371
2259.275
2260.179
2261.083
2261.987
2262.891
2263.795
2264.699
2265.603
2266.507
2267.411
2268.315
2269.219
2270.123
2271.027
2271.931
2272.835
2273.739
2274.643
2275.547
2276.451
2277.355
2278.259
2279.163
2280.067
2280.971
2281.875
2282.779
2283.683
2284.587
2285.491
2286.395
2287.299
2288.203
2289.107
2290.011
2290.915
2291.819
2292.723
2293.627
2294.531
2295.435
2296.339
2297.243
2298.147
2299.051
2299.955
2300.859
2301.763
2302.667
2301.445
2300.223
2299.001
2297.779
2296.557
2295.335
2294.113
2292.891
2291.669
2290.447
2289.225
2288.003
2286.781
2285.559
2284.337
2283.115
2281.893
2280.671
2279.449
2278.227
2277.005
2275.783
2274.561
2273.339
2272.117
2270.895
2269.673
2268.451
2267.229
2266.007
2264.785
2263.563
2262.341
2261.119
2259.897
2258.675
2257.453
2256.231
2255.009
2253.787
2252.565
2251.343
2250.121
2248.899
2247.677
2246.455
2245.233
2244.011
2242.789
2241.567
2240.345
2239.123
2237.901
2236.679
2235.457
2234.235
2233.013
2231.791
2230.569
2229.347
2228.125
2226.903
2225.681
2224.459
2223.237
2222.015
2220.793
2219.571
2218.349
2217.127
2215.905
2214.683
2213.461
2212.239
2211.017
2209.795
2208.573
2207.351
2206.129
2204.907
2203.685
2202.463
2201.241
2200.019
2198.797
2197.575
2196.353
2195.131
2193.909
2192.687
2191.465
2190.243
2189.021
2187.799
2186.577
2185.355
2184.133
2182.911
2181.689
2180.467
2179.245
2178.023
2176.801
2175.579
2174.357
2173.135
2171.913
2170.691
2169.469
2168.247
2167.025
2165.803
2164.581
2163.359
2162.137
2160.915
2159.693
2158.471
2157.249
2156.027
2154.805
2153.583
2152.361
2151.139
2149.917
2148.695
2147.473
2146.251
2145.029
2143.807
2142.585
2141.363
2140.141
2138.919
2137.697
2136.475
2135.253
2134.031
2132.809
2131.587
2130.365
2129.143
2127.921
2126.699
2125.477
2124.255
2123.033
2121.811
2120.589
2119.367
2118.145
2116.923
2115.701
2114.479
2113.257
2112.035
2110.813
2109.591
2108.369
2107.147
2105.925
2104.703
2103.481
2102.259
2101.037
2099.815
2098.593
2097.371
2096.149
2094.927
2093.705
2092.483
2091.261
2090.039
2088.817
2087.595
2086.373
2085.151
2083.929
2082.707
2081.485
2080.263
2079.041
2077.819
2076.597
2075.375
2074.153
2072.931
2071.709
2070.487
2069.265
2068.043
2066.821
2065.599
2064.377
2063.155
2061.933
2060.711
2059.489
2058.267
2058.952
2059.636
2060.321
2061.005
2061.690
2062.374
2063.059
2063.743
2064.428
2065.112
2065.797
2066.481
2067.166
2067.850
2068.535
2069.219
2069.904
2070.588
2071.273
2071.957
2072.642
2073.326
2074.011
2074.695
2075.380
2076.064
2076.749
2077.433
2078.118
2078.802
2079.487
2080.171
2080.856
2081.540
2082.225
2082.909
2083.594
2084.278
2084.963
2085.647
2086.332
2087.016
2087.701
2088.385
2089.070
2089.754
2090.439
2091.123
2091.808
2092.492
2093.177
2093.861
2094.546
2095.230
2095.915
2096.599
2097.284
2097.968
2098.653
2099.337
2100.022
2100.706
2101.391
2102.075
2102.760
2103.444
2104.129
2104.813
2105.498
2106.182
2106.867
2107.551
2108.236
2108.920
2109.605
2110.289
2110.974
2111.658
2112.343
2113.027
2113.712
2114.396
2115.081
2115.765
2116.450
2117.134
2117.819
2118.503
2119.188
2119.872
2120.557
2121.241
2121.926
2122.610
2123.295
2123.979
2124.664
2125.348
2126.033
2126.717
2127.402
2128.086
2128.771
2129.455
2130.140
2130.824
2131.509
2132.193
2132.878
2133.562
2134.247
2134.931
2135.616
2136.300
2136.985
2137.669
2138.354
2139.038
2139.723
2140.407
2141.092
2141.776
2142.461
2143.145
2143.830
2144.514
2145.199
2145.883
2146.568
2147.252
2147.937
2148.621
2149.306
2149.990
2150.675
2151.359
2152.044
2152.728
2153.413
2154.097
2154.782
2155.466
2156.151
2156.835
2157.520
2158.204
2158.889
2159.573
2160.258
2160.942
2161.627
2162.311
2162.996
2163.680
2164.365
2165.049
2165.734
2166.418
2167.103
2167.787
2168.472
2169.156
2169.841
2170.525
2171.210
2171.894
2172.579
2173.263
2173.948
2174.632
2175.317
2176.001
2176.686
2177.370
2178.055
2178.739
2179.424
2180.108
2180.793
2181.477
2182.162
2182.846
2183.531
2184.215
2184.900
2185.584
2186.269
2186.953
2187.638
2188.322
2189.007
2189.691
2190.376
2191.060
2191.745
2192.429
2193.114
2193.798
2194.483
2195.167
2196.438
2197.709
2198.980
2200.251
2201.522
2202.793
2204.064
2205.335
2206.606
2207.877
2209.148
2210.419
2211.690
2212.961
2214.232
2215.503
2216.774
2218.045
2219.316
2220.587
2221.858
2223.129
2224.400
2225.671
2226.942
2228.213
2229.484
2230.755
2232.026
2233.297
2234.568
2235.839
2237.110
2238.381
2239.652
2240.923
2242.194
2243.465
2244.736
2246.007
2247.278
2248.549
2249.820
2251.091
2252.362
2253.633
2254.904
2256.175
2257.446
2258.717
2259.988
2261.259
2262.530
2263.801
2265.072
2266.343
2267.614
2268.885
2270.156
2271.427
2272.698
2273.969
2275.240
2276.511
2277.782
2279.053
2280.324
2281.595
2282.866
2284.137
2285.408
2286.679
2287.950
2289.221
2290.492
2291.763
2293.034
2294.305
2295.576
2296.847
2298.118
2299.389
2300.660
2301.931
2303.202
2304.473
2305.744
2307.015
2308.286
2309.557
2310.828
2312.099
2313.370
2314.641
2315.912
2317.183
2318.454
2319.725
2320.996
2322.267
2323.538
2324.809
2326.080
2327.351
2328.622
2329.893
2331.164
2332.435
2333.706
2334.977
2336.248
2337.519
2338.790
2340.061
2341.332
2342.603
2343.874
2345.145
2346.416
2347.687
2348.958
2350.229
2351.500
2352.771
2354.042
2355.313
2356.584
2357.855
2359.126
2360.397
2361.668
2362.939
2364.210
2365.481
2366.752
2368.023
2369.294
2370.565
2371.836
2373.107
2374.378
2375.649
2376.920
2378.191
2379.462
2380.733
2382.004
2383.275
2384.546
2385.817
2387.088
2388.359
2389.630
2390.901
2392.172
2393.443
2394.714
2395.985
2397.256
2398.527
2399.798
2401.069
2402.340
2403.611
2404.882
2406.153
2407.424
2408.695
2409.966
2411.237
2412.508
2413.779
2415.050
2416.321
2417.592
2418.863
2420.134
2421.405
2422.676
2423.947
2425.218
2426.489
2427.760
2429.031
2430.302
2431.573
2432.844
2434.115
2435.386
2436.657
2437.928
2439.199
2440.470
2441.741
2443.012
2444.283
2445.554
2446.825
2448.096
2449.367
2448.634
2447.900
2447.167
2446.433
2445.700
2444.966
2444.233
2443.499
2442.766
2442.032
2441.299
2440.565
2439.832
2439.098
2438.365
2437.631
2436.898
2436.164
2435.431
2434.697
2433.964
2433.230
2432.497
2431.763
2431.030
2430.296
2429.563
2428.829
2428.096
2427.362
2426.629
2425.895
2425.162
2424.428
2423.695
2422.961
2422.228
2421.494
2420.761
2420.027
2419.294
2418.560
2417.827
2417.093
2416.360
2415.626
2414.893
2414.159
2413.426
2412.692
2411.959
2411.225
2410.492
2409.758
2409.025
2408.291
2407.558
2406.824
2406.091
2405.357
2404.624
2403.890
2403.157
2402.423
2401.690
2400.956
2400.223
2399.489
2398.756
2398.022
2397.289
2396.555
2395.822
2395.088
2394.355
2393.621
2392.888
2392.154
2391.421
2390.687
2389.954
2389.220
2388.487
2387.753
2387.020
2386.286
2385.553
2384.819
2384.086
2383.352
2382.619
2381.885
2381.152
2380.418
2379.685
2378.951
2378.218
2377.484
2376.751
2376.017
2375.284
2374.550
2373.817
2373.083
2372.350
2371.616
2370.883
2370.149
2369.416
2368.682
2367.949
2367.215
2366.482
2365.748
2365.015
2364.281
2363.548
2362.814
2362.081
2361.347
2360.614
2359.880
2359.147
2358.413
2357.680
2356.946
2356.213
2355.479
2354.746
2354.012
2353.279
2352.545
2351.812
2351.078
2350.345
2349.611
2348.878
2348.144
2347.411
2346.677
2345.944
2345.210
2344.477
2343.743
2343.010
2342.276
2341.543
2340.809
2340.076
2339.342
2338.609
2337.875
2337.142
2336.408
2335.675
2334.941
2334.208
2333.474
2332.741
2332.007
2331.274
2330.540
2329.807
2329.073
2328.340
2327.606
2326.873
2326.139
2325.406
2324.672
2323.939
2323.205
2322.472
2321.738
2321.005
2320.271
2319.538
2318.804
2318.071
2317.337
2316.604
2315.870
2315.137
2314.403
2313.670
2312.936
2312.203
2311.469
2310.736
2310.002
2309.269
2308.535
2307.802
2307.068
2306.335
2305.601
2304.868
2304.134
2303.401
2302.667
2299.710
2296.753
2293.796
2290.839
2287.882
2284.925
2281.968
2279.011
2276.054
2273.097
2270.140
2267.183
2264.226
2261.269
2258.312
2255.355
2252.398
2249.441
2246.484
2243.527
2240.570
2237.613
2234.656
2231.699
2228.742
2225.785
2222.828
2219.871
2216.914
2213.957
2211.000
2208.043
2205.086
2202.129
2199.172
2196.215
2193.258
2190.301
2187.344
2184.387
2181.430
2178.473
2175.516
2172.559
2169.602
2166.645
2163.688
2160.731
2157.774
2154.817
2151.860
2148.903
2145.946
2142.989
2140.032
2137.075
2134.118
2131.161
2128.204
2125.247
2122.290
2119.333
2116.376
2113.419
2110.462
2107.505
2104.548
2101.591
2098.634
2095.677
2092.720
2089.763
2086.806
2083.849
2080.892
2077.935
2074.978
2072.021
2069.064
2066.107
2063.150
2060.193
2057.236
2054.279
2051.322
2048.365
2045.408
2042.451
2039.494
2036.537
2033.580
2030.623
2027.666
2024.709
2021.752
2018.795
2015.838
2012.881
2009.924
2006.967
2004.010
2001.053
1998.096
1995.139
1992.182
1989.225
1986.268
1983.311
1980.354
1977.397
1974.440
1971.483
1968.526
1965.569
1962.612
1959.655
1956.698
1953.741
1950.784
1947.827
1944.870
1941.913
1938.956
1935.999
1933.042
1930.085
1927.128
1924.171
1921.214
1918.257
1915.300
1912.343
1909.386
1906.429
1903.472
1900.515
1897.558
1894.601
1891.644
1888.687
1885.730
1882.773
1879.816
1876.859
1873.902
1870.945
1867.988
1865.031
1862.074
1859.117
1856.160
1853.203
1850.246
1847.289
1844.332
1841.375
1838.418
1835.461
1832.504
1829.547
1826.590
1823.633
1820.676
1817.719
1814.762
1811.805
1808.848
1805.891
1802.934
1799.977
1797.020
1794.063
1791.106
1788.149
1785.192
1782.235
1779.278
1776.321
1773.364
1770.407
1767.450
1764.493
1761.536
1758.579
1755.622
1752.665
1749.708
1746.751
1743.794
1740.837
1737.880
1734.923
1731.966
1729.009
1726.052
1723.095
1720.138
1717.181
1714.224
1711.267
1705.060
1698.853
1692.646
1686.439
1680.232
1674.025
1667.818
1661.611
1655.404
1649.197
1642.990
1636.783
1630.576
1624.369
1618.162
1611.955
1605.748
1599.541
1593.334
1587.127
1580.920
1574.713
1568.506
1562.299
1556.092
1549.885
1543.678
1537.471
1531.264
1525.057
1518.850
1512.643
1506.436
1500.229
1494.022
1487.815
1481.608
1475.401
1469.194
1462.987
1456.780
1450.573
1444.366
1438.159
1431.952
1425.745
1419.538
1413.331
1407.124
1400.917
1394.710
1388.503
1382.296
1376.089
1369.882
1363.675
1357.468
1351.261
1345.054
1338.847
1332.640
1326.433
1320.226
1314.019
1307.812
1301.605
1295.398
1289.191
1282.984
1276.777
1270.570
1264.363
1258.156
1251.949
1245.742
1239.535
1233.328
1227.121
1220.914
1214.707
1208.500
1202.293
1196.086
1189.879
1183.672
1177.465
1171.258
1165.051
1158.844
1152.637
1146.430
1140.223
1134.016
1127.809
1121.602
1115.395
1109.188
1102.981
1096.774
1090.567
1084.360
1078.153
1071.946
1065.739
1059.532
1053.325
1047.118
1040.911
1034.704
1028.497
1022.290
1016.083
1009.876
1003.669
997.462
991.255
985.048
978.841
972.634
966.427
960.220
954.013
947.806
941.599
935.392
929.185
922.978
916.771
910.564
904.357
898.150
891.943
885.736
879.529
873.322
867.115
860.908
854.701
848.494
842.287
836.080
829.873
823.666
817.459
811.252
805.045
798.838
792.631
786.424
780.217
774.010
767.803
761.596
755.389
749.182
742.975
736.768
730.561
724.354
718.147
711.940
705.733
699.526
693.319
687.112
680.905
674.698
668.491
662.284
656.077
649.870
643.663
637.456
631.249
625.042
618.835
