89.747
89.747
89.747
89.747
89.747
89.747
89.747
89.747
89.747
89.747
89.747
89.747
89.747
89.747
89.747
89.747
89.747
89.747
89.747
89.747
89.747
89.747
89.747
89.747
89.747
89.747
89.747
89.747
89.747
89.747
89.747
89.747
89.747
89.747
89.747
89.747
89.747
89.747
89.747
89.747
89.747
89.747
89.747
89.747
89.747
89.747
89.747
89.747
89.747
89.747
89.747
89.747
89.747
89.747
89.747
89.747
89.747
89.747
89.747
89.747
89.747
89.747
89.747
89.747
89.747
89.747
89.747
89.747
89.747
89.747
89.747
89.747
89.747
89.747
89.747
89.747
89.747
89.747
89.747
89.747
89.747
89.747
89.747
89.747
89.747
89.747
89.747
89.747
89.747
89.747
89.747
89.747
89.747
89.747
89.747
89.747
89.747
89.747
89.747
89.747
89.747
89.747
89.747
89.747
89.747
89.747
89.747
89.747
89.747
89.747
89.747
89.747
89.747
89.747
89.747
89.747
89.747
89.747
89.747
89.747
89.747
89.747
89.747
89.747
89.747
89.747
89.747
89.747
89.747
89.747
89.747
89.747
89.747
89.747
89.747
89.747
89.747
89.747
89.747
89.747
89.747
89.747
89.747
89.747
89.747
89.747
89.747
89.747
89.747
89.747
89.747
89.747
89.747
89.747
89.747
89.747
89.747
89.747
89.747
89.747
89.747
89.747
89.747
89.747
89.747
89.747
89.747
89.747
89.747
89.747
89.747
89.747
89.747
89.747
89.747
89.747
89.747
89.747
89.747
89.747
89.747
485.647
490.559
495.471
500.383
505.295
510.207
515.119
520.031
524.943
529.855
534.767
539.679
544.591
549.503
554.415
559.327
564.239
569.151
574.063
578.975
583.887
588.799
593.711
598.623
603.535
608.447
613.359
618.271
623.183
628.095
633.007
637.919
642.831
647.743
652.655
657.567
662.479
667.391
672.303
677.215
682.127
687.039
691.951
696.863
701.775
706.687
711.599
716.511
721.423
726.335
731.247
736.159
741.071
745.983
750.895
755.807
760.719
765.631
770.543
775.455
780.367
785.279
790.191
795.103
800.015
804.927
809.839
814.751
819.663
824.575
829.487
834.399
839.311
844.223
849.135
854.047
858.959
863.871
868.783
873.695
878.607
883.519
888.431
893.343
898.255
903.167
908.079
912.991
917.903
922.815
927.727
932.639
937.551
942.463
947.375
952.287
957.199
962.111
967.023
971.935
976.847
981.759
986.671
991.583
996.495
1001.407
1006.319
1011.231
1016.143
1021.055
1025.967
1030.879
1035.791
1040.703
1045.615
1050.527
1055.439
1060.351
1065.263
1070.175
1075.087
1079.999
1084.911
1089.823
1094.735
1099.647
1104.559
1109.471
1114.383
1119.295
1124.207
1129.119
1134.031
1138.943
1143.855
1148.767
1153.679
1158.591
1163.503
1168.415
1173.327
1178.239
1183.151
1188.063
1192.975
1197.887
1202.799
1207.711
1212.623
1217.535
1222.447
1227.359
1232.271
1237.183
1242.095
1247.007
1251.919
1256.831
1261.743
1266.655
1271.567
1276.479
1281.391
1286.303
1291.215
1296.127
1301.039
1305.951
1310.863
1315.775
1320.687
1325.599
1330.511
1335.423
1340.335
1345.247
1350.159
1355.071
1359.983
1364.895
1369.807
1374.719
1379.631
1384.543
1389.455
1394.367
1399.279
1404.191
1409.103
1414.015
1418.927
1423.839
1428.751
1433.663
1438.575
1443.487
1448.399
1453.311
1458.223
1463.135
1468.047
1470.515
1472.983
1475.451
1477.919
1480.387
1482.855
1485.323
1487.791
1490.259
1492.727
1495.195
1497.663
1500.131
1502.599
1505.067
1507.535
1510.003
1512.471
1514.939
1517.407
1519.875
1522.343
1524.811
1527.279
1529.747
1532.215
1534.683
1537.151
1539.619
1542.087
1544.555
1547.023
1549.491
1551.959
1554.427
1556.895
1559.363
1561.831
1564.299
1566.767
1569.235
1571.703
1574.171
1576.639
1579.107
1581.575
1584.043
1586.511
1588.979
1591.447
1593.915
1596.383
1598.851
1601.319
1603.787
1606.255
1608.723
1611.191
1613.659
1616.127
1618.595
1621.063
1623.531
1625.999
1628.467
1630.935
1633.403
1635.871
1638.339
1640.807
1643.275
1645.743
1648.211
1650.679
1653.147
1655.615
1658.083
1660.551
1663.019
1665.487
1667.955
1670.423
1672.891
1675.359
1677.827
1680.295
1682.763
1685.231
1687.699
1690.167
1692.635
1695.103
1697.571
1700.039
1702.507
1704.975
1707.443
1709.911
1712.379
1714.847
1717.315
1719.783
1722.251
1724.719
1727.187
1729.655
1732.123
1734.591
1737.059
1739.527
1741.995
1744.463
1746.931
1749.399
1751.867
1754.335
1756.803
1759.271
1761.739
1764.207
1766.675
1769.143
1771.611
1774.079
1776.547
1779.015
1781.483
1783.951
1786.419
1788.887
1791.355
1793.823
1796.291
1798.759
1801.227
1803.695
1806.163
1808.631
1811.099
1813.567
1816.035
1818.503
1820.971
1823.439
1825.907
1828.375
1830.843
1833.311
1835.779
1838.247
1840.715
1843.183
1845.651
1848.119
1850.587
1853.055
1855.523
1857.991
1860.459
1862.927
1865.395
1867.863
1870.331
1872.799
1875.267
1877.735
1880.203
1882.671
1885.139
1887.607
1890.075
1892.543
1895.011
1897.479
1899.947
1902.415
1904.883
1907.351
1909.819
1912.287
1914.755
1917.223
1919.691
1922.159
1924.627
1927.095
1929.563
1932.031
1934.499
1936.967
1939.435
1941.903
1944.371
1946.839
1949.307
1951.775
1954.243
1956.711
1959.179
1961.647
1961.231
1960.816
1960.400
1959.985
1959.569
1959.154
1958.738
1958.323
1957.907
1957.492
1957.076
1956.661
1956.245
1955.830
1955.414
1954.999
1954.583
1954.168
1953.752
1953.337
1952.921
1952.506
1952.090
1951.675
1951.259
1950.844
1950.428
1950.013
1949.597
1949.182
1948.766
1948.351
1947.935
1947.520
1947.104
1946.689
1946.273
1945.858
1945.442
1945.027
1944.611
1944.196
1943.780
1943.365
1942.949
1942.534
1942.118
1941.703
1941.287
1940.872
1940.456
1940.041
1939.625
1939.210
1938.794
1938.379
1937.963
1937.548
1937.132
1936.717
1936.301
1935.886
1935.470
1935.055
1934.639
1934.224
1933.808
1933.393
1932.977
1932.562
1932.146
1931.731
1931.315
1930.900
1930.484
1930.069
1929.653
1929.238
1928.822
1928.407
1927.991
1927.576
1927.160
1926.745
1926.329
1925.914
1925.498
1925.083
1924.667
1924.252
1923.836
1923.421
1923.005
1922.590
1922.174
1921.759
1921.343
1920.928
1920.512
1920.097
1919.681
1919.266
1918.850
1918.435
1918.019
1917.604
1917.188
1916.773
1916.357
1915.942
1915.526
1915.111
1914.695
1914.280
1913.864
1913.449
1913.033
1912.618
1912.202
1911.787
1911.371
1910.956
1910.540
1910.125
1909.709
1909.294
1908.878
1908.463
1908.047
1907.632
1907.216
1906.801
1906.385
1905.970
1905.554
1905.139
1904.723
1904.308
1903.892
1903.477
1903.061
1902.646
1902.230
1901.815
1901.399
1900.984
1900.568
1900.153
1899.737
1899.322
1898.906
1898.491
1898.075
1897.660
1897.244
1896.829
1896.413
1895.998
1895.582
1895.167
1894.751
1894.336
1893.920
1893.505
1893.089
1892.674
1892.258
1891.843
1891.427
1891.012
1890.596
1890.181
1889.765
1889.350
1888.934
1888.519
1888.103
1887.688
1887.272
1886.857
1886.441
1886.026
1885.610
1885.195
1884.779
1884.364
1883.948
1883.533
1883.117
1882.702
1882.286
1881.871
1881.455
1881.040
1880.624
1880.209
1879.793
1879.378
1878.962
1878.547
1883.043
1887.540
1892.036
1896.533
1901.029
1905.526
1910.022
1914.519
1919.015
1923.512
1928.008
1932.505
1937.001
1941.498
1945.994
1950.491
1954.987
1959.484
1963.980
1968.477
1972.973
1977.470
1981.966
1986.463
1990.959
1995.456
1999.952
2004.449
2008.945
2013.442
2017.938
2022.435
2026.931
2031.428
2035.924
2040.421
2044.917
2049.414
2053.910
2058.407
2062.903
2067.400
2071.896
2076.393
2080.889
2085.386
2089.882
2094.379
2098.875
2103.372
2107.868
2112.365
2116.861
2121.358
2125.854
2130.351
2134.847
2139.344
2143.840
2148.337
2152.833
2157.330
2161.826
2166.323
2170.819
2175.316
2179.812
2184.309
2188.805
2193.302
2197.798
2202.295
2206.791
2211.288
2215.784
2220.281
2224.777
2229.274
2233.770
2238.267
2242.763
2247.260
2251.756
2256.253
2260.749
2265.246
2269.742
2274.239
2278.735
2283.232
2287.728
2292.225
2296.721
2301.218
2305.714
2310.211
2314.707
2319.204
2323.700
2328.197
2332.693
2337.190
2341.686
2346.183
2350.679
2355.176
2359.672
2364.169
2368.665
2373.162
2377.658
2382.155
2386.651
2391.148
2395.644
2400.141
2404.637
2409.134
2413.630
2418.127
2422.623
2427.120
2431.616
2436.113
2440.609
2445.106
2449.602
2454.099
2458.595
2463.092
2467.588
2472.085
2476.581
2481.078
2485.574
2490.071
2494.567
2499.064
2503.560
2508.057
2512.553
2517.050
2521.546
2526.043
2530.539
2535.036
2539.532
2544.029
2548.525
2553.022
2557.518
2562.015
2566.511
2571.008
2575.504
2580.001
2584.497
2588.994
2593.490
2597.987
2602.483
2606.980
2611.476
2615.973
2620.469
2624.966
2629.462
2633.959
2638.455
2642.952
2647.448
2651.945
2656.441
2660.938
2665.434
2669.931
2674.427
2678.924
2683.420
2687.917
2692.413
2696.910
2701.406
2705.903
2710.399
2714.896
2719.392
2723.889
2728.385
2732.882
2737.378
2741.875
2746.371
2750.868
2755.364
2759.861
2764.357
2768.854
2773.350
2777.847
2773.204
2768.561
2763.918
2759.275
2754.632
2749.989
2745.346
2740.703
2736.060
2731.417
2726.774
2722.131
2717.488
2712.845
2708.202
2703.559
2698.916
2694.273
2689.630
2684.987
2680.344
2675.701
2671.058
2666.415
2661.772
2657.129
2652.486
2647.843
2643.200
2638.557
2633.914
2629.271
2624.628
2619.985
2615.342
2610.699
2606.056
2601.413
2596.770
2592.127
2587.484
2582.841
2578.198
2573.555
2568.912
2564.269
2559.626
2554.983
2550.340
2545.697
2541.054
2536.411
2531.768
2527.125
2522.482
2517.839
2513.196
2508.553
2503.910
2499.267
2494.624
2489.981
2485.338
2480.695
2476.052
2471.409
2466.766
2462.123
2457.480
2452.837
2448.194
2443.551
2438.908
2434.265
2429.622
2424.979
2420.336
2415.693
2411.050
2406.407
2401.764
2397.121
2392.478
2387.835
2383.192
2378.549
2373.906
2369.263
2364.620
2359.977
2355.334
2350.691
2346.048
2341.405
2336.762
2332.119
2327.476
2322.833
2318.190
2313.547
2308.904
2304.261
2299.618
2294.975
2290.332
2285.689
2281.046
2276.403
2271.760
2267.117
2262.474
2257.831
2253.188
2248.545
2243.902
2239.259
2234.616
2229.973
2225.330
2220.687
2216.044
2211.401
2206.758
2202.115
2197.472
2192.829
2188.186
2183.543
2178.900
2174.257
2169.614
2164.971
2160.328
2155.685
2151.042
2146.399
2141.756
2137.113
2132.470
2127.827
2123.184
2118.541
2113.898
2109.255
2104.612
2099.969
2095.326
2090.683
2086.040
2081.397
2076.754
2072.111
2067.468
2062.825
2058.182
2053.539
2048.896
2044.253
2039.610
2034.967
2030.324
2025.681
2021.038
2016.395
2011.752
2007.109
2002.466
1997.823
1993.180
1988.537
1983.894
1979.251
1974.608
1969.965
1965.322
1960.679
1956.036
1951.393
1946.750
1942.107
1937.464
1932.821
1928.178
1923.535
1918.892
1914.249
1909.606
1904.963
1900.320
1895.677
1891.034
1886.391
1881.748
1877.105
1872.462
1867.819
1863.176
1858.533
1853.890
1849.247
1851.568
1853.890
1856.211
1858.533
1860.854
1863.176
1865.497
1867.819
1870.140
1872.462
1874.783
1877.105
1879.426
1881.748
1884.069
1886.391
1888.712
1891.034
1893.355
1895.677
1897.998
1900.320
1902.641
1904.963
1907.284
1909.606
1911.927
1914.249
1916.570
1918.892
1921.213
1923.535
1925.856
1928.178
1930.499
1932.821
1935.142
1937.464
1939.785
1942.107
1944.428
1946.750
1949.071
1951.393
1953.714
1956.036
1958.357
1960.679
1963.000
1965.322
1967.643
1969.965
1972.286
1974.608
1976.929
1979.251
1981.572
1983.894
1986.215
1988.537
1990.858
1993.180
1995.501
1997.823
2000.144
2002.466
2004.787
2007.109
2009.430
2011.752
2014.073
2016.395
2018.716
2021.038
2023.359
2025.681
2028.002
2030.324
2032.645
2034.967
2037.288
2039.610
2041.931
2044.253
2046.574
2048.896
2051.217
2053.539
2055.860
2058.182
2060.503
2062.825
2065.146
2067.468
2069.789
2072.111
2074.432
2076.754
2079.075
2081.397
2083.718
2086.040
2088.361
2090.683
2093.004
2095.326
2097.647
2099.969
2102.290
2104.612
2106.933
2109.255
2111.576
2113.898
2116.219
2118.541
2120.862
2123.184
2125.505
2127.827
2130.148
2132.470
2134.791
2137.113
2139.434
2141.756
2144.077
2146.399
2148.720
2151.042
2153.363
2155.685
2158.006
2160.328
2162.649
2164.971
2167.292
2169.614
2171.935
2174.257
2176.578
2178.900
2181.221
2183.543
2185.864
2188.186
2190.507
2192.829
2195.150
2197.472
2199.793
2202.115
2204.436
2206.758
2209.079
2211.401
2213.722
2216.044
2218.365
2220.687
2223.008
2225.330
2227.651
2229.973
2232.294
2234.616
2236.937
2239.259
2241.580
2243.902
2246.223
2248.545
2250.866
2253.188
2255.509
2257.831
2260.152
2262.474
2264.795
2267.117
2269.438
2271.760
2274.081
2276.403
2278.724
2281.046
2283.367
2285.689
2288.010
2290.332
2292.653
2294.975
2297.296
2299.618
2301.939
2304.261
2306.582
2308.904
2311.225
2313.547
2313.449
2313.352
2313.254
2313.157
2313.059
2312.962
2312.864
2312.767
2312.669
2312.572
2312.474
2312.377
2312.279
2312.182
2312.084
2311.987
2311.889
2311.792
2311.694
2311.597
2311.499
2311.402
2311.304
2311.207
2311.109
2311.012
2310.914
2310.817
2310.719
2310.622
2310.524
2310.427
2310.329
2310.232
2310.134
2310.037
2309.939
2309.842
2309.744
2309.647
2309.549
2309.452
2309.354
2309.257
2309.159
2309.062
2308.964
2308.867
2308.769
2308.672
2308.574
2308.477
2308.379
2308.282
2308.184
2308.087
2307.989
2307.892
2307.794
2307.697
2307.599
2307.502
2307.404
2307.307
2307.209
2307.112
2307.014
2306.917
2306.819
2306.722
2306.624
2306.527
2306.429
2306.332
2306.234
2306.137
2306.039
2305.942
2305.844
2305.747
2305.649
2305.552
2305.454
2305.357
2305.259
2305.162
2305.064
2304.967
2304.869
2304.772
2304.674
2304.577
2304.479
2304.382
2304.284
2304.187
2304.089
2303.992
2303.894
2303.797
2303.699
2303.602
2303.504
2303.407
2303.309
2303.212
2303.114
2303.017
2302.919
2302.822
2302.724
2302.627
2302.529
2302.432
2302.334
2302.237
2302.139
2302.042
2301.944
2301.847
2301.749
2301.652
2301.554
2301.457
2301.359
2301.262
2301.164
2301.067
2300.969
2300.872
2300.774
2300.677
2300.579
2300.482
2300.384
2300.287
2300.189
2300.092
2299.994
2299.897
2299.799
2299.702
2299.604
2299.507
2299.409
2299.312
2299.214
2299.117
2299.019
2298.922
2298.824
2298.727
2298.629
2298.532
2298.434
2298.337
2298.239
2298.142
2298.044
2297.947
2297.849
2297.752
2297.654
2297.557
2297.459
2297.362
2297.264
2297.167
2297.069
2296.972
2296.874
2296.777
2296.679
2296.582
2296.484
2296.387
2296.289
2296.192
2296.094
2295.997
2295.899
2295.802
2295.704
2295.607
2295.509
2295.412
2295.314
2295.217
2295.119
2295.022
2294.924
2294.827
2294.729
2294.632
2294.534
2294.437
2294.339
2294.242
2294.144
2294.047
2290.454
2286.862
2283.269
2279.677
2276.084
2272.492
2268.899
2265.307
2261.714
2258.122
2254.529
2250.937
2247.344
2243.752
2240.159
2236.567
2232.974
2229.382
2225.789
2222.197
2218.604
2215.012
2211.419
2207.827
2204.234
2200.642
2197.049
2193.457
2189.864
2186.272
2182.679
2179.087
2175.494
2171.902
2168.309
2164.717
2161.124
2157.532
2153.939
2150.347
2146.754
2143.162
2139.569
2135.977
2132.384
2128.792
2125.199
2121.607
2118.014
2114.422
2110.829
2107.237
2103.644
2100.052
2096.459
2092.867
2089.274
2085.682
2082.089
2078.497
2074.904
2071.312
2067.719
2064.127
2060.534
2056.942
2053.349
2049.757
2046.164
2042.572
2038.979
2035.387
2031.794
2028.202
2024.609
2021.017
2017.424
2013.832
2010.239
2006.647
2003.054
1999.462
1995.869
1992.277
1988.684
1985.092
1981.499
1977.907
1974.314
1970.722
1967.129
1963.537
1959.944
1956.352
1952.759
1949.167
1945.574
1941.982
1938.389
1934.797
1931.204
1927.612
1924.019
1920.427
1916.834
1913.242
1909.649
1906.057
1902.464
1898.872
1895.279
1891.687
1888.094
1884.502
1880.909
1877.317
1873.724
1870.132
1866.539
1862.947
1859.354
1855.762
1852.169
1848.577
1844.984
1841.392
1837.799
1834.207
1830.614
1827.022
1823.429
1819.837
1816.244
1812.652
1809.059
1805.467
1801.874
1798.282
1794.689
1791.097
1787.504
1783.912
1780.319
1776.727
1773.134
1769.542
1765.949
1762.357
1758.764
1755.172
1751.579
1747.987
1744.394
1740.802
1737.209
1733.617
1730.024
1726.432
1722.839
1719.247
1715.654
1712.062
1708.469
1704.877
1701.284
1697.692
1694.099
1690.507
1686.914
1683.322
1679.729
1676.137
1672.544
1668.952
1665.359
1661.767
1658.174
1654.582
1650.989
1647.397
1643.804
1640.212
1636.619
1633.027
1629.434
1625.842
1622.249
1618.657
1615.064
1611.472
1607.879
1604.287
1600.694
1597.102
1593.509
1589.917
1586.324
1582.732
1579.139
1575.547
1577.306
1579.066
1580.825
1582.585
1584.344
1586.104
1587.863
1589.623
1591.382
1593.142
1594.901
1596.661
1598.420
1600.180
1601.939
1603.699
1605.458
1607.218
1608.977
1610.737
1612.496
1614.256
1616.015
1617.775
1619.534
1621.294
1623.053
1624.813
1626.572
1628.332
1630.091
1631.851
1633.610
1635.370
1637.129
1638.889
1640.648
1642.408
1644.167
1645.927
1647.686
1649.446
1651.205
1652.965
1654.724
1656.484
1658.243
1660.003
1661.762
1663.522
1665.281
1667.041
1668.800
1670.560
1672.319
1674.079
1675.838
1677.598
1679.357
1681.117
1682.876
1684.636
1686.395
1688.155
1689.914
1691.674
1693.433
1695.193
1696.952
1698.712
1700.471
1702.231
1703.990
1705.750
1707.509
1709.269
1711.028
1712.788
1714.547
1716.307
1718.066
1719.826
1721.585
1723.345
1725.104
1726.864
1728.623
1730.383
1732.142
1733.902
1735.661
1737.421
1739.180
1740.940
1742.699
1744.459
1746.218
1747.978
1749.737
1751.497
1753.256
1755.016
1756.775
1758.535
1760.294
1762.054
1763.813
1765.573
1767.332
1769.092
1770.851
1772.611
1774.370
1776.130
1777.889
1779.649
1781.408
1783.168
1784.927
1786.687
1788.446
1790.206
1791.965
1793.725
1795.484
1797.244
1799.003
1800.763
1802.522
1804.282
1806.041
1807.801
1809.560
1811.320
1813.079
1814.839
1816.598
1818.358
1820.117
1821.877
1823.636
1825.396
1827.155
1828.915
1830.674
1832.434
1834.193
1835.953
1837.712
1839.472
1841.231
1842.991
1844.750
1846.510
1848.269
1850.029
1851.788
1853.548
1855.307
1857.067
1858.826
1860.586
1862.345
1864.105
1865.864
1867.624
1869.383
1871.143
1872.902
1874.662
1876.421
1878.181
1879.940
1881.700
1883.459
1885.219
1886.978
1888.738
1890.497
1892.257
1894.016
1895.776
1897.535
1899.295
1901.054
1902.814
1904.573
1906.333
1908.092
1909.852
1911.611
1913.371
1915.130
1916.890
1918.649
1920.409
1922.168
1923.928
1925.687
1927.447
1923.928
1920.409
1916.890
1913.371
1909.852
1906.333
1902.814
1899.295
1895.776
1892.257
1888.738
1885.219
1881.700
1878.181
1874.662
1871.143
1867.624
1864.105
