100.392
100.392
100.392
100.392
100.392
100.392
100.392
100.392
100.392
100.392
100.392
100.392
100.392
100.392
100.392
100.392
100.392
100.392
100.392
100.392
100.392
100.392
100.392
100.392
100.392
100.392
100.392
100.392
100.392
100.392
100.392
100.392
100.392
100.392
100.392
100.392
100.392
100.392
100.392
100.392
100.392
100.392
100.392
100.392
100.392
100.392
100.392
100.392
100.392
100.392
100.392
100.392
100.392
100.392
100.392
100.392
100.392
100.392
100.392
100.392
100.392
100.392
100.392
100.392
100.392
100.392
100.392
100.392
100.392
100.392
100.392
100.392
100.392
100.392
100.392
100.392
100.392
100.392
100.392
100.392
100.392
100.392
100.392
100.392
100.392
100.392
100.392
100.392
100.392
100.392
100.392
100.392
100.392
100.392
100.392
100.392
100.392
100.392
100.392
100.392
100.392
100.392
100.392
100.392
100.392
100.392
100.392
100.392
100.392
100.392
100.392
100.392
100.392
100.392
100.392
100.392
100.392
100.392
100.392
100.392
100.392
100.392
100.392
100.392
100.392
100.392
100.392
100.392
100.392
100.392
100.392
100.392
100.392
100.392
100.392
100.392
100.392
100.392
100.392
100.392
100.392
100.392
100.392
100.392
100.392
100.392
100.392
100.392
100.392
100.392
100.392
100.392
100.392
100.392
100.392
100.392
100.392
100.392
100.392
100.392
100.392
100.392
100.392
100.392
100.392
100.392
100.392
100.392
100.392
100.392
100.392
100.392
100.392
100.392
100.392
100.392
100.392
100.392
100.392
100.392
100.392
100.392
100.392
100.392
100.392
100.392
100.392
100.392
100.392
100.392
100.392
100.392
100.392
100.392
100.392
100.392
100.392
100.392
100.392
100.392
100.392
100.392
100.392
100.392
100.392
100.392
100.392
100.392
100.392
100.392
100.392
100.392
100.392
100.392
100.392
100.392
100.392
100.392
100.392
100.392
100.392
100.392
100.392
100.392
100.392
100.392
100.392
100.392
100.392
100.392
100.392
100.392
100.392
100.392
100.392
100.392
100.392
100.392
100.392
100.392
100.392
100.392
100.392
100.392
100.392
100.392
100.392
100.392
100.392
100.392
100.392
100.392
100.392
100.392
100.392
100.392
100.392
100.392
100.392
100.392
100.392
100.392
100.392
100.392
100.392
100.392
100.392
100.392
100.392
100.392
100.392
100.392
100.392
100.392
100.392
100.392
100.392
100.392
100.392
100.392
100.392
100.392
100.392
100.392
100.392
100.392
100.392
100.392
100.392
100.392
100.392
100.392
100.392
100.392
100.392
100.392
100.392
100.392
100.392
100.392
100.392
100.392
100.392
100.392
100.392
100.392
1341.792
1344.211
1346.631
1349.050
1351.470
1353.889
1356.309
1358.728
1361.148
1363.567
1365.987
1368.406
1370.826
1373.245
1375.665
1378.084
1380.504
1382.923
1385.343
1387.762
1390.182
1392.601
1395.021
1397.440
1399.860
1402.279
1404.699
1407.118
1409.538
1411.957
1414.377
1416.796
1419.216
1421.635
1424.055
1426.474
1428.894
1431.313
1433.733
1436.152
1438.572
1440.991
1443.411
1445.830
1448.250
1450.669
1453.089
1455.508
1457.928
1460.347
1462.767
1465.186
1467.606
1470.025
1472.445
1474.864
1477.284
1479.703
1482.123
1484.542
1486.962
1489.381
1491.801
1494.220
1496.640
1499.059
1501.479
1503.898
1506.318
1508.737
1511.157
1513.576
1515.996
1518.415
1520.835
1523.254
1525.674
1528.093
1530.513
1532.932
1535.352
1537.771
1540.191
1542.610
1545.030
1547.449
1549.869
1552.288
1554.708
1557.127
1559.547
1561.966
1564.386
1566.805
1569.225
1571.644
1574.064
1576.483
1578.903
1581.322
1583.742
1586.161
1588.581
1591.000
1593.420
1595.839
1598.259
1600.678
1603.098
1605.517
1607.937
1610.356
1612.776
1615.195
1617.615
1620.034
1622.454
1624.873
1627.293
1629.712
1632.132
1634.551
1636.971
1639.390
1641.810
1644.229
1646.649
1649.068
1651.488
1653.907
1656.327
1658.746
1661.166
1663.585
1666.005
1668.424
1670.844
1673.263
1675.683
1678.102
1680.522
1682.941
1685.361
1687.780
1690.200
1692.619
1695.039
1697.458
1699.878
1702.297
1704.717
1707.136
1709.556
1711.975
1714.395
1716.814
1719.234
1721.653
1724.073
1726.492
1728.912
1731.331
1733.751
1736.170
1738.590
1741.009
1743.429
1745.848
1748.268
1750.687
1753.107
1755.526
1757.946
1760.365
1762.785
1765.204
1767.624
1770.043
1772.463
1774.882
1777.302
1779.721
1782.141
1784.560
1786.980
1789.399
1791.819
1794.238
1796.658
1799.077
1801.497
1803.916
1806.336
1808.755
1811.175
1813.594
1816.014
1818.433
1820.853
1823.272
1825.692
1826.498
1827.305
1828.111
1828.918
1829.724
1830.531
1831.337
1832.144
1832.950
1833.757
1834.563
1835.370
1836.176
1836.983
1837.789
1838.596
1839.402
1840.209
1841.015
1841.822
1842.628
1843.435
1844.241
1845.048
1845.854
1846.661
1847.467
1848.274
1849.080
1849.887
1850.693
1851.500
1852.306
1853.113
1853.919
1854.726
1855.532
1856.339
1857.145
1857.952
1858.758
1859.565
1860.371
1861.178
1861.984
1862.791
1863.597
1864.404
1865.210
1866.017
1866.823
1867.630
1868.436
1869.243
1870.049
1870.856
1871.662
1872.469
1873.275
1874.082
1874.888
1875.695
1876.501
1877.308
1878.114
1878.921
1879.727
1880.534
1881.340
1882.147
1882.953
1883.760
1884.566
1885.373
1886.179
1886.986
1887.792
1888.599
1889.405
1890.212
1891.018
1891.825
1892.631
1893.438
1894.244
1895.051
1895.857
1896.664
1897.470
1898.277
1899.083
1899.890
1900.696
1901.503
1902.309
1903.116
1903.922
1904.729
1905.535
1906.342
1907.148
1907.955
1908.761
1909.568
1910.374
1911.181
1911.987
1912.794
1913.600
1914.407
1915.213
1916.020
1916.826
1917.633
1918.439
1919.246
1920.052
1920.859
1921.665
1922.472
1923.278
1924.085
1924.891
1925.698
1926.504
1927.311
1928.117
1928.924
1929.730
1930.537
1931.343
1932.150
1932.956
1933.763
1934.569
1935.376
1936.182
1936.989
1937.795
1938.602
1939.408
1940.215
1941.021
1941.828
1942.634
1943.441
1944.247
1945.054
1945.860
1946.667
1947.473
1948.280
1949.086
1949.893
1950.699
1951.506
1952.312
1953.119
1953.925
1954.732
1955.538
1956.345
1957.151
1957.958
1958.764
1959.571
1960.377
1961.184
1961.990
1962.797
1963.603
1964.410
1965.216
1966.023
1966.829
1967.636
1968.442
1969.249
1970.055
1970.862
1971.668
1972.475
1973.281
1974.088
1974.894
1975.701
1976.507
1977.314
1978.120
1978.927
1979.733
1980.540
1981.346
1982.153
1982.959
1983.766
1984.572
1985.379
1986.185
1986.992
1988.067
1989.142
1990.217
1991.292
1992.367
1993.442
1994.517
1995.592
1996.667
1997.742
1998.817
1999.892
2000.967
2002.042
2003.117
2004.192
2005.267
2006.342
2007.417
2008.492
2009.567
2010.642
2011.717
2012.792
2013.867
2014.942
2016.017
2017.092
2018.167
2019.242
2020.317
2021.392
2022.467
2023.542
2024.617
2025.692
2026.767
2027.842
2028.917
2029.992
2031.067
2032.142
2033.217
2034.292
2035.367
2036.442
2037.517
2038.592
2039.667
2040.742
2041.817
2042.892
2043.967
2045.042
2046.117
2047.192
2048.267
2049.342
2050.417
2051.492
2052.567
2053.642
2054.717
2055.792
2056.867
2057.942
2059.017
2060.092
2061.167
2062.242
2063.317
2064.392
2065.467
2066.542
2067.617
2068.692
2069.767
2070.842
2071.917
2072.992
2074.067
2075.142
2076.217
2077.292
2078.367
2079.442
2080.517
2081.592
2082.667
2083.742
2084.817
2085.892
2086.967
2088.042
2089.117
2090.192
2091.267
2092.342
2093.417
2094.492
2095.567
2096.642
2097.717
2098.792
2099.867
2100.942
2102.017
2103.092
2104.167
2105.242
2106.317
2107.392
2108.467
2109.542
2110.617
2111.692
2112.767
2113.842
2114.917
2115.992
2117.067
2118.142
2119.217
2120.292
2121.367
2122.442
2123.517
2124.592
2125.667
2126.742
2127.817
2128.892
2129.967
2131.042
2132.117
2133.192
2134.267
2135.342
2136.417
2137.492
2138.567
2139.642
2140.717
2141.792
2142.867
2143.942
2145.017
2146.092
2147.167
2148.242
2149.317
2150.392
2151.467
2152.542
2153.617
2154.692
2155.767
2156.842
2157.917
2158.992
2160.067
2161.142
2162.217
2163.292
2164.367
2165.442
2166.517
2167.592
2168.667
2169.742
2170.817
2171.892
2172.967
2174.042
2175.117
2176.192
2177.267
2178.342
2179.417
2180.492
2181.567
2182.642
2183.717
2184.792
2185.867
2186.942
2188.017
2189.092
2190.167
2191.242
2192.317
2193.392
2194.467
2195.542
2196.617
2197.692
2198.767
2199.842
2200.917
2201.992
2201.601
2201.210
2200.819
2200.428
2200.037
2199.646
2199.255
2198.864
2198.473
2198.082
2197.691
2197.300
2196.909
2196.518
2196.127
2195.736
2195.345
2194.954
2194.563
2194.172
2193.781
2193.390
2192.999
2192.608
2192.217
2191.826
2191.435
2191.044
2190.653
2190.262
2189.871
2189.480
2189.089
2188.698
2188.307
2187.916
2187.525
2187.134
2186.743
2186.352
2185.961
2185.570
2185.179
2184.788
2184.397
2184.006
2183.615
2183.224
2182.833
2182.442
2182.051
2181.660
2181.269
2180.878
2180.487
2180.096
2179.705
2179.314
2178.923
2178.532
2178.141
2177.750
2177.359
2176.968
2176.577
2176.186
2175.795
2175.404
2175.013
2174.622
2174.231
2173.840
2173.449
2173.058
2172.667
2172.276
2171.885
2171.494
2171.103
2170.712
2170.321
2169.930
2169.539
2169.148
2168.757
2168.366
2167.975
2167.584
2167.193
2166.802
2166.411
2166.020
2165.629
2165.238
2164.847
2164.456
2164.065
2163.674
2163.283
2162.892
2162.501
2162.110
2161.719
2161.328
2160.937
2160.546
2160.155
2159.764
2159.373
2158.982
2158.591
2158.200
2157.809
2157.418
2157.027
2156.636
2156.245
2155.854
2155.463
2155.072
2154.681
2154.290
2153.899
2153.508
2153.117
2152.726
2152.335
2151.944
2151.553
2151.162
2150.771
2150.380
2149.989
2149.598
2149.207
2148.816
2148.425
2148.034
2147.643
2147.252
2146.861
2146.470
2146.079
2145.688
2145.297
2144.906
2144.515
2144.124
2143.733
2143.342
2142.951
2142.560
2142.169
2141.778
2141.387
2140.996
2140.605
2140.214
2139.823
2139.432
2139.041
2138.650
2138.259
2137.868
2137.477
2137.086
2136.695
2136.304
2135.913
2135.522
2135.131
2134.740
2134.349
2133.958
2133.567
2133.176
2132.785
2132.394
2132.003
2131.612
2131.221
2130.830
2130.439
2130.048
2129.657
2129.266
2128.875
2128.484
2128.093
2127.702
2127.311
2126.920
2126.529
2126.138
2125.747
2125.356
2124.965
2124.574
2124.183
2123.792
2123.059
2122.326
2121.593
2120.860
2120.127
2119.394
2118.661
2117.928
2117.195
2116.462
2115.729
2114.996
2114.263
2113.530
2112.797
2112.064
2111.331
2110.598
2109.865
2109.132
2108.399
2107.666
2106.933
2106.200
2105.467
2104.734
2104.001
2103.268
2102.535
2101.802
2101.069
2100.336
2099.603
2098.870
2098.137
2097.404
2096.671
2095.938
2095.205
2094.472
2093.739
2093.006
2092.273
2091.540
2090.807
2090.074
2089.341
2088.608
2087.875
2087.142
2086.409
2085.676
2084.943
2084.210
2083.477
2082.744
2082.011
2081.278
2080.545
2079.812
2079.079
2078.346
2077.613
2076.880
2076.147
2075.414
2074.681
2073.948
2073.215
2072.482
2071.749
2071.016
2070.283
2069.550
2068.817
2068.084
2067.351
2066.618
2065.885
2065.152
2064.419
2063.686
2062.953
2062.220
2061.487
2060.754
2060.021
2059.288
2058.555
2057.822
2057.089
2056.356
2055.623
2054.890
2054.157
2053.424
2052.691
2051.958
2051.225
2050.492
2049.759
2049.026
2048.293
2047.560
2046.827
2046.094
2045.361
2044.628
2043.895
2043.162
2042.429
2041.696
2040.963
2040.230
2039.497
2038.764
2038.031
2037.298
2036.565
2035.832
2035.099
2034.366
2033.633
2032.900
2032.167
2031.434
2030.701
2029.968
2029.235
2028.502
2027.769
2027.036
2026.303
2025.570
2024.837
2024.104
2023.371
2022.638
2021.905
2021.172
2020.439
2019.706
2018.973
2018.240
2017.507
2016.774
2016.041
2015.308
2014.575
2013.842
2013.109
2012.376
2011.643
2010.910
2010.177
2009.444
2008.711
2007.978
2007.245
2006.512
2005.779
2005.046
2004.313
2003.580
2002.847
2002.114
2001.381
2000.648
1999.915
1999.182
1998.449
1997.716
1996.983
1996.250
1995.517
1994.784
1994.051
1993.318
1992.585
1991.852
1991.119
1990.386
1989.653
1988.920
1988.187
1987.454
1986.721
1985.988
1985.255
1984.522
1983.789
1983.056
1982.323
1981.590
1980.857
1980.124
1979.391
1978.658
1977.925
1977.192
1975.286
1973.380
1971.474
1969.568
1967.662
1965.756
1963.850
1961.944
1960.038
1958.132
1956.226
1954.320
1952.414
1950.508
1948.602
1946.696
1944.790
1942.884
1940.978
1939.072
1937.166
1935.260
1933.354
1931.448
1929.542
1927.636
1925.730
1923.824
1921.918
1920.012
1918.106
1916.200
1914.294
1912.388
1910.482
1908.576
1906.670
1904.764
1902.858
1900.952
1899.046
1897.140
1895.234
1893.328
1891.422
1889.516
1887.610
1885.704
1883.798
1881.892
1879.986
1878.080
1876.174
1874.268
1872.362
1870.456
1868.550
1866.644
1864.738
1862.832
1860.926
1859.020
1857.114
1855.208
1853.302
1851.396
1849.490
1847.584
1845.678
1843.772
1841.866
1839.960
1838.054
1836.148
1834.242
1832.336
1830.430
1828.524
1826.618
1824.712
1822.806
1820.900
1818.994
1817.088
1815.182
1813.276
1811.370
1809.464
1807.558
1805.652
1803.746
1801.840
1799.934
1798.028
1796.122
1794.216
1792.310
1790.404
1788.498
1786.592
1784.686
1782.780
1780.874
1778.968
1777.062
1775.156
1773.250
1771.344
1769.438
1767.532
1765.626
1763.720
1761.814
1759.908
1758.002
1756.096
1754.190
1752.284
1750.378
1748.472
1746.566
1744.660
1742.754
1740.848
1738.942
1737.036
1735.130
1733.224
1731.318
1729.412
1727.506
1725.600
1723.694
1721.788
1719.882
1717.976
1716.070
1714.164
1712.258
1710.352
1708.446
1706.540
1704.634
1702.728
1700.822
1698.916
1697.010
1695.104
1693.198
1691.292
1689.386
1687.480
1685.574
1683.668
1681.762
1679.856
1677.950
1676.044
1674.138
1672.232
1670.326
1668.420
1666.514
1664.608
1662.702
1660.796
1658.890
1656.984
1655.078
1653.172
1651.266
1649.360
1647.454
1645.548
1643.642
1641.736
1639.830
1637.924
1636.018
1634.112
1632.206
1630.300
1628.394
1626.488
1624.582
1622.676
1620.770
1618.864
1616.958
1615.052
1613.146
1611.240
1609.334
1607.428
1605.522
1603.616
1601.710
1599.804
1597.898
1595.992
1595.772
1595.552
1595.332
1595.112
1594.892
1594.672
1594.452
1594.232
1594.012
1593.792
1593.572
1593.352
1593.132
1592.912
1592.692
1592.472
1592.252
1592.032
1591.812
1591.592
1591.372
1591.152
1590.932
1590.712
1590.492
1590.272
1590.052
1589.832
1589.612
1589.392
1589.172
1588.952
1588.732
1588.512
1588.292
1588.072
1587.852
1587.632
1587.412
1587.192
1586.972
1586.752
1586.532
1586.312
1586.092
1585.872
1585.652
1585.432
1585.212
1584.992
1584.772
1584.552
1584.332
1584.112
1583.892
1583.672
1583.452
1583.232
1583.012
1582.792
1582.572
1582.352
1582.132
1581.912
1581.692
1581.472
1581.252
1581.032
1580.812
1580.592
1580.372
1580.152
1579.932
1579.712
1579.492
1579.272
1579.052
1578.832
1578.612
1578.392
1578.172
1577.952
1577.732
1577.512
1577.292
1577.072
1576.852
1576.632
1576.412
1576.192
1575.972
1575.752
1575.532
1575.312
1575.092
1574.872
1574.652
1574.432
1574.212
1573.992
1573.772
1573.552
1573.332
1573.112
1572.892
1572.672
1572.452
1572.232
1572.012
1571.792
1571.572
1571.352
1571.132
1570.912
1570.692
1570.472
1570.252
1570.032
1569.812
1569.592
1569.372
1569.152
1568.932
1568.712
1568.492
1568.272
1568.052
1567.832
1567.612
1567.392
1567.172
1566.952
1566.732
1566.512
1566.292
1566.072
1565.852
1565.632
1565.412
1565.192
1564.972
1564.752
1564.532
1564.312
1564.092
1563.872
1563.652
1563.432
1563.212
1562.992
1562.772
1562.552
1562.332
1562.112
1561.892
1561.672
1561.452
1561.232
1561.012
1560.792
1560.572
1560.352
1560.132
1559.912
1559.692
1559.472
1559.252
1559.032
1558.812
1558.592
1558.372
1558.152
1557.932
1557.712
1557.492
1557.272
1557.052
1556.832
1556.612
1556.392
1556.172
1555.952
1555.732
1555.512
1555.292
1555.072
1554.852
1554.632
1554.412
1554.192
1553.972
1553.752
1553.532
1553.312
1553.092
1552.872
1552.652
1552.432
1552.212
1551.992
1555.266
1558.541
1561.815
1565.090
1568.364
1571.639
1574.913
1578.188
1581.462
1584.737
1588.011
1591.286
1594.560
1597.835
1601.109
1604.384
1607.658
1610.933
1614.207
1617.482
1620.756
1624.031
1627.305
1630.580
1633.854
1637.129
1640.403
1643.678
1646.952
1650.227
1653.501
1656.776
1660.050
1663.325
1666.599
1669.874
1673.148
1676.423
1679.697
1682.972
1686.246
1689.521
1692.795
1696.070
1699.344
1702.619
1705.893
1709.168
1712.442
1715.717
1718.991
1722.266
1725.540
1728.815
1732.089
1735.364
1738.638
1741.913
1745.187
1748.462
1751.736
1755.011
1758.285
1761.560
1764.834
1768.109
1771.383
1774.658
1777.932
1781.207
1784.481
1787.756
1791.030
1794.305
1797.579
1800.854
1804.128
1807.403
1810.677
1813.952
1817.226
1820.501
1823.775
1827.050
1830.324
1833.599
1836.873
1840.148
1843.422
1846.697
1849.971
1853.246
1856.520
1859.795
1863.069
1866.344
1869.618
1872.893
1876.167
1879.442
1882.716
1885.991
1889.265
1892.540
1895.814
1899.089
1902.363
1905.638
1908.912
1912.187
1915.461
1918.736
1922.010
1925.285
1928.559
1931.834
1935.108
1938.383
1941.657
1944.932
1948.206
1951.481
1954.755
1958.030
1961.304
1964.579
1967.853
1971.128
1974.402
1977.677
1980.951
1984.226
1987.500
1990.775
1994.049
1997.324
2000.598
2003.873
2007.147
2010.422
2013.696
2016.971
2020.245
2023.520
2026.794
2030.069
2033.343
2036.618
2039.892
2043.167
2046.441
2049.716
2052.990
2056.265
2059.539
2062.814
2066.088
2069.363
2072.637
2075.912
2079.186
2082.461
2085.735
2089.010
2092.284
2095.559
2098.833
2102.108
2105.382
2108.657
2111.931
2115.206
2118.480
2121.755
2125.029
2128.304
2131.578
2134.853
2138.127
2141.402
2144.676
2147.951
2151.225
2154.500
2157.774
2161.049
2164.323
2167.598
2170.872
2174.147
2177.421
2180.696
2183.970
2187.245
2190.519
2193.794
2197.068
2200.343
2203.617
2206.892
2204.766
2202.640
2200.514
2198.388
2196.262
2194.136
2192.010
2189.884
2187.758
2185.632
2183.506
2181.380
2179.254
2177.128
2175.002
2172.876
2170.750
2168.624
2166.498
2164.372
2162.246
2160.120
2157.994
2155.868
2153.742
2151.616
2149.490
2147.364
2145.238
2143.112
2140.986
2138.860
2136.734
2134.608
2132.482
2130.356
2128.230
2126.104
2123.978
2121.852
2119.726
2117.600
2115.474
2113.348
2111.222
2109.096
2106.970
2104.844
2102.718
2100.592
2098.466
2096.340
2094.214
2092.088
2089.962
2087.836
2085.710
2083.584
2081.458
2079.332
2077.206
2075.080
2072.954
2070.828
2068.702
2066.576
2064.450
2062.324
2060.198
2058.072
2055.946
2053.820
2051.694
2049.568
2047.442
2045.316
2043.190
2041.064
2038.938
2036.812
2034.686
2032.560
2030.434
2028.308
2026.182
2024.056
2021.930
2019.804
2017.678
2015.552
2013.426
2011.300
2009.174
