94.440
94.440
94.440
94.440
94.440
94.440
94.440
94.440
94.440
94.440
94.440
94.440
94.440
94.440
94.440
94.440
94.440
94.440
94.440
94.440
94.440
94.440
94.440
94.440
94.440
94.440
94.440
94.440
94.440
94.440
94.440
94.440
94.440
94.440
94.440
94.440
94.440
94.440
94.440
94.440
94.440
94.440
94.440
94.440
94.440
94.440
94.440
94.440
94.440
94.440
94.440
94.440
94.440
94.440
94.440
94.440
94.440
94.440
94.440
94.440
94.440
94.440
94.440
94.440
94.440
94.440
94.440
94.440
94.440
94.440
94.440
94.440
94.440
94.440
94.440
94.440
94.440
94.440
94.440
94.440
94.440
94.440
94.440
94.440
94.440
94.440
94.440
94.440
94.440
94.440
94.440
94.440
94.440
94.440
94.440
94.440
94.440
94.440
94.440
94.440
94.440
94.440
94.440
94.440
94.440
94.440
94.440
94.440
94.440
94.440
94.440
94.440
94.440
94.440
94.440
94.440
94.440
94.440
94.440
94.440
94.440
94.440
94.440
94.440
94.440
94.440
94.440
94.440
94.440
94.440
94.440
94.440
94.440
94.440
94.440
94.440
94.440
94.440
94.440
94.440
94.440
94.440
94.440
94.440
94.440
94.440
94.440
94.440
94.440
94.440
94.440
94.440
94.440
94.440
94.440
94.440
94.440
94.440
94.440
94.440
94.440
94.440
94.440
94.440
94.440
94.440
94.440
94.440
94.440
94.440
94.440
94.440
94.440
94.440
94.440
94.440
94.440
94.440
94.440
94.440
94.440
94.440
94.440
94.440
94.440
94.440
94.440
94.440
94.440
94.440
94.440
94.440
94.440
94.440
94.440
94.440
94.440
94.440
94.440
94.440
94.440
94.440
94.440
94.440
94.440
94.440
94.440
94.440
94.440
94.440
94.440
94.440
94.440
94.440
94.440
94.440
94.440
94.440
94.440
94.440
94.440
94.440
94.440
94.440
94.440
94.440
94.440
94.440
94.440
94.440
94.440
94.440
94.440
94.440
94.440
94.440
94.440
94.440
94.440
94.440
94.440
94.440
94.440
94.440
94.440
94.440
94.440
94.440
94.440
94.440
94.440
94.440
94.440
94.440
94.440
94.440
94.440
94.440
94.440
94.440
94.440
94.440
94.440
94.440
94.440
94.440
94.440
94.440
94.440
94.440
94.440
94.440
94.440
94.440
94.440
94.440
94.440
94.440
94.440
94.440
94.440
94.440
94.440
94.440
94.440
94.440
94.440
94.440
94.440
94.440
94.440
94.440
94.440
94.440
94.440
94.440
94.440
94.440
94.440
94.440
94.440
94.440
94.440
94.440
94.440
94.440
94.440
94.440
94.440
94.440
94.440
94.440
94.440
94.440
94.440
94.440
94.440
94.440
94.440
94.440
94.440
94.440
94.440
94.440
94.440
94.440
94.440
94.440
94.440
94.440
94.440
94.440
94.440
94.440
94.440
94.440
94.440
94.440
94.440
94.440
94.440
94.440
94.440
94.440
94.440
94.440
94.440
94.440
94.440
94.440
94.440
94.440
94.440
94.440
94.440
94.440
94.440
94.440
94.440
94.440
94.440
94.440
94.440
94.440
94.440
94.440
94.440
94.440
94.440
94.440
94.440
94.440
94.440
94.440
94.440
94.440
94.440
94.440
94.440
94.440
94.440
94.440
94.440
94.440
94.440
94.440
94.440
94.440
94.440
94.440
94.440
94.440
94.440
94.440
94.440
94.440
94.440
94.440
94.440
94.440
94.440
94.440
94.440
94.440
94.440
94.440
94.440
94.440
94.440
94.440
94.440
94.440
94.440
94.440
94.440
94.440
94.440
94.440
94.440
94.440
94.440
94.440
94.440
94.440
94.440
94.440
94.440
94.440
94.440
94.440
94.440
94.440
94.440
94.440
94.440
94.440
94.440
94.440
94.440
94.440
94.440
94.440
94.440
94.440
94.440
94.440
94.440
94.440
94.440
94.440
94.440
94.440
94.440
94.440
94.440
94.440
94.440
94.440
94.440
94.440
94.440
94.440
94.440
94.440
94.440
94.440
94.440
94.440
94.440
94.440
94.440
94.440
94.440
94.440
94.440
94.440
94.440
94.440
94.440
94.440
94.440
94.440
94.440
94.440
94.440
94.440
94.440
94.440
94.440
94.440
94.440
94.440
94.440
94.440
94.440
94.440
94.440
94.440
94.440
94.440
94.440
94.440
94.440
94.440
94.440
94.440
94.440
94.440
94.440
94.440
94.440
94.440
94.440
94.440
94.440
94.440
94.440
94.440
94.440
94.440
94.440
94.440
94.440
94.440
94.440
94.440
94.440
94.440
94.440
94.440
94.440
94.440
94.440
94.440
94.440
94.440
94.440
94.440
94.440
94.440
94.440
94.440
94.440
94.440
94.440
94.440
94.440
94.440
94.440
94.440
94.440
94.440
94.440
94.440
94.440
94.440
94.440
94.440
94.440
94.440
94.440
94.440
94.440
94.440
94.440
94.440
94.440
94.440
94.440
94.440
94.440
94.440
94.440
94.440
94.440
94.440
94.440
94.440
94.440
94.440
94.440
94.440
94.440
94.440
94.440
94.440
94.440
94.440
94.440
94.440
94.440
94.440
94.440
94.440
94.440
94.440
94.440
94.440
94.440
94.440
94.440
94.440
94.440
94.440
94.440
94.440
94.440
94.440
94.440
94.440
94.440
94.440
94.440
94.440
94.440
94.440
94.440
94.440
94.440
94.440
94.440
94.440
94.440
94.440
94.440
94.440
94.440
94.440
94.440
94.440
94.440
94.440
94.440
94.440
94.440
94.440
94.440
94.440
94.440
94.440
94.440
94.440
94.440
94.440
94.440
94.440
94.440
94.440
94.440
94.440
94.440
94.440
94.440
94.440
94.440
94.440
94.440
94.440
94.440
94.440
94.440
94.440
94.440
94.440
94.440
94.440
94.440
94.440
94.440
94.440
94.440
94.440
94.440
94.440
94.440
94.440
94.440
94.440
94.440
94.440
94.440
94.440
94.440
94.440
94.440
94.440
94.440
94.440
94.440
94.440
94.440
94.440
94.440
94.440
94.440
94.440
94.440
94.440
94.440
94.440
94.440
94.440
94.440
94.440
94.440
94.440
94.440
94.440
94.440
94.440
94.440
94.440
94.440
94.440
94.440
94.440
94.440
94.440
94.440
94.440
94.440
94.440
94.440
94.440
94.440
94.440
94.440
94.440
94.440
94.440
94.440
94.440
94.440
94.440
94.440
94.440
94.440
94.440
94.440
94.440
94.440
94.440
94.440
94.440
94.440
94.440
94.440
94.440
94.440
94.440
94.440
94.440
94.440
94.440
94.440
94.440
94.440
94.440
94.440
94.440
94.440
94.440
94.440
94.440
94.440
94.440
94.440
94.440
94.440
94.440
94.440
94.440
94.440
94.440
94.440
94.440
94.440
94.440
94.440
94.440
94.440
94.440
94.440
94.440
94.440
94.440
94.440
94.440
94.440
94.440
94.440
94.440
94.440
94.440
94.440
94.440
94.440
94.440
94.440
94.440
94.440
94.440
94.440
94.440
94.440
94.440
94.440
94.440
94.440
94.440
94.440
94.440
94.440
94.440
94.440
94.440
94.440
94.440
94.440
94.440
94.440
94.440
94.440
94.440
94.440
94.440
94.440
94.440
94.440
94.440
94.440
94.440
94.440
94.440
94.440
94.440
94.440
94.440
94.440
94.440
94.440
94.440
94.440
94.440
94.440
94.440
94.440
94.440
94.440
94.440
94.440
94.440
94.440
94.440
94.440
94.440
94.440
94.440
94.440
94.440
94.440
94.440
94.440
94.440
94.440
94.440
94.440
94.440
94.440
94.440
94.440
94.440
94.440
94.440
94.440
94.440
94.440
94.440
94.440
94.440
94.440
94.440
94.440
94.440
94.440
94.440
94.440
94.440
94.440
94.440
94.440
94.440
94.440
94.440
94.440
94.440
94.440
94.440
553.840
557.286
560.731
564.177
567.622
571.068
574.513
577.959
581.404
584.850
588.295
591.741
595.186
598.632
602.077
605.523
608.968
612.414
615.859
619.305
622.750
626.196
629.641
633.087
636.532
639.978
643.423
646.869
650.314
653.760
657.205
660.651
664.096
667.542
670.987
674.433
677.878
681.324
684.769
688.215
691.660
695.106
698.551
701.997
705.442
708.888
712.333
715.779
719.224
722.670
726.115
729.561
733.006
736.452
739.897
743.343
746.788
750.234
753.679
757.125
760.570
764.016
767.461
770.907
774.352
777.798
781.243
784.689
788.134
791.580
795.025
798.471
801.916
805.362
808.807
812.253
815.698
819.144
822.589
826.035
829.480
832.926
836.371
839.817
843.262
846.708
850.153
853.599
857.044
860.490
863.935
867.381
870.826
874.272
877.717
881.163
884.608
888.054
891.499
894.945
898.390
901.836
905.281
908.727
912.172
915.618
919.063
922.509
925.954
929.400
932.845
936.291
939.736
943.182
946.627
950.073
953.518
956.964
960.409
963.855
967.300
970.746
974.191
977.637
981.082
984.528
987.973
991.419
994.864
998.310
1001.755
1005.201
1008.646
1012.092
1015.537
1018.983
1022.428
1025.874
1029.319
1032.765
1036.210
1039.656
1043.101
1046.547
1049.992
1053.438
1056.883
1060.329
1063.774
1067.220
1070.665
1074.111
1077.556
1081.002
1084.447
1087.893
1091.338
1094.784
1098.229
1101.675
1105.120
1108.566
1112.011
1115.457
1118.902
1122.348
1125.793
1129.239
1132.684
1136.130
1139.575
1143.021
1146.466
1149.912
1153.357
1156.803
1160.248
1163.694
1167.139
1170.585
1174.030
1177.476
1180.921
1184.367
1187.812
1191.258
1194.703
1198.149
1201.594
1205.040
1208.485
1211.931
1215.376
1218.822
1222.267
1225.713
1229.158
1232.604
1236.049
1239.495
1242.940
1247.608
1252.276
1256.944
1261.612
1266.280
1270.948
1275.616
1280.284
1284.952
1289.620
1294.288
1298.956
1303.624
1308.292
1312.960
1317.628
1322.296
1326.964
1331.632
1336.300
1340.968
1345.636
1350.304
1354.972
1359.640
1364.308
1368.976
1373.644
1378.312
1382.980
1387.648
1392.316
1396.984
1401.652
1406.320
1410.988
1415.656
1420.324
1424.992
1429.660
1434.328
1438.996
1443.664
1448.332
1453.000
1457.668
1462.336
1467.004
1471.672
1476.340
1481.008
1485.676
1490.344
1495.012
1499.680
1504.348
1509.016
1513.684
1518.352
1523.020
1527.688
1532.356
1537.024
1541.692
1546.360
1551.028
1555.696
1560.364
1565.032
1569.700
1574.368
1579.036
1583.704
1588.372
1593.040
1597.708
1602.376
1607.044
1611.712
1616.380
1621.048
1625.716
1630.384
1635.052
1639.720
1644.388
1649.056
1653.724
1658.392
1663.060
1667.728
1672.396
1677.064
1681.732
1686.400
1691.068
1695.736
1700.404
1705.072
1709.740
1714.408
1719.076
1723.744
1728.412
1733.080
1737.748
1742.416
1747.084
1751.752
1756.420
1761.088
1765.756
1770.424
1775.092
1779.760
1784.428
1789.096
1793.764
1798.432
1803.100
1807.768
1812.436
1817.104
1821.772
1826.440
1831.108
1835.776
1840.444
1845.112
1849.780
1854.448
1859.116
1863.784
1868.452
1873.120
1877.788
1882.456
1887.124
1891.792
1896.460
1901.128
1905.796
1910.464
1915.132
1919.800
1924.468
1929.136
1933.804
1938.472
1943.140
1947.808
1952.476
1957.144
1961.812
1966.480
1971.148
1975.816
1980.484
1985.152
1989.820
1994.488
1999.156
2003.824
2008.492
2013.160
2017.828
2022.496
2027.164
2031.832
2036.500
2041.168
2045.836
2050.504
2055.172
2059.840
2064.508
2069.176
2073.844
2078.512
2083.180
2087.848
2092.516
2097.184
2101.852
2106.520
2111.188
2115.856
2120.524
2125.192
2129.860
2134.528
2139.196
2143.864
2148.532
2153.200
2157.868
2162.536
2167.204
2171.872
2176.540
2176.882
2177.224
2177.566
2177.908
2178.250
2178.592
2178.934
2179.276
2179.618
2179.960
2180.302
2180.644
2180.986
2181.328
2181.670
2182.012
2182.354
2182.696
2183.038
2183.380
2183.722
2184.064
2184.406
2184.748
2185.090
2185.432
2185.774
2186.116
2186.458
2186.800
2187.142
2187.484
2187.826
2188.168
2188.510
2188.852
2189.194
2189.536
2189.878
2190.220
2190.562
2190.904
2191.246
2191.588
2191.930
2192.272
2192.614
2192.956
2193.298
2193.640
2193.982
2194.324
2194.666
2195.008
2195.350
2195.692
2196.034
2196.376
2196.718
2197.060
2197.402
2197.744
2198.086
2198.428
2198.770
2199.112
2199.454
2199.796
2200.138
2200.480
2200.822
2201.164
2201.506
2201.848
2202.190
2202.532
2202.874
2203.216
2203.558
2203.900
2204.242
2204.584
2204.926
2205.268
2205.610
2205.952
2206.294
2206.636
2206.978
2207.320
2207.662
2208.004
2208.346
2208.688
2209.030
2209.372
2209.714
2210.056
2210.398
2210.740
2211.082
2211.424
2211.766
2212.108
2212.450
2212.792
2213.134
2213.476
2213.818
2214.160
2214.502
2214.844
2215.186
2215.528
2215.870
2216.212
2216.554
2216.896
2217.238
2217.580
2217.922
2218.264
2218.606
2218.948
2219.290
2219.632
2219.974
2220.316
2220.658
2221.000
2221.342
2221.684
2222.026
2222.368
2222.710
2223.052
2223.394
2223.736
2224.078
2224.420
2224.762
2225.104
2225.446
2225.788
2226.130
2226.472
2226.814
2227.156
2227.498
2227.840
2228.182
2228.524
2228.866
2229.208
2229.550
2229.892
2230.234
2230.576
2230.918
2231.260
2231.602
2231.944
2232.286
2232.628
2232.970
2233.312
2233.654
2233.996
2234.338
2234.680
2235.022
2235.364
2235.706
2236.048
2236.390
2236.732
2237.074
2237.416
2237.758
2238.100
2238.442
2238.784
2239.126
2239.468
2239.810
2240.152
2240.494
2240.836
2241.178
2241.520
2241.862
2242.204
2242.546
2242.888
2243.230
2243.572
2243.914
2244.256
2244.598
2244.940
2241.812
2238.684
2235.556
2232.428
2229.300
2226.172
2223.044
2219.916
2216.788
2213.660
2210.532
2207.404
2204.276
2201.148
2198.020
2194.892
2191.764
2188.636
2185.508
2182.380
2179.252
2176.124
2172.996
2169.868
2166.740
2163.612
2160.484
2157.356
2154.228
2151.100
2147.972
2144.844
2141.716
2138.588
2135.460
2132.332
2129.204
2126.076
2122.948
2119.820
2116.692
2113.564
2110.436
2107.308
2104.180
2101.052
2097.924
2094.796
2091.668
2088.540
2085.412
2082.284
2079.156
2076.028
2072.900
2069.772
2066.644
2063.516
2060.388
2057.260
2054.132
2051.004
2047.876
2044.748
2041.620
2038.492
2035.364
2032.236
2029.108
2025.980
2022.852
2019.724
2016.596
2013.468
2010.340
2007.212
2004.084
2000.956
1997.828
1994.700
1991.572
1988.444
1985.316
1982.188
1979.060
1975.932
1972.804
1969.676
1966.548
1963.420
1960.292
1957.164
1954.036
1950.908
1947.780
1944.652
1941.524
1938.396
1935.268
1932.140
1929.012
1925.884
1922.756
1919.628
1916.500
1913.372
1910.244
1907.116
1903.988
1900.860
1897.732
1894.604
1891.476
1888.348
1885.220
1882.092
1878.964
1875.836
1872.708
1869.580
1866.452
1863.324
1860.196
1857.068
1853.940
1850.812
1847.684
1844.556
1841.428
1838.300
1835.172
1832.044
1828.916
1825.788
1822.660
1819.532
1816.404
1813.276
1810.148
1807.020
1803.892
1800.764
1797.636
1794.508
1791.380
1788.252
1785.124
1781.996
1778.868
1775.740
1772.612
1769.484
1766.356
1763.228
1760.100
1756.972
1753.844
1750.716
1747.588
1744.460
1741.332
1738.204
1735.076
1731.948
1728.820
1725.692
1722.564
1719.436
1716.308
1713.180
1710.052
1706.924
1703.796
1700.668
1697.540
1694.412
1691.284
1688.156
1685.028
1681.900
1678.772
1675.644
1672.516
1669.388
1666.260
1663.132
1660.004
1656.876
1653.748
1650.620
1647.492
1644.364
1641.236
1638.108
1634.980
1631.852
1628.724
1625.596
1622.468
1619.340
1623.348
1627.356
1631.364
1635.372
1639.380
1643.388
1647.396
1651.404
1655.412
1659.420
1663.428
1667.436
1671.444
1675.452
1679.460
1683.468
1687.476
1691.484
1695.492
1699.500
1703.508
1707.516
1711.524
1715.532
1719.540
1723.548
1727.556
1731.564
1735.572
1739.580
1743.588
1747.596
1751.604
1755.612
1759.620
1763.628
1767.636
1771.644
1775.652
1779.660
1783.668
1787.676
1791.684
1795.692
1799.700
1803.708
1807.716
1811.724
1815.732
1819.740
1823.748
1827.756
1831.764
1835.772
1839.780
1843.788
1847.796
1851.804
1855.812
1859.820
1863.828
1867.836
1871.844
1875.852
1879.860
1883.868
1887.876
1891.884
1895.892
1899.900
1903.908
1907.916
1911.924
1915.932
1919.940
1923.948
1927.956
1931.964
1935.972
1939.980
1943.988
1947.996
1952.004
1956.012
1960.020
1964.028
1968.036
1972.044
1976.052
1980.060
1984.068
1988.076
1992.084
1996.092
2000.100
2004.108
2008.116
2012.124
2016.132
2020.140
2024.148
2028.156
2032.164
2036.172
2040.180
2044.188
2048.196
2052.204
2056.212
2060.220
2064.228
2068.236
2072.244
2076.252
2080.260
2084.268
2088.276
2092.284
2096.292
2100.300
2104.308
2108.316
2112.324
2116.332
2120.340
2124.348
2128.356
2132.364
2136.372
2140.380
2144.388
2148.396
2152.404
2156.412
2160.420
2164.428
2168.436
2172.444
2176.452
2180.460
2184.468
2188.476
2192.484
2196.492
2200.500
2204.508
2208.516
2212.524
2216.532
2220.540
2224.548
2228.556
2232.564
2236.572
2240.580
2244.588
2248.596
2252.604
2256.612
2260.620
2264.628
2268.636
2272.644
2276.652
2280.660
2284.668
2288.676
2292.684
2296.692
2300.700
2304.708
2308.716
2312.724
2316.732
2320.740
2324.748
2328.756
2332.764
2336.772
2340.780
2344.788
2348.796
2352.804
2356.812
2360.820
2364.828
2368.836
2372.844
2376.852
2380.860
2384.868
2388.876
2392.884
2396.892
2400.900
2404.908
2408.916
2412.924
2416.932
2420.940
2418.472
2416.003
2413.535
2411.066
2408.598
2406.129
2403.661
2401.192
2398.724
2396.255
2393.787
2391.318
2388.850
2386.381
2383.913
2381.444
2378.976
2376.507
2374.039
2371.570
2369.102
2366.633
2364.165
2361.696
2359.228
2356.759
2354.291
2351.822
2349.354
2346.885
2344.417
2341.948
2339.480
2337.011
2334.543
2332.074
2329.606
2327.137
2324.669
2322.200
2319.732
2317.263
2314.795
2312.326
2309.858
2307.389
2304.921
2302.452
2299.984
2297.515
2295.047
2292.578
2290.110
2287.641
2285.173
2282.704
2280.236
2277.767
2275.299
2272.830
2270.362
2267.893
2265.425
2262.956
2260.488
2258.019
2255.551
2253.082
2250.614
2248.145
2245.677
2243.208
2240.740
2238.271
2235.803
2233.334
2230.866
2228.397
2225.929
2223.460
2220.992
2218.523
2216.055
2213.586
2211.118
2208.649
2206.181
2203.712
2201.244
2198.775
2196.307
2193.838
2191.370
2188.901
2186.433
2183.964
2181.496
2179.027
2176.559
2174.090
2171.622
