84.933
84.933
84.933
84.933
84.933
84.933
84.933
84.933
84.933
84.933
84.933
84.933
84.933
84.933
84.933
84.933
84.933
84.933
84.933
84.933
84.933
84.933
84.933
84.933
84.933
84.933
84.933
84.933
84.933
84.933
84.933
84.933
84.933
84.933
84.933
84.933
84.933
84.933
84.933
84.933
84.933
84.933
84.933
84.933
84.933
84.933
84.933
84.933
84.933
84.933
84.933
84.933
84.933
84.933
84.933
84.933
84.933
84.933
84.933
84.933
84.933
84.933
84.933
84.933
84.933
84.933
84.933
84.933
84.933
84.933
84.933
84.933
84.933
84.933
84.933
84.933
84.933
84.933
84.933
84.933
84.933
84.933
84.933
84.933
84.933
84.933
84.933
84.933
84.933
84.933
84.933
84.933
84.933
84.933
84.933
84.933
84.933
84.933
84.933
84.933
84.933
84.933
84.933
84.933
84.933
84.933
84.933
84.933
84.933
84.933
84.933
84.933
84.933
84.933
84.933
84.933
84.933
84.933
84.933
84.933
84.933
84.933
84.933
84.933
84.933
84.933
84.933
84.933
84.933
84.933
84.933
84.933
84.933
84.933
84.933
84.933
84.933
84.933
84.933
84.933
84.933
84.933
84.933
84.933
84.933
84.933
84.933
84.933
84.933
84.933
84.933
84.933
84.933
84.933
84.933
84.933
84.933
84.933
84.933
84.933
84.933
84.933
84.933
84.933
84.933
84.933
84.933
84.933
84.933
84.933
84.933
84.933
84.933
84.933
84.933
84.933
84.933
84.933
84.933
84.933
84.933
84.933
84.933
84.933
84.933
84.933
84.933
84.933
84.933
84.933
84.933
84.933
84.933
84.933
84.933
84.933
84.933
84.933
84.933
84.933
84.933
84.933
84.933
84.933
84.933
84.933
84.933
84.933
84.933
84.933
84.933
84.933
84.933
84.933
84.933
84.933
84.933
84.933
84.933
84.933
84.933
84.933
84.933
84.933
84.933
84.933
84.933
84.933
84.933
84.933
84.933
84.933
84.933
84.933
84.933
84.933
84.933
84.933
84.933
84.933
84.933
84.933
84.933
84.933
84.933
84.933
84.933
84.933
84.933
84.933
84.933
84.933
84.933
84.933
84.933
84.933
84.933
84.933
84.933
84.933
84.933
84.933
84.933
84.933
84.933
84.933
84.933
84.933
84.933
84.933
84.933
84.933
84.933
84.933
84.933
84.933
84.933
84.933
84.933
84.933
84.933
84.933
84.933
84.933
84.933
84.933
84.933
84.933
84.933
84.933
84.933
84.933
84.933
84.933
84.933
84.933
84.933
84.933
84.933
84.933
84.933
84.933
84.933
84.933
84.933
84.933
84.933
84.933
84.933
84.933
84.933
84.933
84.933
84.933
84.933
84.933
84.933
84.933
84.933
84.933
84.933
84.933
84.933
84.933
84.933
84.933
84.933
84.933
84.933
84.933
84.933
84.933
84.933
84.933
84.933
84.933
84.933
84.933
84.933
84.933
84.933
84.933
84.933
84.933
84.933
84.933
84.933
84.933
84.933
84.933
84.933
84.933
84.933
84.933
84.933
84.933
84.933
84.933
84.933
84.933
84.933
84.933
84.933
84.933
84.933
84.933
84.933
84.933
84.933
84.933
84.933
84.933
84.933
84.933
84.933
84.933
84.933
84.933
84.933
84.933
84.933
84.933
84.933
84.933
84.933
84.933
84.933
84.933
84.933
84.933
84.933
84.933
84.933
84.933
84.933
84.933
84.933
84.933
84.933
84.933
84.933
84.933
84.933
84.933
84.933
84.933
84.933
84.933
84.933
84.933
84.933
84.933
84.933
84.933
84.933
84.933
84.933
84.933
84.933
84.933
84.933
84.933
84.933
84.933
84.933
84.933
84.933
84.933
84.933
84.933
84.933
84.933
84.933
84.933
84.933
84.933
84.933
84.933
84.933
84.933
84.933
84.933
84.933
84.933
84.933
84.933
84.933
84.933
84.933
84.933
84.933
84.933
84.933
84.933
84.933
84.933
84.933
84.933
84.933
84.933
84.933
84.933
84.933
84.933
84.933
84.933
84.933
84.933
84.933
84.933
84.933
84.933
84.933
84.933
84.933
84.933
84.933
84.933
84.933
84.933
84.933
84.933
84.933
84.933
84.933
84.933
84.933
84.933
84.933
84.933
84.933
84.933
84.933
84.933
84.933
84.933
84.933
84.933
84.933
84.933
84.933
84.933
84.933
84.933
84.933
84.933
84.933
84.933
84.933
84.933
84.933
84.933
84.933
84.933
84.933
84.933
84.933
84.933
84.933
84.933
84.933
84.933
84.933
84.933
84.933
84.933
84.933
84.933
84.933
84.933
84.933
84.933
84.933
84.933
84.933
84.933
84.933
84.933
84.933
84.933
84.933
84.933
84.933
84.933
84.933
84.933
84.933
84.933
84.933
84.933
84.933
84.933
84.933
84.933
84.933
84.933
84.933
84.933
84.933
84.933
84.933
84.933
84.933
84.933
84.933
84.933
84.933
84.933
84.933
84.933
84.933
84.933
84.933
84.933
84.933
84.933
84.933
84.933
84.933
84.933
84.933
84.933
84.933
84.933
84.933
84.933
84.933
84.933
84.933
84.933
84.933
84.933
84.933
84.933
84.933
84.933
84.933
84.933
84.933
84.933
84.933
84.933
84.933
84.933
84.933
84.933
84.933
84.933
84.933
84.933
84.933
84.933
84.933
84.933
84.933
84.933
84.933
84.933
84.933
84.933
84.933
84.933
84.933
85.129
85.324
85.520
85.715
85.911
86.106
86.302
86.497
86.693
86.888
87.084
87.279
87.475
87.670
87.866
88.061
88.257
88.452
88.648
88.843
89.039
89.234
89.430
89.625
89.821
90.016
90.212
90.407
90.603
90.798
90.994
91.189
91.385
91.580
91.776
91.971
92.167
92.362
92.558
92.753
92.949
93.144
93.340
93.535
93.731
93.926
94.122
94.317
94.513
94.708
94.904
95.099
95.295
95.490
95.686
95.881
96.077
96.272
96.468
96.663
96.859
97.054
97.250
97.445
97.641
97.836
98.032
98.227
98.423
98.618
98.814
99.009
99.205
99.400
99.596
99.791
99.987
100.182
100.378
100.573
100.769
100.964
101.160
101.355
101.551
101.746
101.942
102.137
102.333
102.528
102.724
102.919
103.115
103.310
103.506
103.701
103.897
104.092
104.288
104.483
104.679
104.874
105.070
105.265
105.461
105.656
105.852
106.047
106.243
106.438
106.634
106.829
107.025
107.220
107.416
107.611
107.807
108.002
108.198
108.393
108.589
108.784
108.980
109.175
109.371
109.566
109.762
109.957
110.153
110.348
110.544
110.739
110.935
111.130
111.326
111.521
111.717
111.912
112.108
112.303
112.499
112.694
112.890
113.085
113.281
113.476
113.672
113.867
114.063
114.258
114.454
114.649
114.845
115.040
115.236
115.431
115.627
115.822
116.018
116.213
116.409
116.604
116.800
116.995
117.191
117.386
117.582
117.777
117.973
118.168
118.364
118.559
118.755
118.950
119.146
119.341
119.537
119.732
119.928
120.123
120.319
120.514
120.710
120.905
121.101
121.296
121.492
121.687
121.883
122.078
122.274
122.469
122.665
122.860
123.056
123.251
123.447
123.642
123.838
124.033
124.033
124.033
124.033
124.033
124.033
124.033
124.033
124.033
124.033
124.033
124.033
124.033
124.033
124.033
124.033
124.033
124.033
124.033
124.033
124.033
124.033
124.033
124.033
124.033
124.033
124.033
124.033
124.033
124.033
124.033
124.033
124.033
124.033
124.033
124.033
124.033
124.033
124.033
124.033
124.033
124.033
124.033
124.033
124.033
124.033
124.033
124.033
124.033
124.033
124.033
124.033
124.033
124.033
124.033
124.033
124.033
124.033
124.033
124.033
124.033
124.033
124.033
124.033
124.033
124.033
124.033
124.033
124.033
124.033
124.033
124.033
124.033
124.033
124.033
124.033
124.033
124.033
124.033
124.033
124.033
124.033
124.033
124.033
124.033
124.033
124.033
124.033
124.033
124.033
124.033
124.033
124.033
124.033
124.033
124.033
124.033
124.033
124.033
124.033
124.033
124.033
124.033
124.033
124.033
124.033
124.033
124.033
124.033
124.033
124.033
124.033
124.033
124.033
124.033
124.033
124.033
124.033
124.033
124.033
124.033
124.033
124.033
124.033
124.033
124.033
124.033
124.033
124.033
124.033
124.033
124.033
124.033
124.033
124.033
124.033
124.033
124.033
124.033
124.033
124.033
124.033
124.033
124.033
124.033
124.033
124.033
124.033
124.033
124.033
124.033
124.033
124.033
124.033
124.033
124.033
124.033
124.033
124.033
124.033
124.033
124.033
124.033
124.033
124.033
124.033
124.033
124.033
124.033
124.033
124.033
124.033
124.033
124.033
124.033
124.033
124.033
124.033
124.033
124.033
124.033
124.033
124.033
124.033
124.033
124.033
124.033
124.033
124.033
124.033
124.033
124.033
124.033
124.033
124.033
124.033
124.033
124.033
124.033
124.033
1311.633
1312.611
1313.589
1314.567
1315.545
1316.523
1317.501
1318.479
1319.457
1320.435
1321.413
1322.391
1323.369
1324.347
1325.325
1326.303
1327.281
1328.259
1329.237
1330.215
1331.193
1332.171
1333.149
1334.127
1335.105
1336.083
1337.061
1338.039
1339.017
1339.995
1340.973
1341.951
1342.929
1343.907
1344.885
1345.863
1346.841
1347.819
1348.797
1349.775
1350.753
1351.731
1352.709
1353.687
1354.665
1355.643
1356.621
1357.599
1358.577
1359.555
1360.533
1361.511
1362.489
1363.467
1364.445
1365.423
1366.401
1367.379
1368.357
1369.335
1370.313
1371.291
1372.269
1373.247
1374.225
1375.203
1376.181
1377.159
1378.137
1379.115
1380.093
1381.071
1382.049
1383.027
1384.005
1384.983
1385.961
1386.939
1387.917
1388.895
1389.873
1390.851
1391.829
1392.807
1393.785
1394.763
1395.741
1396.719
1397.697
1398.675
1399.653
1400.631
1401.609
1402.587
1403.565
1404.543
1405.521
1406.499
1407.477
1408.455
1409.433
1410.411
1411.389
1412.367
1413.345
1414.323
1415.301
1416.279
1417.257
1418.235
1419.213
1420.191
1421.169
1422.147
1423.125
1424.103
1425.081
1426.059
1427.037
1428.015
1428.993
1429.971
1430.949
1431.927
1432.905
1433.883
1434.861
1435.839
1436.817
1437.795
1438.773
1439.751
1440.729
1441.707
1442.685
1443.663
1444.641
1445.619
1446.597
1447.575
1448.553
1449.531
1450.509
1451.487
1452.465
1453.443
1454.421
1455.399
1456.377
1457.355
1458.333
1459.311
1460.289
1461.267
1462.245
1463.223
1464.201
1465.179
1466.157
1467.135
1468.113
1469.091
1470.069
1471.047
1472.025
1473.003
1473.981
1474.959
1475.937
1476.915
1477.893
1478.871
1479.849
1480.827
1481.805
1482.783
1483.761
1484.739
1485.717
1486.695
1487.673
1488.651
1489.629
1490.607
1491.585
1492.563
1493.541
1494.519
1495.497
1496.475
1497.453
1498.431
1499.409
1500.387
1501.365
1502.343
1503.321
1504.299
1505.277
1506.255
1507.233
1509.261
1511.289
1513.317
1515.345
1517.373
1519.401
1521.429
1523.457
1525.485
1527.513
1529.541
1531.569
1533.597
1535.625
1537.653
1539.681
1541.709
1543.737
1545.765
1547.793
1549.821
1551.849
1553.877
1555.905
1557.933
1559.961
1561.989
1564.017
1566.045
1568.073
1570.101
1572.129
1574.157
1576.185
1578.213
1580.241
1582.269
1584.297
1586.325
1588.353
1590.381
1592.409
1594.437
1596.465
1598.493
1600.521
1602.549
1604.577
1606.605
1608.633
1610.661
1612.689
1614.717
1616.745
1618.773
1620.801
1622.829
1624.857
1626.885
1628.913
1630.941
1632.969
1634.997
1637.025
1639.053
1641.081
1643.109
1645.137
1647.165
1649.193
1651.221
1653.249
1655.277
1657.305
1659.333
1661.361
1663.389
1665.417
1667.445
1669.473
1671.501
1673.529
1675.557
1677.585
1679.613
1681.641
1683.669
1685.697
1687.725
1689.753
1691.781
1693.809
1695.837
1697.865
1699.893
1701.921
1703.949
1705.977
1708.005
1710.033
1712.061
1714.089
1716.117
1718.145
1720.173
1722.201
1724.229
1726.257
1728.285
1730.313
1732.341
1734.369
1736.397
1738.425
1740.453
1742.481
1744.509
1746.537
1748.565
1750.593
1752.621
1754.649
1756.677
1758.705
1760.733
1762.761
1764.789
1766.817
1768.845
1770.873
1772.901
1774.929
1776.957
1778.985
1781.013
1783.041
1785.069
1787.097
1789.125
1791.153
1793.181
1795.209
1797.237
1799.265
1801.293
1803.321
1805.349
1807.377
1809.405
1811.433
1813.461
1815.489
1817.517
1819.545
1821.573
1823.601
1825.629
1827.657
1829.685
1831.713
1833.741
1835.769
1837.797
1839.825
1841.853
1843.881
1845.909
1847.937
1849.965
1851.993
1854.021
1856.049
1858.077
1860.105
1862.133
1864.161
1866.189
1868.217
1870.245
1872.273
1874.301
1876.329
1878.357
1880.385
1882.413
1884.441
1886.469
1888.497
1890.525
1892.553
1894.581
1896.609
1898.637
1900.665
1902.693
1904.721
1906.749
1908.777
1910.805
1912.833
1912.858
1912.882
1912.907
1912.931
1912.956
1912.980
1913.005
1913.029
1913.054
1913.078
1913.103
1913.127
1913.152
1913.176
1913.201
1913.225
1913.250
1913.274
1913.299
1913.323
1913.348
1913.372
1913.397
1913.421
1913.446
1913.470
1913.495
1913.519
1913.544
1913.568
1913.593
1913.617
1913.642
1913.666
1913.691
1913.715
1913.740
1913.764
1913.789
1913.813
1913.838
1913.862
1913.887
1913.911
1913.936
1913.960
1913.985
1914.009
1914.034
1914.058
1914.083
1914.107
1914.132
1914.156
1914.181
1914.205
1914.230
1914.254
1914.279
1914.303
1914.328
1914.352
1914.377
1914.401
1914.426
1914.450
1914.475
1914.499
1914.524
1914.548
1914.573
1914.597
1914.622
1914.646
1914.671
1914.695
1914.720
1914.744
1914.769
1914.793
1914.818
1914.842
1914.867
1914.891
1914.916
1914.940
1914.965
1914.989
1915.014
1915.038
1915.063
1915.087
1915.112
1915.136
1915.161
1915.185
1915.210
1915.234
1915.259
1915.283
1915.308
1915.332
1915.357
1915.381
1915.406
1915.430
1915.455
1915.479
1915.504
1915.528
1915.553
1915.577
1915.602
1915.626
1915.651
1915.675
1915.700
1915.724
1915.749
1915.773
1915.798
1915.822
1915.847
1915.871
1915.896
1915.920
1915.945
1915.969
1915.994
1916.018
1916.043
1916.067
1916.092
1916.116
1916.141
1916.165
1916.190
1916.214
1916.239
1916.263
1916.288
1916.312
1916.337
1916.361
1916.386
1916.410
1916.435
1916.459
1916.484
1916.508
1916.533
1916.557
1916.582
1916.606
1916.631
1916.655
1916.680
1916.704
1916.729
1916.753
1916.778
1916.802
1916.827
1916.851
1916.876
1916.900
1916.925
1916.949
1916.974
1916.998
1917.023
1917.047
1917.072
1917.096
1917.121
1917.145
1917.170
1917.194
1917.219
1917.243
1917.268
1917.292
1917.317
1917.341
1917.366
1917.390
1917.415
1917.439
1917.464
1917.488
1917.513
1917.537
1917.562
1917.586
1917.611
1917.635
1917.660
1917.684
1917.709
1917.733
1919.200
1920.666
1922.133
1923.599
1925.066
1926.532
1927.999
1929.465
1930.932
1932.398
1933.865
1935.331
1936.798
1938.264
1939.731
1941.197
1942.664
1944.130
1945.597
1947.063
1948.530
1949.996
1951.463
1952.929
1954.396
1955.862
1957.329
1958.795
1960.262
1961.728
1963.195
1964.661
1966.128
1967.594
1969.061
1970.527
1971.994
1973.460
1974.927
1976.393
1977.860
1979.326
1980.793
1982.259
1983.726
1985.192
1986.659
1988.125
1989.592
1991.058
1992.525
1993.991
1995.458
1996.924
1998.391
1999.857
2001.324
2002.790
2004.257
2005.723
2007.190
2008.656
2010.123
2011.589
2013.056
2014.522
2015.989
2017.455
2018.922
2020.388
2021.855
2023.321
2024.788
2026.254
2027.721
2029.187
2030.654
2032.120
2033.587
2035.053
2036.520
2037.986
2039.453
2040.919
2042.386
2043.852
2045.319
2046.785
2048.252
2049.718
2051.185
2052.651
2054.118
2055.584
2057.051
2058.517
2059.984
2061.450
2062.917
2064.383
2065.850
2067.316
2068.783
2070.249
2071.716
2073.182
2074.649
2076.115
2077.582
2079.048
2080.515
2081.981
2083.448
2084.914
2086.381
2087.847
2089.314
2090.780
2092.247
2093.713
2095.180
2096.646
2098.113
2099.579
2101.046
2102.512
2103.979
2105.445
2106.912
2108.378
2109.845
2111.311
2112.778
2114.244
2115.711
2117.177
2118.644
2120.110
2121.577
2123.043
2124.510
2125.976
2127.443
2128.909
2130.376
2131.842
2133.309
2134.775
2136.242
2137.708
2139.175
2140.641
2142.108
2143.574
2145.041
2146.507
2147.974
2149.440
2150.907
2152.373
2153.840
2155.306
2156.773
2158.239
2159.706
2161.172
2162.639
2164.105
2165.572
2167.038
2168.505
2169.971
2171.438
2172.904
2174.371
2175.837
2177.304
2178.770
2180.237
2181.703
2183.170
2184.636
2186.103
2187.569
2189.036
2190.502
2191.969
2193.435
2194.902
2196.368
2197.835
2199.301
2200.768
2202.234
2203.701
2205.167
2206.634
2208.100
2209.567
2211.033
2211.082
2211.130
2211.179
2211.227
2211.276
2211.324
2211.373
2211.421
2211.470
2211.518
2211.567
2211.615
2211.664
2211.712
2211.761
2211.809
2211.858
2211.906
2211.955
2212.003
2212.052
2212.100
2212.149
2212.197
2212.246
2212.294
2212.343
2212.391
2212.440
2212.488
2212.537
2212.585
2212.634
2212.682
2212.731
2212.779
2212.828
2212.876
2212.925
2212.973
2213.022
2213.070
2213.119
2213.167
2213.216
2213.264
2213.313
2213.361
2213.410
2213.458
2213.507
2213.555
2213.604
2213.652
2213.701
2213.749
2213.798
2213.846
2213.895
2213.943
2213.992
2214.040
2214.089
2214.137
2214.186
2214.234
2214.283
2214.331
2214.380
2214.428
2214.477
2214.525
2214.574
2214.622
2214.671
2214.719
2214.768
2214.816
2214.865
2214.913
2214.962
2215.010
2215.059
2215.107
2215.156
2215.204
2215.253
2215.301
2215.350
2215.398
2215.447
2215.495
2215.544
2215.592
2215.641
2215.689
2215.738
2215.786
2215.835
2215.883
2215.932
2215.980
2216.029
2216.077
2216.126
2216.174
2216.223
2216.271
2216.320
2216.368
2216.417
2216.465
2216.514
2216.562
2216.611
2216.659
2216.708
2216.756
2216.805
2216.853
2216.902
2216.950
2216.999
2217.047
2217.096
2217.144
2217.193
2217.241
2217.290
2217.338
2217.387
2217.435
2217.484
2217.532
2217.581
2217.629
2217.678
2217.726
2217.775
2217.823
2217.872
2217.920
2217.969
2218.017
2218.066
2218.114
2218.163
2218.211
2218.260
2218.308
2218.357
2218.405
2218.454
2218.502
2218.551
2218.599
2218.648
2218.696
2218.745
2218.793
2218.842
2218.890
2218.939
2218.987
2219.036
2219.084
2219.133
2219.181
2219.230
2219.278
2219.327
2219.375
2219.424
2219.472
2219.521
2219.569
2219.618
