86.923
86.923
86.923
86.923
86.923
86.923
86.923
86.923
86.923
86.923
86.923
86.923
86.923
86.923
86.923
86.923
86.923
86.923
86.923
86.923
502.323
505.353
508.384
511.414
514.445
517.475
520.506
523.536
526.567
529.597
532.628
535.658
538.689
541.719
544.750
547.780
550.811
553.841
556.872
559.902
562.933
565.963
568.994
572.024
575.055
578.085
581.116
584.146
587.177
590.207
593.238
596.268
599.299
602.329
605.360
608.390
611.421
614.451
617.482
620.512
623.543
626.573
629.604
632.634
635.665
638.695
641.726
644.756
647.787
650.817
653.848
656.878
659.909
662.939
665.970
669.000
672.031
675.061
678.092
681.122
684.153
687.183
690.214
693.244
696.275
699.305
702.336
705.366
708.397
711.427
714.458
717.488
720.519
723.549
726.580
729.610
732.641
735.671
738.702
741.732
744.763
747.793
750.824
753.854
756.885
759.915
762.946
765.976
769.007
772.037
775.068
778.098
781.129
784.159
787.190
790.220
793.251
796.281
799.312
802.342
805.373
808.403
811.434
814.464
817.495
820.525
823.556
826.586
829.617
832.647
835.678
838.708
841.739
844.769
847.800
850.830
853.861
856.891
859.922
862.952
865.983
869.013
872.044
875.074
878.105
881.135
884.166
887.196
890.227
893.257
896.288
899.318
902.349
905.379
908.410
911.440
914.471
917.501
920.532
923.562
926.593
929.623
932.654
935.684
938.715
941.745
944.776
947.806
950.837
953.867
956.898
959.928
962.959
965.989
969.020
972.050
975.081
978.111
981.142
984.172
987.203
990.233
993.264
996.294
999.325
1002.355
1005.386
1008.416
1011.447
1014.477
1017.508
1020.538
1023.569
1026.599
1029.630
1032.660
1035.691
1038.721
1041.752
1044.782
1047.813
1050.843
1053.874
1056.904
1059.935
1062.965
1065.996
1069.026
1072.057
1075.087
1078.118
1081.148
1084.179
1087.209
1090.240
1093.270
1096.301
1099.331
1102.362
1105.392
1108.423
1110.866
1113.310
1115.753
1118.197
1120.640
1123.084
1125.527
1127.971
1130.414
1132.858
1135.301
1137.745
1140.188
1142.632
1145.075
1147.519
1149.962
1152.406
1154.849
1157.293
1159.736
1162.180
1164.623
1167.067
1169.510
1171.954
1174.397
1176.841
1179.284
1181.728
1184.171
1186.615
1189.058
1191.502
1193.945
1196.389
1198.832
1201.276
1203.719
1206.163
1208.606
1211.050
1213.493
1215.937
1218.380
1220.824
1223.267
1225.711
1228.154
1230.598
1233.041
1235.485
1237.928
1240.372
1242.815
1245.259
1247.702
1250.146
1252.589
1255.033
1257.476
1259.920
1262.363
1264.807
1267.250
1269.694
1272.137
1274.581
1277.024
1279.468
1281.911
1284.355
1286.798
1289.242
1291.685
1294.129
1296.572
1299.016
1301.459
1303.903
1306.346
1308.790
1311.233
1313.677
1316.120
1318.564
1321.007
1323.451
1325.894
1328.338
1330.781
1333.225
1335.668
1338.112
1340.555
1342.999
1345.442
1347.886
1350.329
1352.773
1355.216
1357.660
1360.103
1362.547
1364.990
1367.434
1369.877
1372.321
1374.764
1377.208
1379.651
1382.095
1384.538
1386.982
1389.425
1391.869
1394.312
1396.756
1399.199
1401.643
1404.086
1406.530
1408.973
1411.417
1413.860
1416.304
1418.747
1421.191
1423.634
1426.078
1428.521
1430.965
1433.408
1435.852
1438.295
1440.739
1443.182
1445.626
1448.069
1450.513
1452.956
1455.400
1457.843
1460.287
1462.730
1465.174
1467.617
1470.061
1472.504
1474.948
1477.391
1479.835
1482.278
1484.722
1487.165
1489.609
1492.052
1494.496
1496.939
1499.383
1501.826
1504.270
1506.713
1509.157
1511.600
1514.044
1516.487
1518.931
1521.374
1523.818
1526.261
1528.705
1531.148
1533.592
1536.035
1538.479
1540.922
1543.366
1545.809
1548.253
1550.696
1553.140
1555.583
1558.027
1560.470
1562.914
1565.357
1567.801
1570.244
1572.688
1575.131
1577.575
1580.018
1582.462
1584.905
1587.349
1589.792
1592.236
1594.679
1597.123
1599.225
1601.327
1603.429
1605.531
1607.633
1609.735
1611.837
1613.939
1616.041
1618.143
1620.245
1622.347
1624.449
1626.551
1628.653
1630.755
1632.857
1634.959
1637.061
1639.163
1641.265
1643.367
1645.469
1647.571
1649.673
1651.775
1653.877
1655.979
1658.081
1660.183
1662.285
1664.387
1666.489
1668.591
1670.693
1672.795
1674.897
1676.999
1679.101
1681.203
1683.305
1685.407
1687.509
1689.611
1691.713
1693.815
1695.917
1698.019
1700.121
1702.223
1704.325
1706.427
1708.529
1710.631
1712.733
1714.835
1716.937
1719.039
1721.141
1723.243
1725.345
1727.447
1729.549
1731.651
1733.753
1735.855
1737.957
1740.059
1742.161
1744.263
1746.365
1748.467
1750.569
1752.671
1754.773
1756.875
1758.977
1761.079
1763.181
1765.283
1767.385
1769.487
1771.589
1773.691
1775.793
1777.895
1779.997
1782.099
1784.201
1786.303
1788.405
1790.507
1792.609
1794.711
1796.813
1798.915
1801.017
1803.119
1805.221
1807.323
1809.425
1811.527
1813.629
1815.731
1817.833
1819.935
1822.037
1824.139
1826.241
1828.343
1830.445
1832.547
1834.649
1836.751
1838.853
1840.955
1843.057
1845.159
1847.261
1849.363
1851.465
1853.567
1855.669
1857.771
1859.873
1861.975
1864.077
1866.179
1868.281
1870.383
1872.485
1874.587
1876.689
1878.791
1880.893
1882.995
1885.097
1887.199
1889.301
1891.403
1893.505
1895.607
1897.709
1899.811
1901.913
1904.015
1906.117
1908.219
1910.321
1912.423
1914.525
1916.627
1918.729
1920.831
1922.933
1925.035
1927.137
1929.239
1931.341
1933.443
1935.545
1937.647
1939.749
1941.851
1943.953
1946.055
1948.157
1950.259
1952.361
1954.463
1956.565
1958.667
1960.769
1962.871
1964.973
1967.075
1969.177
1971.279
1973.381
1975.483
1977.585
1979.687
1981.789
1983.891
1985.993
1988.095
1990.197
1992.299
1994.401
1996.503
1998.605
2000.707
2002.809
2004.911
2007.013
2009.115
2011.217
2013.319
2015.421
2017.523
2018.036
2018.549
2019.062
2019.575
2020.088
2020.601
2021.114
2021.627
2022.140
2022.653
2023.166
2023.679
2024.192
2024.705
2025.218
2025.731
2026.244
2026.757
2027.270
2027.783
2028.296
2028.809
2029.322
2029.835
2030.348
2030.861
2031.374
2031.887
2032.400
2032.913
2033.426
2033.939
2034.452
2034.965
2035.478
2035.991
2036.504
2037.017
2037.530
2038.043
2038.556
2039.069
2039.582
2040.095
2040.608
2041.121
2041.634
2042.147
2042.660
2043.173
2043.686
2044.199
2044.712
2045.225
2045.738
2046.251
2046.764
2047.277
2047.790
2048.303
2048.816
2049.329
2049.842
2050.355
2050.868
2051.381
2051.894
2052.407
2052.920
2053.433
2053.946
2054.459
2054.972
2055.485
2055.998
2056.511
2057.024
2057.537
2058.050
2058.563
2059.076
2059.589
2060.102
2060.615
2061.128
2061.641
2062.154
2062.667
2063.180
2063.693
2064.206
2064.719
2065.232
2065.745
2066.258
2066.771
2067.284
2067.797
2068.310
2068.823
2069.336
2069.849
2070.362
2070.875
2071.388
2071.901
2072.414
2072.927
2073.440
2073.953
2074.466
2074.979
2075.492
2076.005
2076.518
2077.031
2077.544
2078.057
2078.570
2079.083
2079.596
2080.109
2080.622
2081.135
2081.648
2082.161
2082.674
2083.187
2083.700
2084.213
2084.726
2085.239
2085.752
2086.265
2086.778
2087.291
2087.804
2088.317
2088.830
2089.343
2089.856
2090.369
2090.882
2091.395
2091.908
2092.421
2092.934
2093.447
2093.960
2094.473
2094.986
2095.499
2096.012
2096.525
2097.038
2097.551
2098.064
2098.577
2099.090
2099.603
2100.116
2100.629
2101.142
2101.655
2102.168
2102.681
2103.194
2103.707
2104.220
2104.733
2105.246
2105.759
2106.272
2106.785
2107.298
2107.811
2108.324
2108.837
2109.350
2109.863
2110.376
2110.889
2111.402
2111.915
2112.428
2112.941
2113.454
2113.967
2114.480
2114.993
2115.506
2116.019
2116.532
2117.045
2117.558
2118.071
2118.584
2119.097
2119.610
2120.123
2118.681
2117.239
2115.797
2114.355
2112.913
2111.471
2110.029
2108.587
2107.145
2105.703
2104.261
2102.819
2101.377
2099.935
2098.493
2097.051
2095.609
2094.167
2092.725
2091.283
2089.841
2088.399
2086.957
2085.515
2084.073
2082.631
2081.189
2079.747
2078.305
2076.863
2075.421
2073.979
2072.537
2071.095
2069.653
2068.211
2066.769
2065.327
2063.885
2062.443
2061.001
2059.559
2058.117
2056.675
2055.233
2053.791
2052.349
2050.907
2049.465
2048.023
2046.581
2045.139
2043.697
2042.255
2040.813
2039.371
2037.929
2036.487
2035.045
2033.603
2032.161
2030.719
2029.277
2027.835
2026.393
2024.951
2023.509
2022.067
2020.625
2019.183
2017.741
2016.299
2014.857
2013.415
2011.973
2010.531
2009.089
2007.647
2006.205
2004.763
2003.321
2001.879
2000.437
1998.995
1997.553
1996.111
1994.669
1993.227
1991.785
1990.343
1988.901
1987.459
1986.017
1984.575
1983.133
1981.691
1980.249
1978.807
1977.365
1975.923
1974.481
1973.039
1971.597
1970.155
1968.713
1967.271
1965.829
1964.387
1962.945
1961.503
1960.061
1958.619
1957.177
1955.735
1954.293
1952.851
1951.409
1949.967
1948.525
1947.083
1945.641
1944.199
1942.757
1941.315
1939.873
1938.431
1936.989
1935.547
1934.105
1932.663
1931.221
1929.779
1928.337
1926.895
1925.453
1924.011
1922.569
1921.127
1919.685
1918.243
1916.801
1915.359
1913.917
1912.475
1911.033
1909.591
1908.149
1906.707
1905.265
1903.823
1902.381
1900.939
1899.497
1898.055
1896.613
1895.171
1893.729
1892.287
1890.845
1889.403
1887.961
1886.519
1885.077
1883.635
1882.193
1880.751
1879.309
1877.867
1876.425
1874.983
1873.541
1872.099
1870.657
1869.215
1867.773
1866.331
1864.889
1863.447
1862.005
1860.563
1859.121
1857.679
1856.237
1854.795
1853.353
1851.911
1850.469
1849.027
1847.585
1846.143
1844.701
1843.259
1841.817
1840.375
1838.933
1837.491
1836.049
1834.607
1833.165
1831.723
1834.093
1836.464
1838.834
1841.205
1843.575
1845.946
1848.316
1850.687
1853.057
1855.428
1857.798
1860.169
1862.539
1864.910
1867.280
1869.651
1872.021
1874.392
1876.762
1879.133
1881.503
1883.874
1886.244
1888.615
1890.985
1893.356
1895.726
1898.097
1900.467
1902.838
1905.208
1907.579
1909.949
1912.320
1914.690
1917.061
1919.431
1921.802
1924.172
1926.543
1928.913
1931.284
1933.654
1936.025
1938.395
1940.766
1943.136
1945.507
1947.877
1950.248
1952.618
1954.989
1957.359
1959.730
1962.100
1964.471
1966.841
1969.212
1971.582
1973.953
1976.323
1978.694
1981.064
1983.435
1985.805
1988.176
1990.546
1992.917
1995.287
1997.658
2000.028
2002.399
2004.769
2007.140
2009.510
2011.881
2014.251
2016.622
2018.992
2021.363
2023.733
2026.104
2028.474
2030.845
2033.215
2035.586
2037.956
2040.327
2042.697
2045.068
2047.438
2049.809
2052.179
2054.550
2056.920
2059.291
2061.661
2064.032
2066.402
2068.773
2071.143
2073.514
2075.884
2078.255
2080.625
2082.996
2085.366
2087.737
2090.107
2092.478
2094.848
2097.219
2099.589
2101.960
2104.330
2106.701
2109.071
2111.442
2113.812
2116.183
2118.553
2120.924
2123.294
2125.665
2128.035
2130.406
2132.776
2135.147
2137.517
2139.888
2142.258
2144.629
2146.999
2149.370
2151.740
2154.111
2156.481
2158.852
2161.222
2163.593
2165.963
2168.334
2170.704
2173.075
2175.445
2177.816
2180.186
2182.557
2184.927
2187.298
2189.668
2192.039
2194.409
2196.780
2199.150
2201.521
2203.891
2206.262
2208.632
2211.003
2213.373
2215.744
2218.114
2220.485
2222.855
2225.226
2227.596
2229.967
2232.337
2234.708
2237.078
2239.449
2241.819
2244.190
2246.560
2248.931
2251.301
2253.672
2256.042
2258.413
2260.783
2263.154
2265.524
2267.895
2270.265
2272.636
2275.006
2277.377
2279.747
2282.118
2284.488
2286.859
2289.229
2291.600
2293.970
2296.341
2298.711
2301.082
2303.452
2305.823
2304.968
2304.113
2303.258
2302.403
2301.548
2300.693
2299.838
2298.983
2298.128
2297.273
2296.418
2295.563
2294.708
2293.853
2292.998
2292.143
2291.288
2290.433
2289.578
2288.723
2287.868
2287.013
2286.158
2285.303
2284.448
2283.593
2282.738
2281.883
2281.028
2280.173
2279.318
2278.463
2277.608
2276.753
2275.898
2275.043
2274.188
2273.333
2272.478
2271.623
2270.768
2269.913
2269.058
2268.203
2267.348
2266.493
2265.638
2264.783
2263.928
2263.073
2262.218
2261.363
2260.508
2259.653
2258.798
2257.943
2257.088
2256.233
2255.378
2254.523
2253.668
2252.813
2251.958
2251.103
2250.248
2249.393
2248.538
2247.683
2246.828
2245.973
2245.118
2244.263
2243.408
2242.553
2241.698
2240.843
2239.988
2239.133
2238.278
2237.423
2236.568
2235.713
2234.858
2234.003
2233.148
2232.293
2231.438
2230.583
2229.728
2228.873
2228.018
2227.163
2226.308
2225.453
2224.598
2223.743
2222.888
2222.033
2221.178
2220.323
2219.468
2218.613
2217.758
2216.903
2216.048
2215.193
2214.338
2213.483
2212.628
2211.773
2210.918
2210.063
2209.208
2208.353
2207.498
2206.643
2205.788
2204.933
2204.078
2203.223
2202.368
2201.513
2200.658
2199.803
2198.948
2198.093
2197.238
2196.383
2195.528
2194.673
2193.818
2192.963
2192.108
2191.253
2190.398
2189.543
2188.688
2187.833
2186.978
2186.123
2185.268
2184.413
2183.558
2182.703
2181.848
2180.993
2180.138
2179.283
2178.428
2177.573
2176.718
2175.863
2175.008
2174.153
2173.298
2172.443
2171.588
2170.733
2169.878
2169.023
2168.168
2167.313
2166.458
2165.603
2164.748
2163.893
2163.038
2162.183
2161.328
2160.473
2159.618
2158.763
2157.908
2157.053
2156.198
2155.343
2154.488
2153.633
2152.778
2151.923
2151.068
2150.213
2149.358
2148.503
2147.648
2146.793
2145.938
2145.083
2144.228
2143.373
2142.518
2141.663
2140.808
2139.953
2139.098
2138.243
2137.388
2136.533
2135.678
2134.823
2132.599
2130.375
2128.151
2125.927
2123.703
2121.479
2119.255
2117.031
2114.807
2112.583
2110.359
2108.135
2105.911
2103.687
2101.463
2099.239
2097.015
2094.791
2092.567
2090.343
2088.119
2085.895
2083.671
2081.447
2079.223
2076.999
2074.775
2072.551
2070.327
2068.103
2065.879
2063.655
2061.431
2059.207
2056.983
2054.759
2052.535
2050.311
2048.087
2045.863
2043.639
2041.415
2039.191
2036.967
2034.743
2032.519
2030.295
2028.071
2025.847
2023.623
2021.399
2019.175
2016.951
2014.727
2012.503
2010.279
2008.055
2005.831
2003.607
2001.383
1999.159
1996.935
1994.711
1992.487
1990.263
1988.039
1985.815
1983.591
1981.367
1979.143
1976.919
1974.695
1972.471
1970.247
1968.023
1965.799
1963.575
1961.351
1959.127
1956.903
1954.679
1952.455
1950.231
1948.007
1945.783
1943.559
1941.335
1939.111
1936.887
1934.663
1932.439
1930.215
1927.991
1925.767
1923.543
1921.319
1919.095
1916.871
1914.647
1912.423
1910.199
1907.975
1905.751
1903.527
1901.303
1899.079
1896.855
1894.631
1892.407
1890.183
1887.959
1885.735
1883.511
1881.287
1879.063
1876.839
1874.615
1872.391
1870.167
1867.943
1865.719
1863.495
1861.271
1859.047
1856.823
1854.599
1852.375
1850.151
1847.927
1845.703
1843.479
1841.255
1839.031
1836.807
1834.583
1832.359
1830.135
1827.911
1825.687
1823.463
1821.239
1819.015
1816.791
1814.567
1812.343
1810.119
1807.895
1805.671
1803.447
1801.223
1798.999
1796.775
1794.551
1792.327
1790.103
1787.879
1785.655
1783.431
1781.207
1778.983
1776.759
1774.535
1772.311
1770.087
1767.863
1765.639
1763.415
1761.191
1758.967
1756.743
1754.519
1752.295
1750.071
1747.847
1745.623
1743.399
1741.175
1738.951
1736.727
1734.503
1732.279
1730.055
1727.831
1725.607
1723.383
1721.159
1718.935
1716.711
1714.487
1712.263
1710.039
1707.815
1705.591
1703.367
1701.143
1698.919
1696.695
1694.471
1692.247
1690.023
1692.344
1694.666
1696.987
1699.309
1701.630
1703.952
1706.273
1708.595
1710.916
1713.238
1715.559
1717.881
1720.202
1722.524
1724.845
1727.167
1729.488
1731.810
1734.131
1736.453
1738.774
1741.096
1743.417
1745.739
1748.060
1750.382
1752.703
1755.025
1757.346
1759.668
1761.989
1764.311
1766.632
1768.954
1771.275
1773.597
1775.918
1778.240
1780.561
1782.883
1785.204
1787.526
1789.847
1792.169
1794.490
1796.812
1799.133
1801.455
1803.776
1806.098
1808.419
1810.741
1813.062
1815.384
1817.705
1820.027
1822.348
1824.670
1826.991
1829.313
1831.634
1833.956
1836.277
1838.599
1840.920
1843.242
1845.563
1847.885
1850.206
1852.528
1854.849
1857.171
1859.492
1861.814
1864.135
1866.457
1868.778
1871.100
1873.421
1875.743
1878.064
1880.386
1882.707
1885.029
1887.350
1889.672
1891.993
1894.315
1896.636
1898.958
1901.279
1903.601
1905.922
1908.244
1910.565
1912.887
1915.208
1917.530
1919.851
1922.173
1924.494
1926.816
1929.137
1931.459
1933.780
1936.102
1938.423
1940.745
1943.066
1945.388
1947.709
1950.031
1952.352
1954.674
1956.995
1959.317
1961.638
1963.960
1966.281
1968.603
1970.924
1973.246
1975.567
1977.889
1980.210
1982.532
1984.853
1987.175
1989.496
1991.818
1994.139
1996.461
1998.782
2001.104
2003.425
2005.747
2008.068
2010.390
2012.711
2015.033
2017.354
2019.676
2021.997
2024.319
2026.640
2028.962
2031.283
2033.605
2035.926
2038.248
2040.569
2042.891
2045.212
2047.534
2049.855
2052.177
2054.498
2056.820
2059.141
2061.463
2063.784
2066.106
2068.427
2070.749
2073.070
2075.392
2077.713
2080.035
2082.356
2084.678
2086.999
2089.321
2091.642
2093.964
2096.285
2098.607
2100.928
2103.250
2105.571
2107.893
2110.214
2112.536
2114.857
2117.179
2119.500
2121.822
2124.143
2126.465
2128.786
2131.108
2133.429
2135.751
2138.072
2140.394
2142.715
2145.037
2147.358
2149.680
2152.001
2154.323
2157.744
2161.166
2164.587
2168.009
2171.430
2174.852
2178.273
2181.695
2185.116
2188.538
2191.959
2195.381
2198.802
2202.224
2205.645
2209.067
2212.488
2215.910
2219.331
2222.753
2226.174
2229.596
2233.017
2236.439
2239.860
2243.282
2246.703
2250.125
2253.546
2256.968
2260.389
2263.811
2267.232
2270.654
2274.075
2277.497
2280.918
2284.340
2287.761
2291.183
2294.604
2298.026
2301.447
2304.869
2308.290
2311.712
2315.133
2318.555
2321.976
2325.398
2328.819
2332.241
2335.662
2339.084
2342.505
2345.927
2349.348
2352.770
2356.191
2359.613
2363.034
2366.456
2369.877
2373.299
2376.720
2380.142
2383.563
2386.985
2390.406
2393.828
2397.249
2400.671
2404.092
2407.514
2410.935
2414.357
2417.778
2421.200
2424.621
2428.043
2431.464
2434.886
2438.307
2441.729
2445.150
2448.572
2451.993
2455.415
2458.836
2462.258
2465.679
2469.101
2472.522
2475.944
2479.365
2482.787
2486.208
2489.630
2493.051
2496.473
2499.894
2503.316
2506.737
2510.159
2513.580
2517.002
2520.423
2523.845
2527.266
2530.688
2534.109
2537.531
2540.952
2544.374
2547.795
2551.217
2554.638
2558.060
2561.481
2564.903
2568.324
2571.746
2575.167
2578.589
2582.010
2585.432
2588.853
2592.275
2595.696
2599.118
2602.539
2605.961
2609.382
2612.804
2616.225
2619.647
2623.068
2626.490
2629.911
2633.333
2636.754
2640.176
2643.597
2647.019
2650.440
2653.862
2657.283
2660.705
2664.126
2667.548
2670.969
2674.391
2677.812
2681.234
2684.655
2688.077
2691.498
2694.920
2698.341
2701.763
2705.184
2708.606
2712.027
2715.449
2718.870
2722.292
2725.713
2729.135
2732.556
2735.978
2739.399
2742.821
2746.242
2749.664
2753.085
2756.507
2759.928
2763.350
2766.771
