101.050
101.050
101.050
101.050
101.050
101.050
101.050
101.050
101.050
101.050
101.050
101.050
101.050
101.050
101.050
101.050
101.050
101.050
101.050
101.050
101.050
101.050
101.050
101.050
101.050
101.050
101.050
101.050
101.050
101.050
101.050
101.050
101.050
101.050
101.050
101.050
101.050
101.050
101.050
101.050
101.050
101.050
101.050
101.050
101.050
101.050
101.050
101.050
101.050
101.050
101.050
101.050
101.050
101.050
101.050
101.050
101.050
101.050
101.050
101.050
101.050
101.050
101.050
101.050
101.050
101.050
101.050
101.050
101.050
101.050
101.050
101.050
101.050
101.050
101.050
101.050
101.050
101.050
101.050
101.050
101.050
101.050
101.050
101.050
101.050
101.050
101.050
101.050
101.050
101.050
101.050
101.050
101.050
101.050
101.050
101.050
101.050
101.050
101.050
101.050
101.050
101.050
101.050
101.050
101.050
101.050
101.050
101.050
101.050
101.050
101.050
101.050
101.050
101.050
101.050
101.050
101.050
101.050
101.050
101.050
101.050
101.050
101.050
101.050
101.050
101.050
101.050
101.050
101.050
101.050
101.050
101.050
101.050
101.050
101.050
101.050
101.050
101.050
101.050
101.050
101.050
101.050
101.050
101.050
101.050
101.050
101.050
101.050
101.050
101.050
101.050
101.050
101.050
101.050
101.050
101.050
101.050
101.050
101.050
101.050
101.050
101.050
101.050
101.050
101.050
101.050
101.050
101.050
101.050
101.050
101.050
101.050
101.050
101.050
101.050
101.050
101.050
101.050
101.050
101.050
101.050
101.050
101.050
101.050
101.050
101.050
101.050
101.050
101.050
101.050
101.050
101.050
101.050
101.050
101.050
101.050
101.050
101.050
101.050
101.050
101.050
101.050
101.050
101.050
101.050
101.050
101.050
101.050
101.050
101.050
101.050
101.050
101.050
101.050
101.050
101.050
101.050
101.050
101.050
101.050
101.050
101.050
101.050
101.050
101.050
101.050
101.050
101.050
101.050
101.050
101.050
101.050
101.050
101.050
101.050
101.050
101.050
101.050
101.050
101.050
101.050
101.050
101.050
101.050
101.050
101.050
101.050
101.050
101.050
101.050
101.050
101.050
101.050
101.050
101.050
101.050
101.050
101.050
101.050
101.050
101.050
101.050
101.050
101.050
101.050
101.050
101.050
101.050
101.050
101.050
101.050
101.050
101.050
101.050
101.050
101.050
101.050
101.050
101.050
101.050
101.050
101.050
101.050
101.050
101.050
101.050
101.050
101.050
101.050
101.050
101.050
101.050
101.050
101.050
101.050
101.050
101.050
101.050
101.050
101.050
101.050
101.050
101.050
101.050
101.050
101.050
101.050
101.050
101.050
101.050
101.050
101.050
101.050
101.050
101.050
101.050
101.050
101.050
101.050
101.050
101.050
101.050
101.050
101.050
101.050
101.050
101.050
101.050
101.050
101.050
101.050
101.050
101.050
101.050
101.050
101.050
101.050
101.050
101.050
101.050
101.050
101.050
101.050
101.050
101.050
101.050
101.050
101.050
101.050
101.050
101.050
101.050
101.050
101.050
101.050
101.050
101.050
101.050
101.050
101.050
101.050
101.050
101.050
101.050
101.050
101.050
101.050
101.050
101.050
101.050
101.050
101.050
101.050
101.050
101.050
101.050
101.050
101.050
101.050
101.050
101.050
101.050
101.050
101.050
101.050
101.050
101.050
101.050
1972.950
1972.535
1972.119
1971.704
1971.288
1970.873
1970.457
1970.042
1969.626
1969.211
1968.795
1968.380
1967.964
1967.549
1967.133
1966.718
1966.302
1965.887
1965.471
1965.056
1964.640
1964.225
1963.809
1963.394
1962.978
1962.563
1962.147
1961.732
1961.316
1960.901
1960.485
1960.070
1959.654
1959.239
1958.823
1958.408
1957.992
1957.577
1957.161
1956.746
1956.330
1955.915
1955.499
1955.084
1954.668
1954.253
1953.837
1953.422
1953.006
1952.591
1952.175
1951.760
1951.344
1950.929
1950.513
1950.098
1949.682
1949.267
1948.851
1948.436
1948.020
1947.605
1947.189
1946.774
1946.358
1945.943
1945.527
1945.112
1944.696
1944.281
1943.865
1943.450
1943.034
1942.619
1942.203
1941.788
1941.372
1940.957
1940.541
1940.126
1939.710
1939.295
1938.879
1938.464
1938.048
1937.633
1937.217
1936.802
1936.386
1935.971
1935.555
1935.140
1934.724
1934.309
1933.893
1933.478
1933.062
1932.647
1932.231
1931.816
1931.400
1930.985
1930.569
1930.154
1929.738
1929.323
1928.907
1928.492
1928.076
1927.661
1927.245
1926.830
1926.414
1925.999
1925.583
1925.168
1924.752
1924.337
1923.921
1923.506
1923.090
1922.675
1922.259
1921.844
1921.428
1921.013
1920.597
1920.182
1919.766
1919.351
1918.935
1918.520
1918.104
1917.689
1917.273
1916.858
1916.442
1916.027
1915.611
1915.196
1914.780
1914.365
1913.949
1913.534
1913.118
1912.703
1912.287
1911.872
1911.456
1911.041
1910.625
1910.210
1909.794
1909.379
1908.963
1908.548
1908.132
1907.717
1907.301
1906.886
1906.470
1906.055
1905.639
1905.224
1904.808
1904.393
1903.977
1903.562
1903.146
1902.731
1902.315
1901.900
1901.484
1901.069
1900.653
1900.238
1899.822
1899.407
1898.991
1898.576
1898.160
1897.745
1897.329
1896.914
1896.498
1896.083
1895.667
1895.252
1894.836
1894.421
1894.005
1893.590
1893.174
1892.759
1892.343
1891.928
1891.512
1891.097
1890.681
1890.266
1889.850
1894.347
1898.843
1903.340
1907.836
1912.333
1916.829
1921.326
1925.822
1930.319
1934.815
1939.312
1943.808
1948.305
1952.801
1957.298
1961.794
1966.291
1970.787
1975.284
1979.780
1984.277
1988.773
1993.270
1997.766
2002.263
2006.759
2011.256
2015.752
2020.249
2024.745
2029.242
2033.738
2038.235
2042.731
2047.228
2051.724
2056.221
2060.717
2065.214
2069.710
2074.207
2078.703
2083.200
2087.696
2092.193
2096.689
2101.186
2105.682
2110.179
2114.675
2119.172
2123.668
2128.165
2132.661
2137.158
2141.654
2146.151
2150.647
2155.144
2159.640
2164.137
2168.633
2173.130
2177.626
2182.123
2186.619
2191.116
2195.612
2200.109
2204.605
2209.102
2213.598
2218.095
2222.591
2227.088
2231.584
2236.081
2240.577
2245.074
2249.570
2254.067
2258.563
2263.060
2267.556
2272.053
2276.549
2281.046
2285.542
2290.039
2294.535
2299.032
2303.528
2308.025
2312.521
2317.018
2321.514
2326.011
2330.507
2335.004
2339.500
2343.997
2348.493
2352.990
2357.486
2361.983
2366.479
2370.976
2375.472
2379.969
2384.465
2388.962
2393.458
2397.955
2402.451
2406.948
2411.444
2415.941
2420.437
2424.934
2429.430
2433.927
2438.423
2442.920
2447.416
2451.913
2456.409
2460.906
2465.402
2469.899
2474.395
2478.892
2483.388
2487.885
2492.381
2496.878
2501.374
2505.871
2510.367
2514.864
2519.360
2523.857
2528.353
2532.850
2537.346
2541.843
2546.339
2550.836
2555.332
2559.829
2564.325
2568.822
2573.318
2577.815
2582.311
2586.808
2591.304
2595.801
2600.297
2604.794
2609.290
2613.787
2618.283
2622.780
2627.276
2631.773
2636.269
2640.766
2645.262
2649.759
2654.255
2658.752
2663.248
2667.745
2672.241
2676.738
2681.234
2685.731
2690.227
2694.724
2699.220
2703.717
2708.213
2712.710
2717.206
2721.703
2726.199
2730.696
2735.192
2739.689
2744.185
2748.682
2753.178
2757.675
2762.171
2766.668
2771.164
2775.661
2780.157
2784.654
2789.150
2784.507
2779.864
2775.221
2770.578
2765.935
2761.292
2756.649
2752.006
2747.363
2742.720
2738.077
2733.434
2728.791
2724.148
2719.505
2714.862
2710.219
2705.576
2700.933
2696.290
2691.647
2687.004
2682.361
2677.718
2673.075
2668.432
2663.789
2659.146
2654.503
2649.860
2645.217
2640.574
2635.931
2631.288
2626.645
2622.002
2617.359
2612.716
2608.073
2603.430
2598.787
2594.144
2589.501
2584.858
2580.215
2575.572
2570.929
2566.286
2561.643
2557.000
2552.357
2547.714
2543.071
2538.428
2533.785
2529.142
2524.499
2519.856
2515.213
2510.570
2505.927
2501.284
2496.641
2491.998
2487.355
2482.712
2478.069
2473.426
2468.783
2464.140
2459.497
2454.854
2450.211
2445.568
2440.925
2436.282
2431.639
2426.996
2422.353
2417.710
2413.067
2408.424
2403.781
2399.138
2394.495
2389.852
2385.209
2380.566
2375.923
2371.280
2366.637
2361.994
2357.351
2352.708
2348.065
2343.422
2338.779
2334.136
2329.493
2324.850
2320.207
2315.564
2310.921
2306.278
2301.635
2296.992
2292.349
2287.706
2283.063
2278.420
2273.777
2269.134
2264.491
2259.848
2255.205
2250.562
2245.919
2241.276
2236.633
2231.990
2227.347
2222.704
2218.061
2213.418
2208.775
2204.132
2199.489
2194.846
2190.203
2185.560
2180.917
2176.274
2171.631
2166.988
2162.345
2157.702
2153.059
2148.416
2143.773
2139.130
2134.487
2129.844
2125.201
2120.558
2115.915
2111.272
2106.629
2101.986
2097.343
2092.700
2088.057
2083.414
2078.771
2074.128
2069.485
2064.842
2060.199
2055.556
2050.913
2046.270
2041.627
2036.984
2032.341
2027.698
2023.055
2018.412
2013.769
2009.126
2004.483
1999.840
1995.197
1990.554
1985.911
1981.268
1976.625
1971.982
1967.339
1962.696
1958.053
1953.410
1948.767
1944.124
1939.481
1934.838
1930.195
1925.552
1920.909
1916.266
1911.623
1906.980
1902.337
1897.694
1893.051
1888.408
1883.765
1879.122
1874.479
1869.836
1865.193
1860.550
1862.872
1865.193
1867.515
1869.836
1872.158
1874.479
1876.801
1879.122
1881.444
1883.765
1886.087
1888.408
1890.730
1893.051
1895.373
1897.694
1900.016
1902.337
1904.659
1906.980
1909.302
1911.623
1913.945
1916.266
1918.588
1920.909
1923.231
1925.552
1927.874
1930.195
1932.517
1934.838
1937.160
1939.481
1941.803
1944.124
1946.446
1948.767
1951.089
1953.410
1955.732
1958.053
1960.375
1962.696
1965.018
1967.339
1969.661
1971.982
1974.304
1976.625
1978.947
1981.268
1983.590
1985.911
1988.233
1990.554
1992.876
1995.197
1997.519
1999.840
2002.162
2004.483
2006.805
2009.126
2011.448
2013.769
2016.091
2018.412
2020.734
2023.055
2025.377
2027.698
2030.020
2032.341
2034.663
2036.984
2039.306
2041.627
2043.949
2046.270
2048.592
2050.913
2053.235
2055.556
2057.878
2060.199
2062.521
2064.842
2067.164
2069.485
2071.807
2074.128
2076.450
2078.771
2081.093
2083.414
2085.736
2088.057
2090.379
2092.700
2095.022
2097.343
2099.665
2101.986
2104.308
2106.629
2108.951
2111.272
2113.594
2115.915
2118.237
2120.558
2122.880
2125.201
2127.523
2129.844
2132.166
2134.487
2136.809
2139.130
2141.452
2143.773
2146.095
2148.416
2150.738
2153.059
2155.381
2157.702
2160.024
2162.345
2164.667
2166.988
2169.310
2171.631
2173.953
2176.274
2178.596
2180.917
2183.239
2185.560
2187.882
2190.203
2192.525
2194.846
2197.168
2199.489
2201.811
2204.132
2206.454
2208.775
2211.097
2213.418
2215.740
2218.061
2220.383
2222.704
2225.026
2227.347
2229.669
2231.990
2234.312
2236.633
2238.955
2241.276
2243.598
2245.919
2248.241
2250.562
2252.884
2255.205
2257.527
2259.848
2262.170
2264.491
2266.813
2269.134
2271.456
2273.777
2276.099
2278.420
2280.742
2283.063
2285.385
2287.706
2290.028
2292.349
2294.671
2296.992
2299.314
2301.635
2303.957
2306.278
2308.600
2310.921
2313.243
2315.564
2317.886
2320.207
2322.529
2324.850
2324.753
2324.655
2324.558
2324.460
2324.363
2324.265
2324.168
2324.070
2323.973
2323.875
2323.778
2323.680
2323.583
2323.485
2323.388
2323.290
2323.193
2323.095
2322.998
2322.900
2322.803
2322.705
2322.608
2322.510
2322.413
2322.315
2322.218
2322.120
2322.023
2321.925
2321.828
2321.730
2321.633
2321.535
2321.438
2321.340
2321.243
2321.145
2321.048
2320.950
2320.853
2320.755
2320.658
2320.560
2320.463
2320.365
2320.268
2320.170
2320.073
2319.975
2319.878
2319.780
2319.683
2319.585
2319.488
2319.390
2319.293
2319.195
2319.098
2319.000
2318.903
2318.805
2318.708
2318.610
2318.513
2318.415
2318.318
2318.220
2318.123
2318.025
2317.928
2317.830
2317.733
2317.635
2317.538
2317.440
2317.343
2317.245
2317.148
2317.050
2316.953
2316.855
2316.758
2316.660
2316.563
2316.465
2316.368
2316.270
2316.173
2316.075
2315.978
2315.880
2315.783
2315.685
2315.588
2315.490
2315.393
2315.295
2315.198
2315.100
2315.003
2314.905
2314.808
2314.710
2314.613
2314.515
2314.418
2314.320
2314.223
2314.125
2314.028
2313.930
2313.833
2313.735
2313.638
2313.540
2313.443
2313.345
2313.248
2313.150
2313.053
2312.955
2312.858
2312.760
2312.663
2312.565
2312.468
2312.370
2312.273
2312.175
2312.078
2311.980
2311.883
2311.785
2311.688
2311.590
2311.493
2311.395
2311.298
2311.200
2311.103
2311.005
2310.908
2310.810
2310.713
2310.615
2310.518
2310.420
2310.323
2310.225
2310.128
2310.030
2309.933
2309.835
2309.738
2309.640
2309.543
2309.445
2309.348
2309.250
2309.153
2309.055
2308.958
2308.860
2308.763
2308.665
2308.568
2308.470
2308.373
2308.275
2308.178
2308.080
2307.983
2307.885
2307.788
2307.690
2307.593
2307.495
2307.398
2307.300
2307.203
2307.105
2307.008
2306.910
2306.813
2306.715
2306.618
2306.520
2306.423
2306.325
2306.228
2306.130
2306.033
2305.935
2305.838
2305.740
2305.643
2305.545
2305.448
2305.350
2301.758
2298.165
2294.573
2290.980
2287.388
2283.795
2280.203
2276.610
2273.018
2269.425
2265.833
2262.240
2258.648
2255.055
2251.463
2247.870
2244.278
2240.685
2237.093
2233.500
2229.908
2226.315
2222.723
2219.130
2215.538
2211.945
2208.353
2204.760
2201.168
2197.575
2193.983
2190.390
2186.798
2183.205
2179.613
2176.020
2172.428
2168.835
2165.243
2161.650
2158.058
2154.465
2150.873
2147.280
2143.688
2140.095
2136.503
2132.910
2129.318
2125.725
2122.133
2118.540
2114.948
2111.355
2107.763
2104.170
2100.578
2096.985
2093.393
2089.800
2086.208
2082.615
2079.023
2075.430
2071.838
2068.245
2064.653
2061.060
2057.468
2053.875
2050.283
2046.690
2043.098
2039.505
2035.913
2032.320
2028.728
2025.135
2021.543
2017.950
2014.358
2010.765
2007.173
2003.580
1999.988
1996.395
1992.803
1989.210
1985.618
1982.025
1978.433
1974.840
1971.248
1967.655
1964.063
1960.470
1956.878
1953.285
1949.693
1946.100
1942.508
1938.915
1935.323
1931.730
1928.138
1924.545
1920.953
1917.360
1913.768
1910.175
1906.583
1902.990
1899.398
1895.805
1892.213
1888.620
1885.028
1881.435
1877.843
1874.250
1870.658
1867.065
1863.473
1859.880
1856.288
1852.695
1849.103
1845.510
1841.918
1838.325
1834.733
1831.140
1827.548
1823.955
1820.363
1816.770
1813.178
1809.585
1805.993
1802.400
1798.808
1795.215
1791.623
1788.030
1784.438
1780.845
1777.253
1773.660
1770.068
1766.475
1762.883
1759.290
1755.698
1752.105
1748.513
1744.920
1741.328
1737.735
1734.143
1730.550
1726.958
1723.365
1719.773
1716.180
1712.588
1708.995
1705.403
1701.810
1698.218
1694.625
1691.033
1687.440
1683.848
1680.255
1676.663
1673.070
1669.478
1665.885
1662.293
1658.700
1655.108
1651.515
1647.923
1644.330
1640.738
1637.145
1633.553
1629.960
1626.368
1622.775
1619.183
1615.590
1611.998
1608.405
1604.813
1601.220
1597.628
1594.035
1590.443
1586.850
1588.610
1590.369
1592.129
1593.888
1595.648
1597.407
1599.167
1600.926
1602.686
1604.445
1606.205
1607.964
1609.724
1611.483
1613.243
1615.002
1616.762
1618.521
1620.281
1622.040
1623.800
1625.559
1627.319
1629.078
1630.838
1632.597
1634.357
1636.116
1637.876
1639.635
1641.395
1643.154
1644.914
1646.673
1648.433
1650.192
1651.952
1653.711
1655.471
1657.230
1658.990
1660.749
1662.509
1664.268
1666.028
1667.787
1669.547
1671.306
1673.066
1674.825
1676.585
1678.344
1680.104
1681.863
1683.623
1685.382
1687.142
1688.901
1690.661
1692.420
1694.180
1695.939
1697.699
1699.458
1701.218
1702.977
1704.737
1706.496
1708.256
1710.015
1711.775
1713.534
1715.294
1717.053
1718.813
1720.572
1722.332
1724.091
1725.851
1727.610
1729.370
1731.129
1732.889
1734.648
1736.408
1738.167
1739.927
1741.686
1743.446
1745.205
1746.965
1748.724
1750.484
1752.243
1754.003
1755.762
1757.522
1759.281
1761.041
1762.800
1764.560
1766.319
1768.079
1769.838
1771.598
1773.357
1775.117
1776.876
1778.636
1780.395
1782.155
1783.914
1785.674
1787.433
1789.193
1790.952
1792.712
1794.471
1796.231
1797.990
1799.750
1801.509
1803.269
1805.028
1806.788
1808.547
1810.307
1812.066
1813.826
1815.585
1817.345
1819.104
1820.864
1822.623
1824.383
1826.142
1827.902
1829.661
1831.421
1833.180
1834.940
1836.699
1838.459
1840.218
1841.978
1843.737
1845.497
1847.256
1849.016
1850.775
1852.535
1854.294
1856.054
1857.813
1859.573
1861.332
1863.092
1864.851
1866.611
1868.370
1870.130
1871.889
1873.649
1875.408
1877.168
1878.927
1880.687
1882.446
1884.206
1885.965
1887.725
1889.484
1891.244
1893.003
1894.763
1896.522
1898.282
1900.041
1901.801
1903.560
1905.320
1907.079
1908.839
1910.598
1912.358
1914.117
1915.877
1917.636
1919.396
1921.155
1922.915
1924.674
1926.434
1928.193
1929.953
1931.712
1933.472
1935.231
1936.991
1938.750
1935.231
1931.712
1928.193
1924.674
1921.155
1917.636
1914.117
1910.598
1907.079
1903.560
1900.041
1896.522
1893.003
1889.484
1885.965
1882.446
1878.927
1875.408
1871.889
1868.370
1864.851
1861.332
1857.813
1854.294
1850.775
1847.256
1843.737
1840.218
1836.699
1833.180
1829.661
1826.142
1822.623
1819.104
1815.585
1812.066
1808.547
1805.028
1801.509
1797.990
1794.471
1790.952
1787.433
1783.914
1780.395
1776.876
1773.357
1769.838
1766.319
1762.800
1759.281
1755.762
1752.243
1748.724
1745.205
1741.686
1738.167
1734.648
1731.129
1727.610
1724.091
1720.572
1717.053
1713.534
1710.015
1706.496
1702.977
1699.458
1695.939
1692.420
1688.901
1685.382
1681.863
1678.344
1674.825
1671.306
1667.787
1664.268
1660.749
1657.230
1653.711
1650.192
1646.673
1643.154
1639.635
1636.116
1632.597
1629.078
1625.559
1622.040
1618.521
1615.002
1611.483
1607.964
1604.445
1600.926
1597.407
1593.888
1590.369
1586.850
1583.331
1579.812
1576.293
1572.774
1569.255
1565.736
1562.217
1558.698
1555.179
1551.660
1548.141
1544.622
1541.103
1537.584
1534.065
1530.546
1527.027
1523.508
1519.989
1516.470
1512.951
1509.432
1505.913
1502.394
1498.875
1495.356
1491.837
1488.318
1484.799
1481.280
1477.761
1474.242
1470.723
1467.204
1463.685
1460.166
1456.647
1453.128
1449.609
1446.090
1442.571
1439.052
1435.533
1432.014
1428.495
1424.976
1421.457
1417.938
1414.419
1410.900
1407.381
1403.862
1400.343
1396.824
1393.305
1389.786
1386.267
1382.748
1379.229
1375.710
1372.191
1368.672
1365.153
1361.634
1358.115
1354.596
1351.077
1347.558
1344.039
1340.520
1337.001
1333.482
1329.963
1326.444
1322.925
1319.406
1315.887
1312.368
1308.849
1305.330
1301.811
1298.292
1294.773
1291.254
1287.735
1284.216
1280.697
1277.178
1273.659
1270.140
1266.621
1263.102
1259.583
1256.064
1252.545
1249.026
1245.507
1241.988
1238.469
1234.950
1230.111
1225.272
1220.433
1215.594
1210.755
1205.916
1201.077
1196.238
1191.399
1186.560
1181.721
