104.558
104.558
104.558
104.558
104.558
104.558
104.558
104.558
104.558
104.558
104.558
104.558
104.558
104.558
104.558
104.558
104.558
104.558
104.558
104.558
104.558
104.558
104.558
104.558
104.558
104.558
104.558
104.558
104.558
104.558
104.558
104.558
104.558
104.558
104.558
104.558
104.558
104.558
104.558
104.558
104.558
104.558
104.558
104.558
104.558
104.558
104.558
104.558
104.558
104.558
104.558
104.558
104.558
104.558
104.558
104.558
104.558
104.558
104.558
104.558
104.558
104.558
104.558
104.558
104.558
104.558
104.558
104.558
104.558
104.558
104.558
104.558
104.558
104.558
104.558
104.558
104.558
104.558
104.558
104.558
104.558
104.558
104.558
104.558
104.558
104.558
104.558
104.558
104.558
104.558
104.558
104.558
104.558
104.558
104.558
104.558
104.558
104.558
104.558
104.558
104.558
104.558
104.558
104.558
104.558
104.558
104.558
104.558
104.558
104.558
104.558
104.558
104.558
104.558
104.558
104.558
104.558
104.558
104.558
104.558
104.558
104.558
104.558
104.558
104.558
104.558
104.558
104.558
104.558
104.558
104.558
104.558
104.558
104.558
104.558
104.558
104.558
104.558
104.558
104.558
104.558
104.558
104.558
104.558
104.558
104.558
104.558
104.558
104.558
104.558
104.558
104.558
104.558
104.558
104.558
104.558
104.558
104.558
104.558
104.558
104.558
104.558
104.558
104.558
104.558
104.558
104.558
104.558
104.558
104.558
104.558
104.558
104.558
104.558
104.558
104.558
104.558
104.558
104.558
104.558
104.558
104.558
104.558
104.558
104.558
104.558
104.558
104.558
104.558
104.558
104.558
104.558
104.558
104.558
104.558
104.558
104.558
104.558
104.558
104.558
104.558
104.558
104.558
104.558
104.558
104.558
104.558
104.558
104.558
104.558
104.558
104.558
104.558
104.558
104.558
104.558
104.558
104.558
104.558
104.558
104.558
104.558
104.558
104.558
104.558
104.558
104.558
104.558
104.558
104.558
104.558
104.558
104.558
104.558
104.558
104.558
104.558
104.558
104.558
104.558
104.558
104.558
104.558
104.558
104.558
104.558
104.558
104.558
104.558
104.558
104.558
104.558
104.558
104.558
104.558
104.558
104.558
104.558
104.558
104.558
104.558
104.558
104.558
104.558
104.558
104.558
104.558
104.558
104.558
104.558
104.558
104.558
104.558
104.558
104.558
104.558
104.558
104.558
104.558
104.558
104.558
104.558
104.558
104.558
104.558
104.558
104.558
104.558
104.558
104.558
104.558
104.558
104.558
104.558
104.558
104.558
104.558
104.558
104.558
104.558
104.558
104.558
104.558
104.558
104.558
104.558
104.558
104.558
104.558
104.558
104.558
104.558
104.558
104.558
104.558
104.558
104.558
104.558
104.558
104.558
104.558
104.558
104.558
104.558
104.558
104.558
104.558
104.558
104.558
104.558
104.558
104.558
104.558
104.558
104.558
104.558
104.558
104.558
104.558
104.558
104.558
104.558
104.558
104.558
104.558
104.558
104.558
104.558
104.558
104.558
104.558
104.558
104.558
104.558
104.558
104.558
104.558
104.558
104.558
104.558
104.558
104.558
104.558
104.558
104.558
104.558
104.558
104.558
104.558
104.558
104.558
104.558
104.558
104.558
104.558
104.558
104.558
104.558
104.558
104.558
104.558
104.558
104.558
104.558
104.558
104.558
104.558
104.558
104.558
104.558
104.558
104.558
104.558
104.558
104.558
104.558
104.558
104.558
104.558
104.558
104.558
104.558
104.558
104.558
104.558
104.558
104.558
104.558
104.558
104.558
104.558
104.558
104.558
104.558
104.558
104.558
104.558
104.558
104.558
104.558
104.558
104.558
104.558
104.558
104.558
104.558
104.558
104.558
104.558
104.558
104.558
104.558
104.558
104.558
104.558
104.558
104.558
104.558
104.558
104.558
104.558
104.558
104.558
104.558
104.558
104.558
104.558
104.558
104.558
104.558
104.558
104.558
104.558
104.558
104.558
104.558
104.558
104.558
104.558
104.558
104.558
104.558
104.558
104.558
104.558
104.558
104.558
104.558
104.558
104.558
104.558
104.558
104.558
104.558
104.558
104.558
104.558
104.558
104.558
104.558
104.558
104.558
104.558
104.558
104.558
104.558
104.558
104.558
104.558
104.558
104.558
104.558
104.558
104.558
104.558
104.558
104.558
104.558
104.558
104.558
104.558
104.558
104.558
104.558
104.558
104.558
104.558
104.558
104.558
104.558
104.558
104.558
104.558
104.558
104.558
104.558
104.558
104.558
104.558
104.558
104.558
104.558
104.558
104.558
104.558
104.558
104.558
104.558
104.558
104.558
104.558
104.558
104.558
104.558
104.558
104.558
104.558
104.558
104.558
104.558
104.558
104.558
104.558
104.558
104.558
104.558
104.558
104.558
104.558
104.558
104.558
104.558
104.558
104.558
104.558
104.558
104.558
104.558
104.558
104.558
104.558
104.558
104.558
104.558
104.558
104.558
104.558
104.558
104.558
104.558
104.558
104.558
104.558
104.558
104.558
104.558
104.558
104.558
104.558
104.558
104.558
104.558
104.558
104.558
104.558
104.558
104.558
104.558
104.558
104.558
104.558
104.558
104.558
104.558
104.558
104.558
104.558
104.558
104.558
104.558
104.558
104.558
104.558
104.558
104.558
104.558
104.558
104.558
104.558
104.558
104.558
104.558
104.558
104.558
104.558
104.558
104.558
104.558
104.558
104.558
104.558
104.558
104.558
104.558
104.558
104.558
104.558
104.558
104.558
104.558
104.558
104.558
104.558
104.558
104.558
104.558
104.558
104.558
104.558
104.558
104.558
104.558
104.558
104.558
104.558
104.558
104.558
104.558
104.558
104.558
104.558
104.558
104.558
104.558
104.558
104.558
104.558
104.558
104.558
104.558
104.558
104.558
104.558
104.558
104.558
104.558
104.558
104.558
104.558
104.558
104.558
104.558
104.558
104.558
104.558
104.558
104.558
104.558
104.558
104.558
104.558
104.558
104.558
104.558
104.558
104.558
104.558
104.558
104.558
104.558
104.558
104.558
104.558
104.558
104.558
104.558
104.558
104.558
104.558
104.558
104.558
104.558
104.558
104.558
104.558
104.558
104.558
104.558
104.558
104.558
104.558
104.558
104.558
104.558
104.558
104.558
104.558
104.558
104.558
104.558
104.558
104.558
104.558
104.558
104.558
104.558
104.558
104.558
104.558
104.558
104.558
104.558
104.558
104.558
104.558
104.558
104.558
104.558
104.558
104.558
104.558
104.558
104.558
104.558
104.558
104.558
104.558
104.558
104.558
104.558
104.558
104.558
104.558
104.558
104.558
104.558
104.558
104.558
104.558
104.558
104.558
104.558
104.558
104.558
104.558
104.558
104.558
104.558
104.558
104.558
104.558
104.558
104.558
104.558
104.558
104.558
104.558
104.558
104.558
104.558
104.558
104.558
104.558
104.558
104.558
104.558
104.558
104.558
104.558
104.558
104.558
104.558
104.558
104.558
104.558
104.558
104.558
104.558
104.558
104.558
104.558
104.558
104.558
104.558
104.558
104.558
104.558
104.558
104.558
104.558
104.558
104.558
104.558
104.558
104.558
104.558
104.558
104.558
104.558
104.558
104.558
104.558
104.558
104.558
104.558
104.558
104.558
104.558
104.558
104.558
104.558
104.558
104.558
104.558
104.558
104.558
104.558
104.558
104.558
104.558
104.558
104.558
104.558
104.558
104.558
104.558
104.558
104.558
104.558
104.558
104.558
104.558
104.558
104.558
104.558
104.558
104.558
104.558
104.558
104.558
104.558
104.558
104.558
104.558
104.558
104.558
104.558
104.558
563.958
567.403
570.849
574.294
577.740
581.185
584.631
588.076
591.522
594.967
598.413
601.858
605.304
608.749
612.195
615.640
619.086
622.531
625.977
629.422
632.868
636.313
639.759
643.204
646.650
650.095
653.541
656.986
660.432
663.877
667.323
670.768
674.214
677.659
681.105
684.550
687.996
691.441
694.887
698.332
701.778
705.223
708.669
712.114
715.560
719.005
722.451
725.896
729.342
732.787
736.233
739.678
743.124
746.569
750.015
753.460
756.906
760.351
763.797
767.242
770.688
774.133
777.579
781.024
784.470
787.915
791.361
794.806
798.252
801.697
805.143
808.588
812.034
815.479
818.925
822.370
825.816
829.261
832.707
836.152
839.598
843.043
846.489
849.934
853.380
856.825
860.271
863.716
867.162
870.607
874.053
877.498
880.944
884.389
887.835
891.280
894.726
898.171
901.617
905.062
908.508
911.953
915.399
918.844
922.290
925.735
929.181
932.626
936.072
939.517
942.963
946.408
949.854
953.299
956.745
960.190
963.636
967.081
970.527
973.972
977.418
980.863
984.309
987.754
991.200
994.645
998.091
1001.536
1004.982
1008.427
1011.873
1015.318
1018.764
1022.209
1025.655
1029.100
1032.546
1035.991
1039.437
1042.882
1046.328
1049.773
1053.219
1056.664
1060.110
1063.555
1067.001
1070.446
1073.892
1077.337
1080.783
1084.228
1087.674
1091.119
1094.565
1098.010
1101.456
1104.901
1108.347
1111.792
1115.238
1118.683
1122.129
1125.574
1129.020
1132.465
1135.911
1139.356
1142.802
1146.247
1149.693
1153.138
1156.584
1160.029
1163.475
1166.920
1170.366
1173.811
1177.257
1180.702
1184.148
1187.593
1191.039
1194.484
1197.930
1201.375
1204.821
1208.266
1211.712
1215.157
1218.603
1222.048
1225.494
1228.939
1232.385
1235.830
1239.276
1242.721
1246.167
1249.612
1253.058
1257.726
1262.394
1267.062
1271.730
1276.398
1281.066
1285.734
1290.402
1295.070
1299.738
1304.406
1309.074
1313.742
1318.410
1323.078
1327.746
1332.414
1337.082
1341.750
1346.418
1351.086
1355.754
1360.422
1365.090
1369.758
1374.426
1379.094
1383.762
1388.430
1393.098
1397.766
1402.434
1407.102
1411.770
1416.438
1421.106
1425.774
1430.442
1435.110
1439.778
1444.446
1449.114
1453.782
1458.450
1463.118
1467.786
1472.454
1477.122
1481.790
1486.458
1491.126
1495.794
1500.462
1505.130
1509.798
1514.466
1519.134
1523.802
1528.470
1533.138
1537.806
1542.474
1547.142
1551.810
1556.478
1561.146
1565.814
1570.482
1575.150
1579.818
1584.486
1589.154
1593.822
1598.490
1603.158
1607.826
1612.494
1617.162
1621.830
1626.498
1631.166
1635.834
1640.502
1645.170
1649.838
1654.506
1659.174
1663.842
1668.510
1673.178
1677.846
1682.514
1687.182
1691.850
1696.518
1701.186
1705.854
1710.522
1715.190
1719.858
1724.526
1729.194
1733.862
1738.530
1743.198
1747.866
1752.534
1757.202
1761.870
1766.538
1771.206
1775.874
1780.542
1785.210
1789.878
1794.546
1799.214
1803.882
1808.550
1813.218
1817.886
1822.554
1827.222
1831.890
1836.558
1841.226
1845.894
1850.562
1855.230
1859.898
1864.566
1869.234
1873.902
1878.570
1883.238
1887.906
1892.574
1897.242
1901.910
1906.578
1911.246
1915.914
1920.582
1925.250
1929.918
1934.586
1939.254
1943.922
1948.590
1953.258
1957.926
1962.594
1967.262
1971.930
1976.598
1981.266
1985.934
1990.602
1995.270
1999.938
2004.606
2009.274
2013.942
2018.610
2023.278
2027.946
2032.614
2037.282
2041.950
2046.618
2051.286
2055.954
2060.622
2065.290
2069.958
2074.626
2079.294
2083.962
2088.630
2093.298
2097.966
2102.634
2107.302
2111.970
2116.638
2121.306
2125.974
2130.642
2135.310
2139.978
2144.646
2149.314
2153.982
2158.650
2163.318
2167.986
2172.654
2177.322
2181.990
2186.658
2187.000
2187.342
2187.684
2188.026
2188.368
2188.710
2189.052
2189.394
2189.736
2190.078
2190.420
2190.762
2191.104
2191.446
2191.788
2192.130
2192.472
2192.814
2193.156
2193.498
2193.840
2194.182
2194.524
2194.866
2195.208
2195.550
2195.892
2196.234
2196.576
2196.918
2197.260
2197.602
2197.944
2198.286
2198.628
2198.970
2199.312
2199.654
2199.996
2200.338
2200.680
2201.022
2201.364
2201.706
2202.048
2202.390
2202.732
2203.074
2203.416
2203.758
2204.100
2204.442
2204.784
2205.126
2205.468
2205.810
2206.152
2206.494
2206.836
2207.178
2207.520
2207.862
2208.204
2208.546
2208.888
2209.230
2209.572
2209.914
2210.256
2210.598
2210.940
2211.282
2211.624
2211.966
2212.308
2212.650
2212.992
2213.334
2213.676
2214.018
2214.360
2214.702
2215.044
2215.386
2215.728
2216.070
2216.412
2216.754
2217.096
2217.438
2217.780
2218.122
2218.464
2218.806
2219.148
2219.490
2219.832
2220.174
2220.516
2220.858
2221.200
2221.542
2221.884
2222.226
2222.568
2222.910
2223.252
2223.594
2223.936
2224.278
2224.620
2224.962
2225.304
2225.646
2225.988
2226.330
2226.672
2227.014
2227.356
2227.698
2228.040
2228.382
2228.724
2229.066
2229.408
2229.750
2230.092
2230.434
2230.776
2231.118
2231.460
2231.802
2232.144
2232.486
2232.828
2233.170
2233.512
2233.854
2234.196
2234.538
2234.880
2235.222
2235.564
2235.906
2236.248
2236.590
2236.932
2237.274
2237.616
2237.958
2238.300
2238.642
2238.984
2239.326
2239.668
2240.010
2240.352
2240.694
2241.036
2241.378
2241.720
2242.062
2242.404
2242.746
2243.088
2243.430
2243.772
2244.114
2244.456
2244.798
2245.140
2245.482
2245.824
2246.166
2246.508
2246.850
2247.192
2247.534
2247.876
2248.218
2248.560
2248.902
2249.244
2249.586
2249.928
2250.270
2250.612
2250.954
2251.296
2251.638
2251.980
2252.322
2252.664
2253.006
2253.348
2253.690
2254.032
2254.374
2254.716
2255.058
2251.930
2248.802
2245.674
2242.546
2239.418
2236.290
2233.162
2230.034
2226.906
2223.778
2220.650
2217.522
2214.394
2211.266
2208.138
2205.010
2201.882
2198.754
2195.626
2192.498
2189.370
2186.242
2183.114
2179.986
2176.858
2173.730
2170.602
2167.474
2164.346
2161.218
2158.090
2154.962
2151.834
2148.706
2145.578
2142.450
2139.322
2136.194
2133.066
2129.938
2126.810
2123.682
2120.554
2117.426
2114.298
2111.170
2108.042
2104.914
2101.786
2098.658
2095.530
2092.402
2089.274
2086.146
2083.018
2079.890
2076.762
2073.634
2070.506
2067.378
2064.250
2061.122
2057.994
2054.866
2051.738
2048.610
2045.482
2042.354
2039.226
2036.098
2032.970
2029.842
2026.714
2023.586
2020.458
2017.330
2014.202
2011.074
2007.946
2004.818
2001.690
1998.562
1995.434
1992.306
1989.178
1986.050
1982.922
1979.794
1976.666
1973.538
1970.410
1967.282
1964.154
1961.026
1957.898
1954.770
1951.642
1948.514
1945.386
1942.258
1939.130
1936.002
1932.874
1929.746
1926.618
1923.490
1920.362
1917.234
1914.106
1910.978
1907.850
1904.722
1901.594
1898.466
1895.338
1892.210
1889.082
1885.954
1882.826
1879.698
1876.570
1873.442
1870.314
1867.186
1864.058
1860.930
1857.802
1854.674
1851.546
1848.418
1845.290
1842.162
1839.034
1835.906
1832.778
1829.650
1826.522
1823.394
1820.266
1817.138
1814.010
1810.882
1807.754
1804.626
1801.498
1798.370
1795.242
1792.114
1788.986
1785.858
1782.730
1779.602
1776.474
1773.346
1770.218
1767.090
1763.962
1760.834
1757.706
1754.578
1751.450
1748.322
1745.194
1742.066
1738.938
1735.810
1732.682
1729.554
1726.426
1723.298
1720.170
1717.042
1713.914
1710.786
1707.658
1704.530
1701.402
1698.274
1695.146
1692.018
1688.890
1685.762
1682.634
1679.506
1676.378
1673.250
1670.122
1666.994
1663.866
1660.738
1657.610
1654.482
1651.354
1648.226
1645.098
1641.970
1638.842
1635.714
1632.586
1629.458
1633.466
1637.474
1641.482
1645.490
1649.498
1653.506
1657.514
1661.522
1665.530
1669.538
1673.546
1677.554
1681.562
1685.570
1689.578
1693.586
1697.594
1701.602
1705.610
1709.618
1713.626
1717.634
1721.642
1725.650
1729.658
1733.666
1737.674
1741.682
1745.690
1749.698
1753.706
1757.714
1761.722
1765.730
1769.738
1773.746
1777.754
1781.762
1785.770
1789.778
1793.786
1797.794
1801.802
1805.810
1809.818
1813.826
1817.834
1821.842
1825.850
1829.858
1833.866
1837.874
1841.882
1845.890
1849.898
1853.906
1857.914
1861.922
1865.930
1869.938
1873.946
1877.954
1881.962
1885.970
1889.978
1893.986
1897.994
1902.002
1906.010
1910.018
1914.026
1918.034
1922.042
1926.050
1930.058
1934.066
1938.074
1942.082
1946.090
1950.098
1954.106
1958.114
1962.122
1966.130
1970.138
1974.146
1978.154
1982.162
1986.170
1990.178
1994.186
1998.194
2002.202
2006.210
2010.218
2014.226
2018.234
2022.242
2026.250
2030.258
2034.266
2038.274
2042.282
2046.290
2050.298
2054.306
2058.314
2062.322
2066.330
2070.338
2074.346
2078.354
2082.362
2086.370
2090.378
2094.386
2098.394
2102.402
2106.410
2110.418
2114.426
2118.434
2122.442
2126.450
2130.458
2134.466
2138.474
2142.482
2146.490
2150.498
2154.506
2158.514
2162.522
2166.530
2170.538
2174.546
2178.554
2182.562
2186.570
2190.578
2194.586
2198.594
2202.602
2206.610
2210.618
2214.626
2218.634
2222.642
2226.650
2230.658
2234.666
2238.674
2242.682
2246.690
2250.698
2254.706
2258.714
2262.722
2266.730
2270.738
2274.746
2278.754
2282.762
2286.770
2290.778
2294.786
2298.794
2302.802
2306.810
2310.818
2314.826
2318.834
2322.842
2326.850
2330.858
2334.866
2338.874
2342.882
2346.890
2350.898
2354.906
2358.914
2362.922
2366.930
2370.938
2374.946
2378.954
2382.962
2386.970
2390.978
2394.986
2398.994
2403.002
2407.010
2411.018
2415.026
2419.034
2423.042
2427.050
2431.058
2428.589
2426.121
2423.652
2421.184
2418.715
2416.247
2413.778
2411.310
2408.841
2406.373
2403.904
2401.436
2398.967
2396.499
2394.030
2391.562
2389.093
2386.625
2384.156
2381.688
2379.219
2376.751
2374.282
2371.814
2369.345
2366.877
2364.408
2361.940
2359.471
2357.003
2354.534
2352.066
2349.597
2347.129
2344.660
2342.192
2339.723
2337.255
2334.786
2332.318
2329.849
2327.381
2324.912
2322.444
2319.975
2317.507
2315.038
2312.570
2310.101
2307.633
2305.164
2302.696
2300.227
2297.759
2295.290
2292.822
2290.353
2287.885
2285.416
2282.948
2280.479
2278.011
2275.542
2273.074
2270.605
2268.137
2265.668
2263.200
2260.731
2258.263
2255.794
2253.326
2250.857
2248.389
2245.920
2243.452
2240.983
2238.515
2236.046
2233.578
2231.109
2228.641
2226.172
2223.704
2221.235
2218.767
2216.298
2213.830
2211.361
2208.893
2206.424
2203.956
2201.487
2199.019
2196.550
2194.082
2191.613
2189.145
2186.676
2184.208
2181.739
2179.271
2176.802
2174.334
2171.865
2169.397
2166.928
2164.460
2161.991
2159.523
2157.054
2154.586
2152.117
2149.649
2147.180
2144.712
2142.243
2139.775
2137.306
2134.838
2132.369
2129.901
2127.432
2124.964
2122.495
2120.027
2117.558
2115.090
2112.621
2110.153
2107.684
