111.051
111.027
111.002
110.978
110.953
110.929
110.904
110.880
110.855
110.831
110.806
110.782
110.757
110.733
110.708
110.684
110.684
110.684
110.684
110.684
110.684
110.684
110.684
110.684
110.684
110.684
110.684
110.684
110.684
110.684
110.684
110.684
110.684
110.684
110.684
110.684
110.684
110.684
110.684
110.684
110.684
110.684
110.684
110.684
110.684
110.684
110.684
110.684
110.684
110.684
110.684
110.684
110.684
110.684
110.684
110.684
110.684
110.684
110.684
110.684
110.684
110.684
110.684
110.684
110.684
110.684
110.684
110.684
110.684
110.684
110.684
110.684
110.684
110.684
110.684
110.684
110.684
110.684
110.684
110.684
110.684
110.684
110.684
110.684
110.684
110.684
110.684
110.684
110.684
110.684
110.684
110.684
110.684
110.684
110.684
110.684
110.684
110.684
110.684
110.684
110.684
110.684
110.684
110.684
110.684
110.684
110.684
110.684
110.684
110.684
110.684
110.684
110.684
110.684
110.684
110.684
110.684
110.684
110.684
110.684
110.684
110.684
110.684
110.684
110.684
110.684
110.684
110.684
110.684
110.684
110.684
110.684
110.684
110.684
110.684
110.684
110.684
110.684
110.684
110.684
110.684
110.684
110.684
110.684
110.684
110.684
110.684
110.684
110.684
110.684
110.684
110.684
110.684
110.684
110.684
110.684
110.684
110.684
110.684
110.684
110.684
110.684
110.684
110.684
110.684
110.684
110.684
110.684
110.684
110.684
110.684
110.684
110.684
110.684
110.684
110.684
110.684
110.684
110.684
110.684
110.684
110.684
110.684
110.684
110.684
110.684
110.684
110.684
110.684
110.684
110.684
110.684
110.684
110.684
110.684
110.684
110.684
110.684
110.684
110.684
110.684
110.684
110.684
110.684
110.684
110.684
110.684
110.684
110.684
110.684
110.684
110.684
110.684
110.684
110.684
110.684
110.684
110.684
110.684
110.684
110.684
110.684
110.684
110.684
110.684
110.684
110.684
110.684
110.684
110.684
110.684
110.684
110.684
110.684
110.684
110.684
110.684
110.684
110.684
110.684
110.684
110.684
110.684
110.684
110.684
110.684
110.684
110.684
110.684
110.684
110.684
110.684
110.684
110.684
110.684
110.684
110.684
110.684
110.684
110.684
110.684
110.684
110.684
110.684
110.684
110.684
110.684
110.684
110.684
110.684
110.684
110.684
110.684
110.684
110.684
110.684
110.684
110.684
110.684
110.684
110.684
110.684
110.684
110.684
110.684
110.684
110.684
110.684
110.684
110.684
110.684
110.684
110.684
110.684
110.684
110.684
110.684
110.684
110.684
110.684
110.684
110.684
110.684
110.684
110.684
110.684
110.684
110.684
110.684
110.684
110.684
110.684
110.684
110.684
110.684
110.684
110.684
110.684
110.684
110.684
110.684
110.684
110.684
110.684
110.684
110.684
110.684
110.684
110.684
110.684
110.684
110.684
110.684
110.684
110.684
110.684
110.684
110.684
110.684
110.684
110.684
110.684
110.684
110.684
110.684
110.684
110.684
110.684
110.684
110.684
110.684
110.684
110.684
110.684
110.684
110.684
110.684
110.684
110.684
110.684
110.684
110.684
110.684
110.684
110.684
110.684
110.684
110.684
110.684
110.684
110.684
110.684
110.684
110.684
110.684
110.684
110.684
110.684
110.684
110.684
110.684
110.684
110.684
110.684
110.684
110.684
110.684
110.684
110.684
110.684
110.684
110.684
110.684
110.684
110.684
110.684
110.684
110.684
110.684
110.684
110.684
110.684
110.684
110.684
110.684
110.684
110.684
110.684
110.684
110.684
110.684
110.684
110.684
110.684
110.684
110.684
110.708
110.733
110.757
110.782
110.806
110.831
110.855
110.880
110.904
110.929
110.953
110.978
111.002
111.027
111.051
111.076
111.100
111.125
111.149
111.174
111.198
111.223
111.247
111.272
111.296
111.321
111.345
111.370
111.394
111.419
111.443
111.468
111.492
111.517
111.541
111.566
111.590
111.615
111.639
111.664
111.688
111.713
111.737
111.762
111.786
111.811
111.835
111.860
111.884
111.909
111.933
111.958
111.982
112.007
112.031
112.056
112.080
112.105
112.129
112.154
112.178
112.203
112.227
112.252
112.276
112.301
112.325
112.350
112.374
112.399
112.423
112.448
112.472
112.497
112.521
112.546
112.570
112.595
112.619
112.644
112.668
112.693
112.717
112.742
112.766
112.791
112.815
112.840
112.864
112.889
112.913
112.938
112.962
112.987
113.011
113.036
113.060
113.085
113.109
113.134
113.158
113.183
113.207
113.232
113.256
113.281
113.305
113.330
113.354
113.379
113.403
113.428
113.452
113.477
113.501
113.526
113.550
113.575
113.599
113.624
113.648
113.673
113.697
113.722
113.746
113.771
113.795
113.820
113.844
113.869
113.893
113.918
113.942
113.967
113.991
114.016
114.040
114.065
114.089
114.114
114.138
114.163
114.187
114.212
114.236
114.261
114.285
114.310
114.334
114.359
114.383
114.408
114.432
114.457
114.481
114.506
114.530
114.555
114.579
114.604
114.628
114.653
114.677
114.702
114.726
114.751
114.775
114.800
114.824
114.849
114.873
114.898
114.922
114.947
114.971
114.996
115.020
115.045
115.069
115.094
115.118
115.143
115.167
115.192
115.216
115.241
115.265
115.290
115.314
115.339
115.363
115.388
115.412
115.437
115.461
115.486
115.510
115.535
115.559
115.584
115.559
115.535
115.510
115.486
115.461
115.437
115.412
115.388
115.363
115.339
115.314
115.290
115.265
115.241
115.216
115.192
115.167
115.143
115.118
115.094
115.069
115.045
115.020
114.996
114.971
114.947
114.922
114.898
114.873
114.849
114.824
114.800
114.775
114.751
114.726
114.702
114.677
114.653
114.628
114.604
114.579
114.555
114.530
114.506
114.481
114.457
114.432
114.408
114.383
114.359
114.334
114.310
114.285
114.261
114.236
114.212
114.187
114.163
114.138
114.114
114.089
114.065
114.040
114.016
113.991
113.967
113.942
113.918
113.893
113.869
113.844
113.820
113.795
113.771
113.746
113.722
113.697
113.673
113.648
113.624
113.599
113.575
113.550
113.526
113.501
113.477
113.452
113.428
113.403
113.379
113.354
113.330
113.305
113.281
113.256
113.232
113.207
113.183
113.158
113.134
113.109
113.085
113.060
113.036
113.011
112.987
112.962
112.938
112.913
112.889
112.864
112.840
112.815
112.791
112.766
112.742
112.717
112.693
112.668
112.644
112.619
112.595
112.570
112.546
112.521
112.497
112.472
112.448
112.423
112.399
112.374
112.350
112.325
112.301
112.276
112.252
112.227
112.203
112.178
112.154
112.129
112.105
112.080
112.056
112.031
112.007
111.982
111.958
111.933
111.909
111.884
111.860
111.835
111.811
111.786
111.762
111.737
111.713
111.688
111.664
111.639
111.615
111.590
111.566
111.541
111.517
111.492
111.468
111.443
111.419
111.394
111.370
111.345
111.321
111.296
111.272
111.247
111.223
111.198
111.174
111.149
111.125
111.100
111.076
111.051
111.027
111.002
110.978
110.953
110.929
110.904
110.880
110.855
110.831
110.806
110.782
110.757
110.733
110.708
110.684
110.684
110.684
110.684
110.684
110.684
110.684
110.684
110.684
110.684
110.684
110.684
110.684
110.684
110.684
110.684
110.684
110.684
110.684
110.684
110.684
110.684
110.684
110.684
110.684
110.684
110.684
110.684
110.684
110.684
110.684
110.684
110.684
110.684
110.684
110.684
110.684
110.684
110.684
110.684
110.684
110.684
110.684
110.684
110.684
110.684
110.684
110.684
110.684
110.684
110.684
110.684
110.684
110.684
110.684
110.684
110.684
110.684
110.684
110.684
110.684
110.684
110.684
110.684
110.684
110.684
110.684
110.684
110.684
110.684
110.684
110.684
110.684
110.684
110.684
110.684
110.684
110.684
110.684
110.684
110.684
110.684
110.684
110.684
110.684
110.684
110.684
110.684
110.684
110.684
110.684
110.684
110.684
110.684
110.684
110.684
110.684
110.684
110.684
110.684
110.684
110.684
110.684
110.684
110.684
110.684
110.684
110.684
110.684
110.684
110.684
110.684
110.684
110.684
110.684
110.684
110.684
110.684
110.684
110.684
110.684
110.684
110.684
110.684
110.684
110.684
110.684
110.684
110.684
110.684
110.684
110.684
110.684
110.684
110.684
110.684
110.684
110.684
110.684
110.684
110.684
110.684
110.684
110.684
110.684
110.684
110.684
110.684
110.684
110.684
110.684
110.684
110.684
110.684
110.684
110.684
110.684
110.684
110.684
110.684
110.684
110.684
110.684
110.684
110.684
110.684
110.684
110.684
110.684
110.684
110.684
110.684
110.684
110.684
110.684
110.684
110.684
110.684
110.684
110.684
110.684
110.684
110.684
110.684
110.684
110.684
110.684
110.684
110.684
110.684
110.684
110.684
110.684
110.684
110.684
110.684
110.684
110.684
110.684
110.684
110.684
110.684
110.684
110.684
110.684
110.684
110.684
110.684
110.684
110.684
110.684
110.684
110.684
110.684
110.684
110.684
110.684
110.684
110.684
110.684
110.684
110.684
110.684
110.684
110.684
110.684
110.684
110.684
110.684
110.684
110.684
110.684
110.684
110.684
110.684
110.684
110.684
110.684
110.684
110.684
110.684
110.684
110.684
110.684
110.684
110.684
110.684
110.684
110.684
110.684
110.684
110.684
110.684
110.684
110.684
110.684
110.684
110.684
110.684
110.684
110.684
110.684
110.684
110.684
110.684
110.684
110.684
110.684
110.684
110.684
110.684
110.684
110.684
110.684
110.684
110.684
110.684
110.684
110.684
110.684
110.684
110.684
110.684
110.684
110.684
110.684
110.684
110.684
110.684
110.684
110.684
110.684
110.684
110.684
110.684
110.684
110.684
110.684
110.684
110.684
110.684
110.684
110.684
110.684
110.684
110.684
110.684
110.684
110.684
110.684
110.684
110.684
110.684
110.684
110.684
110.684
110.684
110.684
110.684
110.684
110.684
110.684
110.684
110.684
110.684
110.684
110.684
110.684
110.684
110.684
110.684
110.684
110.684
110.684
110.684
110.684
110.684
110.684
110.684
110.684
110.684
110.684
110.684
110.684
110.684
110.684
110.684
110.684
110.684
110.684
110.684
110.684
110.684
110.684
110.684
110.684
110.684
110.684
110.684
110.684
110.684
110.684
110.684
110.684
110.684
110.684
110.684
110.684
110.684
110.684
110.684
110.684
110.684
110.684
110.684
110.684
110.684
110.684
110.684
110.684
110.684
110.684
110.684
110.684
110.684
110.684
110.684
110.684
110.684
110.684
110.684
110.684
110.684
110.684
110.684
110.684
110.684
110.684
110.684
110.684
110.684
110.684
110.684
110.684
110.684
110.684
110.684
110.684
110.684
110.684
110.684
110.684
110.684
110.684
110.684
110.684
110.684
110.684
110.684
110.684
110.684
110.684
110.684
110.684
110.684
110.684
110.684
110.684
110.684
110.684
110.684
110.684
110.684
110.684
110.684
110.684
110.684
110.684
110.684
110.684
110.684
110.684
110.684
110.684
110.684
110.684
110.684
110.684
110.684
110.684
110.684
110.684
110.684
110.684
110.684
110.684
110.684
110.684
110.684
110.684
110.684
110.684
110.684
110.684
110.684
110.684
110.684
110.684
110.684
110.684
110.684
110.684
110.684
110.684
110.684
110.684
110.684
110.684
110.684
110.684
110.684
110.684
110.684
110.684
110.684
110.684
110.684
110.684
110.684
110.684
110.684
110.684
110.684
110.684
110.684
110.684
110.684
110.684
110.684
110.684
110.684
110.684
110.684
110.684
110.684
110.684
110.684
110.684
110.684
110.684
110.684
110.684
110.684
110.684
110.684
110.684
110.684
110.684
110.684
110.684
110.684
110.684
110.684
110.684
110.684
110.684
110.684
110.684
110.684
110.684
110.684
110.684
110.684
110.684
110.684
110.684
110.684
110.684
110.684
110.684
110.684
110.684
110.684
110.684
110.684
110.684
110.684
110.684
110.684
110.684
110.684
110.684
110.684
110.684
110.684
110.684
110.684
110.684
110.684
110.684
110.684
110.684
110.684
110.684
110.684
110.684
110.684
110.684
110.684
110.684
110.684
110.684
110.684
110.684
110.684
110.684
110.684
110.684
110.684
110.684
110.684
110.684
110.684
110.684
110.684
110.684
110.684
110.684
110.684
110.684
110.684
110.684
110.684
110.684
110.684
110.684
110.684
110.684
110.684
110.684
110.684
110.684
110.684
110.684
110.684
110.684
110.684
110.684
110.684
110.684
110.684
110.684
110.684
110.684
110.684
110.684
110.684
110.684
110.684
110.684
110.684
110.684
110.684
110.684
110.684
110.684
110.684
110.684
110.684
110.684
110.684
110.684
110.684
110.684
110.684
110.684
110.684
110.684
110.684
110.684
110.684
110.684
110.684
110.684
110.684
110.684
110.684
110.684
110.684
110.684
110.684
110.684
110.684
110.684
110.684
110.684
110.684
110.684
110.684
110.684
110.684
110.684
110.684
110.684
110.684
110.684
110.684
110.684
110.684
110.684
110.684
110.684
110.684
110.684
110.684
110.684
110.684
110.684
110.684
110.684
110.684
110.684
110.684
110.684
110.684
110.684
110.684
110.684
110.684
110.684
110.684
110.684
110.684
110.684
110.684
110.684
110.684
110.684
110.684
110.684
110.684
110.684
110.684
110.684
110.684
110.684
110.684
110.684
110.684
110.684
110.684
110.684
110.684
110.684
110.684
110.684
110.684
110.684
110.684
110.684
110.684
110.684
110.684
110.684
110.684
110.684
110.684
110.684
110.684
110.684
110.684
110.684
110.684
110.684
110.684
110.684
110.684
110.684
110.684
110.684
110.684
110.684
110.684
110.684
110.684
110.684
110.684
110.684
110.684
110.684
110.684
110.684
110.684
110.684
110.684
110.684
110.684
110.684
110.684
110.684
110.684
110.684
110.684
110.684
110.684
110.684
110.684
110.684
110.684
110.684
110.684
110.684
110.684
110.684
110.684
110.684
110.684
110.684
110.684
110.684
110.684
110.684
110.684
110.684
110.684
110.684
110.684
110.684
110.684
110.684
110.684
110.684
110.684
110.684
110.684
110.684
110.684
110.684
110.684
110.684
110.684
110.684
110.684
110.684
110.684
110.684
110.684
110.684
110.684
110.684
110.684
110.684
110.684
110.684
110.684
110.684
110.684
110.684
110.684
110.684
110.684
110.684
110.684
110.684
110.684
110.684
110.684
110.684
110.684
110.684
110.684
110.684
110.684
110.684
110.684
110.684
110.684
110.684
110.684
110.684
110.684
110.684
110.684
110.684
110.684
110.684
110.684
110.684
110.684
110.684
110.684
110.684
110.684
110.684
110.684
110.684
110.684
110.684
110.684
110.684
110.684
110.684
110.684
110.684
110.684
110.684
110.684
110.684
110.684
110.684
110.684
110.684
110.684
110.684
110.684
110.684
110.684
110.684
110.684
110.684
110.684
110.684
110.684
110.684
110.684
110.684
110.684
110.684
110.684
110.684
110.684
110.684
110.684
110.684
110.684
110.684
110.684
110.684
110.684
110.684
110.684
110.684
110.684
110.684
110.684
110.684
110.684
110.684
110.684
110.684
110.684
110.684
110.684
110.684
110.684
110.684
110.684
110.684
110.684
110.684
110.684
110.684
110.684
110.684
110.684
110.684
110.684
110.684
110.684
110.684
110.684
110.684
110.684
110.684
110.684
110.684
110.684
110.684
110.684
110.684
110.684
110.684
110.684
110.684
110.684
110.684
110.684
110.684
110.684
110.684
110.684
110.684
110.684
110.684
110.684
110.684
110.684
110.684
110.684
110.684
110.684
110.684
110.684
110.684
110.684
110.684
110.684
110.684
110.684
110.684
110.684
110.684
110.684
110.684
110.684
110.684
110.684
110.684
110.684
110.684
110.684
110.684
110.684
110.684
110.684
110.684
110.684
110.684
110.684
110.684
110.684
110.684
110.684
110.684
110.684
110.684
110.684
110.684
110.684
110.684
1132.184
1134.627
1137.071
1139.514
1141.958
1144.401
1146.845
1149.288
1151.732
1154.175
1156.619
1159.062
1161.506
1163.949
1166.393
1168.836
1171.280
1173.723
1176.167
1178.610
1181.054
1183.497
1185.941
1188.384
1190.828
1193.271
1195.715
1198.158
1200.602
1203.045
1205.489
1207.932
1210.376
1212.819
1215.263
1217.706
1220.150
1222.593
1225.037
1227.480
1229.924
1232.367
1234.811
1237.254
1239.698
1242.141
1244.585
1247.028
1249.472
1251.915
1254.359
1256.802
1259.246
1261.689
1264.133
1266.576
1269.020
1271.463
1273.907
1276.350
1278.794
1281.237
1283.681
1286.124
1288.568
1291.011
1293.455
1295.898
1298.342
1300.785
1303.229
1305.672
1308.116
1310.559
1313.003
1315.446
1317.890
1320.333
1322.777
1325.220
1327.664
1330.107
1332.551
1334.994
1337.438
1339.881
1342.325
1344.768
1347.212
1349.655
1352.099
1354.542
1356.986
1359.429
1361.873
1364.316
1366.760
1369.203
1371.647
1374.090
1376.534
1378.977
1381.421
1383.864
1386.308
1388.751
1391.195
1393.638
1396.082
1398.525
1400.969
1403.412
1405.856
1408.299
1410.743
1413.186
1415.630
1418.073
1420.517
1422.960
1425.404
1427.847
1430.291
1432.734
1435.178
1437.621
1440.065
1442.508
1444.952
1447.395
1449.839
1452.282
1454.726
1457.169
1459.613
1462.056
1464.500
1466.943
1469.387
1471.830
1474.274
1476.717
1479.161
1481.604
1484.048
1486.491
1488.935
1491.378
1493.822
1496.265
1498.709
1501.152
1503.596
1506.039
1508.483
1510.926
1513.370
1515.813
1518.257
1520.700
1523.144
1525.587
1528.031
1530.474
1532.918
1535.361
1537.805
1540.248
1542.692
1545.135
1547.579
1550.022
1552.466
1554.909
1557.353
1559.796
1562.240
1564.683
1567.127
1569.570
1572.014
1574.457
1576.901
1579.344
1581.788
