104.229
104.229
104.229
104.229
104.229
104.229
104.229
104.229
104.229
104.229
104.229
104.229
104.229
104.229
104.229
104.229
104.229
104.229
104.229
104.229
104.229
104.229
104.229
104.229
104.229
104.229
104.229
104.229
104.229
104.229
104.229
104.229
104.229
104.229
104.229
104.229
104.229
104.229
104.229
104.229
104.229
104.229
104.229
104.229
104.229
104.229
104.229
104.229
104.229
104.229
104.229
104.229
104.229
104.229
104.229
104.229
104.229
104.229
104.229
104.229
104.229
104.229
104.229
104.229
104.229
104.229
104.229
104.229
104.229
104.229
104.229
104.229
104.229
104.229
104.229
104.229
104.229
104.229
104.229
104.229
104.229
104.229
104.229
104.229
104.229
104.229
104.229
104.229
104.229
104.229
104.229
104.229
104.229
104.229
104.229
104.229
104.229
104.229
104.229
104.229
104.229
104.229
104.229
104.229
104.229
104.229
104.229
104.229
104.229
104.229
104.229
104.229
104.229
104.229
104.229
104.229
104.229
104.229
104.229
104.229
104.229
104.229
104.229
104.229
104.229
104.229
104.229
104.229
104.229
104.229
104.229
104.229
104.229
104.229
104.229
104.229
104.229
104.229
104.229
104.229
104.229
104.229
104.229
104.229
104.229
104.229
104.229
104.229
104.229
104.229
104.229
104.229
104.229
104.229
104.229
104.229
104.229
104.229
104.229
104.229
104.229
104.229
104.229
104.229
104.229
104.229
104.229
104.229
104.229
104.229
104.229
104.229
104.229
104.229
104.229
104.229
104.229
104.229
104.229
104.229
104.229
104.229
104.229
104.229
104.229
104.229
104.229
104.229
104.229
104.229
104.229
104.229
104.229
104.229
104.229
104.229
104.229
104.229
104.229
104.229
104.229
104.229
104.229
104.229
104.229
104.229
104.229
104.229
104.229
104.229
104.229
104.229
104.229
104.229
104.229
104.229
104.229
104.229
104.229
104.229
104.229
104.229
104.229
104.229
104.229
104.229
104.229
104.229
104.229
104.229
104.229
104.229
104.229
104.229
104.229
104.229
104.229
104.229
104.229
104.229
104.229
104.229
104.229
104.229
104.229
104.229
104.229
104.229
104.229
104.229
104.229
104.229
104.229
104.229
104.229
104.229
104.229
104.229
104.229
104.229
104.229
104.229
104.229
104.229
104.229
104.229
104.229
104.229
104.229
104.229
104.229
104.229
104.229
104.229
104.229
104.229
104.229
104.229
104.229
104.229
104.229
104.229
104.229
104.229
104.229
104.229
104.229
104.229
104.229
104.229
104.229
104.229
104.229
104.229
104.229
104.229
104.229
104.229
104.229
104.229
104.229
104.229
104.229
104.229
104.229
104.229
104.229
104.229
104.229
104.229
104.229
104.229
104.229
104.229
104.229
104.229
104.229
104.229
104.229
104.229
104.229
104.229
104.229
104.229
104.229
104.229
104.229
104.229
104.229
104.229
104.229
104.229
104.229
104.229
104.229
104.229
104.229
104.229
104.229
104.229
104.229
104.229
104.229
104.229
104.229
104.229
104.229
104.229
104.229
104.229
104.229
104.229
104.229
104.229
104.229
104.229
104.229
104.229
104.229
104.229
104.229
104.229
104.229
104.229
104.229
104.229
104.229
104.229
104.229
104.229
104.229
104.229
104.229
104.229
104.229
104.229
104.229
104.229
104.229
104.229
104.229
104.229
104.229
104.229
104.229
104.229
104.229
104.229
104.229
104.229
104.229
104.229
104.229
104.229
104.229
104.229
104.229
104.229
104.229
104.229
104.229
104.229
104.229
104.229
104.229
104.229
104.229
104.229
104.229
104.229
104.229
104.229
104.229
104.229
104.229
104.229
104.229
104.229
104.229
104.229
104.229
104.229
104.229
104.229
104.229
104.229
104.229
104.229
104.229
104.229
104.229
104.229
104.229
104.229
104.229
104.229
104.229
104.229
104.229
104.229
104.229
104.229
104.229
104.229
104.204
104.180
104.155
104.131
104.106
104.082
104.057
104.033
104.008
103.984
103.959
103.935
103.910
103.886
103.861
103.837
103.812
103.788
103.763
103.739
103.714
103.690
103.665
103.641
103.616
103.592
103.567
103.543
103.518
103.494
103.469
103.445
103.420
103.396
103.371
103.347
103.322
103.298
103.273
103.249
103.224
103.200
103.175
103.151
103.126
103.102
103.077
103.053
103.028
103.004
102.979
102.955
102.930
102.906
102.881
102.857
102.832
102.808
102.783
102.759
102.734
102.710
102.685
102.661
102.636
102.612
102.587
102.563
102.538
102.514
102.489
102.465
102.440
102.416
102.391
102.367
102.342
102.318
102.293
102.269
102.244
102.220
102.195
102.171
102.146
102.122
102.097
102.073
102.048
102.024
101.999
101.975
101.950
101.926
101.901
101.877
101.852
101.828
101.803
101.779
101.754
101.730
101.705
101.681
101.656
101.632
101.607
101.583
101.558
101.534
101.509
101.485
101.460
101.436
101.411
101.387
101.362
101.338
101.313
101.289
101.264
101.240
101.215
101.191
101.166
101.142
101.117
101.093
101.068
101.044
101.019
100.995
100.970
100.946
100.921
100.897
100.872
100.848
100.823
100.799
100.774
100.750
100.725
100.701
100.676
100.652
100.627
100.603
100.578
100.554
100.529
100.505
100.480
100.456
100.431
100.407
100.382
100.358
100.333
100.309
100.284
100.260
100.235
100.211
100.186
100.162
100.137
100.113
100.088
100.064
100.039
100.015
99.990
99.966
99.941
99.917
99.892
99.868
99.843
99.819
99.794
99.770
99.745
99.721
99.696
99.672
99.647
99.623
99.598
99.574
99.549
99.525
99.500
99.476
99.451
99.427
99.402
99.378
99.353
99.329
99.402
99.475
99.548
99.621
99.694
99.767
99.840
99.913
99.986
100.059
100.132
100.205
100.278
100.351
100.424
100.497
100.570
100.643
100.716
100.789
100.862
100.935
101.008
101.081
101.154
101.227
101.300
101.373
101.446
101.519
101.592
101.665
101.738
101.811
101.884
101.957
102.030
102.103
102.176
102.249
102.322
102.395
102.468
102.541
102.614
102.687
102.760
102.833
102.906
102.979
103.052
103.125
103.198
103.271
103.344
103.417
103.490
103.563
103.636
103.709
103.782
103.855
103.928
104.001
104.074
104.147
104.220
104.293
104.366
104.439
104.512
104.585
104.658
104.731
104.804
104.877
104.950
105.023
105.096
105.169
105.242
105.315
105.388
105.461
105.534
105.607
105.680
105.753
105.826
105.899
105.972
106.045
106.118
106.191
106.264
106.337
106.410
106.483
106.556
106.629
106.702
106.775
106.848
106.921
106.994
107.067
107.140
107.213
107.286
107.359
107.432
107.505
107.578
107.651
107.724
107.797
107.870
107.943
108.016
108.089
108.162
108.235
108.308
108.381
108.454
108.527
108.600
108.673
108.746
108.819
108.892
108.965
109.038
109.111
109.184
109.257
109.330
109.403
109.476
109.549
109.622
109.695
109.768
109.841
109.914
109.987
110.060
110.133
110.206
110.279
110.352
110.425
110.498
110.571
110.644
110.717
110.790
110.863
110.936
111.009
111.082
111.155
111.228
111.301
111.374
111.447
111.520
111.593
111.666
111.739
111.812
111.885
111.958
112.031
112.104
112.177
112.250
112.323
112.396
112.469
112.542
112.615
112.688
112.761
112.834
112.907
112.980
113.053
113.126
113.199
113.272
113.345
113.418
113.491
113.564
113.637
113.710
113.783
113.856
113.929
113.880
113.832
113.783
113.735
113.686
113.638
113.589
113.541
113.492
113.444
113.395
113.347
113.298
113.250
113.201
113.153
113.104
113.056
113.007
112.959
112.910
112.862
112.813
112.765
112.716
112.668
112.619
112.571
112.522
112.474
112.425
112.377
112.328
112.280
112.231
112.183
112.134
112.086
112.037
111.989
111.940
111.892
111.843
111.795
111.746
111.698
111.649
111.601
111.552
111.504
111.455
111.407
111.358
111.310
111.261
111.213
111.164
111.116
111.067
111.019
110.970
110.922
110.873
110.825
110.776
110.728
110.679
110.631
110.582
110.534
110.485
110.437
110.388
110.340
110.291
110.243
110.194
110.146
110.097
110.049
110.000
109.952
109.903
109.855
109.806
109.758
109.709
109.661
109.612
109.564
109.515
109.467
109.418
109.370
109.321
109.273
109.224
109.176
109.127
109.079
109.030
108.982
108.933
108.885
108.836
108.788
108.739
108.691
108.642
108.594
108.545
108.497
108.448
108.400
108.351
108.303
108.254
108.206
108.157
108.109
108.060
108.012
107.963
107.915
107.866
107.818
107.769
107.721
107.672
107.624
107.575
107.527
107.478
107.430
107.381
107.333
107.284
107.236
107.187
107.139
107.090
107.042
106.993
106.945
106.896
106.848
106.799
106.751
106.702
106.654
106.605
106.557
106.508
106.460
106.411
106.363
106.314
106.266
106.217
106.169
106.120
106.072
106.023
105.975
105.926
105.878
105.829
105.781
105.732
105.684
105.635
105.587
105.538
105.490
105.441
105.393
105.344
105.296
105.247
105.199
105.150
105.102
105.053
105.005
104.956
104.908
104.859
104.811
104.762
104.714
104.665
104.617
104.568
104.520
104.471
104.423
104.374
104.326
104.277
104.229
104.229
104.229
104.229
104.229
104.229
104.229
104.229
104.229
104.229
104.229
104.229
104.229
104.229
104.229
104.229
104.229
104.229
104.229
104.229
104.229
104.229
104.229
104.229
104.229
104.229
104.229
104.229
104.229
104.229
104.229
104.229
104.229
104.229
104.229
104.229
104.229
104.229
104.229
104.229
104.229
104.229
104.229
104.229
104.229
104.229
104.229
104.229
104.229
104.229
104.229
104.229
104.229
104.229
104.229
104.229
104.229
104.229
104.229
104.229
104.229
104.229
104.229
104.229
104.229
104.229
104.229
104.229
104.229
104.229
104.229
104.229
104.229
104.229
104.229
104.229
104.229
104.229
104.229
104.229
104.229
104.229
104.229
104.229
104.229
104.229
104.229
104.229
104.229
104.229
104.229
104.229
104.229
104.229
104.229
104.229
104.229
104.229
104.229
104.229
104.229
104.229
104.229
104.229
104.229
104.229
104.229
104.229
104.229
104.229
104.229
104.229
104.229
104.229
104.229
104.229
104.229
104.229
104.229
104.229
104.229
104.229
104.229
104.229
104.229
104.229
104.229
104.229
104.229
104.229
104.229
104.229
104.229
104.229
104.229
104.229
104.229
104.229
104.229
104.229
104.229
104.229
104.229
104.229
104.229
104.229
104.229
104.229
104.229
104.229
104.229
104.229
104.229
104.229
104.229
104.229
104.229
104.229
104.229
104.229
104.229
104.229
104.229
104.229
104.229
104.229
104.229
104.229
104.229
104.229
104.229
104.229
104.229
104.229
104.229
104.229
104.229
104.229
104.229
104.229
104.229
104.229
104.229
104.229
104.229
104.229
104.229
104.229
104.229
104.229
104.229
104.229
104.229
104.229
104.229
104.229
104.229
104.229
104.229
104.229
104.229
104.229
104.229
104.229
104.229
104.229
104.229
104.229
104.229
104.229
104.229
104.229
104.229
104.229
104.229
104.229
104.229
104.229
104.229
104.229
104.229
104.229
104.229
104.229
104.229
104.229
104.229
104.229
104.229
104.229
104.229
104.229
104.229
104.229
104.229
104.229
104.229
104.229
104.229
104.229
104.229
104.229
104.229
104.229
104.229
104.229
104.229
104.229
104.229
104.229
104.229
104.229
104.229
104.229
104.229
104.229
104.229
104.229
104.229
104.229
104.229
104.229
104.229
104.229
104.229
104.229
104.229
104.229
104.229
104.229
104.229
104.229
104.229
104.229
104.229
104.229
104.229
104.229
104.229
104.229
104.229
104.229
104.229
104.229
104.229
104.229
104.229
104.229
104.229
104.229
104.229
104.229
104.229
104.229
104.229
104.229
104.229
104.229
104.229
104.229
104.229
104.229
104.229
104.229
104.229
104.229
104.229
104.229
104.229
104.229
104.229
104.229
104.229
104.229
104.229
104.229
104.229
104.229
104.229
104.229
104.229
104.229
104.229
104.229
104.229
104.229
104.229
104.229
104.229
104.229
104.229
104.229
104.229
104.229
104.229
104.229
104.229
104.229
104.229
104.229
104.229
104.229
104.229
104.229
104.229
104.229
104.229
104.229
104.229
104.229
104.229
104.229
104.229
104.229
104.229
104.229
104.229
104.229
104.229
104.229
104.229
104.229
104.229
104.229
104.229
104.229
104.229
104.229
104.229
104.229
104.229
104.229
104.229
104.229
104.229
104.229
104.229
104.229
104.229
104.229
104.229
104.229
104.229
104.229
104.229
104.229
104.229
104.229
104.229
104.229
104.229
104.229
104.229
104.229
104.229
104.229
104.229
104.229
104.229
104.229
104.229
104.229
104.229
104.229
104.229
104.229
104.229
104.229
104.229
104.229
104.229
104.229
104.229
104.229
104.229
104.229
104.229
104.229
104.229
104.229
104.229
104.229
104.229
104.229
104.229
104.229
104.229
104.229
104.229
104.229
104.229
104.229
104.229
104.229
104.229
104.229
104.229
104.229
104.229
104.229
104.229
104.229
104.229
104.229
104.229
104.229
104.229
104.229
104.229
104.229
104.229
104.229
104.229
104.229
104.229
104.229
104.229
104.229
104.229
104.229
104.229
104.229
104.229
104.229
104.229
104.229
104.229
104.229
104.229
104.229
104.229
104.229
104.229
104.229
104.229
104.229
104.229
104.229
104.229
104.229
104.229
104.229
104.229
104.229
104.229
104.229
104.229
104.229
104.229
104.229
104.229
104.229
104.229
104.229
104.229
104.229
104.229
104.229
104.229
104.229
104.229
104.229
104.229
104.229
104.229
104.229
104.229
104.229
104.229
104.229
104.229
104.229
104.229
104.229
104.229
104.229
104.229
104.229
104.229
104.229
104.229
104.229
104.229
104.229
104.229
104.229
104.229
104.229
104.229
104.229
104.229
104.229
104.229
104.229
104.229
104.229
104.229
104.229
104.229
104.229
104.229
104.229
104.229
104.229
104.229
104.229
104.229
104.229
104.229
104.229
104.229
104.229
104.229
104.229
104.229
104.229
104.229
104.229
104.229
104.229
104.229
104.229
104.229
104.229
104.229
104.229
104.229
104.229
104.229
104.229
104.229
104.229
104.229
104.229
104.229
104.229
104.229
104.229
104.229
104.229
104.229
104.229
104.229
104.229
104.229
104.229
104.229
104.229
104.229
104.229
104.229
104.229
104.229
104.229
104.229
104.229
104.229
104.229
104.229
104.229
294.829
297.517
300.205
302.893
305.581
308.269
310.957
313.645
316.333
319.021
321.709
324.397
327.085
329.773
332.461
335.149
337.837
340.525
343.213
345.901
348.589
351.277
353.965
356.653
359.341
362.029
364.717
367.405
370.093
372.781
375.469
378.157
380.845
383.533
386.221
388.909
391.597
394.285
396.973
399.661
402.349
405.037
407.725
410.413
413.101
415.789
418.477
421.165
423.853
426.541
429.229
431.917
434.605
437.293
439.981
442.669
445.357
448.045
450.733
453.421
456.109
458.797
461.485
464.173
466.861
469.549
472.237
474.925
477.613
480.301
482.989
485.677
488.365
491.053
493.741
496.429
499.117
501.805
504.493
507.181
509.869
512.557
515.245
517.933
520.621
523.309
525.997
528.685
531.373
534.061
536.749
539.437
542.125
544.813
547.501
550.189
552.877
555.565
558.253
560.941
563.629
566.317
569.005
571.693
574.381
577.069
579.757
582.445
585.133
587.821
590.509
593.197
595.885
598.573
601.261
603.949
606.637
609.325
612.013
614.701
617.389
620.077
622.765
625.453
628.141
630.829
633.517
636.205
638.893
641.581
644.269
646.957
649.645
652.333
655.021
657.709
660.397
663.085
665.773
668.461
671.149
673.837
676.525
679.213
681.901
684.589
687.277
689.965
692.653
695.341
698.029
700.717
703.405
706.093
708.781
711.469
714.157
716.845
719.533
722.221
724.909
727.597
730.285
732.973
735.661
738.349
741.037
743.725
746.413
749.101
751.789
754.477
757.165
759.853
762.541
765.229
767.917
770.605
773.293
775.981
778.669
781.357
784.045
786.733
789.421
792.109
794.797
797.485
800.173
802.861
805.549
808.237
810.925
813.613
816.301
818.989
821.677
824.365
827.053
829.741
832.429
834.995
837.561
840.127
842.693
845.259
847.825
850.391
852.957
855.523
858.089
860.655
863.221
865.787
868.353
870.919
873.485
876.051
878.617
881.183
883.749
886.315
888.881
891.447
894.013
896.579
899.145
901.711
904.277
906.843
909.409
911.975
914.541
917.107
919.673
922.239
924.805
927.371
929.937
932.503
935.069
937.635
940.201
942.767
945.333
947.899
950.465
953.031
955.597
958.163
960.729
963.295
965.861
968.427
970.993
973.559
976.125
978.691
981.257
983.823
986.389
988.955
991.521
994.087
996.653
999.219
1001.785
1004.351
1006.917
1009.483
1012.049
1014.615
1017.181
1019.747
1022.313
1024.879
1027.445
1030.011
1032.577
1035.143
1037.709
1040.275
1042.841
1045.407
1047.973
1050.539
1053.105
1055.671
1058.237
1060.803
1063.369
1065.935
1068.501
1071.067
1073.633
1076.199
1078.765
1081.331
1083.897
1086.463
1089.029
1091.595
1094.161
1096.727
1099.293
1101.859
1104.425
1106.991
1109.557
1112.123
1114.689
1117.255
1119.821
1122.387
1124.953
1127.519
1130.085
1132.651
1135.217
1137.783
1140.349
1142.915
1145.481
1148.047
1150.613
1153.179
1155.745
1158.311
1160.877
1163.443
1166.009
1168.575
1171.141
1173.707
1176.273
1178.839
1181.405
1183.971
1186.537
1189.103
1191.669
1194.235
1196.801
1199.367
1201.933
1204.499
1207.065
1209.631
1212.197
1214.763
1217.329
1219.895
1222.461
1225.027
1227.593
1230.159
1232.725
