111.909
111.909
111.909
111.909
111.909
111.909
111.909
111.909
111.909
111.909
111.909
111.909
111.909
111.909
111.909
111.909
111.909
111.909
111.909
111.909
111.909
111.909
111.909
111.909
111.909
111.909
111.909
111.909
111.909
111.909
111.909
111.909
111.909
111.909
111.909
111.909
111.909
111.909
111.909
111.909
111.909
111.909
111.909
111.909
111.909
111.909
111.909
111.909
111.909
111.909
111.909
111.909
111.909
111.909
111.909
111.909
111.909
111.909
111.909
111.909
111.909
111.909
111.909
111.909
111.909
111.909
111.909
111.909
111.909
111.909
111.909
111.909
111.909
111.909
111.909
111.909
111.909
111.909
111.909
111.909
111.909
111.909
111.909
111.909
111.909
111.909
111.909
111.909
111.909
111.909
111.909
111.909
111.909
111.909
111.909
111.909
111.909
111.909
111.909
111.909
111.909
111.909
111.909
111.909
111.909
111.909
111.909
111.909
111.909
111.909
111.909
111.909
111.909
111.909
111.909
111.909
111.909
111.909
111.909
111.909
111.909
111.909
111.909
111.909
111.909
111.909
111.909
111.909
111.909
111.909
111.909
111.909
111.909
111.909
111.909
111.909
111.909
111.909
111.909
111.909
111.909
111.909
111.909
111.909
111.909
111.909
111.909
111.909
111.909
111.909
111.909
111.909
111.909
111.909
111.909
111.909
111.909
111.909
111.909
111.909
111.909
111.909
111.909
111.909
111.909
111.909
111.909
111.909
111.909
111.909
111.909
111.909
111.909
111.909
111.909
111.909
111.909
111.909
111.909
111.909
111.909
111.909
111.909
111.909
111.909
111.909
111.909
111.909
111.909
111.909
111.909
111.909
111.909
111.909
111.909
111.909
111.909
111.909
111.909
111.909
111.909
111.909
111.909
111.909
111.909
111.909
111.909
111.909
111.909
111.909
111.909
111.909
111.909
111.909
111.909
111.909
111.909
111.909
111.909
111.909
111.909
111.909
111.909
111.909
111.909
111.909
111.909
111.909
111.909
111.909
111.909
111.909
111.909
111.909
111.909
111.909
111.909
111.909
111.909
111.909
111.909
111.909
111.909
111.909
111.909
111.909
111.909
111.909
111.909
111.909
111.909
111.909
111.909
111.909
111.909
111.909
111.909
111.909
111.909
111.909
111.909
111.909
111.909
111.909
111.909
111.909
111.909
111.909
111.909
111.909
111.909
111.909
111.909
111.909
111.909
111.909
111.909
111.909
111.909
111.909
111.909
111.909
111.909
111.909
111.909
111.909
111.909
111.909
111.909
111.909
111.909
111.909
111.909
111.909
111.909
111.909
111.909
111.909
111.909
111.909
111.909
111.909
111.909
111.909
111.909
111.909
111.909
111.909
111.909
111.909
111.909
111.909
111.909
111.909
111.909
111.909
111.909
111.909
111.909
111.909
111.909
111.909
111.909
111.909
111.909
111.909
111.909
111.909
111.909
111.909
111.909
111.909
111.909
111.909
111.909
111.909
111.909
111.909
111.909
111.909
111.909
111.909
111.909
840.109
842.675
845.241
847.807
850.373
852.939
855.505
858.071
860.637
863.203
865.769
868.335
870.901
873.467
876.033
878.599
881.165
883.731
886.297
888.863
891.429
893.995
896.561
899.127
901.693
904.259
906.825
909.391
911.957
914.523
917.089
919.655
922.221
924.787
927.353
929.919
932.485
935.051
937.617
940.183
942.749
945.315
947.881
950.447
953.013
955.579
958.145
960.711
963.277
965.843
968.409
970.975
973.541
976.107
978.673
981.239
983.805
986.371
988.937
991.503
994.069
996.635
999.201
1001.767
1004.333
1006.899
1009.465
1012.031
1014.597
1017.163
1019.729
1022.295
1024.861
1027.427
1029.993
1032.559
1035.125
1037.691
1040.257
1042.823
1045.389
1047.955
1050.521
1053.087
1055.653
1058.219
1060.785
1063.351
1065.917
1068.483
1071.049
1073.615
1076.181
1078.747
1081.313
1083.879
1086.445
1089.011
1091.577
1094.143
1096.709
1099.275
1101.841
1104.407
1106.973
1109.539
1112.105
1114.671
1117.237
1119.803
1122.369
1124.935
1127.501
1130.067
1132.633
1135.199
1137.765
1140.331
1142.897
1145.463
1148.029
1150.595
1153.161
1155.727
1158.293
1160.859
1163.425
1165.991
1168.557
1171.123
1173.689
1176.255
1178.821
1181.387
1183.953
1186.519
1189.085
1191.651
1194.217
1196.783
1199.349
1201.915
1204.481
1207.047
1209.613
1212.179
1214.745
1217.311
1219.877
1222.443
1225.009
1227.575
1230.141
1232.707
1235.273
1237.839
1240.405
1242.971
1245.537
1248.103
1250.669
1253.235
1255.801
1258.367
1260.933
1263.499
1266.065
1268.631
1271.197
1273.763
1276.329
1278.895
1281.461
1284.027
1286.593
1289.159
1291.725
1294.291
1296.857
1299.423
1301.989
1304.555
1307.121
1309.687
1312.253
1314.819
1317.385
1319.951
1322.517
1325.083
1327.649
1330.215
1332.781
1335.347
1337.913
1340.479
1343.045
1345.611
1348.177
1350.743
1353.309
1355.728
1358.148
1360.567
1362.987
1365.406
1367.826
1370.245
1372.665
1375.084
1377.504
1379.923
1382.343
1384.762
1387.182
1389.601
1392.021
1394.440
1396.860
1399.279
1401.699
1404.118
1406.538
1408.957
1411.377
1413.796
1416.216
1418.635
1421.055
1423.474
1425.894
1428.313
1430.733
1433.152
1435.572
1437.991
1440.411
1442.830
1445.250
1447.669
1450.089
1452.508
1454.928
1457.347
1459.767
1462.186
1464.606
1467.025
1469.445
1471.864
1474.284
1476.703
1479.123
1481.542
1483.962
1486.381
1488.801
1491.220
1493.640
1496.059
1498.479
1500.898
1503.318
1505.737
1508.157
1510.576
1512.996
1515.415
1517.835
1520.254
1522.674
1525.093
1527.513
1529.932
1532.352
1534.771
1537.191
1539.610
1542.030
1544.449
1546.869
1549.288
1551.708
1554.127
1556.547
1558.966
1561.386
1563.805
1566.225
1568.644
1571.064
1573.483
1575.903
1578.322
1580.742
1583.161
1585.581
1588.000
1590.420
1592.839
1595.259
1597.678
1600.098
1602.517
1604.937
1607.356
1609.776
1612.195
1614.615
1617.034
1619.454
1621.873
1624.293
1626.712
1629.132
1631.551
1633.971
1636.390
1638.810
1641.229
1643.649
1646.068
1648.488
1650.907
1653.327
1655.746
1658.166
1660.585
1663.005
1665.424
1667.844
1670.263
1672.683
1675.102
1677.522
1679.941
1682.361
1684.780
1687.200
1689.619
1692.039
1694.458
1696.878
1699.297
1701.717
1704.136
1706.556
1708.975
1711.395
1713.814
1716.234
1718.653
1721.073
1723.492
1725.912
1728.331
1730.751
1733.170
1735.590
1738.009
1740.429
1742.848
1745.268
1747.687
1750.107
1752.526
1754.946
1757.365
1759.785
1762.204
1764.624
1767.043
1769.463
1771.882
1774.302
1776.721
1779.141
1781.560
1783.980
1786.399
1788.819
1791.238
1793.658
1796.077
1798.497
1800.916
1803.336
1805.755
1808.175
1810.594
1813.014
1815.433
1817.853
1820.272
1822.692
1825.111
1827.531
1829.950
1832.370
1834.789
1837.209
1838.015
1838.822
1839.628
1840.435
1841.241
1842.048
1842.854
1843.661
1844.467
1845.274
1846.080
1846.887
1847.693
1848.500
1849.306
1850.113
1850.919
1851.726
1852.532
1853.339
1854.145
1854.952
1855.758
1856.565
1857.371
1858.178
1858.984
1859.791
1860.597
1861.404
1862.210
1863.017
1863.823
1864.630
1865.436
1866.243
1867.049
1867.856
1868.662
1869.469
1870.275
1871.082
1871.888
1872.695
1873.501
1874.308
1875.114
1875.921
1876.727
1877.534
1878.340
1879.147
1879.953
1880.760
1881.566
1882.373
1883.179
1883.986
1884.792
1885.599
1886.405
1887.212
1888.018
1888.825
1889.631
1890.438
1891.244
1892.051
1892.857
1893.664
1894.470
1895.277
1896.083
1896.890
1897.696
1898.503
1899.309
1900.116
1900.922
1901.729
1902.535
1903.342
1904.148
1904.955
1905.761
1906.568
1907.374
1908.181
1908.987
1909.794
1910.600
1911.407
1912.213
1913.020
1913.826
1914.633
1915.439
1916.246
1917.052
1917.859
1918.665
1919.472
1920.278
1921.085
1921.891
1922.698
1923.504
1924.311
1925.117
1925.924
1926.730
1927.537
1928.343
1929.150
1929.956
1930.763
1931.569
1932.376
1933.182
1933.989
1934.795
1935.602
1936.408
1937.215
1938.021
1938.828
1939.634
1940.441
1941.247
1942.054
1942.860
1943.667
1944.473
1945.280
1946.086
1946.893
1947.699
1948.506
1949.312
1950.119
1950.925
1951.732
1952.538
1953.345
1954.151
1954.958
1955.764
1956.571
1957.377
1958.184
1958.990
1959.797
1960.603
1961.410
1962.216
1963.023
1963.829
1964.636
1965.442
1966.249
1967.055
1967.862
1968.668
1969.475
1970.281
1971.088
1971.894
1972.701
1973.507
1974.314
1975.120
1975.927
1976.733
1977.540
1978.346
1979.153
1979.959
1980.766
1981.572
1982.379
1983.185
1983.992
1984.798
1985.605
1986.411
1987.218
1988.024
1988.831
1989.637
1990.444
1991.250
1992.057
1992.863
1993.670
1994.476
1995.283
1996.089
1996.896
1997.702
1998.509
1999.584
2000.659
2001.734
2002.809
2003.884
2004.959
2006.034
2007.109
2008.184
2009.259
2010.334
2011.409
2012.484
2013.559
2014.634
2015.709
2016.784
2017.859
2018.934
2020.009
2021.084
2022.159
2023.234
2024.309
2025.384
2026.459
2027.534
2028.609
2029.684
2030.759
2031.834
2032.909
2033.984
2035.059
2036.134
2037.209
2038.284
2039.359
2040.434
2041.509
2042.584
2043.659
2044.734
2045.809
2046.884
2047.959
2049.034
2050.109
2051.184
2052.259
2053.334
2054.409
2055.484
2056.559
2057.634
2058.709
2059.784
2060.859
2061.934
2063.009
2064.084
2065.159
2066.234
2067.309
2068.384
2069.459
2070.534
2071.609
2072.684
2073.759
2074.834
2075.909
2076.984
2078.059
2079.134
2080.209
2081.284
2082.359
2083.434
2084.509
2085.584
2086.659
2087.734
2088.809
2089.884
2090.959
2092.034
2093.109
2094.184
2095.259
2096.334
2097.409
2098.484
2099.559
2100.634
2101.709
2102.784
2103.859
2104.934
2106.009
2107.084
2108.159
2109.234
2110.309
2111.384
2112.459
2113.534
2114.609
2115.684
2116.759
2117.834
2118.909
2119.984
2121.059
2122.134
2123.209
2124.284
2125.359
2126.434
2127.509
2128.584
2129.659
2130.734
2131.809
2132.884
2133.959
2135.034
2136.109
2137.184
2138.259
2139.334
2140.409
2141.484
2142.559
2143.634
2144.709
2145.784
2146.859
2147.934
2149.009
2150.084
2151.159
2152.234
2153.309
2154.384
2155.459
2156.534
2157.609
2158.684
2159.759
2160.834
2161.909
2162.984
2164.059
2165.134
2166.209
2167.284
2168.359
2169.434
2170.509
2171.584
2172.659
2173.734
2174.809
2175.884
2176.959
2178.034
2179.109
2180.184
2181.259
2182.334
2183.409
2184.484
2185.559
2186.634
2187.709
2188.784
2189.859
2190.934
2192.009
2193.084
2194.159
2195.234
2196.309
2197.384
2198.459
2199.534
2200.609
2201.684
2202.759
2203.834
2204.909
2205.984
2207.059
2208.134
2209.209
2210.284
2211.359
2212.434
2213.509
2213.118
2212.727
2212.336
2211.945
2211.554
2211.163
2210.772
2210.381
2209.990
2209.599
2209.208
2208.817
2208.426
2208.035
2207.644
2207.253
2206.862
2206.471
2206.080
2205.689
2205.298
2204.907
2204.516
2204.125
2203.734
2203.343
2202.952
2202.561
2202.170
2201.779
2201.388
2200.997
2200.606
2200.215
2199.824
2199.433
2199.042
2198.651
2198.260
2197.869
2197.478
2197.087
2196.696
2196.305
2195.914
2195.523
2195.132
2194.741
2194.350
2193.959
2193.568
2193.177
2192.786
2192.395
2192.004
2191.613
2191.222
2190.831
2190.440
2190.049
2189.658
2189.267
2188.876
2188.485
2188.094
2187.703
2187.312
2186.921
2186.530
2186.139
2185.748
2185.357
2184.966
2184.575
2184.184
2183.793
2183.402
2183.011
2182.620
2182.229
2181.838
2181.447
2181.056
2180.665
2180.274
2179.883
2179.492
2179.101
2178.710
2178.319
2177.928
2177.537
2177.146
2176.755
2176.364
2175.973
2175.582
2175.191
2174.800
2174.409
2174.018
2173.627
2173.236
2172.845
2172.454
2172.063
2171.672
2171.281
2170.890
2170.499
2170.108
2169.717
2169.326
2168.935
2168.544
2168.153
2167.762
2167.371
2166.980
2166.589
2166.198
2165.807
2165.416
2165.025
2164.634
2164.243
2163.852
2163.461
2163.070
2162.679
2162.288
2161.897
2161.506
2161.115
2160.724
2160.333
2159.942
2159.551
2159.160
2158.769
2158.378
2157.987
2157.596
2157.205
2156.814
2156.423
2156.032
2155.641
2155.250
2154.859
2154.468
2154.077
2153.686
2153.295
2152.904
2152.513
2152.122
2151.731
2151.340
2150.949
2150.558
2150.167
2149.776
2149.385
2148.994
2148.603
2148.212
2147.821
2147.430
2147.039
2146.648
2146.257
2145.866
2145.475
2145.084
2144.693
2144.302
2143.911
2143.520
2143.129
2142.738
2142.347
2141.956
2141.565
2141.174
2140.783
2140.392
2140.001
2139.610
2139.219
2138.828
2138.437
2138.046
2137.655
2137.264
2136.873
2136.482
2136.091
2135.700
2135.309
2134.576
2133.843
2133.110
2132.377
2131.644
2130.911
2130.178
2129.445
2128.712
2127.979
2127.246
2126.513
2125.780
2125.047
2124.314
2123.581
2122.848
2122.115
2121.382
2120.649
2119.916
2119.183
2118.450
2117.717
2116.984
2116.251
2115.518
2114.785
2114.052
2113.319
2112.586
2111.853
2111.120
2110.387
2109.654
2108.921
2108.188
2107.455
2106.722
2105.989
2105.256
2104.523
2103.790
2103.057
2102.324
2101.591
2100.858
2100.125
2099.392
2098.659
2097.926
2097.193
2096.460
2095.727
2094.994
2094.261
2093.528
2092.795
2092.062
2091.329
2090.596
2089.863
2089.130
2088.397
2087.664
2086.931
2086.198
2085.465
2084.732
2083.999
2083.266
2082.533
2081.800
2081.067
2080.334
2079.601
2078.868
2078.135
2077.402
2076.669
2075.936
2075.203
2074.470
2073.737
2073.004
2072.271
2071.538
2070.805
2070.072
2069.339
2068.606
2067.873
2067.140
2066.407
2065.674
2064.941
2064.208
2063.475
2062.742
2062.009
2061.276
2060.543
2059.810
2059.077
2058.344
2057.611
2056.878
2056.145
2055.412
2054.679
2053.946
2053.213
2052.480
2051.747
2051.014
2050.281
2049.548
2048.815
2048.082
2047.349
2046.616
2045.883
2045.150
2044.417
2043.684
2042.951
2042.218
2041.485
2040.752
2040.019
2039.286
2038.553
2037.820
2037.087
2036.354
2035.621
2034.888
2034.155
2033.422
2032.689
2031.956
2031.223
2030.490
2029.757
2029.024
2028.291
2027.558
2026.825
2026.092
2025.359
2024.626
2023.893
2023.160
2022.427
2021.694
2020.961
2020.228
2019.495
2018.762
2018.029
2017.296
2016.563
2015.830
2015.097
2014.364
2013.631
2012.898
2012.165
2011.432
2010.699
2009.966
2009.233
2008.500
2007.767
2007.034
2006.301
2005.568
2004.835
2004.102
2003.369
2002.636
2001.903
2001.170
2000.437
1999.704
1998.971
1998.238
1997.505
1996.772
1996.039
1995.306
1994.573
1993.840
1993.107
1992.374
1991.641
1990.908
1990.175
1989.442
1988.709
1986.803
1984.897
1982.991
1981.085
1979.179
1977.273
1975.367
1973.461
1971.555
1969.649
1967.743
1965.837
1963.931
1962.025
1960.119
1958.213
1956.307
1954.401
1952.495
1950.589
1948.683
1946.777
1944.871
1942.965
1941.059
1939.153
1937.247
1935.341
1933.435
1931.529
1929.623
1927.717
1925.811
1923.905
1921.999
1920.093
1918.187
1916.281
1914.375
1912.469
1910.563
1908.657
1906.751
1904.845
1902.939
1901.033
1899.127
1897.221
1895.315
1893.409
1891.503
1889.597
1887.691
1885.785
1883.879
1881.973
1880.067
1878.161
1876.255
1874.349
1872.443
1870.537
1868.631
1866.725
1864.819
1862.913
1861.007
1859.101
1857.195
1855.289
1853.383
1851.477
1849.571
1847.665
1845.759
1843.853
1841.947
1840.041
1838.135
1836.229
1834.323
1832.417
1830.511
1828.605
1826.699
1824.793
1822.887
1820.981
1819.075
1817.169
1815.263
1813.357
1811.451
1809.545
1807.639
1805.733
1803.827
1801.921
1800.015
1798.109
1796.203
1794.297
1792.391
1790.485
1788.579
1786.673
1784.767
1782.861
1780.955
1779.049
1777.143
1775.237
1773.331
1771.425
1769.519
1767.613
1765.707
1763.801
1761.895
1759.989
1758.083
1756.177
1754.271
1752.365
1750.459
1748.553
1746.647
1744.741
1742.835
1740.929
1739.023
1737.117
1735.211
1733.305
1731.399
1729.493
1727.587
1725.681
1723.775
1721.869
1719.963
1718.057
1716.151
1714.245
1712.339
1710.433
1708.527
1706.621
1704.715
1702.809
1700.903
1698.997
1697.091
1695.185
1693.279
1691.373
1689.467
1687.561
1685.655
1683.749
1681.843
1679.937
1678.031
1676.125
1674.219
1672.313
1670.407
1668.501
1666.595
1664.689
1662.783
1660.877
1658.971
1657.065
1655.159
1653.253
1651.347
1649.441
1647.535
1645.629
1643.723
1641.817
1639.911
1638.005
1636.099
1634.193
1632.287
1630.381
1628.475
1626.569
1624.663
1622.757
1620.851
1618.945
1617.039
1615.133
1613.227
1611.321
1609.415
1607.509
1607.289
1607.069
1606.849
1606.629
1606.409
1606.189
1605.969
1605.749
1605.529
1605.309
1605.089
1604.869
1604.649
1604.429
1604.209
1603.989
1603.769
1603.549
1603.329
1603.109
1602.889
1602.669
1602.449
1602.229
1602.009
1601.789
1601.569
1601.349
1601.129
1600.909
1600.689
1600.469
1600.249
1600.029
1599.809
1599.589
1599.369
1599.149
1598.929
1598.709
1598.489
1598.269
1598.049
1597.829
1597.609
1597.389
1597.169
1596.949
1596.729
1596.509
1596.289
1596.069
1595.849
1595.629
1595.409
1595.189
1594.969
1594.749
1594.529
1594.309
1594.089
1593.869
1593.649
1593.429
1593.209
1592.989
1592.769
1592.549
1592.329
1592.109
1591.889
1591.669
1591.449
1591.229
1591.009
1590.789
1590.569
1590.349
1590.129
1589.909
1589.689
1589.469
1589.249
1589.029
1588.809
1588.589
1588.369
1588.149
1587.929
1587.709
1587.489
1587.269
1587.049
1586.829
1586.609
1586.389
1586.169
1585.949
1585.729
1585.509
1585.289
1585.069
1584.849
1584.629
1584.409
1584.189
1583.969
1583.749
1583.529
1583.309
1583.089
1582.869
1582.649
1582.429
1582.209
1581.989
1581.769
1581.549
1581.329
1581.109
1580.889
1580.669
1580.449
1580.229
1580.009
1579.789
1579.569
1579.349
1579.129
1578.909
1578.689
1578.469
1578.249
1578.029
1577.809
1577.589
1577.369
1577.149
1576.929
1576.709
1576.489
1576.269
1576.049
1575.829
1575.609
1575.389
1575.169
1574.949
1574.729
1574.509
1574.289
1574.069
1573.849
1573.629
1573.409
1573.189
1572.969
1572.749
1572.529
1572.309
1572.089
1571.869
1571.649
1571.429
1571.209
1570.989
1570.769
1570.549
1570.329
1570.109
1569.889
1569.669
1569.449
1569.229
1569.009
1568.789
1568.569
1568.349
1568.129
1567.909
1567.689
1567.469
1567.249
1567.029
1566.809
1566.589
1566.369
1566.149
1565.929
1565.709
1565.489
1565.269
1565.049
1564.829
1564.609
1564.389
1564.169
1563.949
1563.729
1563.509
1566.783
1570.058
1573.332
1576.607
1579.881
1583.156
1586.430
1589.705
1592.979
1596.254
1599.528
1602.803
1606.077
1609.352
1612.626
1615.901
1619.175
1622.450
1625.724
1628.999
1632.273
1635.548
1638.822
1642.097
1645.371
1648.646
1651.920
1655.195
1658.469
1661.744
1665.018
1668.293
1671.567
1674.842
1678.116
1681.391
1684.665
1687.940
1691.214
1694.489
1697.763
1701.038
1704.312
1707.587
1710.861
1714.136
1717.410
1720.685
1723.959
1727.234
1730.508
1733.783
1737.057
1740.332
1743.606
1746.881
