90.213
90.213
90.213
90.213
90.213
90.213
90.213
90.213
90.213
90.213
90.213
90.213
90.213
90.213
90.213
90.213
90.213
90.213
90.213
90.213
90.213
90.213
90.213
90.213
90.213
90.213
90.213
90.213
90.213
90.213
90.213
90.213
90.213
90.213
90.213
90.213
90.213
90.213
90.213
90.213
90.213
90.213
90.213
90.213
90.213
90.213
90.213
90.213
90.213
90.213
90.213
90.213
90.213
90.213
90.213
90.213
90.213
90.213
90.213
90.213
90.213
90.213
90.213
90.213
90.213
90.213
90.213
90.213
90.213
90.213
90.213
90.213
90.213
90.213
90.213
90.213
90.213
90.213
90.213
90.213
90.213
90.213
90.213
90.213
90.213
90.213
90.213
90.213
90.213
90.213
90.213
90.213
90.213
90.213
90.213
90.213
90.213
90.213
90.213
90.213
90.213
90.213
90.213
90.213
90.213
90.213
90.213
90.213
90.213
90.213
90.213
90.213
90.213
90.213
90.213
90.213
90.213
90.213
90.213
90.213
90.213
90.213
90.213
90.213
90.213
90.213
90.213
90.213
90.213
90.213
90.213
90.213
90.213
90.213
90.213
90.213
90.213
90.213
90.213
90.213
90.213
90.213
90.213
90.213
90.213
90.213
90.213
90.213
90.213
90.213
90.213
90.213
90.213
90.213
90.213
90.213
90.213
90.213
90.213
90.213
90.213
90.213
90.213
90.213
90.213
90.213
90.213
90.213
90.213
90.213
90.213
90.213
90.213
90.213
90.213
90.213
90.213
90.213
90.213
90.213
90.213
90.213
90.213
90.213
90.213
90.213
90.213
90.213
90.213
90.213
90.213
90.213
90.213
90.213
90.213
90.213
90.213
90.213
90.213
90.213
90.213
90.213
90.213
90.213
90.213
90.213
90.213
90.213
90.213
90.213
90.213
90.213
90.213
90.213
90.213
90.213
90.213
90.213
90.213
90.213
90.213
90.213
90.213
90.213
90.213
90.213
90.213
90.213
90.213
90.213
90.213
90.213
90.213
90.213
90.213
90.213
90.213
90.213
90.213
90.213
90.213
90.213
90.213
90.213
90.213
90.213
90.213
90.213
90.213
90.213
90.213
90.213
90.213
90.213
90.213
90.213
90.213
90.213
90.213
90.213
90.213
90.213
90.213
90.213
90.213
90.213
90.213
90.213
90.213
90.213
90.213
90.213
90.213
90.213
90.213
90.213
90.213
90.213
90.213
90.213
90.213
90.213
90.213
90.213
90.213
90.213
90.213
90.213
90.213
90.213
90.213
90.213
90.213
90.213
90.213
90.213
90.213
90.213
90.213
90.213
90.213
90.213
90.213
90.213
90.213
90.213
90.213
90.213
90.213
90.213
90.213
90.213
90.213
90.213
90.213
90.213
90.213
90.213
90.213
90.213
90.213
90.213
90.213
90.213
90.213
90.213
90.213
90.213
90.213
90.213
90.213
90.213
90.213
90.213
90.213
90.213
90.213
90.213
90.213
90.213
90.213
90.213
90.213
90.213
90.213
90.213
90.213
90.213
90.213
90.213
90.213
90.213
90.213
90.213
90.213
90.213
90.213
90.213
90.213
90.213
90.213
90.213
90.213
90.213
90.213
90.213
90.213
90.213
90.213
90.213
90.213
90.213
90.213
90.213
90.213
90.213
90.213
90.213
90.213
90.213
90.213
90.213
90.213
90.213
90.213
90.213
90.213
90.213
90.213
90.213
90.213
90.213
90.213
90.213
90.213
90.213
90.213
90.213
90.213
90.213
90.213
90.213
90.213
90.213
90.213
90.213
90.213
90.213
90.213
90.213
90.213
90.213
90.213
90.213
90.213
90.213
90.213
90.213
90.213
90.213
90.213
90.213
90.213
90.213
90.213
90.213
90.213
90.213
90.213
90.213
90.213
90.213
90.213
90.213
90.213
90.213
90.213
90.213
90.213
90.213
90.213
90.213
90.213
90.213
90.213
90.213
90.213
90.213
90.213
90.213
90.213
90.213
90.213
90.213
90.213
90.213
90.213
90.213
90.213
90.213
90.213
90.213
90.213
90.213
90.213
90.213
90.213
90.213
90.213
90.213
90.213
90.213
90.213
90.213
90.213
90.213
90.213
90.213
90.213
90.213
90.213
90.213
90.213
90.213
90.213
90.213
90.213
90.213
90.213
90.213
90.213
90.213
90.213
90.213
90.213
90.213
90.213
90.213
90.213
90.213
90.213
90.213
90.213
90.213
90.213
90.213
90.213
90.213
90.213
90.213
90.213
90.213
90.213
90.213
90.213
90.213
90.213
90.213
90.213
90.213
90.213
90.213
90.213
90.213
90.213
90.213
90.213
90.213
90.213
90.213
90.213
90.213
90.213
90.213
90.213
90.213
90.213
90.213
90.213
90.213
90.213
90.213
90.213
90.213
90.213
90.213
90.213
90.213
90.213
90.213
90.213
90.213
90.213
90.213
90.213
90.213
90.213
90.213
90.213
90.213
90.213
90.213
90.213
90.213
90.213
90.213
90.213
90.213
90.213
90.213
90.213
90.213
90.213
90.213
90.213
90.213
90.213
90.213
90.213
90.213
90.213
90.213
90.213
90.213
90.213
90.213
90.213
90.213
90.213
90.213
90.213
90.213
90.213
90.213
90.213
90.213
90.213
90.213
90.213
90.213
90.213
90.213
90.213
90.213
90.213
90.213
90.213
90.213
90.213
90.213
90.213
90.213
90.213
90.213
90.213
90.213
90.213
90.213
90.213
90.213
90.213
90.213
90.213
90.213
90.213
90.213
90.213
90.213
90.213
90.213
90.213
90.213
90.213
90.213
90.213
90.213
90.213
90.213
90.213
90.213
90.213
90.213
90.213
90.213
90.213
90.213
90.213
90.213
90.213
90.213
90.213
90.213
90.213
90.213
90.213
90.213
90.213
90.213
90.213
90.213
90.213
90.213
90.213
90.213
90.213
90.213
90.213
90.213
90.213
90.213
90.213
90.213
90.213
90.213
90.213
90.213
90.213
90.213
90.213
90.213
90.213
90.213
90.213
90.213
90.213
90.213
90.213
90.213
90.213
90.213
90.213
90.213
90.213
90.213
90.213
90.213
90.213
90.213
90.213
90.213
90.213
90.213
90.213
90.213
90.213
90.213
90.213
90.213
90.213
90.213
90.213
90.213
90.213
90.213
90.213
90.213
90.213
90.213
90.213
90.213
90.213
90.213
90.213
90.213
90.213
90.213
90.213
90.213
90.213
90.213
90.213
90.213
90.213
90.213
90.213
90.213
90.213
90.213
90.213
90.213
90.213
90.213
90.213
90.213
90.213
90.213
90.213
90.213
90.213
90.213
90.213
90.213
90.213
90.213
90.213
90.213
90.213
90.213
90.213
90.213
90.213
90.213
90.213
90.213
90.213
90.213
90.213
90.213
90.213
90.213
90.213
90.213
90.213
90.213
90.213
90.213
90.213
90.213
90.213
90.213
90.188
90.164
90.139
90.115
90.090
90.066
90.041
90.017
89.992
89.968
89.943
89.919
89.894
89.870
89.845
89.821
89.796
89.772
89.747
89.723
89.698
89.674
89.649
89.625
89.600
89.576
89.551
89.527
89.502
89.478
89.453
89.429
89.404
89.380
89.355
89.331
89.306
89.282
89.257
89.233
89.208
89.184
89.159
89.135
89.110
89.086
89.061
89.037
89.012
88.988
88.963
88.939
88.914
88.890
88.865
88.841
88.816
88.792
88.767
88.743
88.718
88.694
88.669
88.645
88.620
88.596
88.571
88.547
88.522
88.498
88.473
88.449
88.424
88.400
88.375
88.351
88.326
88.302
88.277
88.253
88.228
88.204
88.179
88.155
88.130
88.106
88.081
88.057
88.032
88.008
87.983
87.959
87.934
87.910
87.885
87.861
87.836
87.812
87.787
87.763
87.738
87.714
87.689
87.665
87.640
87.616
87.591
87.567
87.542
87.518
87.493
87.469
87.444
87.420
87.395
87.371
87.346
87.322
87.297
87.273
87.248
87.224
87.199
87.175
87.150
87.126
87.101
87.077
87.052
87.028
87.003
86.979
86.954
86.930
86.905
86.881
86.856
86.832
86.807
86.783
86.758
86.734
86.709
86.685
86.660
86.636
86.611
86.587
86.562
86.538
86.513
86.489
86.464
86.440
86.415
86.391
86.366
86.342
86.317
86.293
86.268
86.244
86.219
86.195
86.170
86.146
86.121
86.097
86.072
86.048
86.023
85.999
85.974
85.950
85.925
85.901
85.876
85.852
85.827
85.803
85.778
85.754
85.729
85.705
85.680
85.656
85.631
85.607
85.582
85.558
85.533
85.509
85.484
85.460
85.435
85.411
85.386
85.362
85.337
85.313
85.386
85.459
85.532
85.605
85.678
85.751
85.824
85.897
85.970
86.043
86.116
86.189
86.262
86.335
86.408
86.481
86.554
86.627
86.700
86.773
86.846
86.919
86.992
87.065
87.138
87.211
87.284
87.357
87.430
87.503
87.576
87.649
87.722
87.795
87.868
87.941
88.014
88.087
88.160
88.233
88.306
88.379
88.452
88.525
88.598
88.671
88.744
88.817
88.890
88.963
89.036
89.109
89.182
89.255
89.328
89.401
89.474
89.547
89.620
89.693
89.766
89.839
89.912
89.985
90.058
90.131
90.204
90.277
90.350
90.423
90.496
90.569
90.642
90.715
90.788
90.861
90.934
91.007
91.080
91.153
91.226
91.299
91.372
91.445
91.518
91.591
91.664
91.737
91.810
91.883
91.956
92.029
92.102
92.175
92.248
92.321
92.394
92.467
92.540
92.613
92.686
92.759
92.832
92.905
92.978
93.051
93.124
93.197
93.270
93.343
93.416
93.489
93.562
93.635
93.708
93.781
93.854
93.927
94.000
94.073
94.146
94.219
94.292
94.365
94.438
94.511
94.584
94.657
94.730
94.803
94.876
94.949
95.022
95.095
95.168
95.241
95.314
95.387
95.460
95.533
95.606
95.679
95.752
95.825
95.898
95.971
96.044
96.117
96.190
96.263
96.336
96.409
96.482
96.555
96.628
96.701
96.774
96.847
96.920
96.993
97.066
97.139
97.212
97.285
97.358
97.431
97.504
97.577
97.650
97.723
97.796
97.869
97.942
98.015
98.088
98.161
98.234
98.307
98.380
98.453
98.526
98.599
98.672
98.745
98.818
98.891
98.964
99.037
99.110
99.183
99.256
99.329
99.402
99.475
99.548
99.621
99.694
99.767
99.840
99.913
99.864
99.816
99.767
99.719
99.670
99.622
99.573
99.525
99.476
99.428
99.379
99.331
99.282
99.234
99.185
99.137
99.088
99.040
98.991
98.943
98.894
98.846
98.797
98.749
98.700
98.652
98.603
98.555
98.506
98.458
98.409
98.361
98.312
98.264
98.215
98.167
98.118
98.070
98.021
97.973
97.924
97.876
97.827
97.779
97.730
97.682
97.633
97.585
97.536
97.488
97.439
97.391
97.342
97.294
97.245
97.197
97.148
97.100
97.051
97.003
96.954
96.906
96.857
96.809
96.760
96.712
96.663
96.615
96.566
96.518
96.469
96.421
96.372
96.324
96.275
96.227
96.178
96.130
96.081
96.033
95.984
95.936
95.887
95.839
95.790
95.742
95.693
95.645
95.596
95.548
95.499
95.451
95.402
95.354
95.305
95.257
95.208
95.160
95.111
95.063
95.014
94.966
94.917
94.869
94.820
94.772
94.723
94.675
94.626
94.578
94.529
94.481
94.432
94.384
94.335
94.287
94.238
94.190
94.141
94.093
94.044
93.996
93.947
93.899
93.850
93.802
93.753
93.705
93.656
93.608
93.559
93.511
93.462
93.414
93.365
93.317
93.268
93.220
93.171
93.123
93.074
93.026
92.977
92.929
92.880
92.832
92.783
92.735
92.686
92.638
92.589
92.541
92.492
92.444
92.395
92.347
92.298
92.250
92.201
92.153
92.104
92.056
92.007
91.959
91.910
91.862
91.813
91.765
91.716
91.668
91.619
91.571
91.522
91.474
91.425
91.377
91.328
91.280
91.231
91.183
91.134
91.086
91.037
90.989
90.940
90.892
90.843
90.795
90.746
90.698
90.649
90.601
90.552
90.504
90.455
90.407
90.358
90.310
90.261
90.213
90.213
90.213
90.213
90.213
90.213
90.213
90.213
90.213
90.213
90.213
90.213
90.213
90.213
90.213
90.213
90.213
90.213
90.213
90.213
90.213
90.213
90.213
90.213
90.213
90.213
90.213
90.213
90.213
90.213
90.213
90.213
90.213
90.213
90.213
90.213
90.213
90.213
90.213
90.213
90.213
90.213
90.213
90.213
90.213
90.213
90.213
90.213
90.213
90.213
90.213
90.213
90.213
90.213
90.213
90.213
90.213
90.213
90.213
90.213
90.213
90.213
90.213
90.213
90.213
90.213
90.213
90.213
90.213
90.213
90.213
90.213
90.213
90.213
90.213
90.213
90.213
90.213
90.213
90.213
90.213
90.213
90.213
90.213
90.213
90.213
90.213
90.213
90.213
90.213
90.213
90.213
90.213
90.213
90.213
90.213
90.213
90.213
90.213
90.213
90.213
90.213
90.213
90.213
90.213
90.213
90.213
90.213
90.213
90.213
90.213
90.213
90.213
90.213
90.213
90.213
90.213
90.213
90.213
90.213
90.213
90.213
90.213
90.213
90.213
90.213
90.213
90.213
90.213
90.213
90.213
90.213
90.213
90.213
90.213
90.213
90.213
90.213
90.213
90.213
90.213
90.213
90.213
90.213
90.213
90.213
90.213
90.213
90.213
90.213
90.213
90.213
90.213
90.213
90.213
90.213
90.213
90.213
90.213
90.213
90.213
90.213
90.213
90.213
90.213
90.213
90.213
90.213
90.213
90.213
90.213
90.213
90.213
90.213
90.213
90.213
90.213
90.213
90.213
90.213
90.213
90.213
90.213
90.213
90.213
90.213
90.213
90.213
90.213
90.213
90.213
90.213
90.213
90.213
90.213
90.213
90.213
90.213
90.213
90.213
90.213
90.213
90.213
90.213
90.213
90.213
90.213
90.213
90.213
90.213
90.213
90.213
90.213
90.213
90.213
90.213
90.213
90.213
90.213
90.213
90.213
90.213
90.213
90.213
90.213
90.213
90.213
90.213
90.213
90.213
90.213
90.213
90.213
90.213
90.213
90.213
90.213
90.213
90.213
90.213
90.213
90.213
90.213
90.213
90.213
90.213
90.213
90.213
90.213
90.213
90.213
90.213
90.213
90.213
90.213
90.213
90.213
90.213
90.213
90.213
90.213
90.213
90.213
90.213
90.213
90.213
90.213
90.213
90.213
90.213
90.213
90.213
90.213
90.213
90.213
90.213
90.213
90.213
90.213
90.213
90.213
90.213
90.213
90.213
90.213
90.213
90.213
90.213
90.213
90.213
90.213
90.213
90.213
90.213
90.213
90.213
90.213
90.213
90.213
90.213
90.213
90.213
90.213
90.213
90.213
90.213
90.213
90.213
90.213
90.213
90.213
90.213
90.213
90.213
90.213
90.213
90.213
90.213
90.213
90.213
90.213
90.213
90.213
90.213
90.213
90.213
90.213
90.213
90.213
90.213
90.213
90.213
90.213
90.213
90.213
90.213
90.213
90.213
90.213
90.213
90.213
90.213
90.213
90.213
90.213
90.213
90.213
90.213
90.213
90.213
90.213
90.213
90.213
90.213
90.213
90.213
90.213
90.213
90.213
90.213
90.213
90.213
90.213
90.213
90.213
90.213
90.213
90.213
90.213
90.213
90.213
90.213
90.213
90.213
90.213
90.213
90.213
90.213
90.213
90.213
90.213
90.213
90.213
90.213
90.213
90.213
90.213
90.213
90.213
90.213
90.213
90.213
90.213
90.213
90.213
90.213
90.213
90.213
90.213
90.213
745.113
750.416
755.719
761.022
766.325
771.628
776.931
782.234
787.537
792.840
798.143
803.446
808.749
814.052
819.355
824.658
829.961
835.264
840.567
845.870
851.173
856.476
861.779
867.082
872.385
877.688
882.991
888.294
893.597
898.900
904.203
909.506
914.809
920.112
925.415
930.718
936.021
941.324
946.627
951.930
957.233
962.536
967.839
973.142
978.445
983.748
989.051
994.354
999.657
1004.960
1010.263
1015.566
1020.869
1026.172
1031.475
1036.778
1042.081
1047.384
1052.687
1057.990
1063.293
1068.596
1073.899
1079.202
1084.505
1089.808
1095.111
1100.414
1105.717
1111.020
1116.323
1121.626
1126.929
1132.232
1137.535
1142.838
1148.141
1153.444
1158.747
1164.050
1169.353
1174.656
1179.959
1185.262
1190.565
1195.868
1201.171
1206.474
1211.777
1217.080
1222.383
1227.686
1232.989
1238.292
1243.595
1248.898
1254.201
1259.504
1264.807
1270.110
1275.413
1280.716
1286.019
1291.322
1296.625
1301.928
1307.231
1312.534
1317.837
1323.140
1328.443
1333.746
1339.049
1344.352
1349.655
1354.958
1360.261
1365.564
1370.867
1376.170
1381.473
1386.776
1392.079
1397.382
1402.685
1407.988
1413.291
1418.594
1423.897
1429.200
1434.503
1439.806
1445.109
1450.412
1455.715
1461.018
1466.321
1471.624
1476.927
1482.230
1487.533
1492.836
1498.139
1503.442
1508.745
1514.048
1519.351
1524.654
1529.957
1535.260
1540.563
1545.866
1551.169
1556.472
1561.775
1567.078
1572.381
1577.684
1582.987
1588.290
1593.593
1598.896
1604.199
1609.502
1614.805
1620.108
1625.411
1630.714
1636.017
1641.320
1646.623
1651.926
1657.229
1662.532
1667.835
1673.138
1678.441
1683.744
1689.047
1694.350
1699.653
1704.956
1710.259
1715.562
1720.865
1726.168
1731.471
1736.774
1742.077
1747.380
1752.683
1757.986
1763.289
1768.592
1773.895
1779.198
1784.501
1789.804
1795.107
1800.410
1805.713
1805.444
1805.175
1804.906
1804.637
1804.368
1804.099
1803.830
1803.561
1803.292
1803.023
1802.754
1802.485
1802.216
1801.947
1801.678
1801.409
1801.140
1800.871
1800.602
1800.333
