96.186
96.186
96.186
96.186
96.186
96.186
96.186
96.186
96.186
96.186
96.186
96.186
96.186
96.186
96.186
96.186
96.186
96.186
96.186
96.186
96.186
96.186
96.186
96.186
96.186
96.186
96.186
96.186
96.186
96.186
96.186
96.186
96.186
96.186
96.186
96.186
96.186
96.186
96.186
96.186
96.186
96.186
96.186
96.186
96.186
96.186
96.186
96.186
96.186
96.186
96.186
96.186
96.186
96.186
96.186
96.186
96.186
96.186
96.186
96.186
96.186
96.186
96.186
96.186
96.186
96.186
96.186
96.186
96.186
96.186
96.186
96.186
96.186
96.186
96.186
96.186
96.186
96.186
96.186
96.186
96.186
96.186
96.186
96.186
96.186
96.186
96.186
96.186
96.186
96.186
96.186
96.186
96.186
96.186
96.186
96.186
96.186
96.186
96.186
96.186
96.186
96.186
96.186
96.186
96.186
96.186
96.186
96.186
96.186
96.186
96.186
96.186
96.186
96.186
96.186
96.186
96.186
96.186
96.186
96.186
96.186
96.186
96.186
96.186
96.186
96.186
96.186
96.186
96.186
96.186
96.186
96.186
96.186
96.186
96.186
96.186
96.186
96.186
96.186
96.186
96.186
96.186
96.186
96.186
96.186
96.186
96.186
96.186
96.186
96.186
96.186
96.186
96.186
96.186
96.186
96.186
96.186
96.186
96.186
96.186
96.186
96.186
96.186
96.186
96.186
96.186
96.186
96.186
96.186
96.186
96.186
96.186
96.186
96.186
96.186
96.186
96.186
96.186
96.186
96.186
96.186
96.186
96.186
96.186
96.186
96.186
96.186
96.186
96.186
96.186
96.186
96.186
96.186
96.186
96.186
96.186
96.186
96.186
96.186
96.186
96.186
96.186
96.186
96.186
96.186
96.186
96.186
96.186
96.186
96.186
96.186
96.186
96.186
96.186
96.186
96.186
96.186
96.186
96.186
96.186
96.186
96.186
96.186
96.186
96.186
96.186
96.186
96.186
96.186
96.186
96.186
96.186
96.186
96.186
96.186
96.186
96.186
96.186
96.186
96.186
96.186
96.186
96.186
96.186
96.186
96.186
96.186
96.186
96.186
96.186
96.186
96.186
96.186
96.186
96.186
96.186
96.186
96.186
96.186
96.186
96.186
96.186
96.186
96.186
96.186
96.186
96.186
96.186
96.186
96.186
96.186
96.186
96.186
96.186
96.186
96.186
96.186
96.186
96.186
96.186
96.186
96.186
96.186
96.186
96.186
96.186
96.186
96.186
96.186
96.186
96.186
96.186
96.186
96.186
96.186
96.186
96.186
96.186
96.186
96.186
96.186
96.186
96.186
96.186
96.186
96.186
96.186
96.186
96.186
96.186
96.186
96.186
96.186
96.186
96.186
96.186
96.186
96.186
96.186
96.186
96.186
96.186
96.186
96.186
96.186
96.186
96.186
96.186
96.186
96.186
96.186
96.186
96.186
96.186
96.186
96.186
96.186
96.186
96.186
96.186
96.186
96.186
96.186
96.186
96.186
96.186
96.186
96.186
96.186
96.186
96.186
96.186
96.186
96.186
96.186
96.186
96.186
96.186
96.186
96.186
96.186
96.186
96.186
96.186
96.186
96.186
96.186
96.186
96.186
96.186
96.186
96.186
96.186
96.186
96.186
96.186
96.186
96.186
96.186
96.186
96.186
96.186
96.186
96.186
96.186
96.186
96.186
96.186
96.186
96.186
96.186
96.186
96.186
96.186
96.186
96.186
96.186
96.186
96.186
96.186
96.186
96.186
96.186
96.186
96.186
96.186
96.186
96.186
96.186
96.186
96.186
96.186
96.186
96.186
96.186
96.186
96.186
96.186
96.186
96.186
96.186
96.186
96.186
96.186
96.186
96.186
96.186
96.186
96.186
96.186
96.186
96.186
96.186
96.186
96.186
96.186
96.186
96.186
96.186
96.186
96.186
96.186
96.186
96.186
96.186
96.186
96.186
96.186
96.186
96.186
96.186
96.186
96.186
96.186
91.286
91.286
91.286
91.286
91.286
91.286
91.286
91.286
91.286
91.286
91.286
91.286
91.286
91.286
91.286
91.286
91.286
91.286
91.286
91.286
91.286
91.286
91.286
91.286
91.286
91.286
91.286
91.286
91.286
91.286
91.286
91.286
91.286
91.286
91.286
91.286
91.286
91.286
91.286
91.286
91.286
91.286
91.286
91.286
91.286
91.286
91.286
91.286
91.286
91.286
91.286
91.286
91.286
91.286
91.286
91.286
91.286
91.286
91.286
91.286
91.286
91.286
91.286
91.286
91.286
91.286
91.286
91.286
91.286
91.286
91.286
91.286
91.286
91.286
91.286
91.286
91.286
91.286
91.286
91.286
91.286
91.286
91.286
91.286
91.286
91.286
91.286
91.286
91.286
91.286
91.286
91.286
91.286
91.286
91.286
91.286
91.286
91.286
91.286
91.286
91.286
91.286
91.286
91.286
91.286
91.286
91.286
91.286
91.286
91.286
91.286
91.286
91.286
91.286
91.286
91.286
91.286
91.286
91.286
91.286
91.286
91.286
91.286
91.286
91.286
91.286
91.286
91.286
91.286
91.286
91.286
91.286
91.286
91.286
91.286
91.286
91.286
91.286
91.286
91.286
91.286
91.286
91.286
91.286
91.286
91.286
91.286
91.286
91.286
91.286
91.286
91.286
91.286
91.286
91.286
91.286
91.286
91.286
91.286
91.286
91.286
91.286
91.286
91.286
91.286
91.286
91.286
91.286
91.286
91.286
91.286
91.286
91.286
91.286
91.286
91.286
91.286
91.286
91.286
91.286
91.286
91.286
91.286
91.286
91.286
91.286
91.286
91.286
91.286
91.286
91.286
91.286
91.286
91.286
91.286
91.286
91.286
91.286
91.286
91.286
91.286
91.286
91.286
91.286
91.286
91.286
91.286
91.286
91.286
91.286
91.286
91.286
91.286
91.286
91.286
91.286
91.286
91.286
91.286
91.286
91.286
91.286
91.286
91.286
91.286
91.286
91.286
91.286
91.286
91.286
91.286
91.286
91.286
91.286
91.286
91.286
91.286
91.286
91.286
91.286
91.286
91.286
91.286
91.286
91.286
91.286
91.286
91.286
91.286
91.286
91.286
91.286
91.286
91.286
91.286
91.286
91.286
91.286
91.286
91.286
91.286
91.286
91.286
91.286
91.286
91.286
91.286
91.286
91.286
91.286
91.286
91.286
91.286
91.286
91.286
91.286
91.286
91.286
91.286
91.286
91.286
91.286
91.286
91.286
91.286
91.286
91.286
91.286
91.286
91.286
91.286
91.286
91.286
91.286
91.286
91.286
91.286
91.286
91.286
91.286
91.286
91.286
91.286
91.286
91.286
91.286
91.286
91.286
91.286
91.286
91.286
91.286
91.286
91.286
91.286
91.286
91.286
91.286
91.286
91.286
91.286
91.286
91.286
91.286
91.286
91.286
91.286
91.286
91.286
91.286
91.286
91.286
91.286
91.286
91.286
91.286
91.286
91.286
91.286
91.286
91.286
91.286
91.286
91.286
91.286
91.286
91.286
91.286
91.286
91.286
91.286
91.286
91.286
91.286
91.286
91.286
91.286
91.286
91.286
91.286
91.286
91.286
91.286
91.286
91.286
91.286
91.286
91.286
91.286
91.286
91.286
91.286
91.286
91.286
91.286
91.286
91.286
91.286
91.286
91.286
91.286
91.286
91.286
91.286
91.286
91.286
91.286
91.286
91.286
91.286
91.286
91.286
91.286
91.286
91.286
91.286
91.286
91.286
91.286
91.286
91.286
91.286
91.286
91.286
91.286
91.286
91.286
91.286
91.286
91.286
91.286
91.286
91.286
91.286
91.286
91.286
91.286
91.286
91.286
91.286
91.286
91.286
91.286
91.286
91.286
91.286
91.286
91.286
91.286
91.286
91.286
91.286
91.286
91.286
91.286
91.286
91.286
91.286
91.286
91.286
91.286
91.286
91.286
91.286
91.286
91.286
91.286
91.286
91.286
91.286
91.286
91.286
91.286
91.286
91.286
91.286
91.286
91.286
91.286
91.286
91.286
91.286
91.286
91.286
91.286
91.286
91.286
91.286
91.286
91.286
91.286
91.286
91.286
91.286
91.286
91.286
91.286
91.286
91.286
91.286
91.286
91.286
91.286
91.286
91.286
91.286
91.286
91.286
91.286
91.286
91.286
91.286
91.286
91.286
91.286
91.286
91.286
91.286
91.286
91.286
91.286
91.286
91.286
91.286
91.286
91.286
91.286
91.286
91.286
91.286
91.286
91.286
91.286
91.286
91.286
91.286
91.286
91.286
91.286
91.286
91.286
91.286
91.286
91.286
91.286
91.286
91.286
91.286
91.286
91.286
91.286
91.286
91.286
91.286
91.286
91.286
91.286
91.286
91.286
91.286
91.286
91.286
91.286
91.286
91.286
91.286
91.286
91.286
91.286
91.286
91.286
91.286
91.286
91.286
91.286
91.286
91.286
91.286
91.286
91.286
91.286
91.286
91.286
91.286
91.286
91.286
91.286
91.286
91.286
91.286
91.286
91.286
91.286
91.286
91.286
91.286
91.286
91.286
91.286
91.286
91.286
91.286
91.286
91.286
91.286
91.286
91.286
91.286
91.286
91.286
91.286
91.286
91.286
91.286
91.286
91.286
91.286
91.286
91.286
91.286
320.986
325.971
330.956
335.941
340.926
345.911
350.896
355.881
360.866
365.851
370.836
375.821
380.806
385.791
390.776
395.761
400.746
405.731
410.716
415.701
420.686
425.671
430.656
435.641
440.626
445.611
450.596
455.581
460.566
465.551
470.536
475.521
480.506
485.491
490.476
495.461
500.446
505.431
510.416
515.401
520.386
525.371
530.356
535.341
540.326
545.311
550.296
555.281
560.266
565.251
570.236
575.221
580.206
585.191
590.176
595.161
600.146
605.131
610.116
615.101
620.086
625.071
630.056
635.041
640.026
645.011
649.996
654.981
659.966
664.951
669.936
674.921
679.906
684.891
689.876
694.861
699.846
704.831
709.816
714.801
719.786
724.771
729.756
734.741
739.726
744.711
749.696
754.681
759.666
764.651
769.636
774.621
779.606
784.591
789.576
794.561
799.546
804.531
809.516
814.501
819.486
824.471
829.456
834.441
839.426
844.411
849.396
854.381
859.366
864.351
869.336
874.321
879.306
884.291
889.276
894.261
899.246
904.231
909.216
914.201
919.186
924.171
929.156
934.141
939.126
944.111
949.096
954.081
959.066
964.051
969.036
974.021
979.006
983.991
988.976
993.961
998.946
1003.931
1008.916
1013.901
1018.886
1023.871
1028.856
1033.841
1038.826
1043.811
1048.796
1053.781
1058.766
1063.751
1068.736
1073.721
1078.706
1083.691
1088.676
1093.661
1098.646
1103.631
1108.616
1113.601
1118.586
1123.571
1128.556
1133.541
1138.526
1143.511
1148.496
1153.481
1158.466
1163.451
1168.436
1173.421
1178.406
1183.391
1188.376
1193.361
1198.346
1203.331
1208.316
1213.301
1218.286
1223.271
1228.256
1233.241
1238.226
1243.211
1248.196
1253.181
1258.166
1263.151
1268.136
1273.121
1278.106
1283.091
1288.076
1293.061
1298.046
1303.031
1308.016
1313.001
1317.986
1318.964
1319.942
1320.920
1321.898
1322.876
1323.854
1324.832
1325.810
1326.788
1327.766
1328.744
1329.722
1330.700
1331.678
1332.656
1333.634
1334.612
1335.590
1336.568
1337.546
1338.524
1339.502
1340.480
1341.458
1342.436
1343.414
1344.392
1345.370
1346.348
1347.326
1348.304
1349.282
1350.260
1351.238
1352.216
1353.194
1354.172
1355.150
1356.128
1357.106
1358.084
1359.062
1360.040
1361.018
1361.996
1362.974
1363.952
1364.930
1365.908
1366.886
1367.864
1368.842
1369.820
1370.798
1371.776
1372.754
1373.732
1374.710
1375.688
1376.666
1377.644
1378.622
1379.600
1380.578
1381.556
1382.534
1383.512
1384.490
1385.468
1386.446
1387.424
1388.402
1389.380
1390.358
1391.336
1392.314
1393.292
1394.270
1395.248
1396.226
1397.204
1398.182
1399.160
1400.138
1401.116
1402.094
1403.072
1404.050
1405.028
1406.006
1406.984
1407.962
1408.940
1409.918
1410.896
1411.874
1412.852
1413.830
1414.808
1415.786
1416.764
1417.742
1418.720
1419.698
1420.676
1421.654
1422.632
1423.610
1424.588
1425.566
1426.544
1427.522
1428.500
1429.478
1430.456
1431.434
1432.412
1433.390
1434.368
1435.346
1436.324
1437.302
1438.280
1439.258
1440.236
1441.214
1442.192
1443.170
1444.148
1445.126
1446.104
1447.082
1448.060
1449.038
1450.016
1450.994
1451.972
1452.950
1453.928
1454.906
1455.884
1456.862
1457.840
1458.818
1459.796
1460.774
1461.752
1462.730
1463.708
1464.686
1465.664
1466.642
1467.620
1468.598
1469.576
1470.554
1471.532
1472.510
1473.488
1474.466
1475.444
1476.422
1477.400
1478.378
1479.356
1480.334
1481.312
1482.290
1483.268
1484.246
1485.224
1486.202
1487.180
1488.158
1489.136
1490.114
1491.092
1492.070
1493.048
1494.026
1495.004
1495.982
1496.960
1497.938
1498.916
1499.894
1500.872
1501.850
1502.828
1503.806
1504.784
1505.762
1506.740
1507.718
1508.696
1509.674
1510.652
1511.630
1512.608
1513.586
1515.614
1517.642
1519.670
1521.698
1523.726
1525.754
1527.782
1529.810
1531.838
1533.866
1535.894
1537.922
1539.950
1541.978
1544.006
1546.034
1548.062
1550.090
1552.118
1554.146
1556.174
1558.202
1560.230
1562.258
1564.286
1566.314
1568.342
1570.370
1572.398
1574.426
1576.454
1578.482
1580.510
1582.538
1584.566
1586.594
1588.622
1590.650
1592.678
1594.706
1596.734
1598.762
1600.790
1602.818
1604.846
1606.874
1608.902
1610.930
1612.958
1614.986
1617.014
1619.042
1621.070
1623.098
1625.126
1627.154
1629.182
1631.210
1633.238
1635.266
1637.294
1639.322
1641.350
1643.378
1645.406
1647.434
1649.462
1651.490
1653.518
1655.546
1657.574
1659.602
1661.630
1663.658
1665.686
1667.714
1669.742
1671.770
1673.798
1675.826
1677.854
1679.882
1681.910
1683.938
1685.966
1687.994
1690.022
1692.050
1694.078
1696.106
1698.134
1700.162
1702.190
1704.218
1706.246
1708.274
1710.302
1712.330
1714.358
1716.386
1718.414
1720.442
1722.470
1724.498
1726.526
1728.554
1730.582
1732.610
1734.638
1736.666
1738.694
1740.722
1742.750
1744.778
1746.806
1748.834
1750.862
1752.890
1754.918
1756.946
1758.974
1761.002
1763.030
1765.058
1767.086
1769.114
1771.142
1773.170
1775.198
1777.226
1779.254
1781.282
1783.310
1785.338
1787.366
1789.394
1791.422
1793.450
1795.478
1797.506
1799.534
1801.562
1803.590
1805.618
1807.646
1809.674
1811.702
1813.730
1815.758
1817.786
1819.814
1821.842
1823.870
1825.898
1827.926
1829.954
1831.982
1834.010
1836.038
1838.066
1840.094
1842.122
1844.150
1846.178
1848.206
1850.234
1852.262
1854.290
1856.318
1858.346
1860.374
1862.402
1864.430
1866.458
1868.486
1870.514
1872.542
1874.570
1876.598
1878.626
1880.654
1882.682
1884.710
1886.738
1888.766
1890.794
1892.822
1894.850
1896.878
1898.906
1900.934
1902.962
1904.990
1907.018
1909.046
1911.074
1913.102
1915.130
1917.158
1919.186
1919.210
1919.235
1919.259
1919.284
1919.308
1919.333
1919.357
1919.382
1919.406
1919.431
1919.455
1919.480
1919.504
1919.529
1919.553
1919.578
1919.602
1919.627
1919.651
1919.676
1919.700
1919.725
1919.749
1919.774
1919.798
1919.823
1919.847
1919.872
1919.896
1919.921
1919.945
1919.970
1919.994
1920.019
1920.043
1920.068
1920.092
1920.117
1920.141
1920.166
1920.190
1920.215
1920.239
1920.264
1920.288
1920.313
1920.337
1920.362
1920.386
1920.411
1920.435
1920.460
1920.484
1920.509
1920.533
1920.558
1920.582
1920.607
1920.631
1920.656
1920.680
1920.705
1920.729
1920.754
1920.778
1920.803
1920.827
1920.852
1920.876
1920.901
1920.925
1920.950
1920.974
1920.999
1921.023
1921.048
1921.072
1921.097
1921.121
1921.146
1921.170
1921.195
1921.219
1921.244
1921.268
1921.293
1921.317
1921.342
1921.366
1921.391
1921.415
1921.440
1921.464
1921.489
1921.513
1921.538
1921.562
1921.587
1921.611
1921.636
1921.660
1921.685
1921.709
1921.734
1921.758
1921.783
1921.807
1921.832
1921.856
1921.881
1921.905
1921.930
1921.954
1921.979
1922.003
1922.028
1922.052
1922.077
1922.101
1922.126
1922.150
1922.175
1922.199
1922.224
1922.248
1922.273
1922.297
1922.322
1922.346
1922.371
1922.395
1922.420
1922.444
1922.469
1922.493
1922.518
1922.542
1922.567
1922.591
1922.616
1922.640
1922.665
1922.689
1922.714
1922.738
1922.763
1922.787
1922.812
1922.836
1922.861
1922.885
1922.910
1922.934
1922.959
1922.983
1923.008
1923.032
1923.057
1923.081
1923.106
1923.130
1923.155
1923.179
1923.204
1923.228
1923.253
1923.277
1923.302
1923.326
1923.351
1923.375
1923.400
1923.424
1923.449
1923.473
1923.498
1923.522
1923.547
1923.571
1923.596
1923.620
1923.645
1923.669
1923.694
1923.718
1923.743
1923.767
1923.792
1923.816
1923.841
1923.865
1923.890
1923.914
1923.939
1923.963
1923.988
1924.012
1924.037
1924.061
1924.086
1925.552
1927.019
1928.485
1929.952
1931.418
1932.885
1934.351
1935.818
1937.284
1938.751
1940.217
1941.684
1943.150
1944.617
1946.083
1947.550
1949.016
1950.483
1951.949
1953.416
1954.882
1956.349
1957.815
1959.282
1960.748
1962.215
1963.681
1965.148
1966.614
1968.081
1969.547
1971.014
1972.480
1973.947
1975.413
1976.880
1978.346
1979.813
1981.279
1982.746
1984.212
1985.679
1987.145
1988.612
1990.078
1991.545
1993.011
1994.478
1995.944
1997.411
1998.877
2000.344
2001.810
2003.277
2004.743
2006.210
2007.676
2009.143
2010.609
2012.076
2013.542
2015.009
2016.475
2017.942
2019.408
2020.875
2022.341
2023.808
2025.274
2026.741
2028.207
2029.674
2031.140
2032.607
2034.073
2035.540
2037.006
2038.473
2039.939
2041.406
2042.872
2044.339
2045.805
2047.272
2048.738
2050.205
2051.671
2053.138
2054.604
2056.071
2057.537
2059.004
2060.470
2061.937
2063.403
2064.870
2066.336
2067.803
2069.269
2070.736
2072.202
2073.669
2075.135
2076.602
2078.068
2079.535
2081.001
2082.468
2083.934
2085.401
2086.867
2088.334
2089.800
2091.267
2092.733
2094.200
2095.666
2097.133
2098.599
2100.066
2101.532
2102.999
2104.465
2105.932
2107.398
2108.865
2110.331
2111.798
2113.264
2114.731
2116.197
2117.664
2119.130
2120.597
2122.063
2123.530
2124.996
2126.463
2127.929
2129.396
2130.862
2132.329
2133.795
2135.262
2136.728
