94.530
94.530
94.530
94.530
94.530
94.530
94.530
94.530
94.530
94.530
94.530
94.530
94.530
94.530
94.530
94.530
94.530
94.530
94.530
94.530
94.530
94.530
94.530
94.530
94.530
94.530
94.530
94.530
94.530
94.530
94.530
94.530
94.530
94.530
94.530
94.530
94.530
94.530
94.530
94.530
94.530
94.530
94.530
94.530
94.530
94.530
94.530
94.530
94.530
94.530
94.530
94.530
94.530
94.530
94.530
94.530
94.530
94.530
94.530
94.530
94.530
94.530
94.530
94.530
94.530
94.530
94.530
94.530
94.530
94.530
94.530
94.530
94.530
94.530
94.530
94.530
94.530
94.530
94.530
94.530
94.530
94.530
94.530
94.530
94.530
94.530
94.530
94.530
94.530
94.530
94.530
94.530
94.530
94.530
94.530
94.530
94.530
94.530
94.530
94.530
94.530
94.530
94.530
94.530
94.530
94.530
94.530
94.530
94.530
94.530
94.530
94.530
94.530
94.530
94.530
94.530
94.530
94.530
94.530
94.530
94.530
94.530
94.530
94.530
94.530
94.530
94.530
94.530
94.530
94.530
94.530
94.530
94.530
94.530
94.530
94.530
94.530
94.530
94.530
94.530
94.530
94.530
94.530
94.530
94.530
94.530
94.530
94.530
94.530
94.530
94.530
94.530
94.530
94.530
94.530
94.530
94.530
94.530
94.530
94.530
94.530
94.530
94.530
94.530
94.530
94.530
94.530
94.530
94.530
94.530
94.530
94.530
94.530
94.530
94.530
94.530
94.530
94.530
94.530
94.530
94.530
94.530
94.530
94.530
94.530
94.530
94.530
94.530
94.530
94.530
94.530
94.530
94.530
94.530
94.530
94.530
94.530
94.530
94.530
94.530
94.530
94.530
94.530
94.530
94.530
94.530
94.530
94.530
94.530
94.530
94.530
94.530
94.530
94.530
94.530
94.530
94.530
94.530
94.530
94.530
94.530
94.530
94.530
94.530
94.530
94.530
94.530
94.530
94.530
94.530
94.530
94.530
94.530
94.530
94.530
94.530
94.530
94.530
94.530
94.530
94.530
94.530
94.530
94.530
94.530
94.530
94.530
94.530
94.530
94.530
94.530
94.530
94.530
94.530
94.530
94.530
94.530
94.530
94.530
94.530
94.530
94.530
94.530
94.530
94.530
94.530
94.530
94.530
94.530
94.530
94.530
94.530
94.530
94.530
94.530
94.530
94.530
94.530
94.530
94.530
94.530
94.530
94.530
94.530
94.530
94.530
94.530
94.530
94.530
94.530
94.530
94.530
94.530
94.530
94.530
94.530
94.530
94.530
94.530
94.530
94.530
94.530
94.530
94.530
94.530
94.530
94.530
94.530
94.530
94.530
94.530
94.530
94.530
94.530
94.530
94.530
94.530
94.530
94.530
94.530
94.530
94.530
94.530
94.530
94.530
94.530
94.530
94.530
94.530
94.530
94.530
94.530
94.530
94.530
94.530
94.530
94.530
94.530
94.530
94.530
94.530
94.530
94.530
94.530
94.530
94.530
94.530
94.530
94.530
94.530
94.530
94.530
94.530
94.530
94.530
94.530
94.530
94.530
94.530
94.530
94.530
94.530
94.530
94.530
94.530
94.530
94.530
94.530
94.530
94.530
94.530
94.530
94.530
94.530
94.530
94.530
94.530
94.530
94.530
94.530
94.530
94.530
94.530
94.530
94.530
94.530
94.530
94.530
94.530
94.530
94.530
94.530
94.530
94.530
94.530
94.530
94.530
94.530
94.530
94.530
94.530
94.530
94.530
94.530
94.530
94.530
94.530
94.530
94.530
94.530
94.530
94.530
94.530
94.530
94.530
94.530
94.530
94.530
94.530
94.530
94.530
94.530
94.530
94.530
94.530
94.530
94.530
94.530
94.530
94.530
94.530
94.530
94.530
94.530
94.530
94.530
94.530
94.530
94.530
94.530
94.530
94.530
94.530
94.530
94.530
94.530
94.530
94.530
94.530
94.530
94.530
94.530
94.530
94.530
94.530
94.530
94.530
94.530
94.530
94.530
94.530
94.530
94.530
94.530
94.530
94.530
94.530
94.530
94.530
94.530
94.530
94.530
94.530
94.530
94.530
94.530
94.530
94.530
94.530
94.530
94.530
94.530
94.530
94.530
94.530
94.530
94.530
94.530
94.530
94.530
94.530
94.530
94.530
94.530
94.530
94.530
94.530
94.530
94.530
94.530
94.530
94.530
94.530
94.530
94.530
94.530
94.530
94.530
94.530
94.530
94.530
94.530
94.530
94.530
94.530
94.530
94.530
94.530
94.530
94.530
94.530
94.530
94.530
94.530
94.530
94.530
94.530
94.530
94.530
94.530
94.530
94.530
94.530
94.530
94.530
94.530
94.530
94.530
94.530
94.530
94.530
94.530
94.530
94.530
94.530
94.530
94.530
94.530
94.530
94.530
94.530
94.530
94.530
94.530
94.530
94.530
94.530
94.530
94.530
94.530
94.530
94.530
94.530
94.530
94.530
94.530
94.530
94.530
94.530
94.530
94.530
94.530
94.530
94.530
94.530
94.530
94.530
94.530
94.530
94.530
94.530
94.530
94.530
94.530
94.530
94.530
94.530
94.530
94.530
94.530
94.530
94.530
94.530
94.530
94.530
94.530
94.530
94.530
94.530
94.530
94.530
94.530
94.530
94.530
94.530
94.530
94.530
94.530
94.530
94.530
94.530
94.530
94.530
94.530
94.530
94.530
94.530
94.530
94.530
94.530
94.530
94.530
94.530
94.530
94.530
94.530
94.530
94.530
94.530
94.530
94.530
94.530
94.530
94.530
94.530
94.530
94.530
94.530
94.530
94.530
94.530
94.530
94.530
94.530
94.530
94.530
94.530
94.530
94.530
94.530
94.530
94.530
94.530
94.530
94.530
94.530
94.530
94.530
94.530
94.530
94.530
94.530
94.530
94.530
94.530
94.530
94.530
94.530
94.530
94.530
94.530
94.530
94.530
94.530
94.530
94.530
94.530
94.530
94.530
94.530
94.530
94.530
94.530
94.530
94.530
94.530
94.530
94.530
94.530
94.530
94.530
94.530
94.530
94.530
94.530
94.530
94.530
94.530
94.530
94.530
94.530
94.530
94.530
94.530
94.530
94.530
94.530
94.530
94.530
94.530
94.530
94.530
94.530
94.530
94.530
94.530
94.530
94.530
94.530
94.530
94.530
94.530
94.530
94.530
94.530
94.530
94.530
94.530
94.530
94.530
94.530
94.530
94.530
94.530
94.530
94.530
94.530
94.530
94.530
94.530
94.530
94.530
94.530
94.530
94.530
94.530
94.530
94.530
94.530
94.530
94.530
94.530
94.530
94.530
94.530
94.530
94.530
94.530
94.530
94.530
94.530
94.530
94.530
94.530
94.530
94.530
94.530
94.530
94.530
94.530
94.530
94.530
94.530
94.530
94.530
94.530
94.530
94.530
94.530
94.530
94.530
94.530
94.530
94.530
94.530
94.530
94.530
94.530
94.530
94.530
94.530
94.530
94.530
94.530
94.530
94.530
94.530
94.530
94.530
94.530
94.530
94.505
94.481
94.456
94.432
94.407
94.383
94.358
94.334
94.309
94.285
94.260
94.236
94.211
94.187
94.162
94.138
94.113
94.089
94.064
94.040
94.015
93.991
93.966
93.942
93.917
93.893
93.868
93.844
93.819
93.795
93.770
93.746
93.721
93.697
93.672
93.648
93.623
93.599
93.574
93.550
93.525
93.501
93.476
93.452
93.427
93.403
93.378
93.354
93.329
93.305
93.280
93.256
93.231
93.207
93.182
93.158
93.133
93.109
93.084
93.060
93.035
93.011
92.986
92.962
92.937
92.913
92.888
92.864
92.839
92.815
92.790
92.766
92.741
92.717
92.692
92.668
92.643
92.619
92.594
92.570
92.545
92.521
92.496
92.472
92.447
92.423
92.398
92.374
92.349
92.325
92.300
92.276
92.251
92.227
92.202
92.178
92.153
92.129
92.104
92.080
92.055
92.031
92.006
91.982
91.957
91.933
91.908
91.884
91.859
91.835
91.810
91.786
91.761
91.737
91.712
91.688
91.663
91.639
91.614
91.590
91.565
91.541
91.516
91.492
91.467
91.443
91.418
91.394
91.369
91.345
91.320
91.296
91.271
91.247
91.222
91.198
91.173
91.149
91.124
91.100
91.075
91.051
91.026
91.002
90.977
90.953
90.928
90.904
90.879
90.855
90.830
90.806
90.781
90.757
90.732
90.708
90.683
90.659
90.634
90.610
90.585
90.561
90.536
90.512
90.487
90.463
90.438
90.414
90.389
90.365
90.340
90.316
90.291
90.267
90.242
90.218
90.193
90.169
90.144
90.120
90.095
90.071
90.046
90.022
89.997
89.973
89.948
89.924
89.899
89.875
89.850
89.826
89.801
89.777
89.752
89.728
89.703
89.679
89.654
89.630
89.703
89.776
89.849
89.922
89.995
90.068
90.141
90.214
90.287
90.360
90.433
90.506
90.579
90.652
90.725
90.798
90.871
90.944
91.017
91.090
91.163
91.236
91.309
91.382
91.455
91.528
91.601
91.674
91.747
91.820
91.893
91.966
92.039
92.112
92.185
92.258
92.331
92.404
92.477
92.550
92.623
92.696
92.769
92.842
92.915
92.988
93.061
93.134
93.207
93.280
93.353
93.426
93.499
93.572
93.645
93.718
93.791
93.864
93.937
94.010
94.083
94.156
94.229
94.302
94.375
94.448
94.521
94.594
94.667
94.740
94.813
94.886
94.959
95.032
95.105
95.178
95.251
95.324
95.397
95.470
95.543
95.616
95.689
95.762
95.835
95.908
95.981
96.054
96.127
96.200
96.273
96.346
96.419
96.492
96.565
96.638
96.711
96.784
96.857
96.930
97.003
97.076
97.149
97.222
97.295
97.368
97.441
97.514
97.587
97.660
97.733
97.806
97.879
97.952
98.025
98.098
98.171
98.244
98.317
98.390
98.463
98.536
98.609
98.682
98.755
98.828
98.901
98.974
99.047
99.120
99.193
99.266
99.339
99.412
99.485
99.558
99.631
99.704
99.777
99.850
99.923
99.996
100.069
100.142
100.215
100.288
100.361
100.434
100.507
100.580
100.653
100.726
100.799
100.872
100.945
101.018
101.091
101.164
101.237
101.310
101.383
101.456
101.529
101.602
101.675
101.748
101.821
101.894
101.967
102.040
102.113
102.186
102.259
102.332
102.405
102.478
102.551
102.624
102.697
102.770
102.843
102.916
102.989
103.062
103.135
103.208
103.281
103.354
103.427
103.500
103.573
103.646
103.719
103.792
103.865
103.938
104.011
104.084
104.157
104.230
104.181
104.133
104.084
104.036
103.987
103.939
103.890
103.842
103.793
103.745
103.696
103.648
103.599
103.551
103.502
103.454
103.405
103.357
103.308
103.260
103.211
103.163
103.114
103.066
103.017
102.969
102.920
102.872
102.823
102.775
102.726
102.678
102.629
102.581
102.532
102.484
102.435
102.387
102.338
102.290
102.241
102.193
102.144
102.096
102.047
101.999
101.950
101.902
101.853
101.805
101.756
101.708
101.659
101.611
101.562
101.514
101.465
101.417
101.368
101.320
101.271
101.223
101.174
101.126
101.077
101.029
100.980
100.932
100.883
100.835
100.786
100.738
100.689
100.641
100.592
100.544
100.495
100.447
100.398
100.350
100.301
100.253
100.204
100.156
100.107
100.059
100.010
99.962
99.913
99.865
99.816
99.768
99.719
99.671
99.622
99.574
99.525
99.477
99.428
99.380
99.331
99.283
99.234
99.186
99.137
99.089
99.040
98.992
98.943
98.895
98.846
98.798
98.749
98.701
98.652
98.604
98.555
98.507
98.458
98.410
98.361
98.313
98.264
98.216
98.167
98.119
98.070
98.022
97.973
97.925
97.876
97.828
97.779
97.731
97.682
97.634
97.585
97.537
97.488
97.440
97.391
97.343
97.294
97.246
97.197
97.149
97.100
97.052
97.003
96.955
96.906
96.858
96.809
96.761
96.712
96.664
96.615
96.567
96.518
96.470
96.421
96.373
96.324
96.276
96.227
96.179
96.130
96.082
96.033
95.985
95.936
95.888
95.839
95.791
95.742
95.694
95.645
95.597
95.548
95.500
95.451
95.403
95.354
95.306
95.257
95.209
95.160
95.112
95.063
95.015
94.966
94.918
94.869
94.821
94.772
94.724
94.675
94.627
94.578
94.530
94.530
94.530
94.530
94.530
94.530
94.530
94.530
94.530
94.530
94.530
94.530
94.530
94.530
94.530
94.530
94.530
94.530
94.530
94.530
94.530
94.530
94.530
94.530
94.530
94.530
94.530
94.530
94.530
94.530
94.530
94.530
94.530
94.530
94.530
94.530
94.530
94.530
94.530
94.530
94.530
94.530
94.530
94.530
94.530
94.530
94.530
94.530
94.530
94.530
94.530
94.530
94.530
94.530
94.530
94.530
94.530
94.530
94.530
94.530
94.530
94.530
94.530
94.530
94.530
94.530
94.530
94.530
94.530
94.530
94.530
94.530
94.530
94.530
94.530
94.530
94.530
94.530
94.530
94.530
94.530
94.530
94.530
94.530
94.530
94.530
94.530
94.530
94.530
94.530
94.530
94.530
94.530
94.530
94.530
94.530
94.530
94.530
94.530
94.530
94.530
94.530
94.530
94.530
94.530
94.530
94.530
94.530
94.530
94.530
94.530
94.530
94.530
94.530
94.530
94.530
94.530
94.530
94.530
94.530
94.530
94.530
94.530
94.530
94.530
94.530
94.530
94.530
94.530
94.530
94.530
94.530
94.530
94.530
94.530
94.530
94.530
94.530
94.530
94.530
94.530
94.530
94.530
94.530
94.530
94.530
94.530
94.530
94.530
94.530
94.530
94.530
94.530
94.530
94.530
94.530
94.530
94.530
94.530
94.530
94.530
94.530
94.530
94.530
94.530
94.530
94.530
94.530
94.530
94.530
94.530
94.530
94.530
94.530
94.530
94.530
94.530
94.530
94.530
94.530
94.530
94.530
94.530
94.530
94.530
94.530
94.530
94.530
94.530
94.530
94.530
94.530
94.530
94.530
94.530
94.530
94.530
94.530
94.530
94.530
94.530
94.530
94.530
94.530
94.530
94.530
94.530
94.530
94.530
94.530
94.530
94.530
94.530
94.530
94.530
94.530
94.530
94.530
94.530
94.530
94.530
94.530
94.530
94.530
94.530
94.530
94.530
94.530
94.530
94.530
94.530
94.530
94.530
94.530
94.530
94.530
94.530
94.530
94.530
94.530
94.530
94.530
94.530
94.530
94.530
94.530
94.530
94.530
94.530
94.530
94.530
94.530
94.530
94.530
94.530
94.530
94.530
94.530
94.530
94.530
94.530
94.530
94.530
94.530
94.530
94.530
94.530
94.530
94.530
94.530
94.530
94.530
94.530
94.530
94.530
94.530
94.530
94.530
94.530
94.530
94.530
94.530
94.530
94.530
94.530
94.530
94.530
94.530
94.530
94.530
94.530
94.530
94.530
94.530
94.530
94.530
94.530
94.530
94.530
94.530
94.530
94.530
94.530
94.530
94.530
94.530
94.530
94.530
94.530
94.530
94.530
94.530
94.530
94.530
94.530
94.530
94.530
94.530
94.530
94.530
94.530
94.530
94.530
94.530
94.530
94.530
94.530
94.530
94.530
94.530
94.530
94.530
94.530
94.530
94.530
94.530
94.530
94.530
94.530
94.530
94.530
94.530
94.530
94.530
94.530
94.530
94.530
94.530
94.530
94.530
94.530
94.530
94.530
94.530
94.530
94.530
94.530
94.530
94.530
94.530
94.530
94.530
94.530
94.530
94.530
94.530
94.530
94.530
94.530
94.530
94.530
94.530
94.530
94.530
94.530
94.530
94.530
94.530
94.530
94.530
94.530
94.530
94.530
94.530
94.530
94.530
94.530
94.530
94.530
94.530
94.530
94.530
94.530
94.530
94.530
94.530
94.530
94.530
94.530
94.530
94.530
94.530
94.530
94.530
94.530
94.530
94.530
94.530
94.530
94.530
94.530
94.530
94.530
94.530
94.530
94.530
94.530
94.530
94.530
94.530
94.530
94.530
94.530
94.530
94.530
94.530
94.530
94.530
94.530
94.530
94.530
94.530
94.530
94.530
94.530
94.530
94.530
94.530
94.530
94.530
94.530
94.530
94.530
94.530
94.530
94.530
94.530
94.530
94.530
94.530
94.530
94.530
94.530
94.530
94.530
94.530
94.530
94.530
94.530
94.530
94.530
94.530
94.530
94.530
94.530
94.530
94.530
94.530
94.530
94.530
94.530
94.530
94.530
94.530
94.530
94.530
94.530
94.530
94.530
94.530
94.530
94.530
94.530
94.530
94.530
94.530
94.530
94.530
94.530
94.530
94.530
94.530
94.530
94.530
94.530
94.530
94.530
94.530
94.530
94.530
94.530
94.530
94.530
94.530
94.530
94.530
94.530
94.530
94.530
94.530
94.530
94.530
94.530
94.530
94.530
94.530
94.530
94.530
94.530
94.530
94.530
94.530
94.530
94.530
94.530
94.530
94.530
94.530
94.530
94.530
94.530
94.530
94.530
94.530
94.530
94.530
94.530
94.530
94.530
94.530
94.530
94.530
94.530
94.530
94.530
94.530
94.530
94.530
94.530
94.530
94.530
94.530
94.530
94.530
94.530
94.530
94.530
94.530
94.530
94.530
94.530
94.530
94.530
94.530
94.530
94.530
94.530
94.530
94.530
94.530
94.530
94.530
94.530
94.530
94.530
94.530
94.530
94.530
94.530
94.530
94.530
94.530
94.530
94.530
94.530
94.530
94.530
94.530
94.530
94.530
94.530
94.530
94.530
94.530
94.530
94.530
94.530
94.530
94.530
94.530
