76.093
76.093
76.093
76.093
76.093
76.093
76.093
76.093
76.093
76.093
76.093
76.093
76.093
76.093
76.093
76.093
76.093
76.093
76.093
76.093
76.093
76.093
76.093
76.093
76.093
76.093
76.093
76.093
76.093
76.093
76.093
76.093
76.093
76.093
76.093
76.093
76.093
76.093
76.093
76.093
76.093
76.093
76.093
76.093
76.093
76.093
76.093
76.093
76.093
76.093
76.093
76.093
76.093
76.093
76.093
76.093
76.093
76.093
76.093
76.093
76.093
76.093
76.093
76.093
76.093
76.093
76.093
76.093
76.093
76.093
76.093
76.093
76.093
76.093
76.093
76.093
76.093
76.093
76.093
76.093
76.093
76.093
76.093
76.093
76.093
76.093
76.093
76.093
76.093
76.093
76.093
76.093
76.093
76.093
76.093
76.093
76.093
76.093
76.093
76.093
76.093
76.093
76.093
76.093
76.093
76.093
76.093
76.093
76.093
76.093
76.093
76.093
76.093
76.093
76.093
76.093
76.093
76.093
76.093
76.093
76.093
76.093
76.093
76.093
76.093
76.093
76.093
76.093
76.093
76.093
76.093
76.093
76.093
76.093
76.093
76.093
76.093
76.093
76.093
76.093
76.093
76.093
76.093
76.093
76.093
76.093
76.093
76.093
76.093
76.093
76.093
76.093
76.093
76.093
76.093
76.093
76.093
76.093
76.093
76.093
76.093
76.093
76.093
76.093
76.093
76.093
76.093
76.093
76.093
76.093
76.093
76.093
76.093
76.093
76.093
76.093
76.093
76.093
76.093
76.093
76.093
76.093
76.093
76.093
76.093
76.093
76.093
76.093
76.093
76.093
76.093
76.093
76.093
76.093
76.093
76.093
76.093
76.093
76.093
76.093
76.093
76.093
76.093
76.093
76.093
76.093
76.093
76.093
76.093
76.093
76.093
76.093
76.093
76.093
76.093
76.093
76.093
76.093
76.093
76.093
76.093
76.093
76.093
76.093
76.093
76.093
76.093
76.093
76.093
76.093
76.093
76.093
76.093
76.093
76.093
76.093
76.093
76.093
76.093
76.093
76.093
76.093
76.093
76.093
76.093
76.093
76.093
76.093
76.093
76.093
76.093
76.093
76.093
76.093
76.093
76.093
76.093
76.093
76.093
76.093
76.093
76.093
76.093
76.093
76.093
76.093
76.093
76.093
76.093
76.093
76.093
76.093
76.093
76.093
76.093
76.093
76.093
76.093
76.093
76.093
76.093
76.093
76.093
76.093
76.093
76.093
76.093
76.093
76.093
76.093
76.093
76.093
76.093
76.093
76.093
76.093
76.093
76.093
76.093
76.093
76.093
76.093
76.093
76.093
76.093
76.093
76.093
76.093
76.093
76.093
76.093
76.093
76.093
76.093
76.093
76.093
76.093
76.093
76.093
76.093
76.093
76.093
76.093
76.093
76.093
76.093
76.093
76.093
76.093
76.093
76.093
76.093
76.093
76.093
76.093
76.093
76.093
76.093
76.093
76.093
76.093
76.093
76.093
76.093
76.093
76.093
76.093
76.093
76.093
76.093
76.093
76.093
76.093
76.093
76.093
76.093
76.093
76.093
76.093
76.093
76.093
76.093
76.093
76.093
76.093
76.093
76.093
76.093
76.093
76.093
76.093
76.093
76.093
76.093
76.093
76.093
76.093
76.093
76.093
76.093
76.093
76.093
76.093
76.093
76.093
76.093
76.093
76.093
76.093
76.093
76.093
76.093
76.093
76.093
76.093
76.093
76.093
76.093
76.093
76.093
76.093
76.068
76.044
76.019
75.995
75.970
75.946
75.921
75.897
75.872
75.848
75.823
75.799
75.774
75.750
75.725
75.701
75.676
75.652
75.627
75.603
75.578
75.554
75.529
75.505
75.480
75.456
75.431
75.407
75.382
75.358
75.333
75.309
75.284
75.260
75.235
75.211
75.186
75.162
75.137
75.113
75.088
75.064
75.039
75.015
74.990
74.966
74.941
74.917
74.892
74.868
74.843
74.819
74.794
74.770
74.745
74.721
74.696
74.672
74.647
74.623
74.598
74.574
74.549
74.525
74.500
74.476
74.451
74.427
74.402
74.378
74.353
74.329
74.304
74.280
74.255
74.231
74.206
74.182
74.157
74.133
74.108
74.084
74.059
74.035
74.010
73.986
73.961
73.937
73.912
73.888
73.863
73.839
73.814
73.790
73.765
73.741
73.716
73.692
73.667
73.643
73.618
73.594
73.569
73.545
73.520
73.496
73.471
73.447
73.422
73.398
73.373
73.349
73.324
73.300
73.275
73.251
73.226
73.202
73.177
73.153
73.128
73.104
73.079
73.055
73.030
73.006
72.981
72.957
72.932
72.908
72.883
72.859
72.834
72.810
72.785
72.761
72.736
72.712
72.687
72.663
72.638
72.614
72.589
72.565
72.540
72.516
72.491
72.467
72.442
72.418
72.393
72.369
72.344
72.320
72.295
72.271
72.246
72.222
72.197
72.173
72.148
72.124
72.099
72.075
72.050
72.026
72.001
71.977
71.952
71.928
71.903
71.879
71.854
71.830
71.805
71.781
71.756
71.732
71.707
71.683
71.658
71.634
71.609
71.585
71.560
71.536
71.511
71.487
71.462
71.438
71.413
71.389
71.364
71.340
71.315
71.291
71.266
71.242
71.217
71.193
71.193
71.193
71.193
71.193
71.193
71.193
71.193
71.193
71.193
71.193
71.193
71.193
71.193
71.193
71.193
71.193
71.193
71.193
71.193
71.193
71.193
71.193
71.193
71.193
71.193
71.193
71.193
71.193
71.193
71.193
71.193
71.193
71.193
71.193
71.193
71.193
71.193
71.193
71.193
71.193
71.193
71.193
71.193
71.193
71.193
71.193
71.193
71.193
71.193
71.193
71.193
71.193
71.193
71.193
71.193
71.193
71.193
71.193
71.193
71.193
71.193
71.193
71.193
71.193
71.193
71.193
71.193
71.193
71.193
71.193
71.193
71.193
71.193
71.193
71.193
71.193
71.193
71.193
71.193
71.193
71.193
71.193
71.193
71.193
71.193
71.193
71.193
71.193
71.193
71.193
71.193
71.193
71.193
71.193
71.193
71.193
71.193
71.193
71.193
71.193
71.193
71.193
71.193
71.193
71.193
71.193
71.193
71.193
71.193
71.193
71.193
71.193
71.193
71.193
71.193
71.193
71.193
71.193
71.193
71.193
71.193
71.193
71.193
71.193
71.193
71.193
71.193
71.193
71.193
71.193
71.193
71.193
71.193
71.193
71.193
71.193
71.193
71.193
71.193
71.193
71.193
71.193
71.193
71.193
71.193
71.193
71.193
71.193
71.193
71.193
71.193
71.193
71.193
71.193
71.193
71.193
71.193
71.193
71.193
71.193
71.193
71.193
71.193
71.193
71.193
71.193
71.193
71.193
71.193
71.193
71.193
71.193
71.193
71.193
71.193
71.193
71.193
71.193
71.193
71.193
71.193
71.193
71.193
71.193
71.193
71.193
71.193
71.193
71.193
71.193
71.193
71.193
71.193
71.193
71.193
71.193
71.193
71.193
71.193
71.193
71.217
71.242
71.266
71.291
71.315
71.340
71.364
71.389
71.413
71.438
71.462
71.487
71.511
71.536
71.560
71.585
71.609
71.634
71.658
71.683
71.707
71.732
71.756
71.781
71.805
71.830
71.854
71.879
71.903
71.928
71.952
71.977
72.001
72.026
72.050
72.075
72.099
72.124
72.148
72.173
72.197
72.222
72.246
72.271
72.295
72.320
72.344
72.369
72.393
72.418
72.442
72.467
72.491
72.516
72.540
72.565
72.589
72.614
72.638
72.663
72.687
72.712
72.736
72.761
72.785
72.810
72.834
72.859
72.883
72.908
72.932
72.957
72.981
73.006
73.030
73.055
73.079
73.104
73.128
73.153
73.177
73.202
73.226
73.251
73.275
73.300
73.324
73.349
73.373
73.398
73.422
73.447
73.471
73.496
73.520
73.545
73.569
73.594
73.618
73.643
73.667
73.692
73.716
73.741
73.765
73.790
73.814
73.839
73.863
73.888
73.912
73.937
73.961
73.986
74.010
74.035
74.059
74.084
74.108
74.133
74.157
74.182
74.206
74.231
74.255
74.280
74.304
74.329
74.353
74.378
74.402
74.427
74.451
74.476
74.500
74.525
74.549
74.574
74.598
74.623
74.647
74.672
74.696
74.721
74.745
74.770
74.794
74.819
74.843
74.868
74.892
74.917
74.941
74.966
74.990
75.015
75.039
75.064
75.088
75.113
75.137
75.162
75.186
75.211
75.235
75.260
75.284
75.309
75.333
75.358
75.382
75.407
75.431
75.456
75.480
75.505
75.529
75.554
75.578
75.603
75.627
75.652
75.676
75.701
75.725
75.750
75.774
75.799
75.823
75.848
75.872
75.897
75.921
75.946
75.970
75.995
76.019
76.044
76.068
76.093
76.068
76.044
76.019
75.995
75.970
75.946
75.921
75.897
75.872
75.848
75.823
75.799
75.774
75.750
75.725
75.701
75.676
75.652
75.627
75.603
75.578
75.554
75.529
75.505
75.480
75.456
75.431
75.407
75.382
75.358
75.333
75.309
75.284
75.260
75.235
75.211
75.186
75.162
75.137
75.113
75.088
75.064
75.039
75.015
74.990
74.966
74.941
74.917
74.892
74.868
74.843
74.819
74.794
74.770
74.745
74.721
74.696
74.672
74.647
74.623
74.598
74.574
74.549
74.525
74.500
74.476
74.451
74.427
74.402
74.378
74.353
74.329
74.304
74.280
74.255
74.231
74.206
74.182
74.157
74.133
74.108
74.084
74.059
74.035
74.010
73.986
73.961
73.937
73.912
73.888
73.863
73.839
73.814
73.790
73.765
73.741
73.716
73.692
73.667
73.643
73.618
73.594
73.569
73.545
73.520
73.496
73.471
73.447
73.422
73.398
73.373
73.349
73.324
73.300
73.275
73.251
73.226
73.202
73.177
73.153
73.128
73.104
73.079
73.055
73.030
73.006
72.981
72.957
72.932
72.908
72.883
72.859
72.834
72.810
72.785
72.761
72.736
72.712
72.687
72.663
72.638
72.614
72.589
72.565
72.540
72.516
72.491
72.467
72.442
72.418
72.393
72.369
72.344
72.320
72.295
72.271
72.246
72.222
72.197
72.173
72.148
72.124
72.099
72.075
72.050
72.026
72.001
71.977
71.952
71.928
71.903
71.879
71.854
71.830
71.805
71.781
71.756
71.732
71.707
71.683
71.658
71.634
71.609
71.585
71.560
71.536
71.511
71.487
71.462
71.438
71.413
71.389
71.364
71.340
71.315
71.291
71.266
71.242
71.217
71.193
71.217
71.242
71.266
71.291
71.315
71.340
71.364
71.389
71.413
71.438
71.462
71.487
71.511
71.536
71.560
71.585
71.609
71.634
71.658
71.683
71.707
71.732
71.756
71.781
71.805
71.830
71.854
71.879
71.903
71.928
71.952
71.977
72.001
72.026
72.050
72.075
72.099
72.124
72.148
72.173
72.197
72.222
72.246
72.271
72.295
72.320
72.344
72.369
72.393
72.418
72.442
72.467
72.491
72.516
72.540
72.565
72.589
72.614
72.638
72.663
72.687
72.712
72.736
72.761
72.785
72.810
72.834
72.859
72.883
72.908
72.932
72.957
72.981
73.006
73.030
73.055
73.079
73.104
73.128
73.153
73.177
73.202
73.226
73.251
73.275
73.300
73.324
73.349
73.373
73.398
73.422
73.447
73.471
73.496
73.520
73.545
73.569
73.594
73.618
73.643
73.667
73.692
73.716
73.741
73.765
73.790
73.814
73.839
73.863
73.888
73.912
73.937
73.961
73.986
74.010
74.035
74.059
74.084
74.108
74.133
74.157
74.182
74.206
74.231
74.255
74.280
74.304
74.329
74.353
74.378
74.402
74.427
74.451
74.476
74.500
74.525
74.549
74.574
74.598
74.623
74.647
74.672
74.696
74.721
74.745
74.770
74.794
74.819
74.843
74.868
74.892
74.917
74.941
74.966
74.990
75.015
75.039
75.064
75.088
75.113
75.137
75.162
75.186
75.211
75.235
75.260
75.284
75.309
75.333
75.358
75.382
75.407
75.431
75.456
75.480
75.505
75.529
75.554
75.578
75.603
75.627
75.652
75.676
75.701
75.725
75.750
75.774
75.799
75.823
75.848
75.872
75.897
75.921
75.946
75.970
75.995
76.019
76.044
76.068
76.093
76.093
76.093
76.093
76.093
76.093
76.093
76.093
76.093
76.093
76.093
76.093
76.093
76.093
76.093
76.093
76.093
76.093
76.093
76.093
76.093
76.093
76.093
76.093
76.093
76.093
76.093
76.093
76.093
76.093
76.093
76.093
76.093
76.093
76.093
76.093
76.093
76.093
76.093
76.093
76.093
76.093
76.093
76.093
76.093
76.093
76.093
76.093
76.093
76.093
76.093
76.093
76.093
76.093
76.093
76.093
76.093
76.093
76.093
76.093
76.093
76.093
76.093
76.093
76.093
76.093
76.093
76.093
76.093
76.093
76.093
76.093
76.093
76.093
76.093
76.093
76.093
76.093
76.093
76.093
76.093
76.093
76.093
76.093
76.093
76.093
76.093
76.093
76.093
76.093
76.093
76.093
76.093
76.093
76.093
76.093
76.093
76.093
76.093
76.093
76.093
76.093
76.093
76.093
76.093
76.093
76.093
76.093
76.093
76.093
76.093
76.093
76.093
76.093
76.093
76.093
76.093
76.093
76.093
76.093
76.093
76.093
76.093
76.093
76.093
76.093
76.093
76.093
76.093
76.093
76.093
76.093
76.093
76.093
76.093
76.093
76.093
76.093
76.093
76.093
76.093
76.093
76.093
76.093
76.093
76.093
76.093
76.093
76.093
76.093
76.093
76.093
76.093
76.093
76.093
76.093
76.093
76.093
76.093
76.093
76.093
76.093
76.093
76.093
76.093
76.093
76.093
76.093
76.093
76.093
76.093
76.093
76.093
76.093
76.093
76.093
76.093
76.093
76.093
76.093
76.093
76.093
76.093
76.093
76.093
76.093
76.093
76.093
76.093
76.093
76.093
76.093
76.093
76.093
76.093
76.093
76.093
76.093
76.093
76.093
76.093
76.068
76.044
76.019
75.995
75.970
75.946
75.921
75.897
75.872
75.848
75.823
75.799
75.774
75.750
75.725
75.701
75.676
75.652
75.627
75.603
75.578
75.554
75.529
75.505
75.480
75.456
75.431
75.407
75.382
75.358
75.333
75.309
75.284
75.260
75.235
75.211
75.186
75.162
75.137
75.113
75.088
75.064
75.039
75.015
74.990
74.966
74.941
74.917
74.892
74.868
74.843
74.819
74.794
74.770
74.745
74.721
74.696
74.672
74.647
74.623
74.598
74.574
74.549
74.525
74.500
74.476
74.451
74.427
74.402
74.378
74.353
74.329
74.304
74.280
74.255
74.231
74.206
74.182
74.157
74.133
74.108
74.084
74.059
74.035
74.010
73.986
73.961
73.937
73.912
73.888
73.863
73.839
73.814
73.790
73.765
73.741
73.716
73.692
73.667
73.643
73.618
73.594
73.569
73.545
73.520
73.496
73.471
73.447
73.422
73.398
73.373
73.349
73.324
73.300
73.275
73.251
73.226
73.202
73.177
73.153
73.128
73.104
73.079
73.055
73.030
73.006
72.981
72.957
72.932
72.908
72.883
72.859
72.834
72.810
72.785
72.761
72.736
72.712
72.687
72.663
72.638
72.614
72.589
72.565
72.540
72.516
72.491
72.467
72.442
72.418
72.393
72.369
72.344
72.320
72.295
72.271
72.246
72.222
72.197
72.173
72.148
72.124
72.099
72.075
72.050
72.026
72.001
71.977
71.952
71.928
71.903
71.879
71.854
71.830
71.805
71.781
71.756
71.732
71.707
71.683
71.658
71.634
71.609
71.585
71.560
71.536
71.511
71.487
71.462
71.438
71.413
71.389
71.364
71.340
71.315
71.291
71.266
71.242
71.217
71.193
71.217
71.242
71.266
71.291
71.315
71.340
71.364
71.389
71.413
71.438
71.462
71.487
71.511
71.536
71.560
71.585
71.609
71.634
71.658
71.683
71.707
71.732
71.756
71.781
71.805
71.830
71.854
71.879
71.903
71.928
71.952
71.977
72.001
72.026
72.050
72.075
72.099
72.124
72.148
72.173
72.197
72.222
72.246
72.271
72.295
72.320
72.344
72.369
72.393
72.418
72.442
72.467
72.491
72.516
72.540
72.565
72.589
72.614
72.638
72.663
72.687
72.712
72.736
72.761
72.785
72.810
72.834
72.859
72.883
72.908
72.932
72.957
72.981
73.006
73.030
73.055
73.079
73.104
73.128
73.153
73.177
73.202
73.226
73.251
73.275
73.300
73.324
73.349
73.373
73.398
73.422
73.447
73.471
73.496
73.520
73.545
73.569
73.594
73.618
73.643
73.667
73.692
73.716
73.741
73.765
73.790
73.814
73.839
73.863
73.888
73.912
73.937
73.961
73.986
74.010
74.035
74.059
74.084
74.108
74.133
74.157
74.182
74.206
74.231
74.255
74.280
74.304
74.329
74.353
74.378
74.402
74.427
74.451
74.476
74.500
74.525
74.549
74.574
74.598
74.623
74.647
74.672
74.696
74.721
74.745
74.770
74.794
74.819
74.843
74.868
74.892
74.917
74.941
74.966
74.990
75.015
75.039
75.064
75.088
75.113
75.137
75.162
75.186
75.211
75.235
75.260
75.284
75.309
75.333
75.358
75.382
75.407
75.431
75.456
75.480
75.505
75.529
75.554
75.578
75.603
75.627
75.652
75.676
75.701
75.725
75.750
75.774
75.799
75.823
75.848
75.872
75.897
75.921
75.946
75.970
75.995
76.019
76.044
76.068
