96.637
96.612
96.588
96.563
96.539
96.514
96.490
96.465
96.441
96.416
96.392
96.367
96.343
96.318
96.294
96.269
96.245
96.220
96.196
96.171
96.147
96.122
96.098
96.073
96.049
96.024
96.000
95.975
95.951
95.926
95.902
95.877
95.853
95.828
95.804
95.779
95.755
95.730
95.706
95.681
95.657
95.632
95.608
95.583
95.559
95.534
95.510
95.485
95.461
95.436
95.412
95.387
95.363
95.338
95.314
95.289
95.265
95.240
95.216
95.191
95.167
95.142
95.118
95.093
95.069
95.044
95.020
94.995
94.971
94.946
94.922
94.897
94.873
94.848
94.824
94.799
94.775
94.750
94.726
94.701
94.677
94.652
94.628
94.603
94.579
94.554
94.530
94.505
94.481
94.456
94.432
94.407
94.383
94.358
94.334
94.309
94.285
94.260
94.236
94.211
94.187
94.162
94.138
94.113
94.089
94.064
94.040
94.015
93.991
93.966
93.942
93.917
93.893
93.868
93.844
93.819
93.795
93.770
93.746
93.721
93.697
93.672
93.648
93.623
93.599
93.574
93.550
93.525
93.501
93.476
93.452
93.427
93.403
93.378
93.354
93.329
93.305
93.280
93.256
93.231
93.207
93.182
93.158
93.133
93.109
93.084
93.060
93.035
93.011
92.986
92.962
92.937
92.913
92.888
92.864
92.839
92.815
92.790
92.766
92.741
92.717
92.692
92.668
92.643
92.619
92.594
92.570
92.545
92.521
92.496
92.472
92.447
92.423
92.398
92.374
92.349
92.325
92.300
92.276
92.251
92.227
92.202
92.178
92.153
92.129
92.104
92.080
92.055
92.031
92.006
91.982
91.957
91.933
91.908
91.884
91.859
91.835
91.810
91.786
91.761
91.737
91.737
91.737
91.737
91.737
91.737
91.737
91.737
91.737
91.737
91.737
91.737
91.737
91.737
91.737
91.737
91.737
91.737
91.737
91.737
91.737
91.737
91.737
91.737
91.737
91.737
91.737
91.737
91.737
91.737
91.737
91.737
91.737
91.737
91.737
91.737
91.737
91.737
91.737
91.737
91.737
91.737
91.737
91.737
91.737
91.737
91.737
91.737
91.737
91.737
91.737
91.737
91.737
91.737
91.737
91.737
91.737
91.737
91.737
91.737
91.737
91.737
91.737
91.737
91.737
91.737
91.737
91.737
91.737
91.737
91.737
91.737
91.737
91.737
91.737
91.737
91.737
91.737
91.737
91.737
91.737
91.737
91.737
91.737
91.737
91.737
91.737
91.737
91.737
91.737
91.737
91.737
91.737
91.737
91.737
91.737
91.737
91.737
91.737
91.737
91.737
91.737
91.737
91.737
91.737
91.737
91.737
91.737
91.737
91.737
91.737
91.737
91.737
91.737
91.737
91.737
91.737
91.737
91.737
91.737
91.737
91.737
91.737
91.737
91.737
91.737
91.737
91.737
91.737
91.737
91.737
91.737
91.737
91.737
91.737
91.737
91.737
91.737
91.737
91.737
91.737
91.737
91.737
91.737
91.737
91.737
91.737
91.737
91.737
91.737
91.737
91.737
91.737
91.737
91.737
91.737
91.737
91.737
91.737
91.737
91.737
91.737
91.737
91.737
91.737
91.737
91.737
91.737
91.737
91.737
91.737
91.737
91.737
91.737
91.737
91.737
91.737
91.737
91.737
91.737
91.737
91.737
91.737
91.737
91.737
91.737
91.737
91.737
91.737
91.737
91.737
91.737
91.737
91.737
91.737
91.737
91.737
91.737
91.737
91.737
91.737
91.737
91.737
91.737
91.737
91.737
91.737
91.737
91.737
91.737
91.737
91.737
91.737
91.737
91.737
91.737
91.737
91.737
91.737
91.737
91.737
91.737
91.737
91.737
91.737
91.737
91.737
91.737
91.737
91.737
91.737
91.737
91.737
91.737
91.737
91.737
91.737
91.737
91.737
91.737
91.737
91.737
91.737
91.737
91.737
91.737
91.737
91.737
91.737
91.737
91.737
91.737
91.737
91.737
91.737
91.737
91.737
91.737
91.737
91.737
91.737
91.737
91.737
91.737
91.737
91.737
91.737
91.737
91.737
91.737
91.737
91.737
91.737
91.737
91.737
91.737
91.737
91.737
91.737
91.737
91.737
91.737
91.737
91.737
91.737
91.737
91.737
91.737
91.737
91.737
91.737
91.737
91.737
91.737
91.737
91.737
91.737
91.737
91.737
91.737
91.737
91.737
91.737
91.737
91.737
91.737
91.737
91.737
91.737
91.737
91.737
91.737
91.737
91.737
91.737
91.737
91.737
91.737
91.737
91.737
91.737
91.737
91.737
91.737
91.737
91.737
91.737
91.737
91.737
91.737
91.737
91.737
91.737
91.737
91.737
91.737
91.737
91.737
91.737
91.737
91.737
91.737
91.737
91.737
91.737
91.737
91.737
91.737
91.737
91.737
91.737
91.737
91.737
91.737
91.737
91.737
91.737
91.737
91.737
91.737
91.737
91.737
91.737
91.737
91.737
91.737
91.737
91.737
91.737
91.737
91.737
91.737
91.737
91.737
91.737
91.737
91.737
91.737
91.737
91.737
91.737
91.737
91.737
91.737
91.737
91.737
91.737
91.737
91.737
91.737
91.737
91.737
91.737
91.737
91.737
91.737
91.737
91.737
91.737
91.737
91.737
91.761
91.786
91.810
91.835
91.859
91.884
91.908
91.933
91.957
91.982
92.006
92.031
92.055
92.080
92.104
92.129
92.153
92.178
92.202
92.227
92.251
92.276
92.300
92.325
92.349
92.374
92.398
92.423
92.447
92.472
92.496
92.521
92.545
92.570
92.594
92.619
92.643
92.668
92.692
92.717
92.741
92.766
92.790
92.815
92.839
92.864
92.888
92.913
92.937
92.962
92.986
93.011
93.035
93.060
93.084
93.109
93.133
93.158
93.182
93.207
93.231
93.256
93.280
93.305
93.329
93.354
93.378
93.403
93.427
93.452
93.476
93.501
93.525
93.550
93.574
93.599
93.623
93.648
93.672
93.697
93.721
93.746
93.770
93.795
93.819
93.844
93.868
93.893
93.917
93.942
93.966
93.991
94.015
94.040
94.064
94.089
94.113
94.138
94.162
94.187
94.211
94.236
94.260
94.285
94.309
94.334
94.358
94.383
94.407
94.432
94.456
94.481
94.505
94.530
94.554
94.579
94.603
94.628
94.652
94.677
94.701
94.726
94.750
94.775
94.799
94.824
94.848
94.873
94.897
94.922
94.946
94.971
94.995
95.020
95.044
95.069
95.093
95.118
95.142
95.167
95.191
95.216
95.240
95.265
95.289
95.314
95.338
95.363
95.387
95.412
95.436
95.461
95.485
95.510
95.534
95.559
95.583
95.608
95.632
95.657
95.681
95.706
95.730
95.755
95.779
95.804
95.828
95.853
95.877
95.902
95.926
95.951
95.975
96.000
96.024
96.049
96.073
96.098
96.122
96.147
96.171
96.196
96.220
96.245
96.269
96.294
96.318
96.343
96.367
96.392
96.416
96.441
96.465
96.490
96.514
96.539
96.563
96.588
96.612
96.637
96.612
96.588
96.563
96.539
96.514
96.490
96.465
96.441
96.416
96.392
96.367
96.343
96.318
96.294
96.269
96.245
96.220
96.196
96.171
96.147
96.122
96.098
96.073
96.049
96.024
96.000
95.975
95.951
95.926
95.902
95.877
95.853
95.828
95.804
95.779
95.755
95.730
95.706
95.681
95.657
95.632
95.608
95.583
95.559
95.534
95.510
95.485
95.461
95.436
95.412
95.387
95.363
95.338
95.314
95.289
95.265
95.240
95.216
95.191
95.167
95.142
95.118
95.093
95.069
95.044
95.020
94.995
94.971
94.946
94.922
94.897
94.873
94.848
94.824
94.799
94.775
94.750
94.726
94.701
94.677
94.652
94.628
94.603
94.579
94.554
94.530
94.505
94.481
94.456
94.432
94.407
94.383
94.358
94.334
94.309
94.285
94.260
94.236
94.211
94.187
94.162
94.138
94.113
94.089
94.064
94.040
94.015
93.991
93.966
93.942
93.917
93.893
93.868
93.844
93.819
93.795
93.770
93.746
93.721
93.697
93.672
93.648
93.623
93.599
93.574
93.550
93.525
93.501
93.476
93.452
93.427
93.403
93.378
93.354
93.329
93.305
93.280
93.256
93.231
93.207
93.182
93.158
93.133
93.109
93.084
93.060
93.035
93.011
92.986
92.962
92.937
92.913
92.888
92.864
92.839
92.815
92.790
92.766
92.741
92.717
92.692
92.668
92.643
92.619
92.594
92.570
92.545
92.521
92.496
92.472
92.447
92.423
92.398
92.374
92.349
92.325
92.300
92.276
92.251
92.227
92.202
92.178
92.153
92.129
92.104
92.080
92.055
92.031
92.006
91.982
91.957
91.933
91.908
91.884
91.859
91.835
91.810
91.786
91.761
91.737
91.737
91.737
91.737
91.737
91.737
91.737
91.737
91.737
91.737
91.737
91.737
91.737
91.737
91.737
91.737
91.737
91.737
91.737
91.737
91.737
91.737
91.737
91.737
91.737
91.737
91.737
91.737
91.737
91.737
91.737
91.737
91.737
91.737
91.737
91.737
91.737
91.737
91.737
91.737
91.737
91.737
91.737
91.737
91.737
91.737
91.737
91.737
91.737
91.737
91.737
91.737
91.737
91.737
91.737
91.737
91.737
91.737
91.737
91.737
91.737
91.737
91.737
91.737
91.737
91.737
91.737
91.737
91.737
91.737
91.737
91.737
91.737
91.737
91.737
91.737
91.737
91.737
91.737
91.737
91.737
91.737
91.737
91.737
91.737
91.737
91.737
91.737
91.737
91.737
91.737
91.737
91.737
91.737
91.737
91.737
91.737
91.737
91.737
91.737
91.737
91.737
91.737
91.737
91.737
91.737
91.737
91.737
91.737
91.737
91.737
91.737
91.737
91.737
91.737
91.737
91.737
91.737
91.737
91.737
91.737
91.737
91.737
91.737
91.737
91.737
91.737
91.737
91.737
91.737
91.737
91.737
91.737
91.737
91.737
91.737
91.737
91.737
91.737
91.737
91.737
91.737
91.737
91.737
91.737
91.737
91.737
91.737
91.737
91.737
91.737
91.737
91.737
91.737
91.737
91.737
91.737
91.737
91.737
91.737
91.737
91.737
91.737
91.737
91.737
91.737
91.737
91.737
91.737
91.737
91.737
91.737
91.737
91.737
91.737
91.737
91.737
91.737
91.737
91.737
91.737
91.737
91.737
91.737
91.737
91.737
91.737
91.737
91.737
91.737
91.737
91.737
91.737
91.737
91.737
91.737
91.737
91.737
91.737
91.737
91.737
91.737
91.737
91.737
91.737
91.737
91.737
91.737
91.737
91.737
91.737
91.737
91.737
91.737
91.737
91.737
91.737
91.737
91.737
91.737
91.737
91.737
91.737
91.737
91.737
91.737
91.737
91.737
91.737
91.737
91.737
91.737
91.737
91.737
91.737
91.737
91.737
91.737
91.737
91.737
91.737
91.737
91.737
91.737
91.737
91.737
91.737
91.737
91.737
91.737
91.737
91.737
91.737
91.737
91.737
91.737
91.737
91.737
91.737
91.737
91.737
91.737
91.737
91.737
91.737
91.737
91.737
91.737
91.737
91.737
91.737
91.737
91.737
91.737
91.737
91.737
91.737
91.737
91.737
91.737
91.737
91.737
91.737
91.737
91.737
91.737
91.737
91.737
91.737
91.737
91.737
91.737
91.737
91.737
91.737
91.737
91.737
91.737
91.737
91.737
91.737
91.737
91.737
91.737
91.737
91.737
91.737
91.737
91.737
91.737
91.737
91.737
91.737
91.737
91.737
91.737
91.737
91.737
91.737
91.737
91.737
91.737
91.737
91.737
91.737
91.737
91.737
91.737
91.737
91.737
91.737
91.737
91.737
91.737
91.737
91.737
91.737
91.737
91.737
91.737
91.737
91.737
91.737
91.737
91.737
91.737
91.737
91.737
91.737
91.737
91.737
91.737
91.737
91.737
91.737
91.737
91.737
91.737
91.737
91.737
91.737
91.737
91.737
91.737
91.737
91.737
91.737
91.737
91.737
91.737
91.737
91.737
91.737
91.737
91.737
91.737
91.737
91.737
91.737
91.737
91.737
91.737
91.737
91.737
91.737
91.737
91.737
91.737
91.737
91.737
91.737
91.737
91.737
91.737
91.737
91.737
91.737
91.737
91.737
91.737
91.737
91.737
91.737
91.737
91.737
91.737
91.737
91.737
91.737
91.737
91.737
91.737
91.737
91.737
91.737
91.737
91.737
91.737
91.737
91.737
91.737
91.737
91.737
91.737
91.737
91.737
91.737
91.737
91.737
91.737
91.737
91.737
91.737
91.737
91.737
91.737
91.737
91.737
91.737
91.737
91.737
91.737
91.737
91.737
91.737
91.737
91.737
91.737
91.737
91.737
91.737
91.737
91.737
91.737
91.737
91.737
91.737
91.737
91.737
91.737
91.737
91.737
91.737
91.737
91.737
91.737
91.737
91.737
91.737
91.737
91.737
91.737
91.737
91.737
91.737
91.737
91.737
91.737
91.737
91.737
91.737
91.737
91.737
91.737
91.737
91.737
91.737
91.737
91.737
91.737
91.737
91.737
91.737
91.737
91.737
91.737
91.737
91.737
91.737
91.737
91.737
91.737
91.737
91.737
91.737
91.737
91.737
91.737
91.737
91.737
91.737
91.737
91.737
91.737
91.737
91.737
91.737
91.737
91.737
91.737
91.737
91.737
91.737
91.737
91.737
91.737
91.737
91.737
91.737
91.737
91.737
91.737
91.737
91.737
91.737
91.737
91.737
91.737
91.737
91.737
91.737
91.737
91.737
91.737
91.737
91.737
91.737
91.737
91.737
91.737
91.737
91.737
91.737
91.737
91.737
91.737
91.737
91.737
91.737
91.737
91.737
91.737
91.737
91.737
91.737
91.737
91.737
91.737
91.737
91.737
91.737
91.737
91.737
91.737
91.737
91.737
91.737
91.737
91.737
91.737
91.737
91.737
91.737
91.737
91.737
91.737
91.737
91.737
91.737
91.737
91.737
91.737
91.737
91.737
91.737
91.737
91.737
91.737
91.737
91.737
91.737
91.737
91.737
91.737
91.737
91.737
91.737
91.737
91.737
91.737
91.737
91.737
91.737
91.737
91.737
91.737
91.737
91.737
91.737
91.737
91.737
91.737
91.737
91.737
91.737
91.737
91.737
91.737
91.737
91.737
91.737
91.737
91.737
91.737
91.737
91.737
91.737
91.737
91.737
91.737
91.737
91.737
91.737
91.737
91.737
91.737
91.737
91.737
91.737
91.737
91.737
91.737
91.737
91.737
91.737
91.737
91.737
91.737
91.737
91.737
91.737
91.737
91.737
91.737
91.737
91.737
91.737
91.737
91.737
91.737
91.737
91.737
91.737
91.737
91.737
91.737
91.737
91.737
91.737
91.737
91.737
91.737
91.737
91.737
91.737
91.737
91.737
91.737
91.737
91.737
91.737
91.737
91.737
91.737
91.737
91.737
91.737
91.737
91.737
91.737
91.737
91.737
91.737
91.737
91.737
91.737
91.737
91.737
91.737
91.737
91.737
91.737
91.737
91.737
91.737
91.737
91.737
91.737
91.737
91.737
91.737
91.737
91.737
91.737
91.737
91.737
91.737
91.737
91.737
91.737
91.737
91.737
91.737
91.737
91.737
91.737
91.737
91.737
91.737
91.737
91.737
91.737
91.737
91.737
91.737
91.737
91.737
91.737
91.737
91.737
91.737
91.737
91.737
91.737
91.737
91.737
91.737
91.737
91.737
91.737
91.737
91.737
91.737
91.737
91.737
91.737
91.737
91.737
91.737
91.737
91.737
91.737
91.737
91.737
91.737
91.737
91.737
91.737
91.737
91.737
91.737
91.737
91.737
91.737
91.737
91.737
91.737
91.737
91.737
91.737
91.737
91.737
91.737
91.737
91.737
91.737
91.737
91.737
91.737
91.737
91.737
91.737
91.737
91.737
91.737
91.737
91.737
91.737
91.737
91.737
91.737
91.737
91.737
91.737
91.737
91.737
91.737
91.737
91.737
91.737
91.737
91.737
91.737
91.737
91.737
91.737
91.737
91.737
91.737
91.737
91.737
91.737
91.737
91.737
91.737
91.737
91.737
91.737
91.737
91.737
91.737
91.737
91.737
91.737
91.737
91.737
91.737
91.737
91.737
91.737
91.737
91.737
91.737
91.737
91.737
91.737
91.737
91.737
91.737
91.737
91.737
91.737
91.737
91.737
91.737
91.737
91.737
91.737
91.737
91.737
91.737
91.737
91.737
91.737
91.737
91.737
91.737
91.737
91.737
91.737
91.737
91.737
91.737
91.737
91.737
91.737
91.737
91.737
91.737
91.737
91.737
91.737
91.737
91.737
91.737
91.737
91.737
91.737
91.737
91.737
91.737
91.737
91.737
91.737
91.737
91.737
91.737
91.737
91.737
91.737
91.737
91.737
91.737
91.737
91.737
91.737
91.737
91.737
91.737
91.737
91.737
91.737
91.737
91.737
91.737
91.737
91.737
91.737
91.737
91.737
91.737
91.737
91.737
91.737
91.737
91.737
91.737
91.737
91.737
91.737
91.737
91.737
91.737
91.737
91.737
91.737
91.737
91.737
91.737
91.737
91.737
91.737
91.737
91.737
91.737
91.737
91.737
91.737
91.737
91.737
91.737
91.737
91.737
91.737
91.737
91.737
91.737
91.737
91.737
91.737
91.737
91.737
91.737
91.737
91.737
91.737
91.737
91.737
91.737
91.737
91.737
91.737
91.737
91.737
91.737
91.737
91.737
91.737
91.737
91.737
91.737
91.737
91.737
91.737
91.737
91.737
91.737
91.737
91.737
91.737
