88.372
88.372
88.372
88.372
88.372
88.372
88.372
88.372
88.372
88.372
88.372
88.372
88.372
88.372
88.372
88.372
88.372
88.372
88.372
88.372
88.372
88.372
88.372
88.372
88.372
88.372
88.372
88.372
88.372
88.372
88.372
88.372
88.372
88.372
88.372
88.372
88.372
88.372
88.372
88.372
88.372
88.372
88.372
88.372
88.372
88.372
88.372
88.372
88.372
88.372
88.372
88.372
88.372
88.372
88.372
88.372
88.372
88.372
88.372
88.372
88.372
88.372
88.372
88.372
88.372
88.372
88.372
88.372
88.372
88.372
88.372
88.372
88.372
88.372
88.372
88.372
88.372
88.372
88.372
88.372
88.372
88.372
88.372
88.372
88.372
88.372
88.372
88.372
88.372
88.372
88.372
88.372
88.372
88.372
88.372
88.372
88.372
88.372
88.372
88.372
88.372
88.372
88.372
88.372
88.372
88.372
88.372
88.372
88.372
88.372
88.372
88.372
88.372
88.372
88.372
88.372
88.372
88.372
88.372
88.372
88.372
88.372
88.372
88.372
88.372
88.372
88.372
88.372
88.372
88.372
88.372
88.372
88.372
88.372
88.372
88.372
88.372
88.372
88.372
88.372
88.372
88.372
88.372
88.372
88.372
88.372
88.372
88.372
88.372
88.372
88.372
88.372
88.372
88.372
88.372
88.372
88.372
88.372
88.372
88.372
88.372
88.372
88.372
88.372
88.372
88.372
88.372
88.372
88.372
88.372
88.372
88.372
88.372
88.372
88.372
88.372
88.372
88.372
88.372
88.372
88.372
88.372
88.372
88.372
88.372
88.372
88.372
88.372
88.372
88.372
88.372
88.372
88.372
88.372
88.372
88.372
88.372
88.372
88.372
88.372
88.372
88.372
88.372
88.372
88.372
88.372
88.372
88.372
88.372
88.372
88.372
88.372
88.372
88.372
88.372
88.372
88.372
88.372
88.372
88.372
88.372
88.372
88.372
88.372
88.372
88.372
88.372
88.372
88.372
88.372
88.372
88.372
88.372
88.372
88.372
88.372
88.372
88.372
88.372
88.372
88.372
88.372
88.372
88.372
88.372
88.372
88.372
88.372
88.372
88.372
88.372
88.372
88.372
88.372
88.372
88.372
88.372
88.372
88.372
88.372
88.372
88.372
88.372
88.372
88.372
88.372
88.372
88.372
88.372
88.372
88.372
88.372
88.372
88.372
88.372
88.372
88.372
88.372
88.372
88.372
88.372
88.372
88.372
88.372
88.372
88.372
88.372
88.372
88.372
88.372
88.372
88.372
88.372
88.372
88.372
88.372
88.372
88.372
88.372
88.372
88.372
88.372
88.372
88.372
88.372
88.372
88.372
88.372
88.372
88.372
88.372
88.372
88.372
88.372
88.372
88.372
88.372
88.372
88.372
88.372
88.372
88.372
88.372
88.372
88.372
88.372
88.372
88.372
88.372
88.372
88.372
88.372
88.372
88.372
88.372
88.372
88.372
88.372
88.372
88.372
88.372
88.372
88.372
88.372
88.372
88.372
88.372
88.372
88.372
88.372
88.372
88.372
88.372
88.372
88.372
88.372
88.372
88.372
88.372
88.372
88.372
88.372
88.372
88.372
88.372
88.372
88.372
88.372
88.372
88.372
88.372
88.372
88.372
88.372
88.372
88.372
88.372
88.372
88.372
88.372
88.372
88.372
88.372
88.372
88.372
88.372
88.372
88.372
88.372
88.372
88.372
88.372
88.372
88.372
88.372
88.372
88.372
88.372
88.372
88.372
88.372
88.348
88.323
88.299
88.274
88.250
88.225
88.201
88.176
88.152
88.127
88.103
88.078
88.054
88.029
88.005
87.980
87.956
87.931
87.907
87.882
87.858
87.833
87.809
87.784
87.760
87.735
87.711
87.686
87.662
87.637
87.613
87.588
87.564
87.539
87.515
87.490
87.466
87.441
87.417
87.392
87.368
87.343
87.319
87.294
87.270
87.245
87.221
87.196
87.172
87.147
87.123
87.098
87.074
87.049
87.025
87.000
86.976
86.951
86.927
86.902
86.878
86.853
86.829
86.804
86.780
86.755
86.731
86.706
86.682
86.657
86.633
86.608
86.584
86.559
86.535
86.510
86.486
86.461
86.437
86.412
86.388
86.363
86.339
86.314
86.290
86.265
86.241
86.216
86.192
86.167
86.143
86.118
86.094
86.069
86.045
86.020
85.996
85.971
85.947
85.922
85.898
85.873
85.849
85.824
85.800
85.775
85.751
85.726
85.702
85.677
85.653
85.628
85.604
85.579
85.555
85.530
85.506
85.481
85.457
85.432
85.408
85.383
85.359
85.334
85.310
85.285
85.261
85.236
85.212
85.187
85.163
85.138
85.114
85.089
85.065
85.040
85.016
84.991
84.967
84.942
84.918
84.893
84.869
84.844
84.820
84.795
84.771
84.746
84.722
84.697
84.673
84.648
84.624
84.599
84.575
84.550
84.526
84.501
84.477
84.452
84.428
84.403
84.379
84.354
84.330
84.305
84.281
84.256
84.232
84.207
84.183
84.158
84.134
84.109
84.085
84.060
84.036
84.011
83.987
83.962
83.938
83.913
83.889
83.864
83.840
83.815
83.791
83.766
83.742
83.717
83.693
83.668
83.644
83.619
83.595
83.570
83.546
83.521
83.497
83.472
83.472
83.472
83.472
83.472
83.472
83.472
83.472
83.472
83.472
83.472
83.472
83.472
83.472
83.472
83.472
83.472
83.472
83.472
83.472
83.472
83.472
83.472
83.472
83.472
83.472
83.472
83.472
83.472
83.472
83.472
83.472
83.472
83.472
83.472
83.472
83.472
83.472
83.472
83.472
83.472
83.472
83.472
83.472
83.472
83.472
83.472
83.472
83.472
83.472
83.472
83.472
83.472
83.472
83.472
83.472
83.472
83.472
83.472
83.472
83.472
83.472
83.472
83.472
83.472
83.472
83.472
83.472
83.472
83.472
83.472
83.472
83.472
83.472
83.472
83.472
83.472
83.472
83.472
83.472
83.472
83.472
83.472
83.472
83.472
83.472
83.472
83.472
83.472
83.472
83.472
83.472
83.472
83.472
83.472
83.472
83.472
83.472
83.472
83.472
83.472
83.472
83.472
83.472
83.472
83.472
83.472
83.472
83.472
83.472
83.472
83.472
83.472
83.472
83.472
83.472
83.472
83.472
83.472
83.472
83.472
83.472
83.472
83.472
83.472
83.472
83.472
83.472
83.472
83.472
83.472
83.472
83.472
83.472
83.472
83.472
83.472
83.472
83.472
83.472
83.472
83.472
83.472
83.472
83.472
83.472
83.472
83.472
83.472
83.472
83.472
83.472
83.472
83.472
83.472
83.472
83.472
83.472
83.472
83.472
83.472
83.472
83.472
83.472
83.472
83.472
83.472
83.472
83.472
83.472
83.472
83.472
83.472
83.472
83.472
83.472
83.472
83.472
83.472
83.472
83.472
83.472
83.472
83.472
83.472
83.472
83.472
83.472
83.472
83.472
83.472
83.472
83.472
83.472
83.472
83.472
83.472
83.472
83.472
83.472
83.472
83.497
83.521
83.546
83.570
83.595
83.619
83.644
83.668
83.693
83.717
83.742
83.766
83.791
83.815
83.840
83.864
83.889
83.913
83.938
83.962
83.987
84.011
84.036
84.060
84.085
84.109
84.134
84.158
84.183
84.207
84.232
84.256
84.281
84.305
84.330
84.354
84.379
84.403
84.428
84.452
84.477
84.501
84.526
84.550
84.575
84.599
84.624
84.648
84.673
84.697
84.722
84.746
84.771
84.795
84.820
84.844
84.869
84.893
84.918
84.942
84.967
84.991
85.016
85.040
85.065
85.089
85.114
85.138
85.163
85.187
85.212
85.236
85.261
85.285
85.310
85.334
85.359
85.383
85.408
85.432
85.457
85.481
85.506
85.530
85.555
85.579
85.604
85.628
85.653
85.677
85.702
85.726
85.751
85.775
85.800
85.824
85.849
85.873
85.898
85.922
85.947
85.971
85.996
86.020
86.045
86.069
86.094
86.118
86.143
86.167
86.192
86.216
86.241
86.265
86.290
86.314
86.339
86.363
86.388
86.412
86.437
86.461
86.486
86.510
86.535
86.559
86.584
86.608
86.633
86.657
86.682
86.706
86.731
86.755
86.780
86.804
86.829
86.853
86.878
86.902
86.927
86.951
86.976
87.000
87.025
87.049
87.074
87.098
87.123
87.147
87.172
87.196
87.221
87.245
87.270
87.294
87.319
87.343
87.368
87.392
87.417
87.441
87.466
87.490
87.515
87.539
87.564
87.588
87.613
87.637
87.662
87.686
87.711
87.735
87.760
87.784
87.809
87.833
87.858
87.882
87.907
87.931
87.956
87.980
88.005
88.029
88.054
88.078
88.103
88.127
88.152
88.176
88.201
88.225
88.250
88.274
88.299
88.323
88.348
88.372
88.348
88.323
88.299
88.274
88.250
88.225
88.201
88.176
88.152
88.127
88.103
88.078
88.054
88.029
88.005
87.980
87.956
87.931
87.907
87.882
87.858
87.833
87.809
87.784
87.760
87.735
87.711
87.686
87.662
87.637
87.613
87.588
87.564
87.539
87.515
87.490
87.466
87.441
87.417
87.392
87.368
87.343
87.319
87.294
87.270
87.245
87.221
87.196
87.172
87.147
87.123
87.098
87.074
87.049
87.025
87.000
86.976
86.951
86.927
86.902
86.878
86.853
86.829
86.804
86.780
86.755
86.731
86.706
86.682
86.657
86.633
86.608
86.584
86.559
86.535
86.510
86.486
86.461
86.437
86.412
86.388
86.363
86.339
86.314
86.290
86.265
86.241
86.216
86.192
86.167
86.143
86.118
86.094
86.069
86.045
86.020
85.996
85.971
85.947
85.922
85.898
85.873
85.849
85.824
85.800
85.775
85.751
85.726
85.702
85.677
85.653
85.628
85.604
85.579
85.555
85.530
85.506
85.481
85.457
85.432
85.408
85.383
85.359
85.334
85.310
85.285
85.261
85.236
85.212
85.187
85.163
85.138
85.114
85.089
85.065
85.040
85.016
84.991
84.967
84.942
84.918
84.893
84.869
84.844
84.820
84.795
84.771
84.746
84.722
84.697
84.673
84.648
84.624
84.599
84.575
84.550
84.526
84.501
84.477
84.452
84.428
84.403
84.379
84.354
84.330
84.305
84.281
84.256
84.232
84.207
84.183
84.158
84.134
84.109
84.085
84.060
84.036
84.011
83.987
83.962
83.938
83.913
83.889
83.864
83.840
83.815
83.791
83.766
83.742
83.717
83.693
83.668
83.644
83.619
83.595
83.570
83.546
83.521
83.497
83.472
83.497
83.521
83.546
83.570
83.595
83.619
83.644
83.668
83.693
83.717
83.742
83.766
83.791
83.815
83.840
83.864
83.889
83.913
83.938
83.962
83.987
84.011
84.036
84.060
84.085
84.109
84.134
84.158
84.183
84.207
84.232
84.256
84.281
84.305
84.330
84.354
84.379
84.403
84.428
84.452
84.477
84.501
84.526
84.550
84.575
84.599
84.624
84.648
84.673
84.697
84.722
84.746
84.771
84.795
84.820
84.844
84.869
84.893
84.918
84.942
84.967
84.991
85.016
85.040
85.065
85.089
85.114
85.138
85.163
85.187
85.212
85.236
85.261
85.285
85.310
85.334
85.359
85.383
85.408
85.432
85.457
85.481
85.506
85.530
85.555
85.579
85.604
85.628
85.653
85.677
85.702
85.726
85.751
85.775
85.800
85.824
85.849
85.873
85.898
85.922
85.947
85.971
85.996
86.020
86.045
86.069
86.094
86.118
86.143
86.167
86.192
86.216
86.241
86.265
86.290
86.314
86.339
86.363
86.388
86.412
86.437
86.461
86.486
86.510
86.535
86.559
86.584
86.608
86.633
86.657
86.682
86.706
86.731
86.755
86.780
86.804
86.829
86.853
86.878
86.902
86.927
86.951
86.976
87.000
87.025
87.049
87.074
87.098
87.123
87.147
87.172
87.196
87.221
87.245
87.270
87.294
87.319
87.343
87.368
87.392
87.417
87.441
87.466
87.490
87.515
87.539
87.564
87.588
87.613
87.637
87.662
87.686
87.711
87.735
87.760
87.784
87.809
87.833
87.858
87.882
87.907
87.931
87.956
87.980
88.005
88.029
88.054
88.078
88.103
88.127
88.152
88.176
88.201
88.225
88.250
88.274
88.299
88.323
88.348
88.372
88.372
88.372
88.372
88.372
88.372
88.372
88.372
88.372
88.372
88.372
88.372
88.372
88.372
88.372
88.372
88.372
88.372
88.372
88.372
88.372
88.372
88.372
88.372
88.372
88.372
88.372
88.372
88.372
88.372
88.372
88.372
88.372
88.372
88.372
88.372
88.372
88.372
88.372
88.372
88.372
88.372
88.372
88.372
88.372
88.372
88.372
88.372
88.372
88.372
88.372
88.372
88.372
88.372
88.372
88.372
88.372
88.372
88.372
88.372
88.372
88.372
88.372
88.372
88.372
88.372
88.372
88.372
88.372
88.372
88.372
88.372
88.372
88.372
88.372
88.372
88.372
88.372
88.372
88.372
88.372
88.372
88.372
88.372
88.372
88.372
88.372
88.372
88.372
88.372
88.372
88.372
88.372
88.372
88.372
88.372
88.372
88.372
88.372
88.372
88.372
88.372
88.372
88.372
88.372
88.372
88.372
88.372
88.372
88.372
88.372
88.372
88.372
88.372
88.372
88.372
88.372
88.372
88.372
88.372
88.372
88.372
88.372
88.372
88.372
88.372
88.372
88.372
88.372
88.372
88.372
88.372
88.372
88.372
88.372
88.372
88.372
88.372
88.372
88.372
88.372
88.372
88.372
88.372
88.372
88.372
88.372
88.372
88.372
88.372
88.372
88.372
88.372
88.372
88.372
88.372
88.372
88.372
88.372
88.372
88.372
88.372
88.372
88.372
88.372
88.372
88.372
88.372
88.372
88.372
88.372
88.372
88.372
88.372
88.372
88.372
88.372
88.372
88.372
88.372
88.372
88.372
88.372
88.372
88.372
88.372
88.372
88.372
88.372
88.372
88.372
88.372
88.372
88.372
88.372
88.372
88.372
88.372
88.372
88.372
88.372
88.348
88.323
88.299
88.274
88.250
88.225
88.201
88.176
88.152
88.127
88.103
88.078
88.054
88.029
88.005
87.980
87.956
87.931
87.907
87.882
87.858
87.833
87.809
87.784
87.760
87.735
87.711
87.686
87.662
87.637
87.613
87.588
87.564
87.539
87.515
87.490
87.466
87.441
87.417
87.392
87.368
87.343
87.319
87.294
87.270
87.245
87.221
87.196
87.172
87.147
87.123
87.098
87.074
87.049
87.025
87.000
86.976
86.951
86.927
86.902
86.878
86.853
86.829
86.804
86.780
86.755
86.731
86.706
86.682
86.657
86.633
86.608
86.584
86.559
86.535
86.510
86.486
86.461
86.437
86.412
86.388
86.363
86.339
86.314
86.290
86.265
86.241
86.216
86.192
86.167
86.143
86.118
86.094
86.069
86.045
86.020
85.996
85.971
85.947
85.922
85.898
85.873
85.849
85.824
85.800
85.775
85.751
85.726
85.702
85.677
85.653
85.628
85.604
85.579
85.555
85.530
85.506
85.481
85.457
85.432
85.408
85.383
85.359
85.334
85.310
85.285
85.261
85.236
85.212
85.187
85.163
85.138
85.114
85.089
85.065
85.040
85.016
84.991
84.967
84.942
84.918
84.893
84.869
84.844
84.820
84.795
84.771
84.746
84.722
84.697
84.673
84.648
84.624
84.599
84.575
84.550
84.526
84.501
84.477
84.452
84.428
84.403
84.379
84.354
84.330
84.305
84.281
84.256
84.232
84.207
84.183
84.158
84.134
84.109
84.085
84.060
84.036
84.011
83.987
83.962
83.938
83.913
83.889
83.864
83.840
83.815
83.791
83.766
83.742
83.717
83.693
83.668
83.644
83.619
83.595
83.570
83.546
83.521
83.497
83.472
83.497
83.521
83.546
83.570
83.595
83.619
83.644
83.668
83.693
83.717
83.742
83.766
83.791
83.815
83.840
83.864
83.889
83.913
83.938
83.962
83.987
84.011
84.036
84.060
84.085
84.109
84.134
84.158
84.183
84.207
84.232
84.256
84.281
84.305
84.330
84.354
84.379
84.403
84.428
84.452
84.477
84.501
84.526
84.550
84.575
84.599
84.624
84.648
84.673
84.697
84.722
84.746
84.771
84.795
84.820
84.844
84.869
84.893
84.918
84.942
84.967
84.991
85.016
85.040
85.065
85.089
85.114
85.138
85.163
85.187
85.212
85.236
85.261
85.285
85.310
85.334
85.359
85.383
85.408
85.432
85.457
85.481
85.506
85.530
85.555
85.579
85.604
85.628
85.653
85.677
85.702
85.726
85.751
85.775
85.800
85.824
85.849
85.873
85.898
85.922
85.947
85.971
85.996
86.020
86.045
86.069
86.094
86.118
86.143
86.167
86.192
86.216
86.241
86.265
86.290
86.314
86.339
86.363
86.388
86.412
86.437
86.461
86.486
86.510
86.535
86.559
86.584
86.608
86.633
86.657
86.682
86.706
86.731
86.755
86.780
86.804
86.829
86.853
86.878
86.902
86.927
86.951
86.976
87.000
87.025
87.049
87.074
87.098
87.123
87.147
87.172
87.196
87.221
87.245
87.270
87.294
87.319
87.343
87.368
87.392
87.417
87.441
87.466
87.490
87.515
87.539
87.564
87.588
87.613
87.637
87.662
87.686
87.711
87.735
87.760
87.784
87.809
87.833
87.858
87.882
87.907
87.931
87.956
87.980
88.005
88.029
88.054
88.078
88.103
88.127
88.152
88.176
88.201
88.225
88.250
88.274
88.299
88.323
88.348
