76.403
76.379
76.354
76.330
76.305
76.281
76.256
76.232
76.207
76.183
76.158
76.134
76.109
76.085
76.060
76.036
76.011
75.987
75.962
75.938
75.913
75.889
75.864
75.840
75.815
75.791
75.766
75.742
75.717
75.693
75.668
75.644
75.619
75.595
75.570
75.546
75.521
75.497
75.472
75.448
75.423
75.399
75.374
75.350
75.325
75.301
75.276
75.252
75.227
75.203
75.178
75.154
75.129
75.105
75.080
75.056
75.031
75.007
74.982
74.958
74.933
74.909
74.884
74.860
74.835
74.811
74.786
74.762
74.737
74.713
74.688
74.664
74.639
74.615
74.590
74.566
74.541
74.517
74.492
74.468
74.443
74.419
74.394
74.370
74.345
74.321
74.296
74.272
74.247
74.223
74.198
74.174
74.149
74.125
74.100
74.076
74.051
74.027
74.002
73.978
73.953
73.929
73.904
73.880
73.855
73.831
73.806
73.782
73.757
73.733
73.708
73.684
73.659
73.635
73.610
73.586
73.561
73.537
73.512
73.488
73.463
73.439
73.414
73.390
73.365
73.341
73.316
73.292
73.267
73.243
73.218
73.194
73.169
73.145
73.120
73.096
73.071
73.047
73.022
72.998
72.973
72.949
72.924
72.900
72.875
72.851
72.826
72.802
72.777
72.753
72.728
72.704
72.679
72.655
72.630
72.606
72.581
72.557
72.532
72.508
72.483
72.459
72.434
72.410
72.385
72.361
72.336
72.312
72.287
72.263
72.238
72.214
72.189
72.165
72.140
72.116
72.091
72.067
72.042
72.018
71.993
71.969
71.944
71.920
71.895
71.871
71.846
71.822
71.797
71.773
71.748
71.724
71.699
71.675
71.650
71.626
71.601
71.577
71.552
71.528
71.503
71.503
71.503
71.503
71.503
71.503
71.503
71.503
71.503
71.503
71.503
71.503
71.503
71.503
71.503
71.503
71.503
71.503
71.503
71.503
71.503
71.503
71.503
71.503
71.503
71.503
71.503
71.503
71.503
71.503
71.503
71.503
71.503
71.503
71.503
71.503
71.503
71.503
71.503
71.503
71.503
71.503
71.503
71.503
71.503
71.503
71.503
71.503
71.503
71.503
71.503
71.503
71.503
71.503
71.503
71.503
71.503
71.503
71.503
71.503
71.503
71.503
71.503
71.503
71.503
71.503
71.503
71.503
71.503
71.503
71.503
71.503
71.503
71.503
71.503
71.503
71.503
71.503
71.503
71.503
71.503
71.503
71.503
71.503
71.503
71.503
71.503
71.503
71.503
71.503
71.503
71.503
71.503
71.503
71.503
71.503
71.503
71.503
71.503
71.503
71.503
71.503
71.503
71.503
71.503
71.503
71.503
71.503
71.503
71.503
71.503
71.503
71.503
71.503
71.503
71.503
71.503
71.503
71.503
71.503
71.503
71.503
71.503
71.503
71.503
71.503
71.503
71.503
71.503
71.503
71.503
71.503
71.503
71.503
71.503
71.503
71.503
71.503
71.503
71.503
71.503
71.503
71.503
71.503
71.503
71.503
71.503
71.503
71.503
71.503
71.503
71.503
71.503
71.503
71.503
71.503
71.503
71.503
71.503
71.503
71.503
71.503
71.503
71.503
71.503
71.503
71.503
71.503
71.503
71.503
71.503
71.503
71.503
71.503
71.503
71.503
71.503
71.503
71.503
71.503
71.503
71.503
71.503
71.503
71.503
71.503
71.503
71.503
71.503
71.503
71.503
71.503
71.503
71.503
71.503
71.503
71.503
71.503
71.503
71.503
71.503
71.528
71.552
71.577
71.601
71.626
71.650
71.675
71.699
71.724
71.748
71.773
71.797
71.822
71.846
71.871
71.895
71.920
71.944
71.969
71.993
72.018
72.042
72.067
72.091
72.116
72.140
72.165
72.189
72.214
72.238
72.263
72.287
72.312
72.336
72.361
72.385
72.410
72.434
72.459
72.483
72.508
72.532
72.557
72.581
72.606
72.630
72.655
72.679
72.704
72.728
72.753
72.777
72.802
72.826
72.851
72.875
72.900
72.924
72.949
72.973
72.998
73.022
73.047
73.071
73.096
73.120
73.145
73.169
73.194
73.218
73.243
73.267
73.292
73.316
73.341
73.365
73.390
73.414
73.439
73.463
73.488
73.512
73.537
73.561
73.586
73.610
73.635
73.659
73.684
73.708
73.733
73.757
73.782
73.806
73.831
73.855
73.880
73.904
73.929
73.953
73.978
74.002
74.027
74.051
74.076
74.100
74.125
74.149
74.174
74.198
74.223
74.247
74.272
74.296
74.321
74.345
74.370
74.394
74.419
74.443
74.468
74.492
74.517
74.541
74.566
74.590
74.615
74.639
74.664
74.688
74.713
74.737
74.762
74.786
74.811
74.835
74.860
74.884
74.909
74.933
74.958
74.982
75.007
75.031
75.056
75.080
75.105
75.129
75.154
75.178
75.203
75.227
75.252
75.276
75.301
75.325
75.350
75.374
75.399
75.423
75.448
75.472
75.497
75.521
75.546
75.570
75.595
75.619
75.644
75.668
75.693
75.717
75.742
75.766
75.791
75.815
75.840
75.864
75.889
75.913
75.938
75.962
75.987
76.011
76.036
76.060
76.085
76.109
76.134
76.158
76.183
76.207
76.232
76.256
76.281
76.305
76.330
76.354
76.379
76.403
76.379
76.354
76.330
76.305
76.281
76.256
76.232
76.207
76.183
76.158
76.134
76.109
76.085
76.060
76.036
76.011
75.987
75.962
75.938
75.913
75.889
75.864
75.840
75.815
75.791
75.766
75.742
75.717
75.693
75.668
75.644
75.619
75.595
75.570
75.546
75.521
75.497
75.472
75.448
75.423
75.399
75.374
75.350
75.325
75.301
75.276
75.252
75.227
75.203
75.178
75.154
75.129
75.105
75.080
75.056
75.031
75.007
74.982
74.958
74.933
74.909
74.884
74.860
74.835
74.811
74.786
74.762
74.737
74.713
74.688
74.664
74.639
74.615
74.590
74.566
74.541
74.517
74.492
74.468
74.443
74.419
74.394
74.370
74.345
74.321
74.296
74.272
74.247
74.223
74.198
74.174
74.149
74.125
74.100
74.076
74.051
74.027
74.002
73.978
73.953
73.929
73.904
73.880
73.855
73.831
73.806
73.782
73.757
73.733
73.708
73.684
73.659
73.635
73.610
73.586
73.561
73.537
73.512
73.488
73.463
73.439
73.414
73.390
73.365
73.341
73.316
73.292
73.267
73.243
73.218
73.194
73.169
73.145
73.120
73.096
73.071
73.047
73.022
72.998
72.973
72.949
72.924
72.900
72.875
72.851
72.826
72.802
72.777
72.753
72.728
72.704
72.679
72.655
72.630
72.606
72.581
72.557
72.532
72.508
72.483
72.459
72.434
72.410
72.385
72.361
72.336
72.312
72.287
72.263
72.238
72.214
72.189
72.165
72.140
72.116
72.091
72.067
72.042
72.018
71.993
71.969
71.944
71.920
71.895
71.871
71.846
71.822
71.797
71.773
71.748
71.724
71.699
71.675
71.650
71.626
71.601
71.577
71.552
71.528
71.503
71.528
71.552
71.577
71.601
71.626
71.650
71.675
71.699
71.724
71.748
71.773
71.797
71.822
71.846
71.871
71.895
71.920
71.944
71.969
71.993
72.018
72.042
72.067
72.091
72.116
72.140
72.165
72.189
72.214
72.238
72.263
72.287
72.312
72.336
72.361
72.385
72.410
72.434
72.459
72.483
72.508
72.532
72.557
72.581
72.606
72.630
72.655
72.679
72.704
72.728
72.753
72.777
72.802
72.826
72.851
72.875
72.900
72.924
72.949
72.973
72.998
73.022
73.047
73.071
73.096
73.120
73.145
73.169
73.194
73.218
73.243
73.267
73.292
73.316
73.341
73.365
73.390
73.414
73.439
73.463
73.488
73.512
73.537
73.561
73.586
73.610
73.635
73.659
73.684
73.708
73.733
73.757
73.782
73.806
73.831
73.855
73.880
73.904
73.929
73.953
73.978
74.002
74.027
74.051
74.076
74.100
74.125
74.149
74.174
74.198
74.223
74.247
74.272
74.296
74.321
74.345
74.370
74.394
74.419
74.443
74.468
74.492
74.517
74.541
74.566
74.590
74.615
74.639
74.664
74.688
74.713
74.737
74.762
74.786
74.811
74.835
74.860
74.884
74.909
74.933
74.958
74.982
75.007
75.031
75.056
75.080
75.105
75.129
75.154
75.178
75.203
75.227
75.252
75.276
75.301
75.325
75.350
75.374
75.399
75.423
75.448
75.472
75.497
75.521
75.546
75.570
75.595
75.619
75.644
75.668
75.693
75.717
75.742
75.766
75.791
75.815
75.840
75.864
75.889
75.913
75.938
75.962
75.987
76.011
76.036
76.060
76.085
76.109
76.134
76.158
76.183
76.207
76.232
76.256
76.281
76.305
76.330
76.354
76.379
76.403
76.403
76.403
76.403
76.403
76.403
76.403
76.403
76.403
76.403
76.403
76.403
76.403
76.403
76.403
76.403
76.403
76.403
76.403
76.403
76.403
76.403
76.403
76.403
76.403
76.403
76.403
76.403
76.403
76.403
76.403
76.403
76.403
76.403
76.403
76.403
76.403
76.403
76.403
76.403
76.403
76.403
76.403
76.403
76.403
76.403
76.403
76.403
76.403
76.403
76.403
76.403
76.403
76.403
76.403
76.403
76.403
76.403
76.403
76.403
76.403
76.403
76.403
76.403
76.403
76.403
76.403
76.403
76.403
76.403
76.403
76.403
76.403
76.403
76.403
76.403
76.403
76.403
76.403
76.403
76.403
76.403
76.403
76.403
76.403
76.403
76.403
76.403
76.403
76.403
76.403
76.403
76.403
76.403
76.403
76.403
76.403
76.403
76.403
76.403
76.403
76.403
76.403
76.403
76.403
76.403
76.403
76.403
76.403
76.403
76.403
76.403
76.403
76.403
76.403
76.403
76.403
76.403
76.403
76.403
76.403
76.403
76.403
76.403
76.403
76.403
76.403
76.403
76.403
76.403
76.403
76.403
76.403
76.403
76.403
76.403
76.403
76.403
76.403
76.403
76.403
76.403
76.403
76.403
76.403
76.403
76.403
76.403
76.403
76.403
76.403
76.403
76.403
76.403
76.403
76.403
76.403
76.403
76.403
76.403
76.403
76.403
76.403
76.403
76.403
76.403
76.403
76.403
76.403
76.403
76.403
76.403
76.403
76.403
76.403
76.403
76.403
76.403
76.403
76.403
76.403
76.403
76.403
76.403
76.403
76.403
76.403
76.403
76.403
76.403
76.403
76.403
76.403
76.403
76.403
76.403
76.403
76.403
76.403
76.403
76.403
76.379
76.354
76.330
76.305
76.281
76.256
76.232
76.207
76.183
76.158
76.134
76.109
76.085
76.060
76.036
76.011
75.987
75.962
75.938
75.913
75.889
75.864
75.840
75.815
75.791
75.766
75.742
75.717
75.693
75.668
75.644
75.619
75.595
75.570
75.546
75.521
75.497
75.472
75.448
75.423
75.399
75.374
75.350
75.325
75.301
75.276
75.252
75.227
75.203
75.178
75.154
75.129
75.105
75.080
75.056
75.031
75.007
74.982
74.958
74.933
74.909
74.884
74.860
74.835
74.811
74.786
74.762
74.737
74.713
74.688
74.664
74.639
74.615
74.590
74.566
74.541
74.517
74.492
74.468
74.443
74.419
74.394
74.370
74.345
74.321
74.296
74.272
74.247
74.223
74.198
74.174
74.149
74.125
74.100
74.076
74.051
74.027
74.002
73.978
73.953
73.929
73.904
73.880
73.855
73.831
73.806
73.782
73.757
73.733
73.708
73.684
73.659
73.635
73.610
73.586
73.561
73.537
73.512
73.488
73.463
73.439
73.414
73.390
73.365
73.341
73.316
73.292
73.267
73.243
73.218
73.194
73.169
73.145
73.120
73.096
73.071
73.047
73.022
72.998
72.973
72.949
72.924
72.900
72.875
72.851
72.826
72.802
72.777
72.753
72.728
72.704
72.679
72.655
72.630
72.606
72.581
72.557
72.532
72.508
72.483
72.459
72.434
72.410
72.385
72.361
72.336
72.312
72.287
72.263
72.238
72.214
72.189
72.165
72.140
72.116
72.091
72.067
72.042
72.018
71.993
71.969
71.944
71.920
71.895
71.871
71.846
71.822
71.797
71.773
71.748
71.724
71.699
71.675
71.650
71.626
71.601
71.577
71.552
71.528
71.503
71.528
71.552
71.577
71.601
71.626
71.650
71.675
71.699
71.724
71.748
71.773
71.797
71.822
71.846
71.871
71.895
71.920
71.944
71.969
71.993
72.018
72.042
72.067
72.091
72.116
72.140
72.165
72.189
72.214
72.238
72.263
72.287
72.312
72.336
72.361
72.385
72.410
72.434
72.459
72.483
72.508
72.532
72.557
72.581
72.606
72.630
72.655
72.679
72.704
72.728
72.753
72.777
72.802
72.826
72.851
72.875
72.900
72.924
72.949
72.973
72.998
73.022
73.047
73.071
73.096
73.120
73.145
73.169
73.194
73.218
73.243
73.267
73.292
73.316
73.341
73.365
73.390
73.414
73.439
73.463
73.488
73.512
73.537
73.561
73.586
73.610
73.635
73.659
73.684
73.708
73.733
73.757
73.782
73.806
73.831
73.855
73.880
73.904
73.929
73.953
73.978
74.002
74.027
74.051
74.076
74.100
74.125
74.149
74.174
74.198
74.223
74.247
74.272
74.296
74.321
74.345
74.370
74.394
74.419
74.443
74.468
74.492
74.517
74.541
74.566
74.590
74.615
74.639
74.664
74.688
74.713
74.737
74.762
74.786
74.811
74.835
74.860
74.884
74.909
74.933
74.958
74.982
75.007
75.031
75.056
75.080
75.105
75.129
75.154
75.178
75.203
75.227
75.252
75.276
75.301
75.325
75.350
75.374
75.399
75.423
75.448
75.472
75.497
75.521
75.546
75.570
75.595
75.619
75.644
75.668
75.693
75.717
75.742
75.766
75.791
75.815
75.840
75.864
75.889
75.913
75.938
75.962
75.987
76.011
76.036
76.060
76.085
76.109
76.134
76.158
76.183
76.207
76.232
76.256
76.281
76.305
76.330
76.354
76.379
76.403
76.403
76.403
76.403
76.403
76.403
76.403
76.403
76.403
76.403
76.403
76.403
76.403
76.403
76.403
76.403
76.403
76.403
76.403
76.403
76.403
76.403
76.403
76.403
76.403
76.403
76.403
76.403
76.403
76.403
76.403
76.403
76.403
76.403
76.403
76.403
76.403
76.403
76.403
76.403
76.403
76.403
76.403
76.403
76.403
76.403
76.403
76.403
76.403
76.403
76.403
76.403
76.403
76.403
76.403
76.403
76.403
76.403
76.403
76.403
76.403
76.403
76.403
76.403
76.403
76.403
76.403
76.403
76.403
76.403
76.403
76.403
76.403
76.403
76.403
76.403
76.403
76.403
76.403
76.403
76.403
76.403
76.403
76.403
76.403
76.403
76.403
76.403
76.403
76.403
76.403
76.403
76.403
76.403
76.403
76.403
76.403
76.403
76.403
76.403
76.403
76.403
76.403
76.403
76.403
76.403
76.403
76.403
76.403
76.403
76.403
76.403
76.403
76.403
76.403
76.403
76.403
76.403
76.403
76.403
76.403
76.403
76.403
76.403
76.403
76.403
76.403
76.403
76.403
76.403
76.403
76.403
76.403
76.403
76.403
76.403
76.403
76.403
76.403
76.403
76.403
76.403
76.403
76.403
76.403
76.403
76.403
76.403
76.403
76.403
76.403
76.403
76.403
76.403
76.403
76.403
76.403
76.403
76.403
76.403
76.403
76.403
76.403
76.403
76.403
76.403
76.403
76.403
76.403
76.403
76.403
76.403
76.403
76.403
76.403
76.403
76.403
76.403
76.403
76.403
76.403
76.403
76.403
76.403
76.403
76.403
76.403
76.403
76.403
76.403
76.403
76.403
76.403
76.403
76.403
76.403
76.403
76.403
76.403
76.403
76.403
76.403
76.403
76.403
76.403
76.403
76.403
76.403
76.403
76.403
76.403
76.403
76.403
76.403
76.403
76.403
76.403
76.403
76.403
76.403
76.403
76.403
76.403
76.403
76.403
76.403
76.403
76.403
76.403
76.403
76.403
76.403
76.403
76.403
76.403
76.403
76.403
76.403
76.403
76.403
76.403
76.403
76.403
76.403
76.403
76.403
76.403
76.403
76.403
76.403
76.403
76.403
76.403
76.403
76.403
76.403
76.403
76.403
76.403
76.403
76.403
76.403
76.403
76.403
76.403
76.403
76.403
76.403
76.403
76.403
76.403
76.403
76.403
76.403
76.403
76.403
76.403
76.403
76.403
76.403
76.403
76.403
76.403
76.403
76.403
76.403
76.403
76.403
76.403
76.403
76.403
76.403
76.403
76.403
76.403
76.403
76.403
76.403
76.403
76.403
76.403
76.403
76.403
76.403
76.403
76.403
76.403
76.403
76.403
76.403
76.403
76.403
76.403
76.403
76.403
76.403
76.403
76.403
76.403
76.403
76.403
76.403
76.403
76.403
76.403
76.403
76.403
76.403
76.403
76.403
76.403
76.403
76.403
76.403
76.403
76.403
76.403
76.403
76.403
76.403
76.403
76.403
76.403
76.403
76.403
76.403
76.403
76.403
76.403
76.403
76.403
76.403
76.403
76.403
76.403
76.403
76.403
76.403
76.403
76.403
76.403
76.403
76.403
76.403
76.403
76.403
76.403
76.403
76.403
76.403
76.403
76.403
76.403
76.403
76.403
76.403
76.403
76.403
76.403
76.403
76.403
76.403
76.403
76.403
76.403
76.403
76.403
76.403
76.403
76.403
76.403
76.403
76.403
76.403
76.403
76.403
76.403
76.403
76.403
76.403
