78.705
78.705
78.705
78.705
78.705
78.705
78.705
78.705
78.705
78.705
78.705
78.705
78.705
78.705
78.705
78.705
78.705
78.705
78.705
78.705
78.705
78.705
78.705
78.705
78.705
78.705
78.705
78.705
78.705
78.705
78.705
78.705
78.705
78.705
78.705
78.705
78.705
78.705
78.705
78.705
78.705
78.705
78.705
78.705
78.705
78.705
78.705
78.705
78.705
78.705
78.705
78.705
78.705
78.705
78.705
78.705
78.705
78.705
78.705
78.705
78.705
78.705
78.705
78.705
78.705
78.705
78.705
78.705
78.705
78.705
78.705
78.705
78.705
78.705
78.705
78.705
78.705
78.705
78.705
78.705
78.705
78.705
78.705
78.705
78.705
78.705
78.705
78.705
78.705
78.705
78.705
78.705
78.705
78.705
78.705
78.705
78.705
78.705
78.705
78.705
78.705
78.705
78.705
78.705
78.705
78.705
78.705
78.705
78.705
78.705
78.705
78.705
78.705
78.705
78.705
78.705
78.705
78.705
78.705
78.705
78.705
78.705
78.705
78.705
78.705
78.705
78.705
78.705
78.705
78.705
78.705
78.705
78.705
78.705
78.705
78.705
78.705
78.705
78.705
78.705
78.705
78.705
78.705
78.705
78.705
78.705
78.705
78.705
78.705
78.705
78.705
78.705
78.705
78.705
78.705
78.705
78.705
78.705
78.705
78.705
78.705
78.705
78.705
78.705
78.705
78.705
78.705
78.705
78.705
78.705
78.705
78.705
78.705
78.705
78.705
78.705
78.705
78.705
78.705
78.705
78.705
78.705
78.705
78.705
78.705
78.705
78.705
78.705
78.705
78.705
78.705
78.705
78.705
78.705
78.705
78.705
78.705
78.705
78.705
78.705
78.705
78.705
78.705
78.705
78.705
78.705
78.705
78.705
78.705
78.705
78.705
78.705
78.705
78.705
78.705
78.705
78.705
78.705
78.705
78.705
78.705
78.705
78.705
78.705
78.705
78.705
78.705
78.705
78.705
78.705
78.705
78.705
78.705
78.705
78.705
78.705
78.705
78.705
78.705
78.705
78.705
78.705
78.705
78.705
78.705
78.705
78.705
78.705
78.705
78.705
78.705
78.705
78.705
78.705
78.705
78.705
78.705
78.705
78.705
78.705
78.705
78.705
78.705
78.705
78.705
78.705
78.705
78.705
78.705
78.705
78.705
78.705
78.705
78.705
78.705
78.705
78.705
78.705
78.705
78.705
78.705
78.705
78.705
78.705
78.705
78.705
78.705
78.705
78.705
78.705
78.705
78.705
78.705
78.705
78.705
78.705
78.705
78.705
78.705
78.705
78.705
78.705
78.705
78.705
78.705
78.705
78.705
78.705
78.705
78.705
78.705
78.705
78.705
78.705
78.705
78.705
78.705
78.705
78.705
78.705
78.705
78.705
78.705
78.705
78.705
78.705
78.705
78.705
78.705
78.705
78.705
78.705
78.705
78.705
78.705
78.705
78.705
78.705
78.705
78.705
78.705
78.705
78.705
78.705
78.705
78.705
78.705
78.705
78.705
78.705
78.705
78.705
78.705
78.705
78.705
78.705
78.705
78.705
78.705
78.705
78.705
78.705
78.705
78.705
78.705
78.705
78.705
78.705
78.705
78.705
78.705
78.705
78.705
78.705
78.705
78.705
78.705
78.705
78.705
78.705
78.705
78.705
78.705
78.705
78.705
78.705
78.705
78.705
78.705
78.705
78.705
78.705
78.705
78.705
78.705
78.705
78.705
78.705
78.705
78.705
78.705
78.705
78.705
78.705
78.705
78.705
78.705
78.705
78.705
78.705
78.705
78.705
78.705
78.705
78.705
78.705
78.705
78.705
78.705
78.705
78.705
78.705
78.705
78.705
78.705
78.705
78.705
78.705
78.705
78.705
78.705
78.705
78.705
78.705
78.705
78.705
78.705
78.705
78.705
78.705
78.705
78.705
78.705
78.705
78.705
78.705
78.705
78.705
78.705
78.705
78.705
78.705
78.705
78.705
78.705
78.705
78.705
78.705
78.705
78.705
78.705
78.705
78.705
78.705
78.705
78.705
78.705
78.705
78.705
78.705
78.705
78.705
78.705
78.705
78.705
78.705
78.705
78.705
78.705
78.705
78.705
78.705
78.705
78.705
78.705
78.705
78.705
78.705
78.705
78.705
78.705
78.705
78.705
78.705
78.705
78.705
78.705
78.705
78.705
78.705
78.705
78.705
78.705
78.705
78.705
78.705
78.705
78.705
78.705
78.705
78.705
78.705
78.705
78.705
78.705
78.705
78.705
78.705
78.705
78.705
78.705
78.705
78.705
78.705
78.705
78.705
78.705
78.705
78.705
78.705
78.705
78.705
78.705
78.705
78.705
78.705
78.705
78.705
78.705
78.705
78.705
78.705
78.705
78.705
78.705
78.705
78.705
78.705
78.705
78.705
78.705
78.705
78.705
78.705
78.705
78.705
78.705
78.705
78.705
78.705
78.705
78.705
78.705
78.705
78.705
78.705
78.705
78.705
78.705
78.705
78.705
78.705
78.705
78.705
78.705
78.705
78.705
78.705
78.705
78.705
78.705
78.705
78.705
78.705
78.705
78.705
78.705
78.705
78.705
78.705
78.705
78.705
78.705
78.705
78.705
78.705
78.705
78.705
78.705
78.705
78.705
78.705
78.705
78.705
78.705
78.705
78.705
78.705
78.705
78.705
78.705
78.705
78.705
78.705
78.705
78.705
78.705
78.705
78.705
78.705
78.705
78.705
78.705
78.705
78.705
78.705
78.705
78.705
78.705
78.705
78.705
78.705
78.705
78.705
78.705
78.705
78.705
78.705
78.705
78.705
78.705
78.705
78.705
78.705
78.705
78.705
78.705
78.705
78.705
78.705
78.705
78.705
78.705
78.705
78.705
78.705
78.705
78.705
78.705
78.705
78.705
78.705
78.705
78.705
78.705
78.705
78.705
78.705
78.705
78.705
78.705
78.705
78.705
78.705
78.705
78.705
78.705
78.705
78.705
78.705
78.705
78.705
78.705
78.705
78.705
78.705
78.705
78.705
78.705
78.705
78.705
78.705
78.705
78.705
78.705
78.705
78.705
78.705
78.705
78.705
78.705
78.705
78.705
78.705
78.705
78.705
78.705
78.705
78.705
78.705
78.705
78.705
78.705
78.705
78.705
78.705
78.705
78.705
78.705
78.705
78.705
78.705
78.705
78.705
78.705
78.705
78.705
78.705
78.705
78.705
78.705
78.705
78.705
78.705
78.705
78.705
78.705
78.705
78.705
78.705
78.705
78.705
78.705
78.705
78.705
78.705
78.705
78.705
78.705
78.705
78.705
78.705
78.705
78.705
78.705
78.705
78.705
78.705
78.705
78.705
78.705
78.705
78.705
78.705
78.705
78.705
78.705
78.705
78.705
78.705
78.705
78.705
78.705
78.705
78.705
78.705
78.705
78.705
78.705
78.705
78.705
78.705
78.705
78.705
78.705
78.705
78.705
78.705
78.705
78.705
78.705
78.705
78.705
78.705
78.705
78.705
78.705
78.705
78.705
78.705
78.705
78.705
78.705
78.705
78.705
78.705
78.705
78.705
78.705
78.705
78.705
78.705
78.705
78.705
78.705
78.705
78.705
78.705
78.705
78.705
78.705
78.705
78.705
78.705
78.705
78.705
78.705
78.705
78.705
78.705
78.705
78.705
78.705
78.705
78.705
78.705
78.705
78.705
78.705
78.705
78.705
78.705
78.705
78.705
78.705
78.705
78.705
78.705
78.705
78.705
78.705
78.705
78.705
78.705
78.705
78.705
78.705
78.705
78.705
78.705
78.705
78.705
78.705
78.705
78.705
78.705
78.705
78.705
78.705
78.705
78.705
78.705
78.705
78.705
78.705
78.705
78.705
78.705
78.705
78.705
78.705
78.705
78.705
78.705
78.705
78.705
78.705
78.705
78.705
78.705
78.705
78.705
78.705
78.705
78.705
78.705
78.705
78.705
78.705
78.705
78.705
78.705
78.705
78.705
78.705
78.705
78.705
78.705
78.705
78.705
78.705
78.705
78.705
78.705
78.705
78.705
78.705
78.705
78.705
78.705
78.705
78.705
78.705
78.705
78.705
78.705
78.705
78.705
78.705
78.705
78.705
78.705
78.705
78.705
78.705
78.705
78.705
78.705
78.705
78.705
78.705
78.705
78.705
78.705
78.705
78.705
78.705
78.705
78.705
78.705
78.705
78.705
78.705
78.705
78.705
78.705
78.705
78.705
78.705
78.705
78.705
78.705
78.705
78.705
78.705
78.705
78.705
78.705
78.705
78.705
78.705
78.705
78.705
78.705
78.705
78.705
78.705
78.705
78.705
78.705
78.705
78.705
78.705
78.705
78.705
78.705
78.705
78.705
78.705
78.705
78.705
78.705
78.705
78.705
78.705
78.705
78.705
78.705
78.705
78.705
78.705
78.680
78.656
78.631
78.607
78.582
78.558
78.533
78.509
78.484
78.460
78.435
78.411
78.386
78.362
78.337
78.313
78.288
78.264
78.239
78.215
78.190
78.166
78.141
78.117
78.092
78.068
78.043
78.019
77.994
77.970
77.945
77.921
77.896
77.872
77.847
77.823
77.798
77.774
77.749
77.725
77.700
77.676
77.651
77.627
77.602
77.578
77.553
77.529
77.504
77.480
77.455
77.431
77.406
77.382
77.357
77.333
77.308
77.284
77.259
77.235
77.210
77.186
77.161
77.137
77.112
77.088
77.063
77.039
77.014
76.990
76.965
76.941
76.916
76.892
76.867
76.843
76.818
76.794
76.769
76.745
76.720
76.696
76.671
76.647
76.622
76.598
76.573
76.549
76.524
76.500
76.475
76.451
76.426
76.402
76.377
76.353
76.328
76.304
76.279
76.255
76.230
76.206
76.181
76.157
76.132
76.108
76.083
76.059
76.034
76.010
75.985
75.961
75.936
75.912
75.887
75.863
75.838
75.814
75.789
75.765
75.740
75.716
75.691
75.667
75.642
75.618
75.593
75.569
75.544
75.520
75.495
75.471
75.446
75.422
75.397
75.373
75.348
75.324
75.299
75.275
75.250
75.226
75.201
75.177
75.152
75.128
75.103
75.079
75.054
75.030
75.005
74.981
74.956
74.932
74.907
74.883
74.858
74.834
74.809
74.785
74.760
74.736
74.711
74.687
74.662
74.638
74.613
74.589
74.564
74.540
74.515
74.491
74.466
74.442
74.417
74.393
74.368
74.344
74.319
74.295
74.270
74.246
74.221
74.197
74.172
74.148
74.123
74.099
74.074
74.050
74.025
74.001
73.976
73.952
73.927
73.903
73.878
73.854
73.829
73.805
73.878
73.951
74.024
74.097
74.170
74.243
74.316
74.389
74.462
74.535
74.608
74.681
74.754
74.827
74.900
74.973
75.046
75.119
75.192
75.265
75.338
75.411
75.484
75.557
75.630
75.703
75.776
75.849
75.922
75.995
76.068
76.141
76.214
76.287
76.360
76.433
76.506
76.579
76.652
76.725
76.798
76.871
76.944
77.017
77.090
77.163
77.236
77.309
77.382
77.455
77.528
77.601
77.674
77.747
77.820
77.893
77.966
78.039
78.112
78.185
78.258
78.331
78.404
78.477
78.550
78.623
78.696
78.769
78.842
78.915
78.988
79.061
79.134
79.207
79.280
79.353
79.426
79.499
79.572
79.645
79.718
79.791
79.864
79.937
80.010
80.083
80.156
80.229
80.302
80.375
80.448
80.521
80.594
80.667
80.740
80.813
80.886
80.959
81.032
81.105
81.178
81.251
81.324
81.397
81.470
81.543
81.616
81.689
81.762
81.835
81.908
81.981
82.054
82.127
82.200
82.273
82.346
82.419
82.492
82.565
82.638
82.711
82.784
82.857
82.930
83.003
83.076
83.149
83.222
83.295
83.368
83.441
83.514
83.587
83.660
83.733
83.806
83.879
83.952
84.025
84.098
84.171
84.244
84.317
84.390
84.463
84.536
84.609
84.682
84.755
84.828
84.901
84.974
85.047
85.120
85.193
85.266
85.339
85.412
85.485
85.558
85.631
85.704
85.777
85.850
85.923
85.996
86.069
86.142
86.215
86.288
86.361
86.434
86.507
86.580
86.653
86.726
86.799
86.872
86.945
87.018
87.091
87.164
87.237
87.310
87.383
87.456
87.529
87.602
87.675
87.748
87.821
87.894
87.967
88.040
88.113
88.186
88.259
88.332
88.405
88.356
88.308
88.259
88.211
88.162
88.114
88.065
88.017
87.968
87.920
87.871
87.823
87.774
87.726
87.677
87.629
87.580
87.532
87.483
87.435
87.386
87.338
87.289
87.241
87.192
87.144
87.095
87.047
86.998
86.950
86.901
86.853
86.804
86.756
86.707
86.659
86.610
86.562
86.513
86.465
86.416
86.368
86.319
86.271
86.222
86.174
86.125
86.077
86.028
85.980
85.931
85.883
85.834
85.786
85.737
85.689
85.640
85.592
85.543
85.495
85.446
85.398
85.349
85.301
85.252
85.204
85.155
85.107
85.058
85.010
84.961
84.913
84.864
84.816
84.767
84.719
84.670
84.622
84.573
84.525
84.476
84.428
84.379
84.331
84.282
84.234
84.185
84.137
84.088
84.040
83.991
83.943
83.894
83.846
83.797
83.749
83.700
83.652
83.603
83.555
83.506
83.458
83.409
83.361
83.312
83.264
83.215
83.167
83.118
83.070
83.021
82.973
82.924
82.876
82.827
82.779
82.730
82.682
82.633
82.585
82.536
82.488
82.439
82.391
82.342
82.294
82.245
82.197
82.148
82.100
82.051
82.003
81.954
81.906
81.857
81.809
81.760
81.712
81.663
81.615
81.566
81.518
81.469
81.421
81.372
81.324
81.275
81.227
81.178
81.130
81.081
81.033
80.984
80.936
80.887
80.839
80.790
80.742
80.693
80.645
80.596
80.548
80.499
80.451
80.402
80.354
80.305
80.257
80.208
80.160
80.111
80.063
80.014
79.966
79.917
79.869
79.820
79.772
79.723
79.675
79.626
79.578
79.529
79.481
79.432
79.384
79.335
79.287
79.238
79.190
79.141
79.093
79.044
78.996
78.947
78.899
78.850
78.802
78.753
78.705
78.705
78.705
78.705
78.705
78.705
78.705
78.705
78.705
78.705
78.705
78.705
78.705
78.705
78.705
78.705
78.705
78.705
78.705
78.705
78.705
78.705
78.705
78.705
78.705
78.705
78.705
78.705
78.705
78.705
78.705
78.705
78.705
78.705
78.705
78.705
78.705
78.705
78.705
78.705
78.705
78.705
78.705
78.705
78.705
78.705
78.705
78.705
78.705
78.705
78.705
78.705
78.705
78.705
78.705
78.705
78.705
78.705
78.705
78.705
78.705
78.705
78.705
78.705
78.705
78.705
78.705
78.705
78.705
78.705
78.705
78.705
78.705
78.705
78.705
78.705
78.705
78.705
78.705
78.705
78.705
78.705
78.705
78.705
78.705
78.705
78.705
78.705
78.705
78.705
78.705
78.705
78.705
78.705
78.705
78.705
78.705
78.705
78.705
78.705
78.705
78.705
78.705
78.705
78.705
78.705
78.705
78.705
78.705
78.705
78.705
78.705
78.705
78.705
78.705
78.705
78.705
78.705
78.705
78.705
78.705
78.705
78.705
78.705
78.705
78.705
78.705
78.705
78.705
78.705
78.705
78.705
78.705
78.705
78.705
78.705
78.705
78.705
78.705
78.705
78.705
78.705
78.705
78.705
78.705
78.705
78.705
78.705
78.705
78.705
78.705
78.705
78.705
78.705
78.705
78.705
78.705
78.705
78.705
78.705
78.705
78.705
78.705
78.705
78.705
78.705
78.705
78.705
78.705
78.705
78.705
78.705
78.705
78.705
78.705
78.705
78.705
78.705
78.705
78.705
78.705
78.705
78.705
78.705
78.705
78.705
78.705
78.705
78.705
78.705
78.705
78.705
78.705
78.705
78.705
78.705
78.705
78.705
78.705
78.705
78.705
78.705
78.705
78.705
78.705
78.705
78.705
78.705
78.705
78.705
78.705
78.705
78.705
78.705
78.705
78.705
78.705
78.705
78.705
78.705
78.705
78.705
78.705
78.705
78.705
78.705
78.705
78.705
78.705
78.705
78.705
78.705
78.705
78.705
78.705
78.705
78.705
78.705
78.705
78.705
78.705
78.705
78.705
78.705
78.705
78.705
78.705
78.705
78.705
78.705
78.705
78.705
78.705
78.705
78.705
78.705
78.705
78.705
78.705
78.705
78.705
78.705
78.705
78.705
78.705
78.705
78.705
78.705
78.705
78.705
78.705
78.705
78.705
78.705
78.705
78.705
78.705
78.705
78.705
78.705
78.705
78.705
78.705
78.705
78.705
78.705
78.705
78.705
78.705
78.705
78.705
78.705
78.705
78.705
78.705
78.705
78.705
78.705
78.705
78.705
78.705
78.705
78.705
78.705
78.705
78.705
78.705
78.705
78.705
78.705
78.705
78.705
78.705
78.705
78.705
78.705
78.705
78.705
78.705
78.705
78.705
78.705
78.705
78.705
78.705
78.705
78.705
78.705
78.705
78.705
78.705
78.705
78.705
78.705
78.705
78.705
78.705
78.705
78.705
78.705
78.705
78.705
78.705
78.705
78.705
78.705
78.705
78.705
78.705
78.705
78.705
78.705
78.705
78.705
78.705
78.705
78.705
78.705
78.705
78.705
78.705
78.705
78.705
78.705
78.705
78.705
78.705
78.705
78.705
78.705
78.705
78.705
78.705
78.705
78.705
78.705
78.705
78.705
78.705
78.705
78.705
78.705
78.705
78.705
78.705
78.705
78.705
78.705
78.705
78.705
78.705
78.705
78.705
78.705
78.705
78.705
78.705
78.705
78.705
78.705
