97.407
97.382
97.358
97.333
97.309
97.284
97.260
97.235
97.211
97.186
97.162
97.137
97.113
97.088
97.064
97.039
97.015
96.990
96.966
96.941
96.917
96.892
96.868
96.843
96.819
96.794
96.770
96.745
96.721
96.696
96.672
96.647
96.623
96.598
96.574
96.549
96.525
96.500
96.476
96.451
96.427
96.402
96.378
96.353
96.329
96.304
96.280
96.255
96.231
96.206
96.182
96.157
96.133
96.108
96.084
96.059
96.035
96.010
95.986
95.961
95.937
95.912
95.888
95.863
95.839
95.814
95.790
95.765
95.741
95.716
95.692
95.667
95.643
95.618
95.594
95.569
95.545
95.520
95.496
95.471
95.447
95.422
95.398
95.373
95.349
95.324
95.300
95.275
95.251
95.226
95.202
95.177
95.153
95.128
95.104
95.079
95.055
95.030
95.006
94.981
94.957
94.932
94.908
94.883
94.859
94.834
94.810
94.785
94.761
94.736
94.712
94.687
94.663
94.638
94.614
94.589
94.565
94.540
94.516
94.491
94.467
94.442
94.418
94.393
94.369
94.344
94.320
94.295
94.271
94.246
94.222
94.197
94.173
94.148
94.124
94.099
94.075
94.050
94.026
94.001
93.977
93.952
93.928
93.903
93.879
93.854
93.830
93.805
93.781
93.756
93.732
93.707
93.683
93.658
93.634
93.609
93.585
93.560
93.536
93.511
93.487
93.462
93.438
93.413
93.389
93.364
93.340
93.315
93.291
93.266
93.242
93.217
93.193
93.168
93.144
93.119
93.095
93.070
93.046
93.021
92.997
92.972
92.948
92.923
92.899
92.874
92.850
92.825
92.801
92.776
92.752
92.727
92.703
92.678
92.654
92.629
92.605
92.580
92.556
92.531
92.507
92.507
92.507
92.507
92.507
92.507
92.507
92.507
92.507
92.507
92.507
92.507
92.507
92.507
92.507
92.507
92.507
92.507
92.507
92.507
92.507
92.507
92.507
92.507
92.507
92.507
92.507
92.507
92.507
92.507
92.507
92.507
92.507
92.507
92.507
92.507
92.507
92.507
92.507
92.507
92.507
92.507
92.507
92.507
92.507
92.507
92.507
92.507
92.507
92.507
92.507
92.507
92.507
92.507
92.507
92.507
92.507
92.507
92.507
92.507
92.507
92.507
92.507
92.507
92.507
92.507
92.507
92.507
92.507
92.507
92.507
92.507
92.507
92.507
92.507
92.507
92.507
92.507
92.507
92.507
92.507
92.507
92.507
92.507
92.507
92.507
92.507
92.507
92.507
92.507
92.507
92.507
92.507
92.507
92.507
92.507
92.507
92.507
92.507
92.507
92.507
92.507
92.507
92.507
92.507
92.507
92.507
92.507
92.507
92.507
92.507
92.507
92.507
92.507
92.507
92.507
92.507
92.507
92.507
92.507
92.507
92.507
92.507
92.507
92.507
92.507
92.507
92.507
92.507
92.507
92.507
92.507
92.507
92.507
92.507
92.507
92.507
92.507
92.507
92.507
92.507
92.507
92.507
92.507
92.507
92.507
92.507
92.507
92.507
92.507
92.507
92.507
92.507
92.507
92.507
92.507
92.507
92.507
92.507
92.507
92.507
92.507
92.507
92.507
92.507
92.507
92.507
92.507
92.507
92.507
92.507
92.507
92.507
92.507
92.507
92.507
92.507
92.507
92.507
92.507
92.507
92.507
92.507
92.507
92.507
92.507
92.507
92.507
92.507
92.507
92.507
92.507
92.507
92.507
92.507
92.507
92.507
92.507
92.507
92.507
92.507
92.507
92.507
92.507
92.507
92.507
92.507
92.507
92.507
92.507
92.507
92.507
92.507
92.507
92.507
92.507
92.507
92.507
92.507
92.507
92.507
92.507
92.507
92.507
92.507
92.507
92.507
92.507
92.507
92.507
92.507
92.507
92.507
92.507
92.507
92.507
92.507
92.507
92.507
92.507
92.507
92.507
92.507
92.507
92.507
92.507
92.507
92.507
92.507
92.507
92.507
92.507
92.507
92.507
92.507
92.507
92.507
92.507
92.507
92.507
92.507
92.507
92.507
92.507
92.507
92.507
92.507
92.507
92.507
92.507
92.507
92.507
92.507
92.507
92.507
92.507
92.507
92.507
92.507
92.507
92.507
92.507
92.507
92.507
92.507
92.507
92.507
92.507
92.507
92.507
92.507
92.507
92.507
92.507
92.507
92.507
92.507
92.507
92.507
92.507
92.507
92.507
92.507
92.507
92.507
92.507
92.507
92.507
92.507
92.507
92.507
92.507
92.507
92.507
92.507
92.507
92.507
92.507
92.507
92.507
92.507
92.507
92.507
92.507
92.507
92.507
92.507
92.507
92.507
92.507
92.507
92.507
92.507
92.507
92.507
92.507
92.507
92.507
92.507
92.507
92.507
92.507
92.507
92.507
92.507
92.507
92.507
92.507
92.507
92.507
92.507
92.507
92.507
92.507
92.507
92.507
92.507
92.507
92.507
92.507
92.507
92.507
92.507
92.507
92.507
92.507
92.507
92.507
92.507
92.507
92.507
92.507
92.507
92.507
92.507
92.507
92.507
92.507
92.507
92.507
92.507
92.507
92.507
92.507
92.507
92.507
92.507
92.507
92.507
92.507
92.507
92.507
92.507
92.507
92.507
92.507
92.507
92.507
92.507
92.507
92.507
92.531
92.556
92.580
92.605
92.629
92.654
92.678
92.703
92.727
92.752
92.776
92.801
92.825
92.850
92.874
92.899
92.923
92.948
92.972
92.997
93.021
93.046
93.070
93.095
93.119
93.144
93.168
93.193
93.217
93.242
93.266
93.291
93.315
93.340
93.364
93.389
93.413
93.438
93.462
93.487
93.511
93.536
93.560
93.585
93.609
93.634
93.658
93.683
93.707
93.732
93.756
93.781
93.805
93.830
93.854
93.879
93.903
93.928
93.952
93.977
94.001
94.026
94.050
94.075
94.099
94.124
94.148
94.173
94.197
94.222
94.246
94.271
94.295
94.320
94.344
94.369
94.393
94.418
94.442
94.467
94.491
94.516
94.540
94.565
94.589
94.614
94.638
94.663
94.687
94.712
94.736
94.761
94.785
94.810
94.834
94.859
94.883
94.908
94.932
94.957
94.981
95.006
95.030
95.055
95.079
95.104
95.128
95.153
95.177
95.202
95.226
95.251
95.275
95.300
95.324
95.349
95.373
95.398
95.422
95.447
95.471
95.496
95.520
95.545
95.569
95.594
95.618
95.643
95.667
95.692
95.716
95.741
95.765
95.790
95.814
95.839
95.863
95.888
95.912
95.937
95.961
95.986
96.010
96.035
96.059
96.084
96.108
96.133
96.157
96.182
96.206
96.231
96.255
96.280
96.304
96.329
96.353
96.378
96.402
96.427
96.451
96.476
96.500
96.525
96.549
96.574
96.598
96.623
96.647
96.672
96.696
96.721
96.745
96.770
96.794
96.819
96.843
96.868
96.892
96.917
96.941
96.966
96.990
97.015
97.039
97.064
97.088
97.113
97.137
97.162
97.186
97.211
97.235
97.260
97.284
97.309
97.333
97.358
97.382
97.407
97.382
97.358
97.333
97.309
97.284
97.260
97.235
97.211
97.186
97.162
97.137
97.113
97.088
97.064
97.039
97.015
96.990
96.966
96.941
96.917
96.892
96.868
96.843
96.819
96.794
96.770
96.745
96.721
96.696
96.672
96.647
96.623
96.598
96.574
96.549
96.525
96.500
96.476
96.451
96.427
96.402
96.378
96.353
96.329
96.304
96.280
96.255
96.231
96.206
96.182
96.157
96.133
96.108
96.084
96.059
96.035
96.010
95.986
95.961
95.937
95.912
95.888
95.863
95.839
95.814
95.790
95.765
95.741
95.716
95.692
95.667
95.643
95.618
95.594
95.569
95.545
95.520
95.496
95.471
95.447
95.422
95.398
95.373
95.349
95.324
95.300
95.275
95.251
95.226
95.202
95.177
95.153
95.128
95.104
95.079
95.055
95.030
95.006
94.981
94.957
94.932
94.908
94.883
94.859
94.834
94.810
94.785
94.761
94.736
94.712
94.687
94.663
94.638
94.614
94.589
94.565
94.540
94.516
94.491
94.467
94.442
94.418
94.393
94.369
94.344
94.320
94.295
94.271
94.246
94.222
94.197
94.173
94.148
94.124
94.099
94.075
94.050
94.026
94.001
93.977
93.952
93.928
93.903
93.879
93.854
93.830
93.805
93.781
93.756
93.732
93.707
93.683
93.658
93.634
93.609
93.585
93.560
93.536
93.511
93.487
93.462
93.438
93.413
93.389
93.364
93.340
93.315
93.291
93.266
93.242
93.217
93.193
93.168
93.144
93.119
93.095
93.070
93.046
93.021
92.997
92.972
92.948
92.923
92.899
92.874
92.850
92.825
92.801
92.776
92.752
92.727
92.703
92.678
92.654
92.629
92.605
92.580
92.556
92.531
92.507
92.507
92.507
92.507
92.507
92.507
92.507
92.507
92.507
92.507
92.507
92.507
92.507
92.507
92.507
92.507
92.507
92.507
92.507
92.507
92.507
92.507
92.507
92.507
92.507
92.507
92.507
92.507
92.507
92.507
92.507
92.507
92.507
92.507
92.507
92.507
92.507
92.507
92.507
92.507
92.507
92.507
92.507
92.507
92.507
92.507
92.507
92.507
92.507
92.507
92.507
92.507
92.507
92.507
92.507
92.507
92.507
92.507
92.507
92.507
92.507
92.507
92.507
92.507
92.507
92.507
92.507
92.507
92.507
92.507
92.507
92.507
92.507
92.507
92.507
92.507
92.507
92.507
92.507
92.507
92.507
92.507
92.507
92.507
92.507
92.507
92.507
92.507
92.507
92.507
92.507
92.507
92.507
92.507
92.507
92.507
92.507
92.507
92.507
92.507
92.507
92.507
92.507
92.507
92.507
92.507
92.507
92.507
92.507
92.507
92.507
92.507
92.507
92.507
92.507
92.507
92.507
92.507
92.507
92.507
92.507
92.507
92.507
92.507
92.507
92.507
92.507
92.507
92.507
92.507
92.507
92.507
92.507
92.507
92.507
92.507
92.507
92.507
92.507
92.507
92.507
92.507
92.507
92.507
92.507
92.507
92.507
92.507
92.507
92.507
92.507
92.507
92.507
92.507
92.507
92.507
92.507
92.507
92.507
92.507
92.507
92.507
92.507
92.507
92.507
92.507
92.507
92.507
92.507
92.507
92.507
92.507
92.507
92.507
92.507
92.507
92.507
92.507
92.507
92.507
92.507
92.507
92.507
92.507
92.507
92.507
92.507
92.507
92.507
92.507
92.507
92.507
92.507
92.507
92.507
92.507
92.507
92.507
92.507
92.507
92.507
92.507
92.507
92.507
92.507
92.507
92.507
92.507
92.507
92.507
92.507
92.507
92.507
92.507
92.507
92.507
92.507
92.507
92.507
92.507
92.507
92.507
92.507
92.507
92.507
92.507
92.507
92.507
92.507
92.507
92.507
92.507
92.507
92.507
92.507
92.507
92.507
92.507
92.507
92.507
92.507
92.507
92.507
92.507
92.507
92.507
92.507
92.507
92.507
92.507
92.507
92.507
92.507
92.507
92.507
92.507
92.507
92.507
92.507
92.507
92.507
92.507
92.507
92.507
92.507
92.507
92.507
92.507
92.507
92.507
92.507
92.507
92.507
92.507
92.507
92.507
92.507
92.507
92.507
92.507
92.507
92.507
92.507
92.507
92.507
92.507
92.507
92.507
92.507
92.507
92.507
92.507
92.507
92.507
92.507
92.507
92.507
92.507
92.507
92.507
92.507
92.507
92.507
92.507
92.507
92.507
92.507
92.507
92.507
92.507
92.507
92.507
92.507
92.507
92.507
92.507
92.507
92.507
92.507
92.507
92.507
92.507
92.507
92.507
92.507
92.507
92.507
92.507
92.507
92.507
92.507
92.507
92.507
92.507
92.507
92.507
92.507
92.507
92.507
92.507
92.507
92.507
92.507
92.507
92.507
92.507
92.507
92.507
92.507
92.507
92.507
92.507
92.507
92.507
92.507
92.507
92.507
92.507
92.507
92.507
92.507
92.507
92.507
92.507
92.507
92.507
92.507
92.507
92.507
92.507
92.507
92.507
92.507
92.507
92.507
92.507
92.507
92.507
92.507
92.507
92.507
92.507
92.507
92.507
92.507
92.507
92.507
92.507
92.507
92.507
92.507
92.507
92.507
92.507
92.507
92.507
92.507
92.507
92.507
92.507
92.507
92.507
92.507
92.507
92.507
92.507
92.507
92.507
92.507
92.507
92.507
92.507
92.507
92.507
92.507
92.507
92.507
92.507
92.507
92.507
92.507
92.507
92.507
92.507
92.507
92.507
92.507
92.507
92.507
92.507
92.507
92.507
92.507
92.507
92.507
92.507
92.507
92.507
92.507
92.507
92.507
92.507
92.507
92.507
92.507
92.507
92.507
92.507
92.507
92.507
92.507
92.507
92.507
92.507
92.507
92.507
92.507
92.507
92.507
92.507
92.507
92.507
92.507
92.507
92.507
92.507
92.507
92.507
92.507
92.507
92.507
92.507
92.507
92.507
92.507
92.507
92.507
92.507
92.507
92.507
92.507
92.507
92.507
92.507
92.507
92.507
92.507
92.507
92.507
92.507
92.507
92.507
92.507
92.507
92.507
92.507
92.507
92.507
92.507
92.507
92.507
92.507
92.507
92.507
92.507
92.507
92.507
92.507
92.507
92.507
92.507
92.507
92.507
92.507
92.507
92.507
92.507
92.507
92.507
92.507
92.507
92.507
92.507
92.507
92.507
92.507
92.507
92.507
92.507
92.507
92.507
92.507
92.507
92.507
92.507
92.507
92.507
92.507
92.507
92.507
92.507
92.507
92.507
92.507
92.507
92.507
92.507
92.507
92.507
92.507
92.507
92.507
92.507
92.507
92.507
92.507
92.507
92.507
92.507
92.507
92.507
92.507
92.507
92.507
92.507
92.507
92.507
92.507
92.507
92.507
92.507
92.507
92.507
92.507
92.507
92.507
92.507
92.507
92.507
92.507
92.507
92.507
92.507
92.507
92.507
92.507
92.507
92.507
92.507
92.507
92.507
92.507
92.507
92.507
92.507
92.507
92.507
92.507
92.507
92.507
97.407
97.382
97.358
97.333
97.309
97.284
97.260
97.235
97.211
97.186
97.162
97.137
97.113
97.088
97.064
97.039
97.015
96.990
96.966
96.941
96.917
96.892
96.868
96.843
96.819
96.794
96.770
96.745
96.721
96.696
96.672
96.647
96.623
96.598
96.574
96.549
96.525
96.500
96.476
96.451
96.427
96.402
96.378
96.353
96.329
96.304
96.280
96.255
96.231
96.206
96.182
96.157
96.133
96.108
96.084
96.059
96.035
96.010
95.986
95.961
95.937
95.912
95.888
95.863
95.839
95.814
95.790
95.765
95.741
95.716
95.692
95.667
95.643
95.618
95.594
95.569
95.545
95.520
95.496
95.471
95.447
95.422
95.398
95.373
95.349
95.324
95.300
95.275
95.251
95.226
95.202
95.177
95.153
95.128
95.104
95.079
95.055
95.030
95.006
94.981
94.957
94.932
94.908
94.883
94.859
94.834
94.810
94.785
94.761
94.736
94.712
94.687
94.663
94.638
94.614
94.589
94.565
94.540
94.516
94.491
94.467
94.442
94.418
94.393
94.369
94.344
94.320
94.295
94.271
94.246
94.222
94.197
94.173
94.148
94.124
94.099
94.075
94.050
94.026
94.001
93.977
93.952
93.928
93.903
93.879
93.854
93.830
93.805
93.781
93.756
93.732
93.707
93.683
93.658
93.634
93.609
93.585
93.560
93.536
93.511
93.487
93.462
93.438
93.413
93.389
93.364
93.340
93.315
93.291
93.266
93.242
93.217
93.193
93.168
93.144
93.119
93.095
93.070
93.046
93.021
92.997
92.972
92.948
92.923
92.899
92.874
92.850
92.825
92.801
92.776
92.752
92.727
92.703
92.678
92.654
92.629
92.605
92.580
92.556
92.531
92.507
92.507
92.507
92.507
92.507
92.507
92.507
92.507
92.507
92.507
92.507
92.507
92.507
92.507
92.507
92.507
92.507
92.507
92.507
92.507
92.507
92.507
92.507
92.507
92.507
92.507
92.507
92.507
92.507
92.507
92.507
92.507
92.507
92.507
92.507
92.507
92.507
92.507
92.507
92.507
92.507
92.507
92.507
92.507
92.507
92.507
92.507
92.507
92.507
92.507
92.507
92.507
92.507
92.507
92.507
92.507
92.507
92.507
92.507
92.507
92.507
92.507
92.507
92.507
92.507
92.507
92.507
92.507
92.507
92.507
92.507
92.507
92.507
92.507
92.507
92.507
92.507
92.507
92.507
92.507
92.507
92.507
92.507
92.507
92.507
92.507
92.507
92.507
92.507
92.507
92.507
92.507
92.507
92.507
92.507
92.507
92.507
92.507
92.507
92.507
92.507
92.507
92.507
92.507
92.507
92.507
92.507
92.507
92.507
92.507
92.507
92.507
92.507
92.507
92.507
92.507
92.507
92.507
92.507
92.507
92.507
92.507
92.507
92.507
92.507
92.507
92.507
92.507
92.507
92.507
92.507
92.507
92.507
92.507
92.507
92.507
92.507
92.507
92.507
92.507
92.507
92.507
92.507
92.507
92.507
92.507
92.507
92.507
92.507
92.507
92.507
92.507
92.507
92.507
92.507
92.507
92.507
92.507
92.507
92.507
92.507
92.507
92.507
92.507
92.507
92.507
92.507
92.507
92.507
92.507
92.507
92.507
92.507
92.507
92.507
92.507
92.507
92.507
92.507
92.507
92.507
92.507
92.507
92.507
92.507
92.507
92.507
92.507
92.507
92.507
92.507
92.507
92.507
92.507
92.507
92.507
92.507
92.507
92.507
92.507
