118.611
118.563
118.514
118.466
118.417
118.369
118.320
118.272
118.223
118.175
118.126
118.078
118.029
117.981
117.932
117.884
117.835
117.787
117.738
117.690
117.641
117.593
117.544
117.496
117.447
117.399
117.350
117.302
117.253
117.205
117.156
117.108
117.059
117.011
116.962
116.914
116.865
116.817
116.768
116.720
116.671
116.623
116.574
116.526
116.477
116.429
116.380
116.332
116.283
116.235
116.186
116.138
116.089
116.041
115.992
115.944
115.895
115.847
115.798
115.750
115.701
115.653
115.604
115.556
115.507
115.459
115.410
115.362
115.313
115.265
115.216
115.168
115.119
115.071
115.022
114.974
114.925
114.877
114.828
114.780
114.731
114.683
114.634
114.586
114.537
114.489
114.440
114.392
114.343
114.295
114.246
114.198
114.149
114.101
114.052
114.004
113.955
113.907
113.858
113.810
113.761
113.713
113.664
113.616
113.567
113.519
113.470
113.422
113.373
113.325
113.276
113.228
113.179
113.131
113.082
113.034
112.985
112.937
112.888
112.840
112.791
112.743
112.694
112.646
112.597
112.549
112.500
112.452
112.403
112.355
112.306
112.258
112.209
112.161
112.112
112.064
112.015
111.967
111.918
111.870
111.821
111.773
111.724
111.676
111.627
111.579
111.530
111.482
111.433
111.385
111.336
111.288
111.239
111.191
111.142
111.094
111.045
110.997
110.948
110.900
110.851
110.803
110.754
110.706
110.657
110.609
110.560
110.512
110.463
110.415
110.366
110.318
110.269
110.221
110.172
110.124
110.075
110.027
109.978
109.930
109.881
109.833
109.784
109.736
109.687
109.639
109.590
109.542
109.493
109.445
109.396
109.348
109.299
109.251
109.202
109.154
109.105
109.057
109.008
108.960
108.911
108.911
108.911
108.911
108.911
108.911
108.911
108.911
108.911
108.911
108.911
108.911
108.911
108.911
108.911
108.911
108.911
108.911
108.911
108.911
108.911
108.911
108.911
108.911
108.911
108.911
108.911
108.911
108.911
108.911
108.911
108.911
108.911
108.911
108.911
108.911
108.911
108.911
108.911
108.911
108.911
108.911
108.911
108.911
108.911
108.911
108.911
108.911
108.911
108.911
108.911
108.911
108.911
108.911
108.911
108.911
108.911
108.911
108.911
108.911
108.911
108.911
108.911
108.911
108.911
108.911
108.911
108.911
108.911
108.911
108.911
108.911
108.911
108.911
108.911
108.911
108.911
108.911
108.911
108.911
108.911
108.911
108.911
108.911
108.911
108.911
108.911
108.911
108.911
108.911
108.911
108.911
108.911
108.911
108.911
108.911
108.911
108.911
108.911
108.911
108.911
108.911
108.911
108.911
108.911
108.911
108.911
108.911
108.911
108.911
108.911
108.911
108.911
108.911
108.911
108.911
108.911
108.911
108.911
108.911
108.911
108.911
108.911
108.911
108.911
108.911
108.911
108.911
108.911
108.911
108.911
108.911
108.911
108.911
108.911
108.911
108.911
108.911
108.911
108.911
108.911
108.911
108.911
108.911
108.911
108.911
108.911
108.911
108.911
108.911
108.911
108.911
108.911
108.911
108.911
108.911
108.911
108.911
108.911
108.911
108.911
108.911
108.911
108.911
108.911
108.911
108.911
108.911
108.911
108.911
108.911
108.911
108.911
108.911
108.911
108.911
108.911
108.911
108.911
108.911
108.911
108.911
108.911
108.911
108.911
108.911
108.911
108.911
108.911
108.911
108.911
108.911
108.911
108.911
108.911
108.911
108.911
108.911
108.911
108.911
108.911
108.887
108.862
108.838
108.813
108.789
108.764
108.740
108.715
108.691
108.666
108.642
108.617
108.593
108.568
108.544
108.519
108.495
108.470
108.446
108.421
108.397
108.372
108.348
108.323
108.299
108.274
108.250
108.225
108.201
108.176
108.152
108.127
108.103
108.078
108.054
108.029
108.005
107.980
107.956
107.931
107.907
107.882
107.858
107.833
107.809
107.784
107.760
107.735
107.711
107.686
107.662
107.637
107.613
107.588
107.564
107.539
107.515
107.490
107.466
107.441
107.417
107.392
107.368
107.343
107.319
107.294
107.270
107.245
107.221
107.196
107.172
107.147
107.123
107.098
107.074
107.049
107.025
107.000
106.976
106.951
106.927
106.902
106.878
106.853
106.829
106.804
106.780
106.755
106.731
106.706
106.682
106.657
106.633
106.608
106.584
106.559
106.535
106.510
106.486
106.461
106.437
106.412
106.388
106.363
106.339
106.314
106.290
106.265
106.241
106.216
106.192
106.167
106.143
106.118
106.094
106.069
106.045
106.020
105.996
105.971
105.947
105.922
105.898
105.873
105.849
105.824
105.800
105.775
105.751
105.726
105.702
105.677
105.653
105.628
105.604
105.579
105.555
105.530
105.506
105.481
105.457
105.432
105.408
105.383
105.359
105.334
105.310
105.285
105.261
105.236
105.212
105.187
105.163
105.138
105.114
105.089
105.065
105.040
105.016
104.991
104.967
104.942
104.918
104.893
104.869
104.844
104.820
104.795
104.771
104.746
104.722
104.697
104.673
104.648
104.624
104.599
104.575
104.550
104.526
104.501
104.477
104.452
104.428
104.403
104.379
104.354
104.330
104.305
104.281
104.256
104.232
104.207
104.183
104.158
104.134
104.109
104.085
104.060
104.036
104.011
104.036
104.060
104.085
104.109
104.134
104.158
104.183
104.207
104.232
104.256
104.281
104.305
104.330
104.354
104.379
104.403
104.428
104.452
104.477
104.501
104.526
104.550
104.575
104.599
104.624
104.648
104.673
104.697
104.722
104.746
104.771
104.795
104.820
104.844
104.869
104.893
104.918
104.942
104.967
104.991
105.016
105.040
105.065
105.089
105.114
105.138
105.163
105.187
105.212
105.236
105.261
105.285
105.310
105.334
105.359
105.383
105.408
105.432
105.457
105.481
105.506
105.530
105.555
105.579
105.604
105.628
105.653
105.677
105.702
105.726
105.751
105.775
105.800
105.824
105.849
105.873
105.898
105.922
105.947
105.971
105.996
106.020
106.045
106.069
106.094
106.118
106.143
106.167
106.192
106.216
106.241
106.265
106.290
106.314
106.339
106.363
106.388
106.412
106.437
106.461
106.486
106.510
106.535
106.559
106.584
106.608
106.633
106.657
106.682
106.706
106.731
106.755
106.780
106.804
106.829
106.853
106.878
106.902
106.927
106.951
106.976
107.000
107.025
107.049
107.074
107.098
107.123
107.147
107.172
107.196
107.221
107.245
107.270
107.294
107.319
107.343
107.368
107.392
107.417
107.441
107.466
107.490
107.515
107.539
107.564
107.588
107.613
107.637
107.662
107.686
107.711
107.735
107.760
107.784
107.809
107.833
107.858
107.882
107.907
107.931
107.956
107.980
108.005
108.029
108.054
108.078
108.103
108.127
108.152
108.176
108.201
108.225
108.250
108.274
108.299
108.323
108.348
108.372
108.397
108.421
108.446
108.470
108.495
108.519
108.544
108.568
108.593
108.617
108.642
108.666
108.691
108.715
108.740
108.764
108.789
108.813
108.838
108.862
108.887
108.911
108.911
108.911
108.911
108.911
108.911
108.911
108.911
108.911
108.911
108.911
108.911
108.911
108.911
108.911
108.911
108.911
108.911
108.911
108.911
108.911
108.911
108.911
108.911
108.911
108.911
108.911
108.911
108.911
108.911
108.911
108.911
108.911
108.911
108.911
108.911
108.911
108.911
108.911
108.911
108.911
108.911
108.911
108.911
108.911
108.911
108.911
108.911
108.911
108.911
108.911
108.911
108.911
108.911
108.911
108.911
108.911
108.911
108.911
108.911
108.911
108.911
108.911
108.911
108.911
108.911
108.911
108.911
108.911
108.911
108.911
108.911
108.911
108.911
108.911
108.911
108.911
108.911
108.911
108.911
108.911
108.911
108.911
108.911
108.911
108.911
108.911
108.911
108.911
108.911
108.911
108.911
108.911
108.911
108.911
108.911
108.911
108.911
108.911
108.911
108.911
108.911
108.911
108.911
108.911
108.911
108.911
108.911
108.911
108.911
108.911
108.911
108.911
108.911
108.911
108.911
108.911
108.911
108.911
108.911
108.911
108.911
108.911
108.911
108.911
108.911
108.911
108.911
108.911
108.911
108.911
108.911
108.911
108.911
108.911
108.911
108.911
108.911
108.911
108.911
108.911
108.911
108.911
108.911
108.911
108.911
108.911
108.911
108.911
108.911
108.911
108.911
108.911
108.911
108.911
108.911
108.911
108.911
108.911
108.911
108.911
108.911
108.911
108.911
108.911
108.911
108.911
108.911
108.911
108.911
108.911
108.911
108.911
108.911
108.911
108.911
108.911
108.911
108.911
108.911
108.911
108.911
108.911
108.911
108.911
108.911
108.911
108.911
108.911
108.911
108.911
108.911
108.911
108.911
108.911
108.911
108.911
108.911
108.911
108.911
108.911
108.911
108.911
108.911
108.911
108.911
108.911
108.911
108.911
108.911
108.911
108.911
108.911
108.911
108.911
108.911
108.911
108.911
108.911
108.911
108.911
108.911
108.911
108.911
108.911
108.911
108.911
108.911
108.911
108.911
108.911
108.911
108.911
108.911
108.911
108.911
108.911
108.911
108.911
108.911
108.911
108.911
108.911
108.911
108.911
108.911
108.911
108.911
108.911
108.911
108.911
108.911
108.911
108.911
108.911
108.911
108.911
108.911
108.911
108.911
108.911
108.911
108.911
108.911
108.911
108.911
108.911
108.911
108.911
108.911
108.911
108.911
108.911
108.911
108.911
108.911
108.911
108.911
108.911
108.911
108.911
108.911
108.911
108.911
108.911
108.911
108.911
108.911
108.911
108.911
108.911
108.911
108.911
108.911
108.911
108.911
108.911
108.911
108.911
108.911
108.911
108.911
108.911
108.911
108.911
108.911
108.911
108.911
108.911
108.911
108.911
108.911
108.911
108.911
108.911
108.911
108.911
108.911
108.911
108.911
108.911
108.911
108.911
108.911
108.911
108.911
108.911
108.911
108.911
108.911
108.911
108.911
108.911
108.911
108.911
108.911
108.911
108.911
108.911
108.911
108.911
108.911
108.911
108.911
108.911
108.911
108.911
108.911
108.911
108.911
108.911
108.911
108.911
108.911
108.911
108.911
108.911
108.911
108.911
108.911
108.911
108.911
108.911
108.911
108.911
108.911
108.911
108.911
108.911
108.911
108.911
108.911
108.911
108.911
108.911
108.911
108.911
108.911
108.911
108.911
108.911
108.911
108.911
108.911
108.911
108.911
108.911
108.911
108.911
108.911
108.911
108.911
108.911
108.911
108.911
108.911
108.911
108.911
108.911
108.911
108.911
108.911
108.911
108.911
108.911
108.911
108.911
108.911
108.911
108.911
108.911
108.911
108.911
108.911
108.911
108.911
108.911
108.911
108.911
108.911
108.911
108.911
108.911
108.911
108.911
108.911
108.911
108.911
108.911
108.911
108.911
108.911
108.911
108.911
108.911
108.911
108.911
108.911
108.911
108.911
108.911
108.911
108.911
108.911
108.911
108.911
108.911
108.911
108.911
108.911
108.911
108.911
108.911
108.911
108.911
108.911
108.911
108.911
108.911
108.911
108.911
108.911
108.911
108.911
108.911
108.911
108.911
108.911
108.911
108.911
108.911
108.911
108.911
108.911
108.911
108.911
108.911
108.911
108.911
108.911
108.911
108.911
108.911
108.911
108.911
108.911
108.911
108.911
108.911
108.911
108.911
108.911
108.911
108.911
108.911
108.911
108.911
108.911
108.911
108.911
108.911
108.911
108.911
108.911
108.911
108.911
108.911
108.911
108.911
108.911
108.911
108.911
108.911
108.911
108.911
108.911
108.911
108.911
108.911
108.911
108.911
108.911
108.911
108.911
108.911
108.911
108.911
108.911
108.911
108.911
108.911
108.911
108.911
108.911
108.911
108.911
108.911
108.911
108.911
108.911
108.911
108.911
108.911
108.911
108.911
108.911
108.911
108.911
108.911
108.911
108.911
108.911
108.911
108.911
108.911
108.911
108.911
108.911
108.911
108.911
108.911
108.911
108.911
108.911
108.911
108.911
108.911
108.911
108.911
108.911
108.911
108.911
108.911
108.911
108.911
108.911
108.911
108.911
108.911
108.911
108.911
108.911
108.911
108.911
108.911
108.911
108.911
108.911
108.911
108.911
108.911
108.911
108.911
108.911
108.911
108.911
108.911
108.911
108.911
108.911
108.911
108.911
108.911
108.911
108.911
108.911
108.911
108.911
108.911
108.911
108.911
108.911
108.911
108.911
108.911
108.911
108.911
108.911
108.911
108.911
108.911
108.911
108.911
108.911
108.911
108.911
108.911
108.911
108.911
108.911
108.911
108.911
108.911
108.911
108.911
108.911
108.911
108.911
108.911
108.911
108.911
108.911
108.911
108.911
108.911
108.911
108.911
108.911
108.911
108.911
108.911
108.911
108.911
108.911
108.911
108.911
108.911
108.911
108.911
108.911
108.911
108.911
108.911
108.911
108.911
108.911
108.911
108.911
108.911
108.911
108.911
108.911
108.911
108.911
108.911
108.911
108.911
108.911
108.911
108.911
108.911
108.911
108.911
108.911
108.911
108.911
108.911
108.911
108.911
108.911
108.911
108.911
108.911
108.911
108.911
108.911
108.911
108.911
108.911
108.911
108.911
108.911
108.911
108.911
108.911
108.911
108.911
108.911
108.911
108.911
108.911
108.911
108.911
108.911
108.911
108.911
108.911
108.911
108.911
108.911
108.911
108.911
108.911
108.911
108.911
108.911
108.911
108.911
108.911
108.911
108.911
108.911
108.911
108.911
108.911
108.911
108.911
108.911
108.911
108.911
108.911
108.911
108.911
108.911
108.911
108.911
108.911
108.911
108.911
108.911
108.911
108.911
108.911
108.911
108.911
108.911
108.911
108.911
108.911
108.911
108.911
108.911
108.911
108.911
108.911
108.911
108.911
108.911
108.911
108.911
108.911
108.911
108.911
108.911
108.911
108.911
108.911
108.911
108.911
108.911
108.911
108.911
108.911
108.911
108.911
108.911
108.911
108.911
108.911
108.911
108.911
108.911
108.911
108.911
108.911
108.911
108.911
108.911
108.911
108.911
108.911
108.911
108.911
108.911
108.911
108.911
108.911
108.911
108.911
108.911
108.911
108.911
108.911
108.911
108.911
108.911
108.911
108.911
108.911
108.911
108.911
108.911
108.911
108.911
108.911
108.911
108.911
108.911
108.911
108.911
108.911
108.911
108.911
108.911
108.911
108.911
108.911
108.911
108.911
108.911
108.911
108.911
108.911
108.911
108.911
108.911
108.911
108.911
108.911
108.911
108.911
108.911
108.911
108.911
108.911
108.911
108.911
108.911
108.911
108.911
108.911
108.911
108.911
108.911
108.911
108.911
108.911
108.911
108.911
108.911
108.911
108.911
108.911
108.911
108.911
108.911
108.911
108.911
108.911
108.911
108.911
108.911
108.911
108.911
108.911
108.911
108.911
108.911
108.911
108.911
108.911
108.911
108.911
108.911
108.911
108.911
108.911
108.911
108.911
108.911
108.911
108.911
108.911
108.911
108.911
108.911
108.911
108.911
108.911
108.911
108.911
108.911
108.911
108.911
108.911
108.911
108.911
108.911
108.911
108.911
108.911
108.911
108.911
108.911
108.911
108.911
108.911
108.911
108.911
108.911
108.911
108.911
108.911
108.911
108.911
108.911
108.911
108.911
108.911
108.911
108.911
108.911
108.911
108.911
108.911
108.911
108.911
108.911
108.911
108.911
108.911
108.911
108.911
108.911
108.911
108.911
108.911
108.911
108.911
108.911
108.911
108.911
108.911
108.911
108.911
108.911
108.911
108.911
108.911
108.911
108.911
108.911
108.911
108.911
108.911
108.911
108.911
108.911
108.911
108.911
108.911
108.911
108.911
108.911
108.911
108.911
108.911
108.911
108.911
108.911
108.911
108.911
108.911
108.911
108.911
108.911
108.911
108.911
108.911
108.911
108.911
108.911
108.911
108.911
108.911
108.911
108.911
108.911
108.911
108.911
108.911
108.911
108.911
108.911
108.911
108.911
108.911
108.911
108.911
108.911
108.911
108.911
108.911
108.911
108.911
108.911
108.911
108.911
108.911
108.911
108.911
108.911
108.911
108.911
108.911
108.911
108.911
108.911
108.911
108.911
108.911
108.911
108.911
108.911
108.911
108.911
108.911
108.911
108.911
108.911
108.911
108.911
108.911
108.911
108.911
108.911
108.911
108.911
108.911
108.911
108.911
108.911
108.911
108.911
108.911
108.911
108.911
108.911
108.911
108.911
108.911
108.911
108.911
108.911
108.911
108.911
108.911
108.911
108.911
108.911
108.911
108.911
108.911
108.911
108.911
108.911
108.911
108.911
108.911
108.911
108.911
108.911
108.911
108.911
108.911
108.911
108.911
108.911
108.911
108.911
108.911
108.911
108.911
108.911
108.911
108.911
108.911
108.911
108.911
108.911
108.911
108.911
108.911
108.911
108.911
108.911
108.911
108.911
108.911
108.911
108.911
108.911
108.911
108.911
108.911
108.911
108.911
108.911
108.911
108.911
108.911
108.911
108.911
108.911
108.911
108.911
108.911
108.911
108.911
108.911
108.911
108.911
108.911
108.911
108.911
108.911
108.911
108.911
108.911
108.911
108.911
108.911
108.911
108.911
108.911
108.911
108.911
108.911
108.911
108.911
108.911
108.911
108.911
108.911
108.911
108.911
108.911
108.911
108.911
108.911
108.911
108.911
108.911
108.911
108.911
108.911
108.911
108.911
108.911
108.911
108.911
108.911
108.911
108.911
108.911
108.911
108.911
108.911
108.911
108.911
108.911
108.911
108.911
108.911
108.911
108.911
108.911
108.911
108.911
108.911
