92.977
92.977
92.977
92.977
92.977
92.977
92.977
92.977
92.977
92.977
92.977
92.977
92.977
92.977
92.977
92.977
92.977
92.977
92.977
92.977
92.977
92.977
92.977
92.977
92.977
92.977
92.977
92.977
92.977
92.977
92.977
92.977
92.977
92.977
92.977
92.977
92.977
92.977
92.977
92.977
92.977
92.977
92.977
92.977
92.977
92.977
92.977
92.977
92.977
92.977
92.977
92.977
92.977
92.977
92.977
92.977
92.977
92.977
92.977
92.977
92.977
92.977
92.977
92.977
92.977
92.977
92.977
92.977
92.977
92.977
92.977
92.977
92.977
92.977
92.977
92.977
92.977
92.977
92.977
92.977
92.977
92.977
92.977
92.977
92.977
92.977
92.977
92.977
92.977
92.977
92.977
92.977
92.977
92.977
92.977
92.977
92.977
92.977
92.977
92.977
92.977
92.977
92.977
92.977
92.977
92.977
92.977
92.977
92.977
92.977
92.977
92.977
92.977
92.977
92.977
92.977
92.977
92.977
92.977
92.977
92.977
92.977
92.977
92.977
92.977
92.977
92.977
92.977
92.977
92.977
92.977
92.977
92.977
92.977
92.977
92.977
92.977
92.977
92.977
92.977
92.977
92.977
92.977
92.977
92.977
92.977
92.977
92.977
92.977
92.977
92.977
92.977
92.977
92.977
92.977
92.977
92.977
92.977
92.977
92.977
92.977
92.977
92.977
92.977
92.977
92.977
92.977
92.977
92.977
92.977
92.977
92.977
92.977
92.977
92.977
92.977
92.977
92.977
92.977
92.977
92.977
92.977
92.977
92.977
92.977
92.977
92.977
92.977
92.977
92.977
92.977
92.977
92.977
92.977
92.977
92.977
92.977
92.977
92.977
92.977
92.977
92.977
92.977
92.977
92.977
92.977
92.977
92.977
92.977
92.977
92.977
92.977
92.977
92.977
92.977
92.977
92.977
92.977
92.977
92.977
92.977
92.977
92.977
92.977
92.977
92.977
92.977
92.977
92.977
92.977
92.977
92.977
92.977
92.977
92.977
92.977
92.977
92.977
92.977
92.977
92.977
92.977
92.977
92.977
92.977
92.977
92.977
92.977
92.977
92.977
92.977
92.977
92.977
92.977
92.977
92.977
92.977
92.977
92.977
92.977
92.977
92.977
92.977
92.977
92.977
92.977
92.977
92.977
92.977
92.977
92.977
92.977
92.977
92.977
92.977
92.977
92.977
92.977
92.977
92.977
92.977
92.977
92.977
92.977
92.977
92.977
92.977
92.977
92.977
92.977
92.977
92.977
92.977
92.977
92.977
92.977
92.977
92.977
92.977
92.977
92.977
92.977
92.977
92.977
92.977
92.977
92.977
92.977
92.977
92.977
92.977
92.977
92.977
92.977
92.977
92.977
92.977
92.977
92.977
92.977
92.977
92.977
92.977
92.977
92.977
92.977
92.977
92.977
92.977
92.977
92.977
92.977
92.977
92.977
92.977
92.977
92.977
92.977
92.977
92.977
92.977
92.977
92.977
92.977
92.977
92.977
92.977
92.977
92.977
92.977
92.977
92.977
92.977
92.977
92.977
92.977
92.977
92.977
92.977
92.977
92.977
92.977
92.977
92.977
92.977
92.977
92.977
92.977
92.977
92.977
92.977
92.977
92.977
92.977
92.977
92.977
92.977
92.977
92.977
92.977
92.977
92.977
92.977
92.977
92.977
92.977
92.977
92.977
92.977
92.977
92.977
92.977
92.977
92.977
92.977
92.977
92.977
92.977
92.977
92.977
92.977
92.953
92.928
92.904
92.879
92.855
92.830
92.806
92.781
92.757
92.732
92.708
92.683
92.659
92.634
92.610
92.585
92.561
92.536
92.512
92.487
92.463
92.438
92.414
92.389
92.365
92.340
92.316
92.291
92.267
92.242
92.218
92.193
92.169
92.144
92.120
92.095
92.071
92.046
92.022
91.997
91.973
91.948
91.924
91.899
91.875
91.850
91.826
91.801
91.777
91.752
91.728
91.703
91.679
91.654
91.630
91.605
91.581
91.556
91.532
91.507
91.483
91.458
91.434
91.409
91.385
91.360
91.336
91.311
91.287
91.262
91.238
91.213
91.189
91.164
91.140
91.115
91.091
91.066
91.042
91.017
90.993
90.968
90.944
90.919
90.895
90.870
90.846
90.821
90.797
90.772
90.748
90.723
90.699
90.674
90.650
90.625
90.601
90.576
90.552
90.527
90.503
90.478
90.454
90.429
90.405
90.380
90.356
90.331
90.307
90.282
90.258
90.233
90.209
90.184
90.160
90.135
90.111
90.086
90.062
90.037
90.013
89.988
89.964
89.939
89.915
89.890
89.866
89.841
89.817
89.792
89.768
89.743
89.719
89.694
89.670
89.645
89.621
89.596
89.572
89.547
89.523
89.498
89.474
89.449
89.425
89.400
89.376
89.351
89.327
89.302
89.278
89.253
89.229
89.204
89.180
89.155
89.131
89.106
89.082
89.057
89.033
89.008
88.984
88.959
88.935
88.910
88.886
88.861
88.837
88.812
88.788
88.763
88.739
88.714
88.690
88.665
88.641
88.616
88.592
88.567
88.543
88.518
88.494
88.469
88.445
88.420
88.396
88.371
88.347
88.322
88.298
88.273
88.249
88.224
88.200
88.175
88.151
88.126
88.102
88.077
88.077
88.077
88.077
88.077
88.077
88.077
88.077
88.077
88.077
88.077
88.077
88.077
88.077
88.077
88.077
88.077
88.077
88.077
88.077
88.077
88.077
88.077
88.077
88.077
88.077
88.077
88.077
88.077
88.077
88.077
88.077
88.077
88.077
88.077
88.077
88.077
88.077
88.077
88.077
88.077
88.077
88.077
88.077
88.077
88.077
88.077
88.077
88.077
88.077
88.077
88.077
88.077
88.077
88.077
88.077
88.077
88.077
88.077
88.077
88.077
88.077
88.077
88.077
88.077
88.077
88.077
88.077
88.077
88.077
88.077
88.077
88.077
88.077
88.077
88.077
88.077
88.077
88.077
88.077
88.077
88.077
88.077
88.077
88.077
88.077
88.077
88.077
88.077
88.077
88.077
88.077
88.077
88.077
88.077
88.077
88.077
88.077
88.077
88.077
88.077
88.077
88.077
88.077
88.077
88.077
88.077
88.077
88.077
88.077
88.077
88.077
88.077
88.077
88.077
88.077
88.077
88.077
88.077
88.077
88.077
88.077
88.077
88.077
88.077
88.077
88.077
88.077
88.077
88.077
88.077
88.077
88.077
88.077
88.077
88.077
88.077
88.077
88.077
88.077
88.077
88.077
88.077
88.077
88.077
88.077
88.077
88.077
88.077
88.077
88.077
88.077
88.077
88.077
88.077
88.077
88.077
88.077
88.077
88.077
88.077
88.077
88.077
88.077
88.077
88.077
88.077
88.077
88.077
88.077
88.077
88.077
88.077
88.077
88.077
88.077
88.077
88.077
88.077
88.077
88.077
88.077
88.077
88.077
88.077
88.077
88.077
88.077
88.077
88.077
88.077
88.077
88.077
88.077
88.077
88.077
88.077
88.077
88.077
88.077
88.077
88.102
88.126
88.151
88.175
88.200
88.224
88.249
88.273
88.298
88.322
88.347
88.371
88.396
88.420
88.445
88.469
88.494
88.518
88.543
88.567
88.592
88.616
88.641
88.665
88.690
88.714
88.739
88.763
88.788
88.812
88.837
88.861
88.886
88.910
88.935
88.959
88.984
89.008
89.033
89.057
89.082
89.106
89.131
89.155
89.180
89.204
89.229
89.253
89.278
89.302
89.327
89.351
89.376
89.400
89.425
89.449
89.474
89.498
89.523
89.547
89.572
89.596
89.621
89.645
89.670
89.694
89.719
89.743
89.768
89.792
89.817
89.841
89.866
89.890
89.915
89.939
89.964
89.988
90.013
90.037
90.062
90.086
90.111
90.135
90.160
90.184
90.209
90.233
90.258
90.282
90.307
90.331
90.356
90.380
90.405
90.429
90.454
90.478
90.503
90.527
90.552
90.576
90.601
90.625
90.650
90.674
90.699
90.723
90.748
90.772
90.797
90.821
90.846
90.870
90.895
90.919
90.944
90.968
90.993
91.017
91.042
91.066
91.091
91.115
91.140
91.164
91.189
91.213
91.238
91.262
91.287
91.311
91.336
91.360
91.385
91.409
91.434
91.458
91.483
91.507
91.532
91.556
91.581
91.605
91.630
91.654
91.679
91.703
91.728
91.752
91.777
91.801
91.826
91.850
91.875
91.899
91.924
91.948
91.973
91.997
92.022
92.046
92.071
92.095
92.120
92.144
92.169
92.193
92.218
92.242
92.267
92.291
92.316
92.340
92.365
92.389
92.414
92.438
92.463
92.487
92.512
92.536
92.561
92.585
92.610
92.634
92.659
92.683
92.708
92.732
92.757
92.781
92.806
92.830
92.855
92.879
92.904
92.928
92.953
92.977
92.953
92.928
92.904
92.879
92.855
92.830
92.806
92.781
92.757
92.732
92.708
92.683
92.659
92.634
92.610
92.585
92.561
92.536
92.512
92.487
92.463
92.438
92.414
92.389
92.365
92.340
92.316
92.291
92.267
92.242
92.218
92.193
92.169
92.144
92.120
92.095
92.071
92.046
92.022
91.997
91.973
91.948
91.924
91.899
91.875
91.850
91.826
91.801
91.777
91.752
91.728
91.703
91.679
91.654
91.630
91.605
91.581
91.556
91.532
91.507
91.483
91.458
91.434
91.409
91.385
91.360
91.336
91.311
91.287
91.262
91.238
91.213
91.189
91.164
91.140
91.115
91.091
91.066
91.042
91.017
90.993
90.968
90.944
90.919
90.895
90.870
90.846
90.821
90.797
90.772
90.748
90.723
90.699
90.674
90.650
90.625
90.601
90.576
90.552
90.527
90.503
90.478
90.454
90.429
90.405
90.380
90.356
90.331
90.307
90.282
90.258
90.233
90.209
90.184
90.160
90.135
90.111
90.086
90.062
90.037
90.013
89.988
89.964
89.939
89.915
89.890
89.866
89.841
89.817
89.792
89.768
89.743
89.719
89.694
89.670
89.645
89.621
89.596
89.572
89.547
89.523
89.498
89.474
89.449
89.425
89.400
89.376
89.351
89.327
89.302
89.278
89.253
89.229
89.204
89.180
89.155
89.131
89.106
89.082
89.057
89.033
89.008
88.984
88.959
88.935
88.910
88.886
88.861
88.837
88.812
88.788
88.763
88.739
88.714
88.690
88.665
88.641
88.616
88.592
88.567
88.543
88.518
88.494
88.469
88.445
88.420
88.396
88.371
88.347
88.322
88.298
88.273
88.249
88.224
88.200
88.175
88.151
88.126
88.102
88.077
88.102
88.126
88.151
88.175
88.200
88.224
88.249
88.273
88.298
88.322
88.347
88.371
88.396
88.420
88.445
88.469
88.494
88.518
88.543
88.567
88.592
88.616
88.641
88.665
88.690
88.714
88.739
88.763
88.788
88.812
88.837
88.861
88.886
88.910
88.935
88.959
88.984
89.008
89.033
89.057
89.082
89.106
89.131
89.155
89.180
89.204
89.229
89.253
89.278
89.302
89.327
89.351
89.376
89.400
89.425
89.449
89.474
89.498
89.523
89.547
89.572
89.596
89.621
89.645
89.670
89.694
89.719
89.743
89.768
89.792
89.817
89.841
89.866
89.890
89.915
89.939
89.964
89.988
90.013
90.037
90.062
90.086
90.111
90.135
90.160
90.184
90.209
90.233
90.258
90.282
90.307
90.331
90.356
90.380
90.405
90.429
90.454
90.478
90.503
90.527
90.552
90.576
90.601
90.625
90.650
90.674
90.699
90.723
90.748
90.772
90.797
90.821
90.846
90.870
90.895
90.919
90.944
90.968
90.993
91.017
91.042
91.066
91.091
91.115
91.140
91.164
91.189
91.213
91.238
91.262
91.287
91.311
91.336
91.360
91.385
91.409
91.434
91.458
91.483
91.507
91.532
91.556
91.581
91.605
91.630
91.654
91.679
91.703
91.728
91.752
91.777
91.801
91.826
91.850
91.875
91.899
91.924
91.948
91.973
91.997
92.022
92.046
92.071
92.095
92.120
92.144
92.169
92.193
92.218
92.242
92.267
92.291
92.316
92.340
92.365
92.389
92.414
92.438
92.463
92.487
92.512
92.536
92.561
92.585
92.610
92.634
92.659
92.683
92.708
92.732
92.757
92.781
92.806
92.830
92.855
92.879
92.904
92.928
92.953
92.977
92.977
92.977
92.977
92.977
92.977
92.977
92.977
92.977
92.977
92.977
92.977
92.977
92.977
92.977
92.977
92.977
92.977
92.977
92.977
92.977
92.977
92.977
92.977
92.977
92.977
92.977
92.977
92.977
92.977
92.977
92.977
92.977
92.977
92.977
92.977
92.977
92.977
92.977
92.977
92.977
92.977
92.977
92.977
92.977
92.977
92.977
92.977
92.977
92.977
92.977
92.977
92.977
92.977
92.977
92.977
92.977
92.977
92.977
92.977
92.977
92.977
92.977
92.977
92.977
92.977
92.977
92.977
92.977
92.977
92.977
92.977
92.977
92.977
92.977
92.977
92.977
92.977
92.977
92.977
92.977
92.977
92.977
92.977
92.977
92.977
92.977
92.977
92.977
92.977
92.977
92.977
92.977
92.977
92.977
92.977
92.977
92.977
92.977
92.977
92.977
92.977
92.977
92.977
92.977
92.977
92.977
92.977
92.977
92.977
92.977
92.977
92.977
92.977
92.977
92.977
92.977
92.977
92.977
92.977
92.977
92.977
92.977
92.977
92.977
92.977
92.977
92.977
92.977
92.977
92.977
92.977
92.977
92.977
92.977
92.977
92.977
92.977
92.977
92.977
92.977
92.977
92.977
92.977
92.977
92.977
92.977
92.977
92.977
92.977
92.977
92.977
92.977
92.977
92.977
92.977
92.977
92.977
92.977
92.977
92.977
92.977
92.977
92.977
92.977
92.977
92.977
92.977
92.977
92.977
92.977
92.977
92.977
92.977
92.977
92.977
92.977
92.977
92.977
92.977
92.977
92.977
92.977
92.977
92.977
92.977
92.977
92.977
92.977
92.977
92.977
92.977
92.977
92.977
92.977
92.977
92.977
92.977
92.977
92.977
92.977
92.953
92.928
92.904
92.879
92.855
92.830
92.806
92.781
92.757
92.732
92.708
92.683
92.659
92.634
92.610
92.585
92.561
92.536
92.512
92.487
92.463
92.438
92.414
92.389
92.365
92.340
92.316
92.291
92.267
92.242
92.218
92.193
92.169
92.144
92.120
92.095
92.071
92.046
92.022
91.997
91.973
91.948
91.924
91.899
91.875
91.850
91.826
91.801
91.777
91.752
91.728
91.703
91.679
91.654
91.630
91.605
91.581
91.556
91.532
91.507
91.483
91.458
91.434
91.409
91.385
91.360
91.336
91.311
91.287
91.262
91.238
91.213
91.189
91.164
91.140
91.115
91.091
91.066
91.042
91.017
90.993
90.968
90.944
90.919
90.895
90.870
90.846
90.821
90.797
90.772
90.748
90.723
90.699
90.674
90.650
90.625
90.601
90.576
90.552
90.527
90.503
90.478
90.454
90.429
90.405
90.380
90.356
90.331
90.307
90.282
90.258
90.233
90.209
90.184
90.160
90.135
90.111
90.086
90.062
90.037
90.013
89.988
89.964
89.939
89.915
89.890
89.866
89.841
89.817
89.792
89.768
89.743
89.719
89.694
89.670
89.645
89.621
89.596
89.572
89.547
89.523
89.498
89.474
89.449
89.425
89.400
89.376
89.351
89.327
89.302
89.278
89.253
89.229
89.204
89.180
89.155
89.131
89.106
89.082
89.057
89.033
89.008
88.984
88.959
88.935
88.910
88.886
88.861
88.837
88.812
88.788
88.763
88.739
88.714
88.690
88.665
88.641
88.616
88.592
88.567
88.543
88.518
88.494
88.469
88.445
88.420
88.396
88.371
88.347
88.322
88.298
88.273
88.249
88.224
88.200
88.175
88.151
88.126
88.102
88.077
88.102
88.126
88.151
88.175
88.200
88.224
88.249
88.273
88.298
88.322
88.347
88.371
88.396
88.420
88.445
88.469
88.494
88.518
88.543
88.567
88.592
88.616
88.641
88.665
88.690
88.714
88.739
88.763
88.788
88.812
88.837
88.861
88.886
88.910
88.935
88.959
88.984
89.008
89.033
89.057
89.082
89.106
89.131
89.155
89.180
89.204
89.229
89.253
89.278
89.302
89.327
89.351
89.376
89.400
89.425
89.449
89.474
89.498
89.523
89.547
89.572
89.596
89.621
89.645
89.670
89.694
89.719
89.743
89.768
89.792
89.817
89.841
89.866
89.890
89.915
89.939
89.964
89.988
90.013
90.037
90.062
90.086
90.111
90.135
90.160
90.184
90.209
90.233
90.258
90.282
90.307
90.331
90.356
90.380
90.405
90.429
90.454
90.478
90.503
90.527
90.552
90.576
90.601
90.625
90.650
90.674
90.699
90.723
90.748
90.772
90.797
90.821
90.846
90.870
90.895
90.919
90.944
90.968
90.993
91.017
91.042
91.066
91.091
91.115
91.140
91.164
91.189
91.213
91.238
91.262
91.287
91.311
91.336
91.360
91.385
91.409
91.434
91.458
91.483
91.507
91.532
91.556
91.581
91.605
91.630
91.654
91.679
91.703
91.728
91.752
91.777
91.801
91.826
91.850
91.875
91.899
91.924
91.948
91.973
91.997
92.022
92.046
92.071
92.095
92.120
92.144
92.169
92.193
92.218
92.242
92.267
92.291
92.316
92.340
92.365
92.389
92.414
92.438
92.463
92.487
92.512
92.536
92.561
92.585
92.610
92.634
92.659
92.683
92.708
92.732
92.757
92.781
92.806
92.830
92.855
92.879
92.904
92.928
92.953
