743.267
748.570
753.873
759.176
764.479
769.782
775.085
780.388
785.691
790.994
796.297
801.600
806.903
812.206
817.509
822.812
828.115
833.418
838.721
844.024
849.327
854.630
859.933
865.236
870.539
875.842
881.145
886.448
891.751
897.054
902.357
907.660
912.963
918.266
923.569
928.872
934.175
939.478
944.781
950.084
955.387
960.690
965.993
971.296
976.599
981.902
987.205
992.508
997.811
1003.114
1008.417
1013.720
1019.023
1024.326
1029.629
1034.932
1040.235
1045.538
1050.841
1056.144
1061.447
1066.750
1072.053
1077.356
1082.659
1087.962
1093.265
1098.568
1103.871
1109.174
1114.477
1119.780
1125.083
1130.386
1135.689
1140.992
1146.295
1151.598
1156.901
1162.204
1167.507
1172.810
1178.113
1183.416
1188.719
1194.022
1199.325
1204.628
1209.931
1215.234
1220.537
1225.840
1231.143
1236.446
1241.749
1247.052
1252.355
1257.658
1262.961
1268.264
1273.567
1278.870
1284.173
1289.476
1294.779
1300.082
1305.385
1310.688
1315.991
1321.294
1326.597
1331.900
1337.203
1342.506
1347.809
1353.112
1358.415
1363.718
1369.021
1374.324
1379.627
1384.930
1390.233
1395.536
1400.839
1406.142
1411.445
1416.748
1422.051
1427.354
1432.657
1437.960
1443.263
1448.566
1453.869
1459.172
1464.475
1469.778
1475.081
1480.384
1485.687
1490.990
1496.293
1501.596
1506.899
1512.202
1517.505
1522.808
1528.111
1533.414
1538.717
1544.020
1549.323
1554.626
1559.929
1565.232
1570.535
1575.838
1581.141
1586.444
1591.747
1597.050
1602.353
1607.656
1612.959
1618.262
1623.565
1628.868
1634.171
1639.474
1644.777
1650.080
1655.383
1660.686
1665.989
1671.292
1676.595
1681.898
1687.201
1692.504
1697.807
1703.110
1708.413
1713.716
1719.019
1724.322
1729.625
1734.928
1740.231
1745.534
1750.837
1756.140
1761.443
1766.746
1772.049
1777.352
1782.655
1787.958
1793.261
1798.564
1803.867
1803.598
1803.329
1803.060
1802.791
1802.522
1802.253
1801.984
1801.715
1801.446
1801.177
1800.908
1800.639
1800.370
1800.101
1799.832
1799.563
1799.294
1799.025
1798.756
1798.487
1798.218
1797.949
1797.680
1797.411
1797.142
1796.873
1796.604
1796.335
1796.066
1795.797
1795.528
1795.259
1794.990
1794.721
1794.452
1794.183
1793.914
1793.645
1793.376
1793.107
1792.838
1792.569
1792.300
1792.031
1791.762
1791.493
1791.224
1790.955
1790.686
1790.417
1790.148
1789.879
1789.610
1789.341
1789.072
1788.803
1788.534
1788.265
1787.996
1787.727
1787.458
1787.189
1786.920
1786.651
1786.382
1786.113
1785.844
1785.575
1785.306
1785.037
1784.768
1784.499
1784.230
1783.961
1783.692
1783.423
1783.154
1782.885
1782.616
1782.347
1782.078
1781.809
1781.540
1781.271
1781.002
1780.733
1780.464
1780.195
1779.926
1779.657
1779.388
1779.119
1778.850
1778.581
1778.312
1778.043
1777.774
1777.505
1777.236
1776.967
1776.698
1776.429
1776.160
1775.891
1775.622
1775.353
1775.084
1774.815
1774.546
1774.277
1774.008
1773.739
1773.470
1773.201
1772.932
1772.663
1772.394
1772.125
1771.856
1771.587
1771.318
1771.049
1770.780
1770.511
1770.242
1769.973
1769.704
1769.435
1769.166
1768.897
1768.628
1768.359
1768.090
1767.821
1767.552
1767.283
1767.014
1766.745
1766.476
1766.207
1765.938
1765.669
1765.400
1765.131
1764.862
1764.593
1764.324
1764.055
1763.786
1763.517
1763.248
1762.979
1762.710
1762.441
1762.172
1761.903
1761.634
1761.365
1761.096
1760.827
1760.558
1760.289
1760.020
1759.751
1759.482
1759.213
1758.944
1758.675
1758.406
1758.137
1757.868
1757.599
1757.330
1757.061
1756.792
1756.523
1756.254
1755.985
1755.716
1755.447
1755.178
1754.909
1754.640
1754.371
1754.102
1753.833
1753.564
1753.295
1753.026
1752.757
1752.488
1752.219
1751.950
1751.681
1751.412
1751.143
1750.874
1750.605
1750.336
1750.067
1749.823
1749.579
1749.335
1749.091
1748.847
1748.603
1748.359
1748.115
1747.871
1747.627
1747.383
1747.139
1746.895
1746.651
1746.407
1746.163
1745.919
1745.675
1745.431
1745.187
1744.943
1744.699
1744.455
1744.211
1743.967
1743.723
1743.479
1743.235
1742.991
1742.747
1742.503
1742.259
1742.015
1741.771
1741.527
1741.283
1741.039
1740.795
1740.551
1740.307
1740.063
1739.819
1739.575
1739.331
1739.087
1738.843
1738.599
1738.355
1738.111
1737.867
1737.623
1737.379
1737.135
1736.891
1736.647
1736.403
1736.159
1735.915
1735.671
1735.427
1735.183
1734.939
1734.695
1734.451
1734.207
1733.963
1733.719
1733.475
1733.231
1732.987
1732.743
1732.499
1732.255
1732.011
1731.767
1731.523
1731.279
1731.035
1730.791
1730.547
1730.303
1730.059
1729.815
1729.571
1729.327
1729.083
1728.839
1728.595
1728.351
1728.107
1727.863
1727.619
1727.375
1727.131
1726.887
1726.643
1726.399
1726.155
1725.911
1725.667
1725.423
1725.179
1724.935
1724.691
1724.447
1724.203
1723.959
1723.715
1723.471
1723.227
1722.983
1722.739
1722.495
1722.251
1722.007
1721.763
1721.519
1721.275
1721.031
1720.787
1720.543
1720.299
1720.055
1719.811
1719.567
1719.323
1719.079
1718.835
1718.591
1718.347
1718.103
1717.859
1717.615
1717.371
1717.127
1716.883
1716.639
1716.395
1716.151
1715.907
1715.663
1715.419
1715.175
1714.931
1714.687
1714.443
1714.199
1713.955
1713.711
1713.467
1713.223
1712.979
1712.735
1712.491
1712.247
1712.003
1711.759
1711.515
1711.271
1711.027
1710.783
1710.539
1710.295
1710.051
1709.807
1709.563
1709.319
1709.075
1708.831
1708.587
1708.343
1708.099
1707.855
1707.611
1707.367
1707.123
1706.879
1706.635
1706.391
1706.147
1705.903
1705.659
1705.415
1705.171
1704.927
1704.683
1704.439
1704.195
1703.951
1703.707
1703.463
1703.219
1702.975
1702.731
1702.487
1702.243
1701.999
1701.755
1701.511
1701.267
1703.490
1705.714
1707.937
1710.161
1712.384
1714.608
1716.831
1719.055
1721.278
1723.502
1725.725
1727.949
1730.172
1732.396
1734.619
1736.843
1739.066
1741.290
1743.513
1745.737
1747.960
1750.184
1752.407
1754.631
1756.854
1759.078
1761.301
1763.525
1765.748
1767.972
1770.195
1772.419
1774.642
1776.866
1779.089
1781.313
1783.536
1785.760
1787.983
1790.207
1792.430
1794.654
1796.877
1799.101
1801.324
1803.548
1805.771
1807.995
1810.218
1812.442
1814.665
1816.889
1819.112
1821.336
1823.559
1825.783
1828.006
1830.230
1832.453
1834.677
1836.900
1839.124
1841.347
1843.571
1845.794
1848.018
1850.241
1852.465
1854.688
1856.912
1859.135
1861.359
1863.582
1865.806
1868.029
1870.253
1872.476
1874.700
1876.923
1879.147
1881.370
1883.594
1885.817
1888.041
1890.264
1892.488
1894.711
1896.935
1899.158
1901.382
1903.605
1905.829
1908.052
1910.276
1912.499
1914.723
1916.946
1919.170
1921.393
1923.617
1925.840
1928.064
1930.287
1932.511
1934.734
1936.958
1939.181
1941.405
1943.628
1945.852
1948.075
1950.299
1952.522
1954.746
1956.969
1959.193
1961.416
1963.640
1965.863
1968.087
1970.310
1972.534
1974.757
1976.981
1979.204
1981.428
1983.651
1985.875
1988.098
1990.322
1992.545
1994.769
1996.992
1999.216
2001.439
2003.663
2005.886
2008.110
2010.333
2012.557
2014.780
2017.004
2019.227
2021.451
2023.674
2025.898
2028.121
2030.345
2032.568
2034.792
2037.015
2039.239
2041.462
2043.686
2045.909
2048.133
2050.356
2052.580
2054.803
2057.027
2059.250
2061.474
2063.697
2065.921
2068.144
2070.368
2072.591
2074.815
2077.038
2079.262
2081.485
2083.709
2085.932
2088.156
2090.379
2092.603
2094.826
2097.050
2099.273
2101.497
2103.720
2105.944
2108.167
2110.391
2112.614
2114.838
2117.061
2119.285
2121.508
2123.732
2125.955
2128.179
2130.402
2132.626
2134.849
2137.073
2139.296
2141.520
2143.743
2145.967
2145.185
2144.403
2143.621
2142.839
2142.057
2141.275
2140.493
2139.711
2138.929
2138.147
2137.365
2136.583
2135.801
2135.019
2134.237
2133.455
2132.673
2131.891
2131.109
2130.327
2129.545
2128.763
2127.981
2127.199
2126.417
2125.635
2124.853
2124.071
2123.289
2122.507
2121.725
2120.943
2120.161
2119.379
2118.597
2117.815
2117.033
2116.251
2115.469
2114.687
2113.905
2113.123
2112.341
2111.559
2110.777
2109.995
2109.213
2108.431
2107.649
2106.867
2106.085
2105.303
2104.521
2103.739
2102.957
2102.175
2101.393
2100.611
2099.829
2099.047
2098.265
2097.483
2096.701
2095.919
2095.137
2094.355
2093.573
2092.791
2092.009
2091.227
2090.445
2089.663
2088.881
2088.099
2087.317
2086.535
2085.753
2084.971
2084.189
2083.407
2082.625
2081.843
2081.061
2080.279
2079.497
2078.715
2077.933
2077.151
2076.369
2075.587
2074.805
2074.023
2073.241
2072.459
2071.677
2070.895
2070.113
2069.331
2068.549
2067.767
2066.985
2066.203
2065.421
2064.639
2063.857
2063.075
2062.293
2061.511
2060.729
2059.947
2059.165
2058.383
2057.601
2056.819
2056.037
2055.255
2054.473
2053.691
2052.909
2052.127
2051.345
2050.563
2049.781
2048.999
2048.217
2047.435
2046.653
2045.871
2045.089
2044.307
2043.525
2042.743
2041.961
2041.179
2040.397
2039.615
2038.833
2038.051
2037.269
2036.487
2035.705
2034.923
2034.141
2033.359
2032.577
2031.795
2031.013
2030.231
2029.449
2028.667
2027.885
2027.103
2026.321
2025.539
2024.757
2023.975
2023.193
2022.411
2021.629
2020.847
2020.065
2019.283
2018.501
2017.719
2016.937
2016.155
2015.373
2014.591
2013.809
2013.027
2012.245
2011.463
2010.681
2009.899
2009.117
2008.335
2007.553
2006.771
2005.989
2005.207
2004.425
2003.643
2002.861
2002.079
2001.297
2000.515
1999.733
1998.951
1998.169
1997.387
1996.605
1995.823
1995.041
1994.259
1993.477
1992.695
1991.913
1991.131
1990.349
1989.567
1988.198
1986.830
1985.461
1984.093
1982.724
1981.356
1979.987
1978.619
1977.250
1975.882
1974.513
1973.145
1971.776
1970.408
1969.039
1967.671
1966.302
1964.934
1963.565
1962.197
1960.828
1959.460
1958.091
1956.723
1955.354
1953.986
1952.617
1951.249
1949.880
1948.512
1947.143
1945.775
1944.406
1943.038
1941.669
1940.301
1938.932
1937.564
1936.195
1934.827
1933.458
1932.090
1930.721
1929.353
1927.984
1926.616
1925.247
1923.879
1922.510
1921.142
1919.773
1918.405
1917.036
1915.668
1914.299
1912.931
1911.562
1910.194
1908.825
1907.457
1906.088
1904.720
1903.351
1901.983
1900.614
1899.246
1897.877
1896.509
1895.140
1893.772
1892.403
1891.035
1889.666
1888.298
1886.929
1885.561
1884.192
1882.824
1881.455
1880.087
1878.718
1877.350
1875.981
1874.613
1873.244
1871.876
1870.507
1869.139
1867.770
1866.402
1865.033
1863.665
1862.296
1860.928
1859.559
1858.191
1856.822
1855.454
1854.085
1852.717
1851.348
1849.980
1848.611
1847.243
1845.874
1844.506
1843.137
1841.769
1840.400
1839.032
1837.663
1836.295
1834.926
1833.558
1832.189
1830.821
1829.452
1828.084
1826.715
1825.347
1823.978
1822.610
1821.241
1819.873
1818.504
1817.136
1815.767
1814.399
1813.030
1811.662
1810.293
1808.925
1807.556
1806.188
1804.819
1803.451
1802.082
1800.714
1799.345
1797.977
1796.608
1795.240
1793.871
1792.503
1791.134
1789.766
1788.397
1787.029
1785.660
1784.292
1782.923
1781.555
1780.186
1778.818
1777.449
1776.081
1774.712
1773.344
1771.975
1770.607
1769.238
1767.870
1766.501
1765.133
1763.764
1762.396
1761.027
1759.659
1758.290
1756.922
1755.553
1754.185
1752.816
1751.448
1750.079
1748.711
1747.342
1745.974
1744.605
1743.237
1741.868
1740.500
1739.131
1737.763
1736.394
1735.026
1733.657
1732.289
1730.920
1729.552
1728.183
1726.815
1725.446
1724.078
1722.709
1721.341
1719.972
1718.604
1717.235
1715.867
1717.993
1720.120
1722.246
1724.373
1726.499
1728.626
1730.752
1732.879
1735.005
1737.132
1739.258
1741.385
1743.511
1745.638
1747.764
1749.891
1752.017
1754.144
1756.270
1758.397
1760.523
1762.650
1764.776
1766.903
1769.029
1771.156
1773.282
1775.409
1777.535
1779.662
1781.788
1783.915
1786.041
1788.168
1790.294
1792.421
1794.547
1796.674
1798.800
1800.927
1803.053
1805.180
1807.306
1809.433
1811.559
1813.686
1815.812
1817.939
1820.065
1822.192
1824.318
1826.445
1828.571
1830.698
1832.824
1834.951
1837.077
1839.204
1841.330
1843.457
1845.583
1847.710
1849.836
1851.963
1854.089
1856.216
1858.342
1860.469
1862.595
1864.722
1866.848
1868.975
1871.101
1873.228
1875.354
1877.481
1879.607
1881.734
1883.860
1885.987
1888.113
1890.240
1892.366
1894.493
1896.619
1898.746
1900.872
1902.999
1905.125
1907.252
1909.378
1911.505
1913.631
1915.758
1917.884
1920.011
1922.137
1924.264
1926.390
1928.517
1930.643
1932.770
1934.896
1937.023
1939.149
1941.276
1943.402
1945.529
1947.655
1949.782
1951.908
1954.035
1956.161
1958.288
1960.414
1962.541
1964.667
1966.794
1968.920
1971.047
1973.173
1975.300
1977.426
1979.553
1981.679
1983.806
1985.932
1988.059
1990.185
1992.312
1994.438
1996.565
1998.691
2000.818
2002.944
2005.071
2007.197
2009.324
2011.450
2013.577
2015.703
2017.830
2019.956
2022.083
2024.209
2026.336
2028.462
2030.589
2032.715
2034.842
2036.968
2039.095
2041.221
2043.348
2045.474
2047.601
2049.727
2051.854
2053.980
2056.107
2058.233
2060.360
2062.486
2064.613
2066.739
2068.866
2070.992
2073.119
2075.245
2077.372
2079.498
2081.625
2083.751
2085.878
2088.004
2090.131
2092.257
2094.384
2096.510
2098.637
2100.763
2102.890
2105.016
2107.143
2109.269
2111.396
2113.522
2115.649
2117.775
2119.902
2122.028
2124.155
2126.281
2128.408
2130.534
2132.661
2134.787
2136.914
2139.040
2141.167
2137.574
2133.982
2130.389
2126.797
2123.204
2119.612
2116.019
2112.427
2108.834
2105.242
2101.649
2098.057
2094.464
2090.872
2087.279
2083.687
2080.094
2076.502
2072.909
2069.317
2065.724
2062.132
2058.539
2054.947
2051.354
2047.762
2044.169
2040.577
2036.984
2033.392
2029.799
2026.207
2022.614
2019.022
2015.429
2011.837
2008.244
2004.652
2001.059
1997.467
1993.874
1990.282
1986.689
1983.097
1979.504
1975.912
1972.319
1968.727
1965.134
1961.542
1957.949
1954.357
1950.764
1947.172
1943.579
1939.987
1936.394
1932.802
1929.209
1925.617
1922.024
1918.432
1914.839
1911.247
1907.654
1904.062
1900.469
1896.877
1893.284
1889.692
1886.099
1882.507
1878.914
1875.322
1871.729
1868.137
1864.544
1860.952
1857.359
1853.767
1850.174
1846.582
1842.989
1839.397
1835.804
1832.212
1828.619
1825.027
1821.434
1817.842
1814.249
1810.657
1807.064
1803.472
1799.879
1796.287
1792.694
1789.102
1785.509
1781.917
1778.324
1774.732
1771.139
1767.547
1763.954
1760.362
1756.769
1753.177
1749.584
1745.992
1742.399
1738.807
1735.214
1731.622
1728.029
1724.437
1720.844
1717.252
1713.659
1710.067
1706.474
1702.882
1699.289
1695.697
1692.104
1688.512
1684.919
1681.327
1677.734
1674.142
1670.549
1666.957
1663.364
1659.772
1656.179
1652.587
1648.994
1645.402
1641.809
1638.217
1634.624
1631.032
1627.439
1623.847
1620.254
1616.662
1613.069
1609.477
1605.884
1602.292
1598.699
1595.107
1591.514
1587.922
1584.329
1580.737
1577.144
1573.552
1569.959
1566.367
1562.774
1559.182
1555.589
1551.997
1548.404
1544.812
1541.219
1537.627
1534.034
1530.442
1526.849
1523.257
1519.664
1516.072
1512.479
1508.887
1505.294
1501.702
1498.109
1494.517
1490.924
1487.332
1483.739
1480.147
1476.554
1472.962
1469.369
1465.777
1462.184
1458.592
1454.999
1451.407
1447.814
1444.222
1440.629
1437.037
1433.444
1429.852
1426.259
1422.667
1422.984
1423.302
1423.619
1423.937
1424.254
1424.572
1424.889
1425.207
1425.524
1425.842
1426.159
1426.477
1426.794
1427.112
1427.429
1427.747
1428.064
1428.382
1428.699
1429.017
1429.334
1429.652
1429.969
1430.287
1430.604
1430.922
1431.239
1431.557
1431.874
1432.192
1432.509
1432.827
1433.144
1433.462
1433.779
1434.097
1434.414
1434.732
1435.049
1435.367
1435.684
1436.002
1436.319
1436.637
1436.954
1437.272
1437.589
1437.907
1438.224
1438.542
1438.859
1439.177
1439.494
1439.812
1440.129
1440.447
1440.764
1441.082
1441.399
1441.717
1442.034
1442.352
1442.669
1442.987
1443.304
1443.622
1443.939
1444.257
1444.574
1444.892
1445.209
1445.527
1445.844
1446.162
1446.479
1446.797
1447.114
1447.432
1447.749
1448.067
1448.384
1448.702
1449.019
1449.337
1449.654
1449.972
1450.289
1450.607
1450.924
1451.242
1451.559
1451.877
1452.194
1452.512
1452.829
1453.147
1453.464
1453.782
1454.099
1454.417
1454.734
1455.052
1455.369
1455.687
1456.004
1456.322
1456.639
1456.957
1457.274
1457.592
1457.909
1458.227
1458.544
1458.862
1459.179
1459.497
1459.814
1460.132
1460.449
1460.767
1461.084
1461.402
1461.719
1462.037
1462.354
1462.672
1462.989
1463.307
1463.624
1463.942
1464.259
1464.577
1464.894
1465.212
1465.529
1465.847
1466.164
1466.482
1466.799
1467.117
1467.434
1467.752
1468.069
1468.387
1468.704
1469.022
1469.339
1469.657
1469.974
1470.292
1470.609
1470.927
1471.244
1471.562
1471.879
1472.197
1472.514
1472.832
1473.149
1473.467
1473.784
1474.102
1474.419
1474.737
1475.054
1475.372
1475.689
1476.007
1476.324
1476.642
1476.959
1477.277
1477.594
1477.912
1478.229
1478.547
1478.864
1479.182
1479.499
1479.817
1480.134
1480.452
1480.769
1481.087
1481.404
1481.722
1482.039
1482.357
1482.674
1482.992
1483.309
1483.627
1483.944
1484.262
1484.579
1484.897
1485.214
1485.532
1485.849
1486.167
1480.913
1475.659
1470.405
1465.151
1459.897
1454.643
1449.389
1444.135
1438.881
1433.627
1428.373
1423.119
1417.865
1412.611
1407.357
1402.103
1396.849
1391.595
1386.341
1381.087
1375.833
1370.579
1365.325
1360.071
1354.817
1349.563
1344.309
1339.055
1333.801
1328.547
1323.293
1318.039
1312.785
1307.531
1302.277
1297.023
1291.769
1286.515
1281.261
1276.007
1270.753
1265.499
1260.245
1254.991
1249.737
1244.483
1239.229
1233.975
1228.721
1223.467
1218.213
1212.959
1207.705
1202.451
1197.197
1191.943
1186.689
1181.435
1176.181
1170.927
1165.673
1160.419
1155.165
1149.911
1144.657
1139.403
1134.149
1128.895
1123.641
1118.387
1113.133
1107.879
1102.625
1097.371
1092.117
1086.863
1081.609
1076.355
1071.101
1065.847
1060.593
1055.339
1050.085
1044.831
1039.577
1034.323
1029.069
1023.815
1018.561
1013.307
1008.053
1002.799
997.545
992.291
987.037
981.783
976.529
971.275
966.021
960.767
955.513
950.259
945.005
939.751
934.497
929.243
923.989
918.735
913.481
908.227
902.973
897.719
892.465
887.211
881.957
876.703
871.449
866.195
860.941
855.687
850.433
845.179
839.925
834.671
829.417
824.163
818.909
813.655
808.401
803.147
797.893
792.639
787.385
782.131
776.877
771.623
766.369
761.115
755.861
750.607
745.353
740.099
734.845
729.591
724.337
719.083
713.829
708.575
703.321
698.067
692.813
687.559
682.305
677.051
671.797
666.543
661.289
656.035
650.781
645.527
640.273
635.019
629.765
624.511
619.257
614.003
608.749
603.495
598.241
592.987
587.733
582.479
577.225
571.971
566.717
561.463
556.209
550.955
545.701
540.447
535.193
529.939
524.685
519.431
514.177
508.923
503.669
498.415
493.161
487.907
482.653
477.399
472.145
466.891
461.637
456.383
451.129
445.875
440.621
