525.747
528.777
531.808
534.838
537.869
540.899
543.930
546.960
549.991
553.021
556.052
559.082
562.113
565.143
568.174
571.204
574.235
577.265
580.296
583.326
586.357
589.387
592.418
595.448
598.479
601.509
604.540
607.570
610.601
613.631
616.662
619.692
622.723
625.753
628.784
631.814
634.845
637.875
640.906
643.936
646.967
649.997
653.028
656.058
659.089
662.119
665.150
668.180
671.211
674.241
677.272
680.302
683.333
686.363
689.394
692.424
695.455
698.485
701.516
704.546
707.577
710.607
713.638
716.668
719.699
722.729
725.760
728.790
731.821
734.851
737.882
740.912
743.943
746.973
750.004
753.034
756.065
759.095
762.126
765.156
768.187
771.217
774.248
777.278
780.309
783.339
786.370
789.400
792.431
795.461
798.492
801.522
804.553
807.583
810.614
813.644
816.675
819.705
822.736
825.766
828.797
831.827
834.858
837.888
840.919
843.949
846.980
850.010
853.041
856.071
859.102
862.132
865.163
868.193
871.224
874.254
877.285
880.315
883.346
886.376
889.407
892.437
895.468
898.498
901.529
904.559
907.590
910.620
913.651
916.681
919.712
922.742
925.773
928.803
931.834
934.864
937.895
940.925
943.956
946.986
950.017
953.047
956.078
959.108
962.139
965.169
968.200
971.230
974.261
977.291
980.322
983.352
986.383
989.413
992.444
995.474
998.505
1001.535
1004.566
1007.596
1010.627
1013.657
1016.688
1019.718
1022.749
1025.779
1028.810
1031.840
1034.871
1037.901
1040.932
1043.962
1046.993
1050.023
1053.054
1056.084
1059.115
1062.145
1065.176
1068.206
1071.237
1074.267
1077.298
1080.328
1083.359
1086.389
1089.420
1092.450
1095.481
1098.511
1101.542
1104.572
1107.603
1110.633
1113.664
1116.694
1119.725
1122.755
1125.786
1128.816
1131.847
1134.290
1136.734
1139.177
1141.621
1144.064
1146.508
1148.951
1151.395
1153.838
1156.282
1158.725
1161.169
1163.612
1166.056
1168.499
1170.943
1173.386
1175.830
1178.273
1180.717
1183.160
1185.604
1188.047
1190.491
1192.934
1195.378
1197.821
1200.265
1202.708
1205.152
1207.595
1210.039
1212.482
1214.926
1217.369
1219.813
1222.256
1224.700
1227.143
1229.587
1232.030
1234.474
1236.917
1239.361
1241.804
1244.248
1246.691
1249.135
1251.578
1254.022
1256.465
1258.909
1261.352
1263.796
1266.239
1268.683
1271.126
1273.570
1276.013
1278.457
1280.900
1283.344
1285.787
1288.231
1290.674
1293.118
1295.561
1298.005
1300.448
1302.892
1305.335
1307.779
1310.222
1312.666
1315.109
1317.553
1319.996
1322.440
1324.883
1327.327
1329.770
1332.214
1334.657
1337.101
1339.544
1341.988
1344.431
1346.875
1349.318
1351.762
1354.205
1356.649
1359.092
1361.536
1363.979
1366.423
1368.866
1371.310
1373.753
1376.197
1378.640
1381.084
1383.527
1385.971
1388.414
1390.858
1393.301
1395.745
1398.188
1400.632
1403.075
1405.519
1407.962
1410.406
1412.849
1415.293
1417.736
1420.180
1422.623
1425.067
1427.510
1429.954
1432.397
1434.841
1437.284
1439.728
1442.171
1444.615
1447.058
1449.502
1451.945
1454.389
1456.832
1459.276
1461.719
1464.163
1466.606
1469.050
1471.493
1473.937
1476.380
1478.824
1481.267
1483.711
1486.154
1488.598
1491.041
1493.485
1495.928
1498.372
1500.815
1503.259
1505.702
1508.146
1510.589
1513.033
1515.476
1517.920
1520.363
1522.807
1525.250
1527.694
1530.137
1532.581
1535.024
1537.468
1539.911
1542.355
1544.798
1547.242
1549.685
1552.129
1554.572
1557.016
1559.459
1561.903
1564.346
1566.790
1569.233
1571.677
1574.120
1576.564
1579.007
1581.451
1583.894
1586.338
1588.781
1591.225
1593.668
1596.112
1598.555
1600.999
1603.442
1605.886
1608.329
1610.773
1613.216
1615.660
1618.103
1620.547
1622.649
1624.751
1626.853
1628.955
1631.057
1633.159
1635.261
1637.363
1639.465
1641.567
1643.669
1645.771
1647.873
1649.975
1652.077
1654.179
1656.281
1658.383
1660.485
1662.587
1664.689
1666.791
1668.893
1670.995
1673.097
1675.199
1677.301
1679.403
1681.505
1683.607
1685.709
1687.811
1689.913
1692.015
1694.117
1696.219
1698.321
1700.423
1702.525
1704.627
1706.729
1708.831
1710.933
1713.035
1715.137
1717.239
1719.341
1721.443
1723.545
1725.647
1727.749
1729.851
1731.953
1734.055
1736.157
1738.259
1740.361
1742.463
1744.565
1746.667
1748.769
1750.871
1752.973
1755.075
1757.177
1759.279
1761.381
1763.483
1765.585
1767.687
1769.789
1771.891
1773.993
1776.095
1778.197
1780.299
1782.401
1784.503
1786.605
1788.707
1790.809
1792.911
1795.013
1797.115
1799.217
1801.319
1803.421
1805.523
1807.625
1809.727
1811.829
1813.931
1816.033
1818.135
1820.237
1822.339
1824.441
1826.543
1828.645
1830.747
1832.849
1834.951
1837.053
1839.155
1841.257
1843.359
1845.461
1847.563
1849.665
1851.767
1853.869
1855.971
1858.073
1860.175
1862.277
1864.379
1866.481
1868.583
1870.685
1872.787
1874.889
1876.991
1879.093
1881.195
1883.297
1885.399
1887.501
1889.603
1891.705
1893.807
1895.909
1898.011
1900.113
1902.215
1904.317
1906.419
1908.521
1910.623
1912.725
1914.827
1916.929
1919.031
1921.133
1923.235
1925.337
1927.439
1929.541
1931.643
1933.745
1935.847
1937.949
1940.051
1942.153
1944.255
1946.357
1948.459
1950.561
1952.663
1954.765
1956.867
1958.969
1961.071
1963.173
1965.275
1967.377
1969.479
1971.581
1973.683
1975.785
1977.887
1979.989
1982.091
1984.193
1986.295
1988.397
1990.499
1992.601
1994.703
1996.805
1998.907
2001.009
2003.111
2005.213
2007.315
2009.417
2011.519
2013.621
2015.723
2017.825
2019.927
2022.029
2024.131
2026.233
2028.335
2030.437
2032.539
2034.641
2036.743
2038.845
2040.947
2041.460
2041.973
2042.486
2042.999
2043.512
2044.025
2044.538
2045.051
2045.564
2046.077
2046.590
2047.103
2047.616
2048.129
2048.642
2049.155
2049.668
2050.181
2050.694
2051.207
2051.720
2052.233
2052.746
2053.259
2053.772
2054.285
2054.798
2055.311
2055.824
2056.337
2056.850
2057.363
2057.876
2058.389
2058.902
2059.415
2059.928
2060.441
2060.954
2061.467
2061.980
2062.493
2063.006
2063.519
2064.032
2064.545
2065.058
2065.571
2066.084
2066.597
2067.110
2067.623
2068.136
2068.649
2069.162
2069.675
2070.188
2070.701
2071.214
2071.727
2072.240
2072.753
2073.266
2073.779
2074.292
2074.805
2075.318
2075.831
2076.344
2076.857
2077.370
2077.883
2078.396
2078.909
2079.422
2079.935
2080.448
2080.961
2081.474
2081.987
2082.500
2083.013
2083.526
2084.039
2084.552
2085.065
2085.578
2086.091
2086.604
2087.117
2087.630
2088.143
2088.656
2089.169
2089.682
2090.195
2090.708
2091.221
2091.734
2092.247
2092.760
2093.273
2093.786
2094.299
2094.812
2095.325
2095.838
2096.351
2096.864
2097.377
2097.890
2098.403
2098.916
2099.429
2099.942
2100.455
2100.968
2101.481
2101.994
2102.507
2103.020
2103.533
2104.046
2104.559
2105.072
2105.585
2106.098
2106.611
2107.124
2107.637
2108.150
2108.663
2109.176
2109.689
2110.202
2110.715
2111.228
2111.741
2112.254
2112.767
2113.280
2113.793
2114.306
2114.819
2115.332
2115.845
2116.358
2116.871
2117.384
2117.897
2118.410
2118.923
2119.436
2119.949
2120.462
2120.975
2121.488
2122.001
2122.514
2123.027
2123.540
2124.053
2124.566
2125.079
2125.592
2126.105
2126.618
2127.131
2127.644
2128.157
2128.670
2129.183
2129.696
2130.209
2130.722
2131.235
2131.748
2132.261
2132.774
2133.287
2133.800
2134.313
2134.826
2135.339
2135.852
2136.365
2136.878
2137.391
2137.904
2138.417
2138.930
2139.443
2139.956
2140.469
2140.982
2141.495
2142.008
2142.521
2143.034
2143.547
2142.105
2140.663
2139.221
2137.779
2136.337
2134.895
2133.453
2132.011
2130.569
2129.127
2127.685
2126.243
2124.801
2123.359
2121.917
2120.475
2119.033
2117.591
2116.149
2114.707
2113.265
2111.823
2110.381
2108.939
2107.497
2106.055
2104.613
2103.171
2101.729
2100.287
2098.845
2097.403
2095.961
2094.519
2093.077
2091.635
2090.193
2088.751
2087.309
2085.867
2084.425
2082.983
2081.541
2080.099
2078.657
2077.215
2075.773
2074.331
2072.889
2071.447
2070.005
2068.563
2067.121
2065.679
2064.237
2062.795
2061.353
2059.911
2058.469
2057.027
2055.585
2054.143
2052.701
2051.259
2049.817
2048.375
2046.933
2045.491
2044.049
2042.607
2041.165
2039.723
2038.281
2036.839
2035.397
2033.955
2032.513
2031.071
2029.629
2028.187
2026.745
2025.303
2023.861
2022.419
2020.977
2019.535
2018.093
2016.651
2015.209
2013.767
2012.325
2010.883
2009.441
2007.999
2006.557
2005.115
2003.673
2002.231
2000.789
1999.347
1997.905
1996.463
1995.021
1993.579
1992.137
1990.695
1989.253
1987.811
1986.369
1984.927
1983.485
1982.043
1980.601
1979.159
1977.717
1976.275
1974.833
1973.391
1971.949
1970.507
1969.065
1967.623
1966.181
1964.739
1963.297
1961.855
1960.413
1958.971
1957.529
1956.087
1954.645
1953.203
1951.761
1950.319
1948.877
1947.435
1945.993
1944.551
1943.109
1941.667
1940.225
1938.783
1937.341
1935.899
1934.457
1933.015
1931.573
1930.131
1928.689
1927.247
1925.805
1924.363
1922.921
1921.479
1920.037
1918.595
1917.153
1915.711
1914.269
1912.827
1911.385
1909.943
1908.501
1907.059
1905.617
1904.175
1902.733
1901.291
1899.849
1898.407
1896.965
1895.523
1894.081
1892.639
1891.197
1889.755
1888.313
1886.871
1885.429
1883.987
1882.545
1881.103
1879.661
1878.219
1876.777
1875.335
1873.893
1872.451
1871.009
1869.567
1868.125
1866.683
1865.241
1863.799
1862.357
1860.915
1859.473
1858.031
1856.589
1855.147
1857.517
1859.888
1862.258
1864.629
1866.999
1869.370
1871.740
1874.111
1876.481
1878.852
1881.222
1883.593
1885.963
1888.334
1890.704
1893.075
1895.445
1897.816
1900.186
1902.557
1904.927
1907.298
1909.668
1912.039
1914.409
1916.780
1919.150
1921.521
1923.891
1926.262
1928.632
1931.003
1933.373
1935.744
1938.114
1940.485
1942.855
1945.226
1947.596
1949.967
1952.337
1954.708
1957.078
1959.449
1961.819
1964.190
1966.560
1968.931
1971.301
1973.672
1976.042
1978.413
1980.783
1983.154
1985.524
1987.895
1990.265
1992.636
1995.006
1997.377
1999.747
2002.118
2004.488
2006.859
2009.229
2011.600
2013.970
2016.341
2018.711
2021.082
2023.452
2025.823
2028.193
2030.564
2032.934
2035.305
2037.675
2040.046
2042.416
2044.787
2047.157
2049.528
2051.898
2054.269
2056.639
2059.010
2061.380
2063.751
2066.121
2068.492
2070.862
2073.233
2075.603
2077.974
2080.344
2082.715
2085.085
2087.456
2089.826
2092.197
2094.567
2096.938
2099.308
2101.679
2104.049
2106.420
2108.790
2111.161
2113.531
2115.902
2118.272
2120.643
2123.013
2125.384
2127.754
2130.125
2132.495
2134.866
2137.236
2139.607
2141.977
2144.348
2146.718
2149.089
2151.459
2153.830
2156.200
2158.571
2160.941
2163.312
2165.682
2168.053
2170.423
2172.794
2175.164
2177.535
2179.905
2182.276
2184.646
2187.017
2189.387
2191.758
2194.128
2196.499
2198.869
2201.240
2203.610
2205.981
2208.351
2210.722
2213.092
2215.463
2217.833
2220.204
2222.574
2224.945
2227.315
2229.686
2232.056
2234.427
2236.797
2239.168
2241.538
2243.909
2246.279
2248.650
2251.020
2253.391
2255.761
2258.132
2260.502
2262.873
2265.243
2267.614
2269.984
2272.355
2274.725
2277.096
2279.466
2281.837
2284.207
2286.578
2288.948
2291.319
2293.689
2296.060
2298.430
2300.801
2303.171
2305.542
2307.912
2310.283
2312.653
2315.024
2317.394
2319.765
2322.135
2324.506
2326.876
2329.247
2328.392
2327.537
2326.682
2325.827
2324.972
2324.117
2323.262
2322.407
2321.552
2320.697
2319.842
2318.987
2318.132
2317.277
2316.422
2315.567
2314.712
2313.857
2313.002
2312.147
2311.292
2310.437
2309.582
2308.727
2307.872
2307.017
2306.162
2305.307
2304.452
2303.597
2302.742
2301.887
2301.032
2300.177
2299.322
2298.467
2297.612
2296.757
2295.902
2295.047
2294.192
2293.337
2292.482
2291.627
2290.772
2289.917
2289.062
2288.207
2287.352
2286.497
2285.642
2284.787
2283.932
2283.077
2282.222
2281.367
2280.512
2279.657
2278.802
2277.947
2277.092
2276.237
2275.382
2274.527
2273.672
2272.817
2271.962
2271.107
2270.252
2269.397
2268.542
2267.687
2266.832
2265.977
2265.122
2264.267
2263.412
2262.557
2261.702
2260.847
2259.992
2259.137
2258.282
2257.427
2256.572
2255.717
2254.862
2254.007
2253.152
2252.297
2251.442
2250.587
2249.732
2248.877
2248.022
2247.167
2246.312
2245.457
2244.602
2243.747
2242.892
2242.037
2241.182
2240.327
2239.472
2238.617
2237.762
2236.907
2236.052
2235.197
2234.342
2233.487
2232.632
2231.777
2230.922
2230.067
2229.212
2228.357
2227.502
2226.647
2225.792
2224.937
2224.082
2223.227
2222.372
2221.517
2220.662
2219.807
2218.952
2218.097
2217.242
2216.387
2215.532
2214.677
2213.822
2212.967
2212.112
2211.257
2210.402
2209.547
2208.692
2207.837
2206.982
2206.127
2205.272
2204.417
2203.562
2202.707
2201.852
2200.997
2200.142
2199.287
2198.432
2197.577
2196.722
2195.867
2195.012
2194.157
2193.302
2192.447
2191.592
2190.737
2189.882
2189.027
2188.172
2187.317
2186.462
2185.607
2184.752
2183.897
2183.042
2182.187
2181.332
2180.477
2179.622
2178.767
2177.912
2177.057
2176.202
2175.347
2174.492
2173.637
2172.782
2171.927
2171.072
2170.217
2169.362
2168.507
2167.652
2166.797
2165.942
2165.087
2164.232
2163.377
2162.522
2161.667
2160.812
2159.957
2159.102
2158.247
2156.023
2153.799
2151.575
2149.351
2147.127
2144.903
2142.679
2140.455
2138.231
2136.007
2133.783
2131.559
2129.335
2127.111
2124.887
2122.663
2120.439
2118.215
2115.991
2113.767
2111.543
2109.319
2107.095
2104.871
2102.647
2100.423
2098.199
2095.975
2093.751
2091.527
2089.303
2087.079
2084.855
2082.631
2080.407
2078.183
2075.959
2073.735
2071.511
2069.287
2067.063
2064.839
2062.615
2060.391
2058.167
2055.943
2053.719
2051.495
2049.271
2047.047
2044.823
2042.599
2040.375
2038.151
2035.927
2033.703
2031.479
2029.255
2027.031
2024.807
2022.583
2020.359
2018.135
2015.911
2013.687
2011.463
2009.239
2007.015
2004.791
2002.567
2000.343
1998.119
1995.895
1993.671
1991.447
1989.223
1986.999
1984.775
1982.551
1980.327
1978.103
1975.879
1973.655
1971.431
1969.207
1966.983
1964.759
1962.535
1960.311
1958.087
1955.863
1953.639
1951.415
1949.191
1946.967
1944.743
1942.519
1940.295
1938.071
1935.847
1933.623
1931.399
1929.175
1926.951
1924.727
1922.503
1920.279
1918.055
1915.831
1913.607
1911.383
1909.159
1906.935
1904.711
1902.487
1900.263
1898.039
1895.815
1893.591
1891.367
1889.143
1886.919
1884.695
1882.471
1880.247
1878.023
1875.799
1873.575
1871.351
1869.127
1866.903
1864.679
1862.455
1860.231
1858.007
1855.783
1853.559
1851.335
1849.111
1846.887
1844.663
1842.439
1840.215
1837.991
1835.767
1833.543
1831.319
1829.095
1826.871
1824.647
1822.423
1820.199
1817.975
1815.751
1813.527
1811.303
1809.079
1806.855
1804.631
1802.407
1800.183
1797.959
1795.735
1793.511
1791.287
1789.063
1786.839
1784.615
1782.391
1780.167
1777.943
1775.719
1773.495
1771.271
1769.047
1766.823
1764.599
1762.375
1760.151
1757.927
1755.703
1753.479
1751.255
1749.031
1746.807
1744.583
1742.359
1740.135
1737.911
1735.687
1733.463
1731.239
1729.015
1726.791
1724.567
1722.343
1720.119
1717.895
1715.671
1713.447
1715.768
1718.090
1720.411
1722.733
1725.054
1727.376
1729.697
1732.019
1734.340
1736.662
1738.983
1741.305
1743.626
1745.948
1748.269
1750.591
1752.912
1755.234
1757.555
1759.877
1762.198
1764.520
1766.841
1769.163
1771.484
1773.806
1776.127
1778.449
1780.770
1783.092
1785.413
1787.735
1790.056
1792.378
1794.699
1797.021
1799.342
1801.664
1803.985
1806.307
1808.628
1810.950
1813.271
1815.593
1817.914
1820.236
1822.557
1824.879
1827.200
1829.522
1831.843
1834.165
1836.486
1838.808
1841.129
1843.451
1845.772
1848.094
1850.415
1852.737
1855.058
1857.380
1859.701
1862.023
1864.344
1866.666
1868.987
1871.309
1873.630
1875.952
1878.273
1880.595
1882.916
1885.238
1887.559
1889.881
1892.202
1894.524
1896.845
1899.167
1901.488
1903.810
1906.131
1908.453
1910.774
1913.096
1915.417
1917.739
1920.060
1922.382
1924.703
1927.025
1929.346
1931.668
1933.989
1936.311
1938.632
1940.954
1943.275
1945.597
1947.918
1950.240
1952.561
1954.883
1957.204
1959.526
1961.847
1964.169
1966.490
1968.812
1971.133
1973.455
1975.776
1978.098
1980.419
1982.741
1985.062
1987.384
1989.705
1992.027
1994.348
1996.670
1998.991
2001.313
2003.634
2005.956
2008.277
2010.599
2012.920
2015.242
2017.563
2019.885
2022.206
2024.528
2026.849
2029.171
2031.492
2033.814
2036.135
2038.457
2040.778
2043.100
2045.421
2047.743
2050.064
2052.386
2054.707
2057.029
2059.350
2061.672
2063.993
2066.315
2068.636
2070.958
2073.279
2075.601
2077.922
2080.244
2082.565
2084.887
2087.208
2089.530
2091.851
2094.173
2096.494
2098.816
2101.137
2103.459
2105.780
2108.102
2110.423
2112.745
2115.066
2117.388
2119.709
2122.031
2124.352
2126.674
2128.995
2131.317
2133.638
2135.960
2138.281
2140.603
2142.924
2145.246
2147.567
2149.889
2152.210
2154.532
2156.853
2159.175
2161.496
2163.818
2166.139
2168.461
2170.782
2173.104
2175.425
2177.747
2181.168
2184.590
2188.011
2191.433
2194.854
2198.276
2201.697
2205.119
2208.540
2211.962
2215.383
2218.805
2222.226
2225.648
2229.069
2232.491
2235.912
2239.334
2242.755
2246.177
2249.598
2253.020
2256.441
2259.863
2263.284
2266.706
2270.127
2273.549
2276.970
2280.392
2283.813
2287.235
2290.656
2294.078
2297.499
2300.921
2304.342
2307.764
2311.185
2314.607
2318.028
2321.450
2324.871
2328.293
2331.714
2335.136
2338.557
2341.979
2345.400
2348.822
2352.243
2355.665
2359.086
2362.508
2365.929
2369.351
2372.772
2376.194
2379.615
2383.037
2386.458
2389.880
2393.301
2396.723
2400.144
2403.566
2406.987
2410.409
2413.830
2417.252
2420.673
2424.095
2427.516
2430.938
2434.359
2437.781
2441.202
2444.624
2448.045
2451.467
2454.888
2458.310
2461.731
2465.153
2468.574
2471.996
2475.417
2478.839
2482.260
2485.682
2489.103
2492.525
2495.946
2499.368
2502.789
2506.211
2509.632
2513.054
2516.475
2519.897
2523.318
2526.740
2530.161
2533.583
2537.004
2540.426
2543.847
2547.269
2550.690
2554.112
2557.533
2560.955
2564.376
2567.798
2571.219
2574.641
2578.062
2581.484
2584.905
2588.327
2591.748
2595.170
2598.591
2602.013
2605.434
2608.856
2612.277
2615.699
2619.120
2622.542
2625.963
2629.385
2632.806
2636.228
2639.649
2643.071
2646.492
2649.914
2653.335
2656.757
2660.178
2663.600
2667.021
2670.443
2673.864
2677.286
2680.707
2684.129
2687.550
2690.972
2694.393
2697.815
2701.236
2704.658
2708.079
2711.501
2714.922
2718.344
2721.765
2725.187
2728.608
2732.030
2735.451
2738.873
2742.294
2745.716
2749.137
2752.559
2755.980
2759.402
2762.823
2766.245
2769.666
2773.088
2776.509
2779.931
2783.352
2786.774
2790.195
2793.617
2797.038
2800.460
2803.881
2807.303
2810.724
2814.146
2817.567
2820.989
2824.410
2827.832
2831.253
2834.675
2838.096
2841.518
2844.939
2848.361
2851.782
2855.204
2858.625
