1760.005
1759.761
1759.517
1759.273
1759.029
1758.785
1758.541
1758.297
1758.053
1757.809
1757.565
1757.321
1757.077
1756.833
1756.589
1756.345
1756.101
1755.857
1755.613
1755.369
1755.125
1754.881
1754.637
1754.393
1754.149
1753.905
1753.661
1753.417
1753.173
1752.929
1752.685
1752.441
1752.197
1751.953
1751.709
1751.465
1751.221
1750.977
1750.733
1750.489
1750.245
1750.001
1749.757
1749.513
1749.269
1749.025
1748.781
1748.537
1748.293
1748.049
1747.805
1747.561
1747.317
1747.073
1746.829
1746.585
1746.341
1746.097
1745.853
1745.609
1745.365
1745.121
1744.877
1744.633
1744.389
1744.145
1743.901
1743.657
1743.413
1743.169
1742.925
1742.681
1742.437
1742.193
1741.949
1741.705
1741.461
1741.217
1740.973
1740.729
1740.485
1740.241
1739.997
1739.753
1739.509
1739.265
1739.021
1738.777
1738.533
1738.289
1738.045
1737.801
1737.557
1737.313
1737.069
1736.825
1736.581
1736.337
1736.093
1735.849
1735.605
1735.361
1735.117
1734.873
1734.629
1734.385
1734.141
1733.897
1733.653
1733.409
1733.165
1732.921
1732.677
1732.433
1732.189
1731.945
1731.701
1731.457
1731.213
1730.969
1730.725
1730.481
1730.237
1729.993
1729.749
1729.505
1729.261
1729.017
1728.773
1728.529
1728.285
1728.041
1727.797
1727.553
1727.309
1727.065
1726.821
1726.577
1726.333
1726.089
1725.845
1725.601
1725.357
1725.113
1724.869
1724.625
1724.381
1724.137
1723.893
1723.649
1723.405
1723.161
1722.917
1722.673
1722.429
1722.185
1721.941
1721.697
1721.453
1721.209
1720.965
1720.721
1720.477
1720.233
1719.989
1719.745
1719.501
1719.257
1719.013
1718.769
1718.525
1718.281
1718.037
1717.793
1717.549
1717.305
1717.061
1716.817
1716.573
1716.329
1716.085
1715.841
1715.597
1715.353
1715.109
1714.865
1714.621
1714.377
1714.133
1713.889
1713.645
1713.401
1713.157
1712.913
1712.669
1712.425
1712.181
1711.937
1711.693
1711.449
1711.205
1713.429
1715.652
1717.876
1720.099
1722.323
1724.546
1726.770
1728.993
1731.217
1733.440
1735.664
1737.887
1740.111
1742.334
1744.558
1746.781
1749.005
1751.228
1753.452
1755.675
1757.899
1760.122
1762.346
1764.569
1766.793
1769.016
1771.240
1773.463
1775.687
1777.910
1780.134
1782.357
1784.581
1786.804
1789.028
1791.251
1793.475
1795.698
1797.922
1800.145
1802.369
1804.592
1806.816
1809.039
1811.263
1813.486
1815.710
1817.933
1820.157
1822.380
1824.604
1826.827
1829.051
1831.274
1833.498
1835.721
1837.945
1840.168
1842.392
1844.615
1846.839
1849.062
1851.286
1853.509
1855.733
1857.956
1860.180
1862.403
1864.627
1866.850
1869.074
1871.297
1873.521
1875.744
1877.968
1880.191
1882.415
1884.638
1886.862
1889.085
1891.309
1893.532
1895.756
1897.979
1900.203
1902.426
1904.650
1906.873
1909.097
1911.320
1913.544
1915.767
1917.991
1920.214
1922.438
1924.661
1926.885
1929.108
1931.332
1933.555
1935.779
1938.002
1940.226
1942.449
1944.673
1946.896
1949.120
1951.343
1953.567
1955.790
1958.014
1960.237
1962.461
1964.684
1966.908
1969.131
1971.355
1973.578
1975.802
1978.025
1980.249
1982.472
1984.696
1986.919
1989.143
1991.366
1993.590
1995.813
1998.037
2000.260
2002.484
2004.707
2006.931
2009.154
2011.378
2013.601
2015.825
2018.048
2020.272
2022.495
2024.719
2026.942
2029.166
2031.389
2033.613
2035.836
2038.060
2040.283
2042.507
2044.730
2046.954
2049.177
2051.401
2053.624
2055.848
2058.071
2060.295
2062.518
2064.742
2066.965
2069.189
2071.412
2073.636
2075.859
2078.083
2080.306
2082.530
2084.753
2086.977
2089.200
2091.424
2093.647
2095.871
2098.094
2100.318
2102.541
2104.765
2106.988
2109.212
2111.435
2113.659
2115.882
2118.106
2120.329
2122.553
2124.776
2127.000
2129.223
2131.447
2133.670
2135.894
2138.117
2140.341
2142.564
2144.788
2147.011
2149.235
2151.458
2153.682
2155.905
2155.123
2154.341
2153.559
2152.777
2151.995
2151.213
2150.431
2149.649
2148.867
2148.085
2147.303
2146.521
2145.739
2144.957
2144.175
2143.393
2142.611
2141.829
2141.047
2140.265
2139.483
2138.701
2137.919
2137.137
2136.355
2135.573
2134.791
2134.009
2133.227
2132.445
2131.663
2130.881
2130.099
2129.317
2128.535
2127.753
2126.971
2126.189
2125.407
2124.625
2123.843
2123.061
2122.279
2121.497
2120.715
2119.933
2119.151
2118.369
2117.587
2116.805
2116.023
2115.241
2114.459
2113.677
2112.895
2112.113
2111.331
2110.549
2109.767
2108.985
2108.203
2107.421
2106.639
2105.857
2105.075
2104.293
2103.511
2102.729
2101.947
2101.165
2100.383
2099.601
2098.819
2098.037
2097.255
2096.473
2095.691
2094.909
2094.127
2093.345
2092.563
2091.781
2090.999
2090.217
2089.435
2088.653
2087.871
2087.089
2086.307
2085.525
2084.743
2083.961
2083.179
2082.397
2081.615
2080.833
2080.051
2079.269
2078.487
2077.705
2076.923
2076.141
2075.359
2074.577
2073.795
2073.013
2072.231
2071.449
2070.667
2069.885
2069.103
2068.321
2067.539
2066.757
2065.975
2065.193
2064.411
2063.629
2062.847
2062.065
2061.283
2060.501
2059.719
2058.937
2058.155
2057.373
2056.591
2055.809
2055.027
2054.245
2053.463
2052.681
2051.899
2051.117
2050.335
2049.553
2048.771
2047.989
2047.207
2046.425
2045.643
2044.861
2044.079
2043.297
2042.515
2041.733
2040.951
2040.169
2039.387
2038.605
2037.823
2037.041
2036.259
2035.477
2034.695
2033.913
2033.131
2032.349
2031.567
2030.785
2030.003
2029.221
2028.439
2027.657
2026.875
2026.093
2025.311
2024.529
2023.747
2022.965
2022.183
2021.401
2020.619
2019.837
2019.055
2018.273
2017.491
2016.709
2015.927
2015.145
2014.363
2013.581
2012.799
2012.017
2011.235
2010.453
2009.671
2008.889
2008.107
2007.325
2006.543
2005.761
2004.979
2004.197
2003.415
2002.633
2001.851
2001.069
2000.287
1999.505
1998.137
1996.768
1995.400
1994.031
1992.663
1991.294
1989.926
1988.557
1987.189
1985.820
1984.452
1983.083
1981.715
1980.346
1978.978
1977.609
1976.241
1974.872
1973.504
1972.135
1970.767
1969.398
1968.030
1966.661
1965.293
1963.924
1962.556
1961.187
1959.819
1958.450
1957.082
1955.713
1954.345
1952.976
1951.608
1950.239
1948.871
1947.502
1946.134
1944.765
1943.397
1942.028
1940.660
1939.291
1937.923
1936.554
1935.186
1933.817
1932.449
1931.080
1929.712
1928.343
1926.975
1925.606
1924.238
1922.869
1921.501
1920.132
1918.764
1917.395
1916.027
1914.658
1913.290
1911.921
1910.553
1909.184
1907.816
1906.447
1905.079
1903.710
1902.342
1900.973
1899.605
1898.236
1896.868
1895.499
1894.131
1892.762
1891.394
1890.025
1888.657
1887.288
1885.920
1884.551
1883.183
1881.814
1880.446
1879.077
1877.709
1876.340
1874.972
1873.603
1872.235
1870.866
1869.498
1868.129
1866.761
1865.392
1864.024
1862.655
1861.287
1859.918
1858.550
1857.181
1855.813
1854.444
1853.076
1851.707
1850.339
1848.970
1847.602
1846.233
1844.865
1843.496
1842.128
1840.759
1839.391
1838.022
1836.654
1835.285
1833.917
1832.548
1831.180
1829.811
1828.443
1827.074
1825.706
1824.337
1822.969
1821.600
1820.232
1818.863
1817.495
1816.126
1814.758
1813.389
1812.021
1810.652
1809.284
1807.915
1806.547
1805.178
1803.810
1802.441
1801.073
1799.704
1798.336
1796.967
1795.599
1794.230
1792.862
1791.493
1790.125
1788.756
1787.388
1786.019
1784.651
1783.282
1781.914
1780.545
1779.177
1777.808
1776.440
1775.071
1773.703
1772.334
1770.966
1769.597
1768.229
1766.860
1765.492
1764.123
1762.755
1761.386
1760.018
1758.649
1757.281
1755.912
1754.544
1753.175
1751.807
1750.438
1749.070
1747.701
1746.333
1744.964
1743.596
1742.227
1740.859
1739.490
1738.122
1736.753
1735.385
1734.016
1732.648
1731.279
1729.911
1728.542
1727.174
1725.805
1727.932
1730.058
1732.185
1734.311
1736.438
1738.564
1740.691
1742.817
1744.944
1747.070
1749.197
1751.323
1753.450
1755.576
1757.703
1759.829
1761.956
1764.082
1766.209
1768.335
1770.462
1772.588
1774.715
1776.841
1778.968
1781.094
1783.221
1785.347
1787.474
1789.600
1791.727
1793.853
1795.980
1798.106
1800.233
1802.359
1804.486
1806.612
1808.739
1810.865
1812.992
1815.118
1817.245
1819.371
1821.498
1823.624
1825.751
1827.877
1830.004
1832.130
1834.257
1836.383
1838.510
1840.636
1842.763
1844.889
1847.016
1849.142
1851.269
1853.395
1855.522
1857.648
1859.775
1861.901
1864.028
1866.154
1868.281
1870.407
1872.534
1874.660
1876.787
1878.913
1881.040
1883.166
1885.293
1887.419
1889.546
1891.672
1893.799
1895.925
1898.052
1900.178
1902.305
1904.431
1906.558
1908.684
1910.811
1912.937
1915.064
1917.190
1919.317
1921.443
1923.570
1925.696
1927.823
1929.949
1932.076
1934.202
1936.329
1938.455
1940.582
1942.708
1944.835
1946.961
1949.088
1951.214
1953.341
1955.467
1957.594
1959.720
1961.847
1963.973
1966.100
1968.226
1970.353
1972.479
1974.606
1976.732
1978.859
1980.985
1983.112
1985.238
1987.365
1989.491
1991.618
1993.744
1995.871
1997.997
2000.124
2002.250
2004.377
2006.503
2008.630
2010.756
2012.883
2015.009
2017.136
2019.262
2021.389
2023.515
2025.642
2027.768
2029.895
2032.021
2034.148
2036.274
2038.401
2040.527
2042.654
2044.780
2046.907
2049.033
2051.160
2053.286
2055.413
2057.539
2059.666
2061.792
2063.919
2066.045
2068.172
2070.298
2072.425
2074.551
2076.678
2078.804
2080.931
2083.057
2085.184
2087.310
2089.437
2091.563
2093.690
2095.816
2097.943
2100.069
2102.196
2104.322
2106.449
2108.575
2110.702
2112.828
2114.955
2117.081
2119.208
2121.334
2123.461
2125.587
2127.714
2129.840
2131.967
2134.093
2136.220
2138.346
2140.473
2142.599
2144.726
2146.852
2148.979
2151.105
2147.513
2143.920
2140.328
2136.735
2133.143
2129.550
2125.958
2122.365
2118.773
2115.180
2111.588
2107.995
2104.403
2100.810
2097.218
2093.625
2090.033
2086.440
2082.848
2079.255
2075.663
2072.070
2068.478
2064.885
2061.293
2057.700
2054.108
2050.515
2046.923
2043.330
2039.738
2036.145
2032.553
2028.960
2025.368
2021.775
2018.183
2014.590
2010.998
2007.405
2003.813
2000.220
1996.628
1993.035
1989.443
1985.850
1982.258
1978.665
1975.073
1971.480
1967.888
1964.295
1960.703
1957.110
1953.518
1949.925
1946.333
1942.740
1939.148
1935.555
1931.963
1928.370
1924.778
1921.185
1917.593
1914.000
1910.408
1906.815
1903.223
1899.630
1896.038
1892.445
1888.853
1885.260
1881.668
1878.075
1874.483
1870.890
1867.298
1863.705
1860.113
1856.520
1852.928
1849.335
1845.743
1842.150
1838.558
1834.965
1831.373
1827.780
1824.188
1820.595
1817.003
1813.410
1809.818
1806.225
1802.633
1799.040
1795.448
1791.855
1788.263
1784.670
1781.078
1777.485
1773.893
1770.300
1766.708
1763.115
1759.523
1755.930
1752.338
1748.745
1745.153
1741.560
1737.968
1734.375
1730.783
1727.190
1723.598
1720.005
1716.413
1712.820
1709.228
1705.635
1702.043
1698.450
1694.858
1691.265
1687.673
1684.080
1680.488
1676.895
1673.303
1669.710
1666.118
1662.525
1658.933
1655.340
1651.748
1648.155
1644.563
1640.970
1637.378
1633.785
1630.193
1626.600
1623.008
1619.415
1615.823
1612.230
1608.638
1605.045
1601.453
1597.860
1594.268
1590.675
1587.083
1583.490
1579.898
1576.305
1572.713
1569.120
1565.528
1561.935
1558.343
1554.750
1551.158
1547.565
1543.973
1540.380
1536.788
1533.195
1529.603
1526.010
1522.418
1518.825
1515.233
1511.640
1508.048
1504.455
1500.863
1497.270
1493.678
1490.085
1486.493
1482.900
1479.308
1475.715
1472.123
1468.530
1464.938
1461.345
1457.753
1454.160
1450.568
1446.975
1443.383
1439.790
1436.198
1432.605
1432.923
1433.240
1433.558
1433.875
1434.193
1434.510
1434.828
1435.145
1435.463
1435.780
1436.098
1436.415
1436.733
1437.050
1437.368
1437.685
1438.003
1438.320
1438.638
1438.955
1439.273
1439.590
1439.908
1440.225
1440.543
1440.860
1441.178
1441.495
1441.813
1442.130
1442.448
1442.765
1443.083
1443.400
1443.718
1444.035
1444.353
1444.670
1444.988
1445.305
1445.623
1445.940
1446.258
1446.575
1446.893
1447.210
1447.528
1447.845
1448.163
1448.480
1448.798
1449.115
1449.433
1449.750
1450.068
1450.385
1450.703
1451.020
1451.338
1451.655
1451.973
1452.290
1452.608
1452.925
1453.243
1453.560
1453.878
1454.195
1454.513
1454.830
1455.148
1455.465
1455.783
1456.100
1456.418
1456.735
1457.053
1457.370
1457.688
1458.005
1458.323
1458.640
1458.958
1459.275
1459.593
1459.910
1460.228
1460.545
1460.863
1461.180
1461.498
1461.815
1462.133
1462.450
1462.768
1463.085
1463.403
1463.720
1464.038
1464.355
1464.673
1464.990
1465.308
1465.625
1465.943
1466.260
1466.578
1466.895
1467.213
1467.530
1467.848
1468.165
1468.483
1468.800
1469.118
1469.435
1469.753
1470.070
1470.388
1470.705
1471.023
1471.340
1471.658
1471.975
1472.293
1472.610
1472.928
1473.245
1473.563
1473.880
1474.198
1474.515
1474.833
1475.150
1475.468
1475.785
1476.103
1476.420
1476.738
1477.055
1477.373
1477.690
1478.008
1478.325
1478.643
1478.960
1479.278
1479.595
1479.913
1480.230
1480.548
1480.865
1481.183
1481.500
1481.818
1482.135
1482.453
1482.770
1483.088
1483.405
1483.723
1484.040
1484.358
1484.675
1484.993
1485.310
1485.628
1485.945
1486.263
1486.580
1486.898
1487.215
1487.533
1487.850
1488.168
1488.485
1488.803
1489.120
1489.438
1489.755
1490.073
1490.390
1490.708
1491.025
1491.343
1491.660
1491.978
1492.295
1492.613
1492.930
1493.248
1493.565
1493.883
1494.200
1494.518
1494.835
1495.153
1495.470
1495.788
1496.105
1490.851
1485.597
1480.343
1475.089
1469.835
1464.581
1459.327
1454.073
1448.819
1443.565
1438.311
1433.057
1427.803
1422.549
1417.295
1412.041
1406.787
1401.533
1396.279
1391.025
1385.771
1380.517
1375.263
1370.009
1364.755
1359.501
1354.247
1348.993
1343.739
1338.485
1333.231
1327.977
1322.723
1317.469
1312.215
1306.961
1301.707
1296.453
1291.199
1285.945
1280.691
1275.437
1270.183
1264.929
1259.675
1254.421
1249.167
1243.913
1238.659
1233.405
1228.151
1222.897
1217.643
1212.389
1207.135
1201.881
1196.627
1191.373
1186.119
1180.865
1175.611
1170.357
1165.103
1159.849
1154.595
1149.341
1144.087
1138.833
1133.579
1128.325
1123.071
1117.817
1112.563
1107.309
1102.055
1096.801
1091.547
1086.293
1081.039
1075.785
1070.531
1065.277
1060.023
1054.769
1049.515
1044.261
1039.007
1033.753
1028.499
1023.245
1017.991
1012.737
1007.483
1002.229
996.975
991.721
986.467
981.213
975.959
970.705
965.451
960.197
954.943
949.689
944.435
939.181
933.927
928.673
923.419
918.165
912.911
907.657
902.403
897.149
891.895
886.641
881.387
876.133
870.879
865.625
860.371
855.117
849.863
844.609
839.355
834.101
828.847
823.593
818.339
813.085
807.831
802.577
797.323
792.069
786.815
781.561
776.307
771.053
765.799
760.545
755.291
750.037
744.783
739.529
734.275
729.021
723.767
718.513
713.259
708.005
702.751
697.497
692.243
686.989
681.735
676.481
671.227
665.973
660.719
655.465
650.211
644.957
639.703
634.449
629.195
623.941
618.687
613.433
608.179
602.925
597.671
592.417
587.163
581.909
576.655
571.401
566.147
560.893
555.639
550.385
545.131
539.877
534.623
529.369
524.115
518.861
513.607
508.353
503.099
497.845
492.591
487.337
482.083
476.829
471.575
466.321
461.067
455.813
450.559
445.305
443.986
442.666
441.347
440.027
438.708
437.388
436.069
434.749
433.430
432.110
430.791
429.471
428.152
426.832
425.513
424.193
422.874
421.554
420.235
418.915
417.596
416.276
414.957
413.637
412.318
410.998
409.679
408.359
407.040
405.720
404.401
403.081
401.762
400.442
399.123
397.803
396.484
395.164
393.845
392.525
391.206
389.886
388.567
387.247
385.928
384.608
383.289
381.969
380.650
379.330
378.011
376.691
375.372
374.052
372.733
371.413
370.094
368.774
367.455
366.135
364.816
363.496
362.177
360.857
359.538
358.218
356.899
355.579
354.260
352.940
351.621
350.301
348.982
347.662
346.343
345.023
343.704
342.384
341.065
339.745
338.426
337.106
335.787
334.467
333.148
331.828
330.509
329.189
327.870
326.550
325.231
323.911
322.592
321.272
319.953
318.633
317.314
315.994
314.675
313.355
312.036
310.716
309.397
308.077
306.758
305.438
304.119
302.799
301.480
300.160
298.841
297.521
296.202
294.882
293.563
292.243
290.924
289.604
288.285
286.965
285.646
284.326
283.007
281.687
280.368
279.048
277.729
276.409
275.090
273.770
272.451
271.131
269.812
268.492
267.173
265.853
264.534
263.214
261.895
260.575
259.256
257.936
256.617
255.297
253.978
252.658
251.339
250.019
248.700
247.380
246.061
244.741
243.422
242.102
240.783
239.463
238.144
236.824
235.505
234.185
232.866
231.546
230.227
228.907
227.588
226.268
224.949
223.629
222.310
220.990
219.671
218.351
217.032
215.712
214.393
213.073
211.754
210.434
209.115
207.795
206.476
205.156
203.837
202.517
201.198
199.878
198.559
197.239
195.920
194.600
193.281
191.961
190.642
189.322
188.003
186.683
185.364
184.044
182.725
181.405
181.405
181.405
181.405
181.405
181.405
181.405
181.405
181.405
181.405
181.405
181.405
181.405
181.405
181.405
181.405
181.405
181.405
181.405
181.405
181.405
181.405
181.405
181.405
181.405
181.405
181.405
181.405
181.405
181.405
181.405
181.405
181.405
181.405
181.405
181.405
181.405
181.405
181.405
181.405
181.405
181.405
181.405
181.405
181.405
181.405
181.405
181.405
181.405
181.405
181.405
181.405
181.405
181.405
181.405
181.405
181.405
181.405
181.405
181.405
181.405
181.405
181.405
181.405
181.405
181.405
181.405
181.405
181.405
181.405
181.405
181.405
181.405
181.405
181.405
181.405
181.405
181.405
181.405
181.405
181.405
181.405
181.405
181.405
181.405
181.405
181.405
181.405
181.405
181.405
181.405
181.405
181.405
181.405
181.405
181.405
181.405
181.405
181.405
181.405
181.405
181.405
181.405
181.405
181.405
181.405
181.405
181.405
181.405
181.405
181.405
181.405
181.405
181.405
181.405
181.405
181.405
181.405
181.405
181.405
181.405
181.405
181.405
181.405
181.405
181.405
181.405
181.405
181.405
181.405
181.405
181.405
181.405
181.405
181.405
181.405
181.405
181.405
181.405
181.405
181.405
181.405
181.405
181.405
181.405
181.405
181.405
181.405
181.405
181.405
181.405
181.405
181.405
181.405
181.405
181.405
181.405
181.405
181.405
181.405
181.405
181.405
181.405
181.405
181.405
181.405
181.405
181.405
181.405
181.405
181.405
181.405
181.405
181.405
181.405
181.405
181.405
181.405
181.405
181.405
181.405
181.405
181.405
181.405
181.405
181.405
181.405
181.405
181.405
181.405
181.405
181.405
181.405
181.405
181.405
181.405
181.405
181.405
181.405
181.405
