265.385
272.497
279.608
286.720
293.831
300.943
308.054
315.166
322.277
329.389
336.500
343.612
350.723
357.835
364.946
372.058
379.169
386.281
393.392
400.504
407.615
414.727
421.838
428.950
436.061
443.173
450.284
457.396
464.507
471.619
478.730
485.842
492.953
500.065
507.176
514.288
521.399
528.511
535.622
542.734
549.845
556.957
564.068
571.180
578.291
585.403
592.514
599.626
606.737
613.849
620.960
628.072
635.183
642.295
649.406
656.518
663.629
670.741
677.852
684.964
692.075
699.187
706.298
713.410
720.521
727.633
734.744
741.856
748.967
756.079
763.190
770.302
777.413
784.525
791.636
798.748
805.859
812.971
820.082
827.194
834.305
841.417
848.528
855.640
862.751
869.863
876.974
884.086
891.197
898.309
905.420
912.532
919.643
926.755
933.866
940.978
948.089
955.201
962.312
969.424
976.535
983.647
990.758
997.870
1004.981
1012.093
1019.204
1026.316
1033.427
1040.539
1047.650
1054.762
1061.873
1068.985
1076.096
1083.208
1090.319
1097.431
1104.542
1111.654
1118.765
1125.877
1132.988
1140.100
1147.211
1154.323
1161.434
1168.546
1175.657
1182.769
1189.880
1196.992
1204.103
1211.215
1218.326
1225.438
1232.549
1239.661
1246.772
1253.884
1260.995
1268.107
1275.218
1282.330
1289.441
1296.553
1303.664
1310.776
1317.887
1324.999
1332.110
1339.222
1346.333
1353.445
1360.556
1367.668
1374.779
1381.891
1389.002
1396.114
1403.225
1410.337
1417.448
1424.560
1431.671
1438.783
1445.894
1453.006
1460.117
1467.229
1474.340
1481.452
1488.563
1495.675
1502.786
1509.898
1517.009
1524.121
1531.232
1538.344
1545.455
1552.567
1559.678
1566.790
1573.901
1581.013
1588.124
1595.236
1602.347
1609.459
1616.570
1623.682
1630.793
1637.905
1645.016
1652.128
1659.239
1666.351
1673.462
1680.574
1687.685
1693.526
1699.367
1705.208
1711.049
1716.890
1722.731
1728.572
1734.413
1740.254
1746.095
1751.936
1757.777
1763.618
1769.459
1775.300
1781.141
1786.982
1792.823
1798.664
1804.505
1810.346
1816.187
1822.028
1827.869
1833.710
1839.551
1845.392
1851.233
1857.074
1862.915
1868.756
1874.597
1880.438
1886.279
1892.120
1897.961
1903.802
1909.643
1915.484
1921.325
1927.166
1933.007
1938.848
1944.689
1950.530
1956.371
1962.212
1968.053
1973.894
1979.735
1985.576
1991.417
1997.258
2003.099
2008.940
2014.781
2020.622
2026.463
2032.304
2038.145
2043.986
2049.827
2055.668
2061.509
2067.350
2073.191
2079.032
2084.873
2090.714
2096.555
2102.396
2108.237
2114.078
2119.919
2125.760
2131.601
2137.442
2143.283
2149.124
2154.965
2160.806
2166.647
2172.488
2178.329
2184.170
2190.011
2195.852
2201.693
2207.534
2213.375
2219.216
2225.057
2230.898
2236.739
2242.580
2248.421
2254.262
2260.103
2265.944
2271.785
2277.626
2283.467
2289.308
2295.149
2300.990
2306.831
2312.672
2318.513
2324.354
2330.195
2336.036
2341.877
2347.718
2353.559
2359.400
2365.241
2371.082
2376.923
2382.764
2388.605
2394.446
2400.287
2406.128
2411.969
2417.810
2423.651
2429.492
2435.333
2441.174
2447.015
2452.856
2458.697
2464.538
2470.379
2476.220
2482.061
2487.902
2493.743
2499.584
2505.425
2511.266
2517.107
2522.948
2528.789
2534.630
2540.471
2546.312
2552.153
2557.994
2563.835
2569.676
2575.517
2581.358
2587.199
2593.040
2598.881
2604.722
2610.563
2616.404
2622.245
2628.086
2633.927
2639.768
2645.609
2651.450
2657.291
2663.132
2668.973
2674.814
2680.655
2686.496
2692.337
2698.178
2704.019
2709.860
2715.701
2721.542
2727.383
2733.224
2739.065
2744.906
2750.747
2756.588
2762.429
2768.270
2774.111
2779.952
2785.793
2791.634
2797.475
2803.316
2809.157
2814.998
2820.839
2826.680
2832.521
2838.362
2844.203
2850.044
2855.885
2855.054
2854.223
2853.392
2852.561
2851.730
2850.899
2850.068
2849.237
2848.406
2847.575
2846.744
2845.913
2845.082
2844.251
2843.420
2842.589
2841.758
2840.927
2840.096
2839.265
2838.434
2837.603
2836.772
2835.941
2835.110
2834.279
2833.448
2832.617
2831.786
2830.955
2830.124
2829.293
2828.462
2827.631
2826.800
2825.969
2825.138
2824.307
2823.476
2822.645
2821.814
2820.983
2820.152
2819.321
2818.490
2817.659
2816.828
2815.997
2815.166
2814.335
2813.504
2812.673
2811.842
2811.011
2810.180
2809.349
2808.518
2807.687
2806.856
2806.025
2805.194
2804.363
2803.532
2802.701
2801.870
2801.039
2800.208
2799.377
2798.546
2797.715
2796.884
2796.053
2795.222
2794.391
2793.560
2792.729
2791.898
2791.067
2790.236
2789.405
2788.574
2787.743
2786.912
2786.081
2785.250
2784.419
2783.588
2782.757
2781.926
2781.095
2780.264
2779.433
2778.602
2777.771
2776.940
2776.109
2775.278
2774.447
2773.616
2772.785
2771.954
2771.123
2770.292
2769.461
2768.630
2767.799
2766.968
2766.137
2765.306
2764.475
2763.644
2762.813
2761.982
2761.151
2760.320
2759.489
2758.658
2757.827
2756.996
2756.165
2755.334
2754.503
2753.672
2752.841
2752.010
2751.179
2750.348
2749.517
2748.686
2747.855
2747.024
2746.193
2745.362
2744.531
2743.700
2742.869
2742.038
2741.207
2740.376
2739.545
2738.714
2737.883
2737.052
2736.221
2735.390
2734.559
2733.728
2732.897
2732.066
2731.235
2730.404
2729.573
2728.742
2727.911
2727.080
2726.249
2725.418
2724.587
2723.756
2722.925
2722.094
2721.263
2720.432
2719.601
2718.770
2717.939
2717.108
2716.277
2715.446
2714.615
2713.784
2712.953
2712.122
2711.291
2710.460
2709.629
2708.798
2707.967
2707.136
2706.305
2705.474
2704.643
2703.812
2702.981
2702.150
2701.319
2700.488
2699.657
2698.826
2697.995
2697.164
2696.333
2695.502
2694.671
2693.840
2693.009
2692.178
2691.347
2690.516
2689.685
2683.942
2678.199
2672.456
2666.713
2660.970
2655.227
2649.484
2643.741
2637.998
2632.255
2626.512
2620.769
2615.026
2609.283
2603.540
2597.797
2592.054
2586.311
2580.568
2574.825
2569.082
2563.339
2557.596
2551.853
2546.110
2540.367
2534.624
2528.881
2523.138
2517.395
2511.652
2505.909
2500.166
2494.423
2488.680
2482.937
2477.194
2471.451
2465.708
2459.965
2454.222
2448.479
2442.736
2436.993
2431.250
2425.507
2419.764
2414.021
2408.278
2402.535
2396.792
2391.049
2385.306
2379.563
2373.820
2368.077
2362.334
2356.591
2350.848
2345.105
2339.362
2333.619
2327.876
2322.133
2316.390
2310.647
2304.904
2299.161
2293.418
2287.675
2281.932
2276.189
2270.446
2264.703
2258.960
2253.217
2247.474
2241.731
2235.988
2230.245
2224.502
2218.759
2213.016
2207.273
2201.530
2195.787
2190.044
2184.301
2178.558
2172.815
2167.072
2161.329
2155.586
2149.843
2144.100
2138.357
2132.614
2126.871
2121.128
2115.385
2109.642
2103.899
2098.156
2092.413
2086.670
2080.927
2075.184
2069.441
2063.698
2057.955
2052.212
2046.469
2040.726
2034.983
2029.240
2023.497
2017.754
2012.011
2006.268
2000.525
1994.782
1989.039
1983.296
1977.553
1971.810
1966.067
1960.324
1954.581
1948.838
1943.095
1937.352
1931.609
1925.866
1920.123
1914.380
1908.637
1902.894
1897.151
1891.408
1885.665
1879.922
1874.179
1868.436
1862.693
1856.950
1851.207
1845.464
1839.721
1833.978
1828.235
1822.492
1816.749
1811.006
1805.263
1799.520
1793.777
1788.034
1782.291
1776.548
1770.805
1765.062
1759.319
1753.576
1747.833
1742.090
1736.347
1730.604
1724.861
1719.118
1713.375
1707.632
1701.889
1696.146
1690.403
1684.660
1678.917
1673.174
1667.431
1661.688
1655.945
1650.202
1644.459
1638.716
1632.973
1627.230
1621.487
1615.744
1610.001
1604.258
1598.515
1592.772
1587.029
1581.286
1575.543
1569.800
1564.057
1558.314
1552.571
1546.828
1541.085
1543.700
1546.315
1548.930
1551.545
1554.160
1556.775
1559.390
1562.005
1564.620
1567.235
1569.850
1572.465
1575.080
1577.695
1580.310
1582.925
1585.540
1588.155
1590.770
1593.385
1596.000
1598.615
1601.230
1603.845
1606.460
1609.075
1611.690
1614.305
1616.920
1619.535
1622.150
1624.765
1627.380
1629.995
1632.610
1635.225
1637.840
1640.455
1643.070
1645.685
1648.300
1650.915
1653.530
1656.145
1658.760
1661.375
1663.990
1666.605
1669.220
1671.835
1674.450
1677.065
1679.680
1682.295
1684.910
1687.525
1690.140
1692.755
1695.370
1697.985
1700.600
1703.215
1705.830
1708.445
1711.060
1713.675
1716.290
1718.905
1721.520
1724.135
1726.750
1729.365
1731.980
1734.595
1737.210
1739.825
1742.440
1745.055
1747.670
1750.285
1752.900
1755.515
1758.130
1760.745
1763.360
1765.975
1768.590
1771.205
1773.820
1776.435
1779.050
1781.665
1784.280
1786.895
1789.510
1792.125
1794.740
1797.355
1799.970
1802.585
1805.200
1807.815
1810.430
1813.045
1815.660
1818.275
1820.890
1823.505
1826.120
1828.735
1831.350
1833.965
1836.580
1839.195
1841.810
1844.425
1847.040
1849.655
1852.270
1854.885
1857.500
1860.115
1862.730
1865.345
1867.960
1870.575
1873.190
1875.805
1878.420
1881.035
1883.650
1886.265
1888.880
1891.495
1894.110
1896.725
1899.340
1901.955
1904.570
1907.185
1909.800
1912.415
1915.030
1917.645
1920.260
1922.875
1925.490
1928.105
1930.720
1933.335
1935.950
1938.565
1941.180
1943.795
1946.410
1949.025
1951.640
1954.255
1956.870
1959.485
1962.100
1964.715
1967.330
1969.945
1972.560
1975.175
1977.790
1980.405
1983.020
1985.635
1988.250
1990.865
1993.480
1996.095
1998.710
2001.325
2003.940
2006.555
2009.170
2011.785
2014.400
2017.015
2019.630
2022.245
2024.860
2027.475
2030.090
2032.705
2035.320
2037.935
2040.550
2043.165
2045.780
2048.395
2051.010
2053.625
2056.240
2058.855
2061.470
2064.085
2065.674
2067.262
2068.851
2070.439
2072.028
2073.616
2075.205
2076.793
2078.382
2079.970
2081.559
2083.147
2084.736
2086.324
2087.913
2089.501
2091.090
2092.678
2094.267
2095.855
2097.444
2099.032
2100.621
2102.209
2103.798
2105.386
2106.975
2108.563
2110.152
2111.740
2113.329
2114.917
2116.506
2118.094
2119.683
2121.271
2122.860
2124.448
2126.037
2127.625
2129.214
2130.802
2132.391
2133.979
2135.568
2137.156
2138.745
2140.333
2141.922
2143.510
2145.099
2146.687
2148.276
2149.864
2151.453
2153.041
2154.630
2156.218
2157.807
2159.395
2160.984
2162.572
2164.161
2165.749
2167.338
2168.926
2170.515
2172.103
2173.692
2175.280
2176.869
2178.457
2180.046
2181.634
2183.223
2184.811
2186.400
2187.988
2189.577
2191.165
2192.754
2194.342
2195.931
2197.519
2199.108
2200.696
2202.285
2203.873
2205.462
2207.050
2208.639
2210.227
2211.816
2213.404
2214.993
2216.581
2218.170
2219.758
2221.347
2222.935
2224.524
2226.112
2227.701
2229.289
2230.878
2232.466
2234.055
2235.643
2237.232
2238.820
2240.409
2241.997
2243.586
2245.174
2246.763
2248.351
2249.940
2251.528
2253.117
2254.705
2256.294
2257.882
2259.471
2261.059
2262.648
2264.236
2265.825
2267.413
2269.002
2270.590
2272.179
2273.767
2275.356
2276.944
2278.533
2280.121
2281.710
2283.298
2284.887
2286.475
2288.064
2289.652
2291.241
2292.829
2294.418
2296.006
2297.595
2299.183
2300.772
2302.360
2303.949
2305.537
2307.126
2308.714
2310.303
2311.891
2313.480
2315.068
2316.657
2318.245
2319.834
2321.422
2323.011
2324.599
2326.188
2327.776
2329.365
2330.953
2332.542
2334.130
2335.719
2337.307
2338.896
2340.484
2342.073
2343.661
2345.250
2346.838
2348.427
2350.015
2351.604
2353.192
2354.781
2356.369
2357.958
2359.546
2361.135
2362.723
2364.312
2365.900
2367.489
2369.077
2370.666
2372.254
2373.843
2375.431
2377.020
2378.608
2380.197
2381.785
2380.050
2378.314
2376.579
2374.843
2373.108
2371.372
2369.637
2367.901
2366.166
2364.430
2362.695
2360.959
2359.224
2357.488
2355.753
2354.017
2352.282
2350.546
2348.811
2347.075
2345.340
2343.604
2341.869
2340.133
2338.398
2336.662
2334.927
2333.191
2331.456
2329.720
2327.985
2326.249
2324.514
2322.778
2321.043
2319.307
2317.572
2315.836
2314.101
2312.365
2310.630
2308.894
2307.159
2305.423
2303.688
2301.952
2300.217
2298.481
2296.746
2295.010
2293.275
2291.539
2289.804
2288.068
2286.333
2284.597
2282.862
2281.126
2279.391
2277.655
2275.920
2274.184
2272.449
2270.713
2268.978
2267.242
2265.507
2263.771
2262.036
2260.300
2258.565
2256.829
2255.094
2253.358
2251.623
2249.887
2248.152
2246.416
2244.681
2242.945
2241.210
2239.474
2237.739
2236.003
2234.268
2232.532
2230.797
2229.061
2227.326
2225.590
2223.855
2222.119
2220.384
2218.648
2216.913
2215.177
2213.442
2211.706
2209.971
2208.235
2206.500
2204.764
2203.029
2201.293
2199.558
2197.822
2196.087
2194.351
2192.616
2190.880
2189.145
2187.409
2185.674
2183.938
2182.203
2180.467
2178.732
2176.996
2175.261
2173.525
2171.790
2170.054
2168.319
2166.583
2164.848
2163.112
2161.377
2159.641
2157.906
2156.170
2154.435
2152.699
2150.964
2149.228
2147.493
2145.757
2144.022
2142.286
2140.551
2138.815
2137.080
2135.344
2133.609
2131.873
2130.138
2128.402
2126.667
2124.931
2123.196
2121.460
2119.725
2117.989
2116.254
2114.518
2112.783
2111.047
2109.312
2107.576
2105.841
2104.105
2102.370
2100.634
2098.899
2097.163
2095.428
2093.692
2091.957
2090.221
2088.486
2086.750
2085.015
2083.279
2081.544
2079.808
2078.073
2076.337
2074.602
2072.866
2071.131
2069.395
2067.660
2065.924
2064.189
2062.453
2060.718
2058.982
2057.247
2055.511
2053.776
2052.040
2050.305
2048.569
2046.834
2045.098
2043.363
2041.627
2039.892
2038.156
2036.421
2034.685
2038.571
2042.457
2046.343
2050.229
2054.115
2058.001
2061.887
2065.773
2069.659
2073.545
2077.431
2081.317
2085.203
2089.089
2092.975
2096.861
2100.747
2104.633
2108.519
2112.405
2116.291
2120.177
2124.063
2127.949
2131.835
2135.721
2139.607
2143.493
2147.379
2151.265
2155.151
2159.037
2162.923
2166.809
2170.695
2174.581
2178.467
2182.353
2186.239
2190.125
2194.011
2197.897
2201.783
2205.669
2209.555
2213.441
2217.327
2221.213
2225.099
2228.985
2232.871
2236.757
2240.643
2244.529
2248.415
2252.301
2256.187
2260.073
2263.959
2267.845
2271.731
2275.617
2279.503
2283.389
2287.275
2291.161
2295.047
2298.933
2302.819
2306.705
2310.591
2314.477
2318.363
2322.249
2326.135
2330.021
2333.907
2337.793
2341.679
2345.565
2349.451
2353.337
2357.223
2361.109
2364.995
2368.881
2372.767
2376.653
2380.539
2384.425
2388.311
2392.197
2396.083
2399.969
2403.855
2407.741
2411.627
2415.513
2419.399
2423.285
2427.171
2431.057
2434.943
2438.829
2442.715
2446.601
2450.487
2454.373
2458.259
2462.145
2466.031
2469.917
2473.803
2477.689
2481.575
2485.461
2489.347
2493.233
2497.119
2501.005
2504.891
2508.777
2512.663
2516.549
2520.435
2524.321
2528.207
2532.093
2535.979
2539.865
2543.751
2547.637
2551.523
2555.409
2559.295
2563.181
2567.067
2570.953
2574.839
2578.725
2582.611
2586.497
2590.383
2594.269
2598.155
2602.041
2605.927
2609.813
2613.699
2617.585
2621.471
2625.357
2629.243
2633.129
2637.015
2640.901
2644.787
2648.673
2652.559
2656.445
2660.331
2664.217
2668.103
2671.989
2675.875
2679.761
2683.647
2687.533
2691.419
2695.305
2699.191
2703.077
2706.963
2710.849
2714.735
2718.621
2722.507
2726.393
2730.279
2734.165
2738.051
2741.937
2745.823
2749.709
2753.595
2757.481
2761.367
2765.253
2769.139
2773.025
2776.911
2780.797
2784.683
2788.569
2792.455
2796.341
2800.227
2804.113
2807.999
2811.885
2810.394
2808.903
2807.412
2805.921
2804.430
2802.939
2801.448
2799.957
2798.466
2796.975
2795.484
2793.993
2792.502
2791.011
2789.520
2788.029
2786.538
2785.047
2783.556
2782.065
2780.574
2779.083
2777.592
2776.101
2774.610
2773.119
2771.628
2770.137
2768.646
2767.155
2765.664
2764.173
2762.682
2761.191
2759.700
2758.209
2756.718
2755.227
2753.736
2752.245
2750.754
2749.263
2747.772
2746.281
2744.790
2743.299
2741.808
2740.317
2738.826
2737.335
2735.844
2734.353
2732.862
2731.371
2729.880
2728.389
2726.898
2725.407
2723.916
2722.425
2720.934
2719.443
2717.952
2716.461
2714.970
2713.479
2711.988
2710.497
2709.006
2707.515
2706.024
2704.533
2703.042
2701.551
2700.060
2698.569
2697.078
2695.587
2694.096
2692.605
2691.114
2689.623
2688.132
2686.641
2685.150
2683.659
2682.168
2680.677
2679.186
2677.695
2676.204
2674.713
2673.222
2671.731
2670.240
2668.749
2667.258
2665.767
2664.276
2662.785
2661.294
2659.803
2658.312
2656.821
2655.330
2653.839
2652.348
2650.857
2649.366
2647.875
2646.384
2644.893
2643.402
2641.911
2640.420
2638.929
2637.438
2635.947
2634.456
2632.965
2631.474
2629.983
2628.492
2627.001
2625.510
2624.019
2622.528
2621.037
2619.546
2618.055
2616.564
2615.073
2613.582
2612.091
2610.600
2609.109
2607.618
2606.127
2604.636
2603.145
2601.654
2600.163
2598.672
2597.181
2595.690
2594.199
2592.708
2591.217
2589.726
2588.235
2586.744
2585.253
2583.762
2582.271
2580.780
2579.289
2577.798
2576.307
2574.816
2573.325
2571.834
2570.343
2568.852
2567.361
2565.870
2564.379
2562.888
2561.397
2559.906
2558.415
2556.924
2555.433
2553.942
2552.451
2550.960
2549.469
2547.978
2546.487
2544.996
2543.505
2542.014
2540.523
2539.032
2537.541
2536.050
2534.559
2533.068
2531.577
2530.086
2528.595
2527.104
2525.613
2524.122
2522.631
2521.140
2519.649
2518.158
2516.667
2515.176
2513.685
2510.875
2508.065
2505.255
2502.445
2499.635
2496.825
2494.015
2491.205
2488.395
2485.585
2482.775
2479.965
2477.155
2474.345
2471.535
2468.725
2465.915
2463.105
2460.295
2457.485
2454.675
2451.865
2449.055
2446.245
2443.435
2440.625
2437.815
2435.005
2432.195
2429.385
2426.575
2423.765
2420.955
2418.145
2415.335
2412.525
2409.715
2406.905
2404.095
2401.285
2398.475
2395.665
2392.855
2390.045
2387.235
2384.425
2381.615
2378.805
2375.995
2373.185
2370.375
2367.565
2364.755
2361.945
2359.135
2356.325
2353.515
2350.705
2347.895
2345.085
2342.275
2339.465
2336.655
2333.845
2331.035
2328.225
2325.415
2322.605
2319.795
2316.985
2314.175
2311.365
2308.555
2305.745
2302.935
2300.125
2297.315
2294.505
2291.695
2288.885
2286.075
2283.265
2280.455
2277.645
2274.835
2272.025
2269.215
2266.405
2263.595
2260.785
2257.975
2255.165
2252.355
2249.545
2246.735
2243.925
2241.115
2238.305
2235.495
2232.685
2229.875
2227.065
2224.255
2221.445
2218.635
2215.825
2213.015
2210.205
2207.395
2204.585
2201.775
2198.965
2196.155
2193.345
2190.535
2187.725
2184.915
2182.105
2179.295
2176.485
2173.675
2170.865
2168.055
2165.245
2162.435
2159.625
2156.815
2154.005
2151.195
2148.385
2145.575
2142.765
2139.955
2137.145
2134.335
2131.525
2128.715
2125.905
2123.095
2120.285
2117.475
2114.665
2111.855
2109.045
2106.235
2103.425
2100.615
2097.805
2094.995
2092.185
2089.375
2086.565
2083.755
2080.945
2078.135
2075.325
2072.515
2069.705
2066.895
2064.085
2061.275
2058.465
2055.655
2052.845
2050.035
2047.225
2044.415
2041.605
2038.795
2035.985
2033.175
2030.365
2027.555
2024.745
2021.935
2019.125
2016.315
2013.505
2010.695
2007.885
2005.075
2002.265
1999.455
1996.645
1993.835
1991.025
1988.215
1985.405
1982.595
1979.785
1976.975
1974.165
1971.355
1968.545
1965.735
1962.925
1960.115
1957.305
1954.495
