338.291
343.276
348.261
353.246
358.231
363.216
368.201
373.186
378.171
383.156
388.141
393.126
398.111
403.096
408.081
413.066
418.051
423.036
428.021
433.006
437.991
442.976
447.961
452.946
457.931
462.916
467.901
472.886
477.871
482.856
487.841
492.826
497.811
502.796
507.781
512.766
517.751
522.736
527.721
532.706
537.691
542.676
547.661
552.646
557.631
562.616
567.601
572.586
577.571
582.556
587.541
592.526
597.511
602.496
607.481
612.466
617.451
622.436
627.421
632.406
637.391
642.376
647.361
652.346
657.331
662.316
667.301
672.286
677.271
682.256
687.241
692.226
697.211
702.196
707.181
712.166
717.151
722.136
727.121
732.106
737.091
742.076
747.061
752.046
757.031
762.016
767.001
771.986
776.971
781.956
786.941
791.926
796.911
801.896
806.881
811.866
816.851
821.836
826.821
831.806
836.791
841.776
846.761
851.746
856.731
861.716
866.701
871.686
876.671
881.656
886.641
891.626
896.611
901.596
906.581
911.566
916.551
921.536
926.521
931.506
936.491
941.476
946.461
951.446
956.431
961.416
966.401
971.386
976.371
981.356
986.341
991.326
996.311
1001.296
1006.281
1011.266
1016.251
1021.236
1026.221
1031.206
1036.191
1041.176
1046.161
1051.146
1056.131
1061.116
1066.101
1071.086
1076.071
1081.056
1086.041
1091.026
1096.011
1100.996
1105.981
1110.966
1115.951
1120.936
1125.921
1130.906
1135.891
1140.876
1145.861
1150.846
1155.831
1160.816
1165.801
1170.786
1175.771
1180.756
1185.741
1190.726
1195.711
1200.696
1205.681
1210.666
1215.651
1220.636
1225.621
1230.606
1235.591
1240.576
1245.561
1250.546
1255.531
1260.516
1265.501
1270.486
1275.471
1280.456
1285.441
1290.426
1295.411
1300.396
1305.381
1310.366
1315.351
1320.336
1325.321
1330.306
1335.291
1336.269
1337.247
1338.225
1339.203
1340.181
1341.159
1342.137
1343.115
1344.093
1345.071
1346.049
1347.027
1348.005
1348.983
1349.961
1350.939
1351.917
1352.895
1353.873
1354.851
1355.829
1356.807
1357.785
1358.763
1359.741
1360.719
1361.697
1362.675
1363.653
1364.631
1365.609
1366.587
1367.565
1368.543
1369.521
1370.499
1371.477
1372.455
1373.433
1374.411
1375.389
1376.367
1377.345
1378.323
1379.301
1380.279
1381.257
1382.235
1383.213
1384.191
1385.169
1386.147
1387.125
1388.103
1389.081
1390.059
1391.037
1392.015
1392.993
1393.971
1394.949
1395.927
1396.905
1397.883
1398.861
1399.839
1400.817
1401.795
1402.773
1403.751
1404.729
1405.707
1406.685
1407.663
1408.641
1409.619
1410.597
1411.575
1412.553
1413.531
1414.509
1415.487
1416.465
1417.443
1418.421
1419.399
1420.377
1421.355
1422.333
1423.311
1424.289
1425.267
1426.245
1427.223
1428.201
1429.179
1430.157
1431.135
1432.113
1433.091
1434.069
1435.047
1436.025
1437.003
1437.981
1438.959
1439.937
1440.915
1441.893
1442.871
1443.849
1444.827
1445.805
1446.783
1447.761
1448.739
1449.717
1450.695
1451.673
1452.651
1453.629
1454.607
1455.585
1456.563
1457.541
1458.519
1459.497
1460.475
1461.453
1462.431
1463.409
1464.387
1465.365
1466.343
1467.321
1468.299
1469.277
1470.255
1471.233
1472.211
1473.189
1474.167
1475.145
1476.123
1477.101
1478.079
1479.057
1480.035
1481.013
1481.991
1482.969
1483.947
1484.925
1485.903
1486.881
1487.859
1488.837
1489.815
1490.793
1491.771
1492.749
1493.727
1494.705
1495.683
1496.661
1497.639
1498.617
1499.595
1500.573
1501.551
1502.529
1503.507
1504.485
1505.463
1506.441
1507.419
1508.397
1509.375
1510.353
1511.331
1512.309
1513.287
1514.265
1515.243
1516.221
1517.199
1518.177
1519.155
1520.133
1521.111
1522.089
1523.067
1524.045
1525.023
1526.001
1526.979
1527.957
1528.935
1529.913
1530.891
1532.919
1534.947
1536.975
1539.003
1541.031
1543.059
1545.087
1547.115
1549.143
1551.171
1553.199
1555.227
1557.255
1559.283
1561.311
1563.339
1565.367
1567.395
1569.423
1571.451
1573.479
1575.507
1577.535
1579.563
1581.591
1583.619
1585.647
1587.675
1589.703
1591.731
1593.759
1595.787
1597.815
1599.843
1601.871
1603.899
1605.927
1607.955
1609.983
1612.011
1614.039
1616.067
1618.095
1620.123
1622.151
1624.179
1626.207
1628.235
1630.263
1632.291
1634.319
1636.347
1638.375
1640.403
1642.431
1644.459
1646.487
1648.515
1650.543
1652.571
1654.599
1656.627
1658.655
1660.683
1662.711
1664.739
1666.767
1668.795
1670.823
1672.851
1674.879
1676.907
1678.935
1680.963
1682.991
1685.019
1687.047
1689.075
1691.103
1693.131
1695.159
1697.187
1699.215
1701.243
1703.271
1705.299
1707.327
1709.355
1711.383
1713.411
1715.439
1717.467
1719.495
1721.523
1723.551
1725.579
1727.607
1729.635
1731.663
1733.691
1735.719
1737.747
1739.775
1741.803
1743.831
1745.859
1747.887
1749.915
1751.943
1753.971
1755.999
1758.027
1760.055
1762.083
1764.111
1766.139
1768.167
1770.195
1772.223
1774.251
1776.279
1778.307
1780.335
1782.363
1784.391
1786.419
1788.447
1790.475
1792.503
1794.531
1796.559
1798.587
1800.615
1802.643
1804.671
1806.699
1808.727
1810.755
1812.783
1814.811
1816.839
1818.867
1820.895
1822.923
1824.951
1826.979
1829.007
1831.035
1833.063
1835.091
1837.119
1839.147
1841.175
1843.203
1845.231
1847.259
1849.287
1851.315
1853.343
1855.371
1857.399
1859.427
1861.455
1863.483
1865.511
1867.539
1869.567
1871.595
1873.623
1875.651
1877.679
1879.707
1881.735
1883.763
1885.791
1887.819
1889.847
1891.875
1893.903
1895.931
1897.959
1899.987
1902.015
1904.043
1906.071
1908.099
1910.127
1912.155
1914.183
1916.211
1918.239
1920.267
1922.295
1924.323
1926.351
1928.379
1930.407
1932.435
1934.463
1936.491
1936.516
1936.540
1936.565
1936.589
1936.614
1936.638
1936.663
1936.687
1936.712
1936.736
1936.761
1936.785
1936.810
1936.834
1936.859
1936.883
1936.908
1936.932
1936.957
1936.981
1937.006
1937.030
1937.055
1937.079
1937.104
1937.128
1937.153
1937.177
1937.202
1937.226
1937.251
1937.275
1937.300
1937.324
1937.349
1937.373
1937.398
1937.422
1937.447
1937.471
1937.496
1937.520
1937.545
1937.569
1937.594
1937.618
1937.643
1937.667
1937.692
1937.716
1937.741
1937.765
1937.790
1937.814
1937.839
1937.863
1937.888
1937.912
1937.937
1937.961
1937.986
1938.010
1938.035
1938.059
1938.084
1938.108
1938.133
1938.157
1938.182
1938.206
1938.231
1938.255
1938.280
1938.304
1938.329
1938.353
1938.378
1938.402
1938.427
1938.451
1938.476
1938.500
1938.525
1938.549
1938.574
1938.598
1938.623
1938.647
1938.672
1938.696
1938.721
1938.745
1938.770
1938.794
1938.819
1938.843
1938.868
1938.892
1938.917
1938.941
1938.966
1938.990
1939.015
1939.039
1939.064
1939.088
1939.113
1939.137
1939.162
1939.186
1939.211
1939.235
1939.260
1939.284
1939.309
1939.333
1939.358
1939.382
1939.407
1939.431
1939.456
1939.480
1939.505
1939.529
1939.554
1939.578
1939.603
1939.627
1939.652
1939.676
1939.701
1939.725
1939.750
1939.774
1939.799
1939.823
1939.848
1939.872
1939.897
1939.921
1939.946
1939.970
1939.995
1940.019
1940.044
1940.068
1940.093
1940.117
1940.142
1940.166
1940.191
1940.215
1940.240
1940.264
1940.289
1940.313
1940.338
1940.362
1940.387
1940.411
1940.436
1940.460
1940.485
1940.509
1940.534
1940.558
1940.583
1940.607
1940.632
1940.656
1940.681
1940.705
1940.730
1940.754
1940.779
1940.803
1940.828
1940.852
1940.877
1940.901
1940.926
1940.950
1940.975
1940.999
1941.024
1941.048
1941.073
1941.097
1941.122
1941.146
1941.171
1941.195
1941.220
1941.244
1941.269
1941.293
1941.318
1941.342
1941.367
1941.391
1942.858
1944.324
1945.791
1947.257
1948.724
1950.190
1951.657
1953.123
1954.590
1956.056
1957.523
1958.989
1960.456
1961.922
1963.389
1964.855
1966.322
1967.788
1969.255
1970.721
1972.188
1973.654
1975.121
1976.587
1978.054
1979.520
1980.987
1982.453
1983.920
1985.386
1986.853
1988.319
1989.786
1991.252
1992.719
1994.185
1995.652
1997.118
1998.585
2000.051
2001.518
2002.984
2004.451
2005.917
2007.384
2008.850
2010.317
2011.783
2013.250
2014.716
2016.183
2017.649
2019.116
2020.582
2022.049
2023.515
2024.982
2026.448
2027.915
2029.381
2030.848
2032.314
2033.781
2035.247
2036.714
2038.180
2039.647
2041.113
2042.580
2044.046
2045.513
2046.979
2048.446
2049.912
2051.379
2052.845
2054.312
2055.778
2057.245
2058.711
2060.178
2061.644
2063.111
2064.577
2066.044
2067.510
2068.977
2070.443
2071.910
2073.376
2074.843
2076.309
2077.776
2079.242
2080.709
2082.175
2083.642
2085.108
2086.575
2088.041
2089.508
2090.974
2092.441
2093.907
2095.374
2096.840
2098.307
2099.773
2101.240
2102.706
2104.173
2105.639
2107.106
2108.572
2110.039
2111.505
2112.972
2114.438
2115.905
2117.371
2118.838
2120.304
2121.771
2123.237
2124.704
2126.170
2127.637
2129.103
2130.570
2132.036
2133.503
2134.969
2136.436
2137.902
2139.369
2140.835
2142.302
2143.768
2145.235
2146.701
2148.168
2149.634
2151.101
2152.567
2154.034
2155.500
2156.967
2158.433
2159.900
2161.366
2162.833
2164.299
2165.766
2167.232
2168.699
2170.165
2171.632
2173.098
2174.565
2176.031
2177.498
2178.964
2180.431
2181.897
2183.364
2184.830
2186.297
2187.763
2189.230
2190.696
2192.163
2193.629
2195.096
2196.562
2198.029
2199.495
2200.962
2202.428
2203.895
2205.361
2206.828
2208.294
2209.761
2211.227
2212.694
2214.160
2215.627
2217.093
2218.560
2220.026
2221.493
2222.959
2224.426
2225.892
2227.359
2228.825
2230.292
2231.758
2233.225
2234.691
2234.740
2234.788
2234.837
2234.885
2234.934
2234.982
2235.031
2235.079
2235.128
2235.176
2235.225
2235.273
2235.322
2235.370
2235.419
2235.467
2235.516
2235.564
2235.613
2235.661
2235.710
2235.758
2235.807
2235.855
2235.904
2235.952
2236.001
2236.049
2236.098
2236.146
2236.195
2236.243
2236.292
2236.340
2236.389
2236.437
2236.486
2236.534
2236.583
2236.631
2236.680
2236.728
2236.777
2236.825
2236.874
2236.922
2236.971
2237.019
2237.068
2237.116
2237.165
2237.213
2237.262
2237.310
2237.359
2237.407
2237.456
2237.504
2237.553
2237.601
2237.650
2237.698
2237.747
2237.795
2237.844
2237.892
2237.941
2237.989
2238.038
2238.086
2238.135
2238.183
2238.232
2238.280
2238.329
2238.377
2238.426
2238.474
2238.523
2238.571
2238.620
2238.668
2238.717
2238.765
2238.814
2238.862
2238.911
2238.959
2239.008
2239.056
2239.105
2239.153
2239.202
2239.250
2239.299
2239.347
2239.396
2239.444
2239.493
2239.541
2239.590
2239.638
2239.687
2239.735
2239.784
2239.832
2239.881
2239.929
2239.978
2240.026
2240.075
2240.123
2240.172
2240.220
2240.269
2240.317
2240.366
2240.414
2240.463
2240.511
2240.560
2240.608
2240.657
2240.705
2240.754
2240.802
2240.851
2240.899
2240.948
2240.996
2241.045
2241.093
2241.142
2241.190
2241.239
2241.287
2241.336
2241.384
2241.433
2241.481
2241.530
2241.578
2241.627
2241.675
2241.724
2241.772
2241.821
2241.869
2241.918
2241.966
2242.015
2242.063
2242.112
2242.160
2242.209
2242.257
2242.306
2242.354
2242.403
2242.451
2242.500
2242.548
2242.597
2242.645
2242.694
2242.742
2242.791
2242.839
2242.888
2242.936
2242.985
2243.033
2243.082
2243.130
2243.179
2243.227
2243.276
2243.324
2243.373
2243.421
2243.470
2243.518
2243.567
2243.615
2243.664
2243.712
2243.761
2243.809
2243.858
2243.906
2243.955
2244.003
2244.052
2244.100
2244.149
2244.197
2244.246
2244.294
2244.343
2244.391
2244.367
2244.343
2244.319
2244.295
2244.271
2244.247
2244.223
2244.199
2244.175
2244.151
2244.127
2244.103
2244.079
2244.055
2244.031
2244.007
2243.983
2243.959
2243.935
2243.911
2243.887
2243.863
2243.839
2243.815
2243.791
2243.767
2243.743
2243.719
2243.695
2243.671
2243.647
2243.623
2243.599
2243.575
2243.551
2243.527
2243.503
2243.479
2243.455
2243.431
2243.407
2243.383
2243.359
2243.335
2243.311
2243.287
2243.263
2243.239
2243.215
2243.191
2243.167
2243.143
2243.119
2243.095
2243.071
2243.047
2243.023
2242.999
2242.975
2242.951
2242.927
2242.903
2242.879
2242.855
2242.831
2242.807
2242.783
2242.759
2242.735
2242.711
2242.687
2242.663
2242.639
2242.615
2242.591
2242.567
2242.543
2242.519
2242.495
2242.471
2242.447
2242.423
2242.399
2242.375
2242.351
2242.327
2242.303
2242.279
2242.255
2242.231
2242.207
2242.183
2242.159
2242.135
2242.111
2242.087
2242.063
2242.039
2242.015
2241.991
2241.967
2241.943
2241.919
2241.895
2241.871
2241.847
2241.823
2241.799
2241.775
2241.751
2241.727
2241.703
2241.679
2241.655
2241.631
2241.607
2241.583
2241.559
2241.535
2241.511
2241.487
2241.463
2241.439
2241.415
2241.391
2241.367
2241.343
2241.319
2241.295
2241.271
2241.247
2241.223
2241.199
2241.175
2241.151
2241.127
2241.103
2241.079
2241.055
2241.031
2241.007
2240.983
2240.959
2240.935
2240.911
2240.887
2240.863
2240.839
2240.815
2240.791
2240.767
2240.743
2240.719
2240.695
2240.671
2240.647
2240.623
2240.599
2240.575
2240.551
2240.527
2240.503
2240.479
2240.455
2240.431
2240.407
2240.383
2240.359
2240.335
2240.311
2240.287
2240.263
2240.239
2240.215
2240.191
2240.167
2240.143
2240.119
2240.095
2240.071
2240.047
2240.023
2239.999
2239.975
2239.951
2239.927
2239.903
2239.879
2239.855
2239.831
2239.807
2239.783
2239.759
2239.735
2239.711
2239.687
2239.663
2239.639
2239.615
2239.591
2240.275
2240.959
2241.643
2242.327
2243.011
2243.695
2244.379
2245.063
2245.747
2246.431
2247.115
2247.799
2248.483
2249.167
2249.851
2250.535
2251.219
2251.903
2252.587
2253.271
2253.955
2254.639
2255.323
2256.007
2256.691
2257.375
2258.059
2258.743
2259.427
2260.111
2260.795
2261.479
2262.163
2262.847
2263.531
2264.215
2264.899
2265.583
2266.267
2266.951
2267.635
2268.319
2269.003
2269.687
2270.371
2271.055
2271.739
2272.423
2273.107
2273.791
2274.475
2275.159
2275.843
2276.527
2277.211
2277.895
2278.579
2279.263
2279.947
2280.631
2281.315
2281.999
2282.683
2283.367
2284.051
2284.735
2285.419
2286.103
2286.787
2287.471
2288.155
2288.839
2289.523
2290.207
2290.891
2291.575
2292.259
2292.943
2293.627
2294.311
2294.995
2295.679
2296.363
2297.047
2297.731
2298.415
2299.099
2299.783
2300.467
2301.151
2301.835
2302.519
2303.203
2303.887
2304.571
2305.255
2305.939
2306.623
2307.307
2307.991
2308.675
2309.359
2310.043
2310.727
2311.411
2312.095
2312.779
2313.463
2314.147
2314.831
2315.515
2316.199
2316.883
2317.567
2318.251
2318.935
2319.619
2320.303
2320.987
2321.671
2322.355
2323.039
2323.723
2324.407
2325.091
2325.775
2326.459
2327.143
2327.827
2328.511
2329.195
2329.879
2330.563
2331.247
2331.931
2332.615
2333.299
2333.983
2334.667
2335.351
2336.035
2336.719
2337.403
2338.087
2338.771
2339.455
2340.139
2340.823
2341.507
2342.191
2342.875
2343.559
2344.243
2344.927
2345.611
2346.295
2346.979
2347.663
2348.347
2349.031
2349.715
2350.399
2351.083
2351.767
2352.451
2353.135
2353.819
2354.503
2355.187
2355.871
2356.555
2357.239
2357.923
2358.607
2359.291
2359.975
2360.659
2361.343
2362.027
2362.711
2363.395
2364.079
2364.763
2365.447
2366.131
2366.815
2367.499
2368.183
2368.867
2369.551
2370.235
2370.919
2371.603
2372.287
2372.971
2373.655
2374.339
2375.023
2375.707
2376.391
2374.998
2373.605
2372.212
2370.819
2369.426
2368.033
2366.640
2365.247
2363.854
2362.461
2361.068
2359.675
2358.282
2356.889
2355.496
2354.103
2352.710
2351.317
2349.924
2348.531
2347.138
2345.745
2344.352
2342.959
2341.566
2340.173
2338.780
2337.387
2335.994
2334.601
2333.208
2331.815
2330.422
2329.029
2327.636
2326.243
2324.850
2323.457
2322.064
2320.671
2319.278
2317.885
2316.492
2315.099
2313.706
2312.313
2310.920
2309.527
2308.134
2306.741
2305.348
2303.955
2302.562
2301.169
2299.776
2298.383
2296.990
2295.597
2294.204
2292.811
2291.418
2290.025
2288.632
2287.239
2285.846
2284.453
2283.060
2281.667
2280.274
2278.881
2277.488
2276.095
2274.702
2273.309
2271.916
2270.523
2269.130
2267.737
2266.344
2264.951
2263.558
2262.165
2260.772
2259.379
2257.986
2256.593
2255.200
2253.807
2252.414
2251.021
2249.628
2248.235
2246.842
2245.449
2244.056
2242.663
2241.270
2239.877
2238.484
2237.091
2235.698
2234.305
2232.912
2231.519
2230.126
2228.733
2227.340
2225.947
2224.554
2223.161
2221.768
2220.375
2218.982
2217.589
2216.196
2214.803
2213.410
2212.017
2210.624
2209.231
2207.838
2206.445
2205.052
2203.659
2202.266
2200.873
2199.480
2198.087
2196.694
2195.301
2193.908
2192.515
2191.122
2189.729
2188.336
2186.943
2185.550
2184.157
2182.764
2181.371
2179.978
2178.585
2177.192
2175.799
2174.406
2173.013
2171.620
2170.227
2168.834
2167.441
2166.048
2164.655
2163.262
2161.869
2160.476
2159.083
2157.690
2156.297
2154.904
2153.511
2152.118
2150.725
2149.332
2147.939
2146.546
2145.153
2143.760
2142.367
2140.974
2139.581
2138.188
2136.795
2135.402
2134.009
2132.616
2131.223
2129.830
2128.437
2127.044
2125.651
2124.258
2122.865
2121.472
2120.079
2118.686
2117.293
2115.900
2114.507
2113.114
2111.721
2110.328
2108.935
2107.542
2106.149
2104.756
2103.363
2101.970
2100.577
2099.184
2097.791
2097.498
2097.205
2096.912
2096.619
2096.326
2096.033
2095.740
2095.447
2095.154
2094.861
2094.568
2094.275
2093.982
2093.689
2093.396
2093.103
2092.810
2092.517
2092.224
2091.931
2091.638
2091.345
2091.052
2090.759
2090.466
2090.173
2089.880
2089.587
2089.294
2089.001
2088.708
2088.415
2088.122
2087.829
2087.536
2087.243
2086.950
2086.657
2086.364
2086.071
2085.778
2085.485
2085.192
2084.899
2084.606
2084.313
2084.020
2083.727
2083.434
2083.141
2082.848
2082.555
2082.262
2081.969
2081.676
2081.383
2081.090
2080.797
2080.504
2080.211
2079.918
2079.625
2079.332
2079.039
2078.746
2078.453
2078.160
2077.867
2077.574
2077.281
2076.988
2076.695
2076.402
2076.109
2075.816
2075.523
2075.230
2074.937
2074.644
2074.351
2074.058
2073.765
2073.472
2073.179
2072.886
2072.593
2072.300
2072.007
2071.714
2071.421
2071.128
2070.835
2070.542
2070.249
2069.956
2069.663
2069.370
2069.077
2068.784
2068.491
2068.198
2067.905
2067.612
2067.319
2067.026
2066.733
2066.440
2066.147
2065.854
2065.561
2065.268
2064.975
2064.682
2064.389
2064.096
2063.803
2063.510
2063.217
2062.924
2062.631
2062.338
2062.045
2061.752
2061.459
2061.166
2060.873
2060.580
2060.287
2059.994
2059.701
2059.408
2059.115
2058.822
2058.529
2058.236
2057.943
2057.650
2057.357
2057.064
2056.771
2056.478
2056.185
2055.892
2055.599
2055.306
2055.013
2054.720
2054.427
2054.134
2053.841
2053.548
2053.255
2052.962
2052.669
2052.376
2052.083
2051.790
2051.497
2051.204
2050.911
2050.618
2050.325
2050.032
2049.739
2049.446
2049.153
2048.860
2048.567
2048.274
2047.981
2047.688
2047.395
2047.102
2046.809
2046.516
2046.223
2045.930
2045.637
2045.344
2045.051
2044.758
2044.465
2044.172
2043.879
2043.586
2043.293
2043.000
2042.707
2042.414
2042.121
2041.828
2041.535
2041.242
2040.949
2040.656
2040.363
2040.070
2039.777
2039.484
