1597.873
1599.975
1602.077
1604.179
1606.281
1608.383
1610.485
1612.587
1614.689
1616.791
1618.893
1620.995
1623.097
1625.199
1627.301
1629.403
1631.505
1633.607
1635.709
1637.811
1639.913
1642.015
1644.117
1646.219
1648.321
1650.423
1652.525
1654.627
1656.729
1658.831
1660.933
1663.035
1665.137
1667.239
1669.341
1671.443
1673.545
1675.647
1677.749
1679.851
1681.953
1684.055
1686.157
1688.259
1690.361
1692.463
1694.565
1696.667
1698.769
1700.871
1702.973
1705.075
1707.177
1709.279
1711.381
1713.483
1715.585
1717.687
1719.789
1721.891
1723.993
1726.095
1728.197
1730.299
1732.401
1734.503
1736.605
1738.707
1740.809
1742.911
1745.013
1747.115
1749.217
1751.319
1753.421
1755.523
1757.625
1759.727
1761.829
1763.931
1766.033
1768.135
1770.237
1772.339
1774.441
1776.543
1778.645
1780.747
1782.849
1784.951
1787.053
1789.155
1791.257
1793.359
1795.461
1797.563
1799.665
1801.767
1803.869
1805.971
1808.073
1810.175
1812.277
1814.379
1816.481
1818.583
1820.685
1822.787
1824.889
1826.991
1829.093
1831.195
1833.297
1835.399
1837.501
1839.603
1841.705
1843.807
1845.909
1848.011
1850.113
1852.215
1854.317
1856.419
1858.521
1860.623
1862.725
1864.827
1866.929
1869.031
1871.133
1873.235
1875.337
1877.439
1879.541
1881.643
1883.745
1885.847
1887.949
1890.051
1892.153
1894.255
1896.357
1898.459
1900.561
1902.663
1904.765
1906.867
1908.969
1911.071
1913.173
1915.275
1917.377
1919.479
1921.581
1923.683
1925.785
1927.887
1929.989
1932.091
1934.193
1936.295
1938.397
1940.499
1942.601
1944.703
1946.805
1948.907
1951.009
1953.111
1955.213
1957.315
1959.417
1961.519
1963.621
1965.723
1967.825
1969.927
1972.029
1974.131
1976.233
1978.335
1980.437
1982.539
1984.641
1986.743
1988.845
1990.947
1993.049
1995.151
1997.253
1999.355
2001.457
2003.559
2005.661
2007.763
2009.865
2011.967
2014.069
2016.171
2018.273
2018.786
2019.299
2019.812
2020.325
2020.838
2021.351
2021.864
2022.377
2022.890
2023.403
2023.916
2024.429
2024.942
2025.455
2025.968
2026.481
2026.994
2027.507
2028.020
2028.533
2029.046
2029.559
2030.072
2030.585
2031.098
2031.611
2032.124
2032.637
2033.150
2033.663
2034.176
2034.689
2035.202
2035.715
2036.228
2036.741
2037.254
2037.767
2038.280
2038.793
2039.306
2039.819
2040.332
2040.845
2041.358
2041.871
2042.384
2042.897
2043.410
2043.923
2044.436
2044.949
2045.462
2045.975
2046.488
2047.001
2047.514
2048.027
2048.540
2049.053
2049.566
2050.079
2050.592
2051.105
2051.618
2052.131
2052.644
2053.157
2053.670
2054.183
2054.696
2055.209
2055.722
2056.235
2056.748
2057.261
2057.774
2058.287
2058.800
2059.313
2059.826
2060.339
2060.852
2061.365
2061.878
2062.391
2062.904
2063.417
2063.930
2064.443
2064.956
2065.469
2065.982
2066.495
2067.008
2067.521
2068.034
2068.547
2069.060
2069.573
2070.086
2070.599
2071.112
2071.625
2072.138
2072.651
2073.164
2073.677
2074.190
2074.703
2075.216
2075.729
2076.242
2076.755
2077.268
2077.781
2078.294
2078.807
2079.320
2079.833
2080.346
2080.859
2081.372
2081.885
2082.398
2082.911
2083.424
2083.937
2084.450
2084.963
2085.476
2085.989
2086.502
2087.015
2087.528
2088.041
2088.554
2089.067
2089.580
2090.093
2090.606
2091.119
2091.632
2092.145
2092.658
2093.171
2093.684
2094.197
2094.710
2095.223
2095.736
2096.249
2096.762
2097.275
2097.788
2098.301
2098.814
2099.327
2099.840
2100.353
2100.866
2101.379
2101.892
2102.405
2102.918
2103.431
2103.944
2104.457
2104.970
2105.483
2105.996
2106.509
2107.022
2107.535
2108.048
2108.561
2109.074
2109.587
2110.100
2110.613
2111.126
2111.639
2112.152
2112.665
2113.178
2113.691
2114.204
2114.717
2115.230
2115.743
2116.256
2116.769
2117.282
2117.795
2118.308
2118.821
2119.334
2119.847
2120.360
2120.873
2119.431
2117.989
2116.547
2115.105
2113.663
2112.221
2110.779
2109.337
2107.895
2106.453
2105.011
2103.569
2102.127
2100.685
2099.243
2097.801
2096.359
2094.917
2093.475
2092.033
2090.591
2089.149
2087.707
2086.265
2084.823
2083.381
2081.939
2080.497
2079.055
2077.613
2076.171
2074.729
2073.287
2071.845
2070.403
2068.961
2067.519
2066.077
2064.635
2063.193
2061.751
2060.309
2058.867
2057.425
2055.983
2054.541
2053.099
2051.657
2050.215
2048.773
2047.331
2045.889
2044.447
2043.005
2041.563
2040.121
2038.679
2037.237
2035.795
2034.353
2032.911
2031.469
2030.027
2028.585
2027.143
2025.701
2024.259
2022.817
2021.375
2019.933
2018.491
2017.049
2015.607
2014.165
2012.723
2011.281
2009.839
2008.397
2006.955
2005.513
2004.071
2002.629
2001.187
1999.745
1998.303
1996.861
1995.419
1993.977
1992.535
1991.093
1989.651
1988.209
1986.767
1985.325
1983.883
1982.441
1980.999
1979.557
1978.115
1976.673
1975.231
1973.789
1972.347
1970.905
1969.463
1968.021
1966.579
1965.137
1963.695
1962.253
1960.811
1959.369
1957.927
1956.485
1955.043
1953.601
1952.159
1950.717
1949.275
1947.833
1946.391
1944.949
1943.507
1942.065
1940.623
1939.181
1937.739
1936.297
1934.855
1933.413
1931.971
1930.529
1929.087
1927.645
1926.203
1924.761
1923.319
1921.877
1920.435
1918.993
1917.551
1916.109
1914.667
1913.225
1911.783
1910.341
1908.899
1907.457
1906.015
1904.573
1903.131
1901.689
1900.247
1898.805
1897.363
1895.921
1894.479
1893.037
1891.595
1890.153
1888.711
1887.269
1885.827
1884.385
1882.943
1881.501
1880.059
1878.617
1877.175
1875.733
1874.291
1872.849
1871.407
1869.965
1868.523
1867.081
1865.639
1864.197
1862.755
1861.313
1859.871
1858.429
1856.987
1855.545
1854.103
1852.661
1851.219
1849.777
1848.335
1846.893
1845.451
1844.009
1842.567
1841.125
1839.683
1838.241
1836.799
1835.357
1833.915
1832.473
1834.844
1837.214
1839.585
1841.955
1844.326
1846.696
1849.067
1851.437
1853.808
1856.178
1858.549
1860.919
1863.290
1865.660
1868.031
1870.401
1872.772
1875.142
1877.513
1879.883
1882.254
1884.624
1886.995
1889.365
1891.736
1894.106
1896.477
1898.847
1901.218
1903.588
1905.959
1908.329
1910.700
1913.070
1915.441
1917.811
1920.182
1922.552
1924.923
1927.293
1929.664
1932.034
1934.405
1936.775
1939.146
1941.516
1943.887
1946.257
1948.628
1950.998
1953.369
1955.739
1958.110
1960.480
1962.851
1965.221
1967.592
1969.962
1972.333
1974.703
1977.074
1979.444
1981.815
1984.185
1986.556
1988.926
1991.297
1993.667
1996.038
1998.408
2000.779
2003.149
2005.520
2007.890
2010.261
2012.631
2015.002
2017.372
2019.743
2022.113
2024.484
2026.854
2029.225
2031.595
2033.966
2036.336
2038.707
2041.077
2043.448
2045.818
2048.189
2050.559
2052.930
2055.300
2057.671
2060.041
2062.412
2064.782
2067.153
2069.523
2071.894
2074.264
2076.635
2079.005
2081.376
2083.746
2086.117
2088.487
2090.858
2093.228
2095.599
2097.969
2100.340
2102.710
2105.081
2107.451
2109.822
2112.192
2114.563
2116.933
2119.304
2121.674
2124.045
2126.415
2128.786
2131.156
2133.527
2135.897
2138.268
2140.638
2143.009
2145.379
2147.750
2150.120
2152.491
2154.861
2157.232
2159.602
2161.973
2164.343
2166.714
2169.084
2171.455
2173.825
2176.196
2178.566
2180.937
2183.307
2185.678
2188.048
2190.419
2192.789
2195.160
2197.530
2199.901
2202.271
2204.642
2207.012
2209.383
2211.753
2214.124
2216.494
2218.865
2221.235
2223.606
2225.976
2228.347
2230.717
2233.088
2235.458
2237.829
2240.199
2242.570
2244.940
2247.311
2249.681
2252.052
2254.422
2256.793
2259.163
2261.534
2263.904
2266.275
2268.645
2271.016
2273.386
2275.757
2278.127
2280.498
2282.868
2285.239
2287.609
2289.980
2292.350
2294.721
2297.091
2299.462
2301.832
2304.203
2306.573
2305.718
2304.863
2304.008
2303.153
2302.298
2301.443
2300.588
2299.733
2298.878
2298.023
2297.168
2296.313
2295.458
2294.603
2293.748
2292.893
2292.038
2291.183
2290.328
2289.473
2288.618
2287.763
2286.908
2286.053
2285.198
2284.343
2283.488
2282.633
2281.778
2280.923
2280.068
2279.213
2278.358
2277.503
2276.648
2275.793
2274.938
2274.083
2273.228
2272.373
2271.518
2270.663
2269.808
2268.953
2268.098
2267.243
2266.388
2265.533
2264.678
2263.823
2262.968
2262.113
2261.258
2260.403
2259.548
2258.693
2257.838
2256.983
2256.128
2255.273
2254.418
2253.563
2252.708
2251.853
2250.998
2250.143
2249.288
2248.433
2247.578
2246.723
2245.868
2245.013
2244.158
2243.303
2242.448
2241.593
2240.738
2239.883
2239.028
2238.173
2237.318
2236.463
2235.608
2234.753
2233.898
2233.043
2232.188
2231.333
2230.478
2229.623
2228.768
2227.913
2227.058
2226.203
2225.348
2224.493
2223.638
2222.783
2221.928
2221.073
2220.218
2219.363
2218.508
2217.653
2216.798
2215.943
2215.088
2214.233
2213.378
2212.523
2211.668
2210.813
2209.958
2209.103
2208.248
2207.393
2206.538
2205.683
2204.828
2203.973
2203.118
2202.263
2201.408
2200.553
2199.698
2198.843
2197.988
2197.133
2196.278
2195.423
2194.568
2193.713
2192.858
2192.003
2191.148
2190.293
2189.438
2188.583
2187.728
2186.873
2186.018
2185.163
2184.308
2183.453
2182.598
2181.743
2180.888
2180.033
2179.178
2178.323
2177.468
2176.613
2175.758
2174.903
2174.048
2173.193
2172.338
2171.483
2170.628
2169.773
2168.918
2168.063
2167.208
2166.353
2165.498
2164.643
2163.788
2162.933
2162.078
2161.223
2160.368
2159.513
2158.658
2157.803
2156.948
2156.093
2155.238
2154.383
2153.528
2152.673
2151.818
2150.963
2150.108
2149.253
2148.398
2147.543
2146.688
2145.833
2144.978
2144.123
2143.268
2142.413
2141.558
2140.703
2139.848
2138.993
2138.138
2137.283
2136.428
2135.573
2133.349
2131.125
2128.901
2126.677
2124.453
2122.229
2120.005
2117.781
2115.557
2113.333
2111.109
2108.885
2106.661
2104.437
2102.213
2099.989
2097.765
2095.541
2093.317
2091.093
2088.869
2086.645
2084.421
2082.197
2079.973
2077.749
2075.525
2073.301
2071.077
2068.853
2066.629
2064.405
2062.181
2059.957
2057.733
2055.509
2053.285
2051.061
2048.837
2046.613
2044.389
2042.165
2039.941
2037.717
2035.493
2033.269
2031.045
2028.821
2026.597
2024.373
2022.149
2019.925
2017.701
2015.477
2013.253
2011.029
2008.805
2006.581
2004.357
2002.133
1999.909
1997.685
1995.461
1993.237
1991.013
1988.789
1986.565
1984.341
1982.117
1979.893
1977.669
1975.445
1973.221
1970.997
1968.773
1966.549
1964.325
1962.101
1959.877
1957.653
1955.429
1953.205
1950.981
1948.757
1946.533
1944.309
1942.085
1939.861
1937.637
1935.413
1933.189
1930.965
1928.741
1926.517
1924.293
1922.069
1919.845
1917.621
1915.397
1913.173
1910.949
1908.725
1906.501
1904.277
1902.053
1899.829
1897.605
1895.381
1893.157
1890.933
1888.709
1886.485
1884.261
1882.037
1879.813
1877.589
1875.365
1873.141
1870.917
1868.693
1866.469
1864.245
1862.021
1859.797
1857.573
1855.349
1853.125
1850.901
1848.677
1846.453
1844.229
1842.005
1839.781
1837.557
1835.333
1833.109
1830.885
1828.661
1826.437
1824.213
1821.989
1819.765
1817.541
1815.317
1813.093
1810.869
1808.645
1806.421
1804.197
1801.973
1799.749
1797.525
1795.301
1793.077
1790.853
1788.629
1786.405
1784.181
1781.957
1779.733
1777.509
1775.285
1773.061
1770.837
1768.613
1766.389
1764.165
1761.941
1759.717
1757.493
1755.269
1753.045
1750.821
1748.597
1746.373
1744.149
1741.925
1739.701
1737.477
1735.253
1733.029
1730.805
1728.581
1726.357
1724.133
1721.909
1719.685
1717.461
1715.237
1713.013
1710.789
1708.565
1706.341
1704.117
1701.893
1699.669
1697.445
1695.221
1692.997
1690.773
1693.095
1695.416
1697.738
1700.059
1702.381
1704.702
1707.024
1709.345
1711.667
1713.988
1716.310
1718.631
1720.953
1723.274
1725.596
1727.917
1730.239
1732.560
1734.882
1737.203
1739.525
1741.846
1744.168
1746.489
1748.811
1751.132
1753.454
1755.775
1758.097
1760.418
1762.740
1765.061
1767.383
1769.704
1772.026
1774.347
1776.669
1778.990
1781.312
1783.633
1785.955
1788.276
1790.598
1792.919
1795.241
1797.562
1799.884
1802.205
1804.527
1806.848
1809.170
1811.491
1813.813
1816.134
1818.456
1820.777
1823.099
1825.420
1827.742
1830.063
1832.385
1834.706
1837.028
1839.349
1841.671
1843.992
1846.314
1848.635
1850.957
1853.278
1855.600
1857.921
1860.243
1862.564
1864.886
1867.207
1869.529
1871.850
1874.172
1876.493
1878.815
1881.136
1883.458
1885.779
1888.101
1890.422
1892.744
1895.065
1897.387
1899.708
1902.030
1904.351
1906.673
1908.994
1911.316
1913.637
1915.959
1918.280
1920.602
1922.923
1925.245
1927.566
1929.888
1932.209
1934.531
1936.852
1939.174
1941.495
1943.817
1946.138
1948.460
1950.781
1953.103
1955.424
1957.746
1960.067
1962.389
1964.710
1967.032
1969.353
1971.675
1973.996
1976.318
1978.639
1980.961
1983.282
1985.604
1987.925
1990.247
1992.568
1994.890
1997.211
1999.533
2001.854
2004.176
2006.497
2008.819
2011.140
2013.462
2015.783
2018.105
2020.426
2022.748
2025.069
2027.391
2029.712
2032.034
2034.355
2036.677
2038.998
2041.320
2043.641
2045.963
2048.284
2050.606
2052.927
2055.249
2057.570
2059.892
2062.213
2064.535
2066.856
2069.178
2071.499
2073.821
2076.142
2078.464
2080.785
2083.107
2085.428
2087.750
2090.071
2092.393
2094.714
2097.036
2099.357
2101.679
2104.000
2106.322
2108.643
2110.965
2113.286
2115.608
2117.929
2120.251
2122.572
2124.894
2127.215
2129.537
2131.858
2134.180
2136.501
2138.823
2141.144
2143.466
2145.787
2148.109
2150.430
2152.752
2155.073
2158.495
2161.916
2165.338
2168.759
2172.181
2175.602
2179.024
2182.445
2185.867
2189.288
2192.710
2196.131
2199.553
2202.974
2206.396
2209.817
2213.239
2216.660
2220.082
2223.503
2226.925
2230.346
2233.768
2237.189
2240.611
2244.032
2247.454
2250.875
2254.297
2257.718
2261.140
2264.561
2267.983
2271.404
2274.826
2278.247
2281.669
2285.090
2288.512
2291.933
2295.355
2298.776
2302.198
2305.619
2309.041
2312.462
2315.884
2319.305
2322.727
2326.148
2329.570
2332.991
2336.413
2339.834
2343.256
2346.677
2350.099
2353.520
2356.942
2360.363
2363.785
2367.206
2370.628
2374.049
2377.471
2380.892
2384.314
2387.735
2391.157
2394.578
2398.000
2401.421
2404.843
2408.264
2411.686
2415.107
2418.529
2421.950
2425.372
2428.793
2432.215
2435.636
2439.058
2442.479
2445.901
2449.322
2452.744
2456.165
2459.587
2463.008
2466.430
2469.851
2473.273
2476.694
2480.116
2483.537
2486.959
2490.380
2493.802
2497.223
2500.645
2504.066
2507.488
2510.909
2514.331
2517.752
2521.174
2524.595
2528.017
2531.438
2534.860
2538.281
2541.703
2545.124
2548.546
2551.967
2555.389
2558.810
2562.232
2565.653
2569.075
2572.496
2575.918
2579.339
2582.761
2586.182
2589.604
2593.025
2596.447
2599.868
2603.290
2606.711
2610.133
2613.554
2616.976
2620.397
2623.819
2627.240
2630.662
2634.083
2637.505
2640.926
2644.348
2647.769
2651.191
2654.612
2658.034
2661.455
2664.877
2668.298
2671.720
2675.141
2678.563
2681.984
2685.406
2688.827
2692.249
2695.670
2699.092
2702.513
2705.935
2709.356
2712.778
2716.199
2719.621
2723.042
2726.464
2729.885
2733.307
2736.728
2740.150
2743.571
2746.993
2750.414
2753.836
2757.257
2760.679
2764.100
2767.522
2770.943
2774.365
2777.786
2781.208
2784.629
2788.051
2791.472
2794.894
2798.315
2801.737
2805.158
2808.580
2812.001
2815.423
2818.844
2822.266
2825.687
2829.109
2832.530
2835.952
2839.373
2836.661
2833.948
2831.236
2828.523
2825.811
2823.098
2820.386
2817.673
2814.961
2812.248
2809.536
2806.823
2804.111
2801.398
2798.686
2795.973
2793.261
2790.548
2787.836
2785.123
2782.411
2779.698
2776.986
2774.273
2771.561
2768.848
2766.136
2763.423
2760.711
2757.998
2755.286
2752.573
2749.861
2747.148
2744.436
2741.723
2739.011
2736.298
2733.586
2730.873
2728.161
2725.448
2722.736
2720.023
2717.311
2714.598
2711.886
2709.173
2706.461
2703.748
2701.036
2698.323
2695.611
2692.898
2690.186
2687.473
2684.761
2682.048
2679.336
2676.623
2673.911
2671.198
2668.486
2665.773
2663.061
2660.348
2657.636
2654.923
2652.211
2649.498
2646.786
2644.073
2641.361
2638.648
2635.936
2633.223
2630.511
2627.798
2625.086
2622.373
2619.661
2616.948
2614.236
2611.523
2608.811
2606.098
2603.386
2600.673
2597.961
2595.248
2592.536
2589.823
2587.111
2584.398
2581.686
2578.973
2576.261
2573.548
2570.836
2568.123
2565.411
2562.698
2559.986
2557.273
2554.561
2551.848
2549.136
2546.423
2543.711
2540.998
2538.286
2535.573
2532.861
2530.148
2527.436
2524.723
2522.011
2519.298
2516.586
2513.873
2511.161
2508.448
2505.736
2503.023
2500.311
2497.598
2494.886
2492.173
2489.461
2486.748
2484.036
2481.323
2478.611
2475.898
2473.186
2470.473
2467.761
2465.048
2462.336
2459.623
2456.911
2454.198
2451.486
2448.773
2446.061
2443.348
2440.636
2437.923
2435.211
2432.498
2429.786
2427.073
2424.361
2421.648
2418.936
2416.223
2413.511
2410.798
2408.086
2405.373
2402.661
2399.948
2397.236
2394.523
2391.811
2389.098
2386.386
2383.673
2380.961
2378.248
2375.536
2372.823
2370.111
2367.398
2364.686
2361.973
2359.261
2356.548
2353.836
2351.123
2348.411
2345.698
2342.986
2340.273
2337.561
2334.848
2332.136
2329.423
2326.711
2323.998
2321.286
2318.573
2315.861
2313.148
2310.436
2307.723
2305.011
2302.298
2299.586
2296.873
2289.077
2281.281
2273.485
2265.689
2257.893
2250.097
2242.301
2234.505
2226.709
2218.913
2211.117
2203.321
2195.525
2187.729
2179.933
2172.137
2164.341
2156.545
2148.749
2140.953
2133.157
2125.361
2117.565
2109.769
2101.973
2094.177
2086.381
2078.585
2070.789
2062.993
2055.197
2047.401
2039.605
2031.809
2024.013
2016.217
2008.421
2000.625
1992.829
1985.033
1977.237
1969.441
1961.645
1953.849
1946.053
1938.257
1930.461
1922.665
1914.869
1907.073
1899.277
1891.481
1883.685
1875.889
1868.093
1860.297
1852.501
1844.705
1836.909
1829.113
1821.317
1813.521
1805.725
1797.929
1790.133
1782.337
1774.541
1766.745
1758.949
1751.153
1743.357
1735.561
1727.765
1719.969
1712.173
1704.377
1696.581
1688.785
1680.989
1673.193
1665.397
1657.601
1649.805
1642.009
1634.213
1626.417
1618.621
1610.825
1603.029
1595.233
1587.437
1579.641
1571.845
1564.049
1556.253
1548.457
1540.661
1532.865
1525.069
1517.273
1509.477
1501.681
1493.885
1486.089
1478.293
1470.497
1462.701
1454.905
1447.109
1439.313
1431.517
1423.721
1415.925
1408.129
1400.333
1392.537
1384.741
1376.945
1369.149
1361.353
1353.557
1345.761
1337.965
1330.169
1322.373
1314.577
1306.781
1298.985
1291.189
1283.393
1275.597
1267.801
1260.005
1252.209
1244.413
1236.617
1228.821
1221.025
1213.229
1205.433
1197.637
1189.841
1182.045
1174.249
1166.453
1158.657
1150.861
1143.065
1135.269
1127.473
1119.677
1111.881
1104.085
1096.289
1088.493
1080.697
1072.901
1065.105
1057.309
1049.513
1041.717
1033.921
1026.125
1018.329
1010.533
1002.737
994.941
987.145
979.349
971.553
963.757
955.961
948.165
940.369
932.573
924.777
916.981
909.185
901.389
893.593
885.797
878.001
870.205
862.409
854.613
846.817
839.021
831.225
823.429
815.633
807.837
800.041
792.245
784.449
776.653
768.857
761.061
753.265
745.469
