485.318
490.230
495.142
500.054
504.966
509.878
514.790
519.702
524.614
529.526
534.438
539.350
544.262
549.174
554.086
558.998
563.910
568.822
573.734
578.646
583.558
588.470
593.382
598.294
603.206
608.118
613.030
617.942
622.854
627.766
632.678
637.590
642.502
647.414
652.326
657.238
662.150
667.062
671.974
676.886
681.798
686.710
691.622
696.534
701.446
706.358
711.270
716.182
721.094
726.006
730.918
735.830
740.742
745.654
750.566
755.478
760.390
765.302
770.214
775.126
780.038
784.950
789.862
794.774
799.686
804.598
809.510
814.422
819.334
824.246
829.158
834.070
838.982
843.894
848.806
853.718
858.630
863.542
868.454
873.366
878.278
883.190
888.102
893.014
897.926
902.838
907.750
912.662
917.574
922.486
927.398
932.310
937.222
942.134
947.046
951.958
956.870
961.782
966.694
971.606
976.518
981.430
986.342
991.254
996.166
1001.078
1005.990
1010.902
1015.814
1020.726
1025.638
1030.550
1035.462
1040.374
1045.286
1050.198
1055.110
1060.022
1064.934
1069.846
1074.758
1079.670
1084.582
1089.494
1094.406
1099.318
1104.230
1109.142
1114.054
1118.966
1123.878
1128.790
1133.702
1138.614
1143.526
1148.438
1153.350
1158.262
1163.174
1168.086
1172.998
1177.910
1182.822
1187.734
1192.646
1197.558
1202.470
1207.382
1212.294
1217.206
1222.118
1227.030
1231.942
1236.854
1241.766
1246.678
1251.590
1256.502
1261.414
1266.326
1271.238
1276.150
1281.062
1285.974
1290.886
1295.798
1300.710
1305.622
1310.534
1315.446
1320.358
1325.270
1330.182
1335.094
1340.006
1344.918
1349.830
1354.742
1359.654
1364.566
1369.478
1374.390
1379.302
1384.214
1389.126
1394.038
1398.950
1403.862
1408.774
1413.686
1418.598
1423.510
1428.422
1433.334
1438.246
1443.158
1448.070
1452.982
1457.894
1462.806
1467.718
1470.186
1472.654
1475.122
1477.590
1480.058
1482.526
1484.994
1487.462
1489.930
1492.398
1494.866
1497.334
1499.802
1502.270
1504.738
1507.206
1509.674
1512.142
1514.610
1517.078
1519.546
1522.014
1524.482
1526.950
1529.418
1531.886
1534.354
1536.822
1539.290
1541.758
1544.226
1546.694
1549.162
1551.630
1554.098
1556.566
1559.034
1561.502
1563.970
1566.438
1568.906
1571.374
1573.842
1576.310
1578.778
1581.246
1583.714
1586.182
1588.650
1591.118
1593.586
1596.054
1598.522
1600.990
1603.458
1605.926
1608.394
1610.862
1613.330
1615.798
1618.266
1620.734
1623.202
1625.670
1628.138
1630.606
1633.074
1635.542
1638.010
1640.478
1642.946
1645.414
1647.882
1650.350
1652.818
1655.286
1657.754
1660.222
1662.690
1665.158
1667.626
1670.094
1672.562
1675.030
1677.498
1679.966
1682.434
1684.902
1687.370
1689.838
1692.306
1694.774
1697.242
1699.710
1702.178
1704.646
1707.114
1709.582
1712.050
1714.518
1716.986
1719.454
1721.922
1724.390
1726.858
1729.326
1731.794
1734.262
1736.730
1739.198
1741.666
1744.134
1746.602
1749.070
1751.538
1754.006
1756.474
1758.942
1761.410
1763.878
1766.346
1768.814
1771.282
1773.750
1776.218
1778.686
1781.154
1783.622
1786.090
1788.558
1791.026
1793.494
1795.962
1798.430
1800.898
1803.366
1805.834
1808.302
1810.770
1813.238
1815.706
1818.174
1820.642
1823.110
1825.578
1828.046
1830.514
1832.982
1835.450
1837.918
1840.386
1842.854
1845.322
1847.790
1850.258
1852.726
1855.194
1857.662
1860.130
1862.598
1865.066
1867.534
1870.002
1872.470
1874.938
1877.406
1879.874
1882.342
1884.810
1887.278
1889.746
1892.214
1894.682
1897.150
1899.618
1902.086
1904.554
1907.022
1909.490
1911.958
1914.426
1916.894
1919.362
1921.830
1924.298
1926.766
1929.234
1931.702
1934.170
1936.638
1939.106
1941.574
1944.042
1946.510
1948.978
1951.446
1953.914
1956.382
1958.850
1961.318
1960.903
1960.487
1960.072
1959.656
1959.241
1958.825
1958.410
1957.994
1957.579
1957.163
1956.748
1956.332
1955.917
1955.501
1955.086
1954.670
1954.255
1953.839
1953.424
1953.008
1952.593
1952.177
1951.762
1951.346
1950.931
1950.515
1950.100
1949.684
1949.269
1948.853
1948.438
1948.022
1947.607
1947.191
1946.776
1946.360
1945.945
1945.529
1945.114
1944.698
1944.283
1943.867
1943.452
1943.036
1942.621
1942.205
1941.790
1941.374
1940.959
1940.543
1940.128
1939.712
1939.297
1938.881
1938.466
1938.050
1937.635
1937.219
1936.804
1936.388
1935.973
1935.557
1935.142
1934.726
1934.311
1933.895
1933.480
1933.064
1932.649
1932.233
1931.818
1931.402
1930.987
1930.571
1930.156
1929.740
1929.325
1928.909
1928.494
1928.078
1927.663
1927.247
1926.832
1926.416
1926.001
1925.585
1925.170
1924.754
1924.339
1923.923
1923.508
1923.092
1922.677
1922.261
1921.846
1921.430
1921.015
1920.599
1920.184
1919.768
1919.353
1918.937
1918.522
1918.106
1917.691
1917.275
1916.860
1916.444
1916.029
1915.613
1915.198
1914.782
1914.367
1913.951
1913.536
1913.120
1912.705
1912.289
1911.874
1911.458
1911.043
1910.627
1910.212
1909.796
1909.381
1908.965
1908.550
1908.134
1907.719
1907.303
1906.888
1906.472
1906.057
1905.641
1905.226
1904.810
1904.395
1903.979
1903.564
1903.148
1902.733
1902.317
1901.902
1901.486
1901.071
1900.655
1900.240
1899.824
1899.409
1898.993
1898.578
1898.162
1897.747
1897.331
1896.916
1896.500
1896.085
1895.669
1895.254
1894.838
1894.423
1894.007
1893.592
1893.176
1892.761
1892.345
1891.930
1891.514
1891.099
1890.683
1890.268
1889.852
1889.437
1889.021
1888.606
1888.190
1887.775
1887.359
1886.944
1886.528
1886.113
1885.697
1885.282
1884.866
1884.451
1884.035
1883.620
1883.204
1882.789
1882.373
1881.958
1881.542
1881.127
1880.711
1880.296
1879.880
1879.465
1879.049
1878.634
1878.218
1882.715
1887.211
1891.708
1896.204
1900.701
1905.197
1909.694
1914.190
1918.687
1923.183
1927.680
1932.176
1936.673
1941.169
1945.666
1950.162
1954.659
1959.155
1963.652
1968.148
1972.645
1977.141
1981.638
1986.134
1990.631
1995.127
1999.624
2004.120
2008.617
2013.113
2017.610
2022.106
2026.603
2031.099
2035.596
2040.092
2044.589
2049.085
2053.582
2058.078
2062.575
2067.071
2071.568
2076.064
2080.561
2085.057
2089.554
2094.050
2098.547
2103.043
2107.540
2112.036
2116.533
2121.029
2125.526
2130.022
2134.519
2139.015
2143.512
2148.008
2152.505
2157.001
2161.498
2165.994
2170.491
2174.987
2179.484
2183.980
2188.477
2192.973
2197.470
2201.966
2206.463
2210.959
2215.456
2219.952
2224.449
2228.945
2233.442
2237.938
2242.435
2246.931
2251.428
2255.924
2260.421
2264.917
2269.414
2273.910
2278.407
2282.903
2287.400
2291.896
2296.393
2300.889
2305.386
2309.882
2314.379
2318.875
2323.372
2327.868
2332.365
2336.861
2341.358
2345.854
2350.351
2354.847
2359.344
2363.840
2368.337
2372.833
2377.330
2381.826
2386.323
2390.819
2395.316
2399.812
2404.309
2408.805
2413.302
2417.798
2422.295
2426.791
2431.288
2435.784
2440.281
2444.777
2449.274
2453.770
2458.267
2462.763
2467.260
2471.756
2476.253
2480.749
2485.246
2489.742
2494.239
2498.735
2503.232
2507.728
2512.225
2516.721
2521.218
2525.714
2530.211
2534.707
2539.204
2543.700
2548.197
2552.693
2557.190
2561.686
2566.183
2570.679
2575.176
2579.672
2584.169
2588.665
2593.162
2597.658
2602.155
2606.651
2611.148
2615.644
2620.141
2624.637
2629.134
2633.630
2638.127
2642.623
2647.120
2651.616
2656.113
2660.609
2665.106
2669.602
2674.099
2678.595
2683.092
2687.588
2692.085
2696.581
2701.078
2705.574
2710.071
2714.567
2719.064
2723.560
2728.057
2732.553
2737.050
2741.546
2746.043
2750.539
2755.036
2759.532
2764.029
2768.525
2773.022
2777.518
2772.875
2768.232
2763.589
2758.946
2754.303
2749.660
2745.017
2740.374
2735.731
2731.088
2726.445
2721.802
2717.159
2712.516
2707.873
2703.230
2698.587
2693.944
2689.301
2684.658
2680.015
2675.372
2670.729
2666.086
2661.443
2656.800
2652.157
2647.514
2642.871
2638.228
2633.585
2628.942
2624.299
2619.656
2615.013
2610.370
2605.727
2601.084
2596.441
2591.798
2587.155
2582.512
2577.869
2573.226
2568.583
2563.940
2559.297
2554.654
2550.011
2545.368
2540.725
2536.082
2531.439
2526.796
2522.153
2517.510
2512.867
2508.224
2503.581
2498.938
2494.295
2489.652
2485.009
2480.366
2475.723
2471.080
2466.437
2461.794
2457.151
2452.508
2447.865
2443.222
2438.579
2433.936
2429.293
2424.650
2420.007
2415.364
2410.721
2406.078
2401.435
2396.792
2392.149
2387.506
2382.863
2378.220
2373.577
2368.934
2364.291
2359.648
2355.005
2350.362
2345.719
2341.076
2336.433
2331.790
2327.147
2322.504
2317.861
2313.218
2308.575
2303.932
2299.289
2294.646
2290.003
2285.360
2280.717
2276.074
2271.431
2266.788
2262.145
2257.502
2252.859
2248.216
2243.573
2238.930
2234.287
2229.644
2225.001
2220.358
2215.715
2211.072
2206.429
2201.786
2197.143
2192.500
2187.857
2183.214
2178.571
2173.928
2169.285
2164.642
2159.999
2155.356
2150.713
2146.070
2141.427
2136.784
2132.141
2127.498
2122.855
2118.212
2113.569
2108.926
2104.283
2099.640
2094.997
2090.354
2085.711
2081.068
2076.425
2071.782
2067.139
2062.496
2057.853
2053.210
2048.567
2043.924
2039.281
2034.638
2029.995
2025.352
2020.709
2016.066
2011.423
2006.780
2002.137
1997.494
1992.851
1988.208
1983.565
1978.922
1974.279
1969.636
1964.993
1960.350
1955.707
1951.064
1946.421
1941.778
1937.135
1932.492
1927.849
1923.206
1918.563
1913.920
1909.277
1904.634
1899.991
1895.348
1890.705
1886.062
1881.419
1876.776
1872.133
1867.490
1862.847
1858.204
1853.561
1848.918
1851.240
1853.561
1855.883
1858.204
1860.526
1862.847
1865.169
1867.490
1869.812
1872.133
1874.455
1876.776
1879.098
1881.419
1883.741
1886.062
1888.384
1890.705
1893.027
1895.348
1897.670
1899.991
1902.313
1904.634
1906.956
1909.277
1911.599
1913.920
1916.242
1918.563
1920.885
1923.206
1925.528
1927.849
1930.171
1932.492
1934.814
1937.135
1939.457
1941.778
1944.100
1946.421
1948.743
1951.064
1953.386
1955.707
1958.029
1960.350
1962.672
1964.993
1967.315
1969.636
1971.958
1974.279
1976.601
1978.922
1981.244
1983.565
1985.887
1988.208
1990.530
1992.851
1995.173
1997.494
1999.816
2002.137
2004.459
2006.780
2009.102
2011.423
2013.745
2016.066
2018.388
2020.709
2023.031
2025.352
2027.674
2029.995
2032.317
2034.638
2036.960
2039.281
2041.603
2043.924
2046.246
2048.567
2050.889
2053.210
2055.532
2057.853
2060.175
2062.496
2064.818
2067.139
2069.461
2071.782
2074.104
2076.425
2078.747
2081.068
2083.390
2085.711
2088.033
2090.354
2092.676
2094.997
2097.319
2099.640
2101.962
2104.283
2106.605
2108.926
2111.248
2113.569
2115.891
2118.212
2120.534
2122.855
2125.177
2127.498
2129.820
2132.141
2134.463
2136.784
2139.106
2141.427
2143.749
2146.070
2148.392
2150.713
2153.035
2155.356
2157.678
2159.999
2162.321
2164.642
2166.964
2169.285
2171.607
2173.928
2176.250
2178.571
2180.893
2183.214
2185.536
2187.857
2190.179
2192.500
2194.822
2197.143
2199.465
2201.786
2204.108
2206.429
2208.751
2211.072
2213.394
2215.715
2218.037
2220.358
2222.680
2225.001
2227.323
2229.644
2231.966
2234.287
2236.609
2238.930
2241.252
2243.573
2245.895
2248.216
2250.538
2252.859
2255.181
2257.502
2259.824
2262.145
2264.467
2266.788
2269.110
2271.431
2273.753
2276.074
2278.396
2280.717
2283.039
2285.360
2287.682
2290.003
2292.325
2294.646
2296.968
2299.289
2301.611
2303.932
2306.254
2308.575
2310.897
2313.218
2313.121
2313.023
2312.926
2312.828
2312.731
2312.633
2312.536
2312.438
2312.341
2312.243
2312.146
2312.048
2311.951
2311.853
2311.756
2311.658
2311.561
2311.463
2311.366
2311.268
2311.171
2311.073
2310.976
2310.878
2310.781
2310.683
2310.586
2310.488
2310.391
2310.293
2310.196
2310.098
2310.001
2309.903
2309.806
2309.708
2309.611
2309.513
2309.416
2309.318
2309.221
2309.123
2309.026
2308.928
2308.831
2308.733
2308.636
2308.538
2308.441
2308.343
2308.246
2308.148
2308.051
2307.953
2307.856
2307.758
2307.661
2307.563
2307.466
2307.368
2307.271
2307.173
2307.076
2306.978
2306.881
2306.783
2306.686
2306.588
2306.491
2306.393
2306.296
2306.198
2306.101
2306.003
2305.906
2305.808
2305.711
2305.613
2305.516
2305.418
2305.321
2305.223
2305.126
2305.028
2304.931
2304.833
2304.736
2304.638
2304.541
2304.443
2304.346
2304.248
2304.151
2304.053
2303.956
2303.858
2303.761
2303.663
2303.566
2303.468
2303.371
2303.273
2303.176
2303.078
2302.981
2302.883
2302.786
2302.688
2302.591
2302.493
2302.396
2302.298
2302.201
2302.103
2302.006
2301.908
2301.811
2301.713
2301.616
2301.518
2301.421
2301.323
2301.226
2301.128
2301.031
2300.933
2300.836
2300.738
2300.641
2300.543
2300.446
2300.348
2300.251
2300.153
2300.056
2299.958
2299.861
2299.763
2299.666
2299.568
2299.471
2299.373
2299.276
2299.178
2299.081
2298.983
2298.886
2298.788
2298.691
2298.593
2298.496
2298.398
2298.301
2298.203
2298.106
2298.008
2297.911
2297.813
2297.716
2297.618
2297.521
2297.423
2297.326
2297.228
2297.131
2297.033
2296.936
2296.838
2296.741
2296.643
2296.546
2296.448
2296.351
2296.253
2296.156
2296.058
2295.961
2295.863
2295.766
2295.668
2295.571
2295.473
2295.376
2295.278
2295.181
2295.083
2294.986
2294.888
2294.791
2294.693
2294.596
2294.498
2294.401
2294.303
2294.206
2294.108
2294.011
2293.913
2293.816
2293.718
2290.126
2286.533
2282.941
2279.348
2275.756
2272.163
2268.571
2264.978
2261.386
2257.793
2254.201
2250.608
2247.016
2243.423
2239.831
2236.238
2232.646
2229.053
2225.461
2221.868
2218.276
2214.683
2211.091
2207.498
2203.906
2200.313
2196.721
2193.128
2189.536
2185.943
2182.351
2178.758
2175.166
2171.573
2167.981
2164.388
2160.796
2157.203
2153.611
2150.018
2146.426
2142.833
2139.241
2135.648
2132.056
2128.463
2124.871
2121.278
2117.686
2114.093
2110.501
2106.908
2103.316
2099.723
2096.131
2092.538
2088.946
2085.353
2081.761
2078.168
2074.576
2070.983
2067.391
2063.798
2060.206
2056.613
2053.021
2049.428
2045.836
2042.243
2038.651
2035.058
2031.466
2027.873
2024.281
2020.688
2017.096
2013.503
2009.911
2006.318
2002.726
1999.133
1995.541
1991.948
1988.356
1984.763
1981.171
1977.578
1973.986
1970.393
1966.801
1963.208
1959.616
1956.023
1952.431
1948.838
1945.246
1941.653
1938.061
1934.468
1930.876
1927.283
1923.691
1920.098
1916.506
1912.913
1909.321
1905.728
1902.136
1898.543
1894.951
1891.358
1887.766
1884.173
1880.581
1876.988
1873.396
1869.803
1866.211
1862.618
1859.026
1855.433
1851.841
1848.248
1844.656
1841.063
1837.471
1833.878
1830.286
1826.693
1823.101
1819.508
1815.916
1812.323
1808.731
1805.138
1801.546
1797.953
1794.361
1790.768
1787.176
1783.583
1779.991
1776.398
1772.806
1769.213
1765.621
1762.028
1758.436
1754.843
1751.251
1747.658
1744.066
1740.473
1736.881
1733.288
1729.696
1726.103
1722.511
1718.918
1715.326
1711.733
1708.141
1704.548
1700.956
1697.363
1693.771
1690.178
1686.586
1682.993
1679.401
1675.808
1672.216
1668.623
1665.031
1661.438
1657.846
1654.253
1650.661
1647.068
1643.476
1639.883
1636.291
1632.698
1629.106
1625.513
1621.921
1618.328
1614.736
1611.143
1607.551
1603.958
1600.366
1596.773
1593.181
1589.588
1585.996
1582.403
1578.811
1575.218
1576.978
1578.737
1580.497
1582.256
1584.016
1585.775
1587.535
1589.294
1591.054
1592.813
1594.573
1596.332
1598.092
1599.851
1601.611
1603.370
1605.130
1606.889
1608.649
1610.408
1612.168
1613.927
1615.687
1617.446
1619.206
1620.965
1622.725
1624.484
1626.244
1628.003
1629.763
1631.522
1633.282
1635.041
1636.801
1638.560
1640.320
1642.079
1643.839
1645.598
1647.358
1649.117
1650.877
1652.636
1654.396
1656.155
1657.915
1659.674
1661.434
1663.193
1664.953
1666.712
1668.472
1670.231
1671.991
1673.750
1675.510
1677.269
1679.029
1680.788
1682.548
1684.307
1686.067
1687.826
1689.586
1691.345
1693.105
1694.864
1696.624
1698.383
1700.143
1701.902
1703.662
1705.421
1707.181
1708.940
1710.700
1712.459
1714.219
1715.978
1717.738
1719.497
1721.257
1723.016
1724.776
1726.535
1728.295
1730.054
1731.814
1733.573
1735.333
1737.092
1738.852
1740.611
1742.371
1744.130
1745.890
1747.649
1749.409
1751.168
1752.928
1754.687
1756.447
1758.206
1759.966
1761.725
1763.485
1765.244
1767.004
1768.763
1770.523
1772.282
1774.042
1775.801
1777.561
1779.320
1781.080
1782.839
1784.599
1786.358
1788.118
1789.877
1791.637
1793.396
1795.156
1796.915
1798.675
1800.434
1802.194
1803.953
1805.713
1807.472
1809.232
1810.991
1812.751
1814.510
1816.270
1818.029
1819.789
1821.548
1823.308
1825.067
1826.827
1828.586
1830.346
1832.105
1833.865
1835.624
1837.384
1839.143
1840.903
1842.662
1844.422
1846.181
1847.941
1849.700
1851.460
1853.219
1854.979
1856.738
1858.498
1860.257
1862.017
1863.776
1865.536
1867.295
1869.055
1870.814
1872.574
1874.333
1876.093
1877.852
1879.612
1881.371
1883.131
1884.890
1886.650
1888.409
1890.169
1891.928
1893.688
1895.447
1897.207
1898.966
1900.726
1902.485
1904.245
1906.004
1907.764
1909.523
1911.283
1913.042
1914.802
1916.561
1918.321
1920.080
1921.840
1923.599
1925.359
1927.118
1923.599
1920.080
1916.561
1913.042
1909.523
1906.004
1902.485
1898.966
1895.447
1891.928
1888.409
1884.890
1881.371
1877.852
1874.333
1870.814
1867.295
1863.776
1860.257
1856.738
1853.219
1849.700
1846.181
1842.662
1839.143
1835.624
1832.105
1828.586
1825.067
1821.548
1818.029
1814.510
1810.991
1807.472
1803.953
1800.434
1796.915
1793.396
1789.877
1786.358
1782.839
1779.320
1775.801
1772.282
1768.763
1765.244
1761.725
1758.206
1754.687
1751.168
1747.649
1744.130
1740.611
1737.092
1733.573
1730.054
1726.535
1723.016
1719.497
1715.978
1712.459
1708.940
1705.421
1701.902
1698.383
1694.864
1691.345
1687.826
1684.307
1680.788
1677.269
1673.750
1670.231
1666.712
1663.193
1659.674
1656.155
1652.636
1649.117
1645.598
1642.079
1638.560
1635.041
1631.522
1628.003
1624.484
1620.965
1617.446
1613.927
1610.408
1606.889
1603.370
1599.851
1596.332
1592.813
1589.294
1585.775
1582.256
1578.737
1575.218
1571.699
1568.180
1564.661
1561.142
1557.623
1554.104
1550.585
1547.066
1543.547
1540.028
1536.509
1532.990
1529.471
1525.952
1522.433
1518.914
1515.395
1511.876
1508.357
1504.838
1501.319
1497.800
1494.281
1490.762
1487.243
1483.724
1480.205
1476.686
1473.167
1469.648
1466.129
1462.610
1459.091
1455.572
1452.053
1448.534
1445.015
1441.496
1437.977
1434.458
1430.939
1427.420
1423.901
1420.382
1416.863
1413.344
1409.825
1406.306
1402.787
1399.268
1395.749
1392.230
1388.711
1385.192
1381.673
1378.154
1374.635
1371.116
1367.597
1364.078
1360.559
1357.040
1353.521
1350.002
1346.483
1342.964
1339.445
1335.926
1332.407
1328.888
1325.369
1321.850
1318.331
1314.812
1311.293
1307.774
1304.255
1300.736
1297.217
1293.698
1290.179
1286.660
1283.141
1279.622
1276.103
1272.584
1269.065
1265.546
1262.027
1258.508
1254.989
1251.470
1247.951
1244.432
1240.913
1237.394
1233.875
1230.356
1226.837
