286.170
288.858
291.546
294.234
296.922
299.610
302.298
304.986
307.674
310.362
313.050
315.738
318.426
321.114
323.802
326.490
329.178
331.866
334.554
337.242
339.930
342.618
345.306
347.994
350.682
353.370
356.058
358.746
361.434
364.122
366.810
369.498
372.186
374.874
377.562
380.250
382.938
385.626
388.314
391.002
393.690
396.378
399.066
401.754
404.442
407.130
409.818
412.506
415.194
417.882
420.570
423.258
425.946
428.634
431.322
434.010
436.698
439.386
442.074
444.762
447.450
450.138
452.826
455.514
458.202
460.890
463.578
466.266
468.954
471.642
474.330
477.018
479.706
482.394
485.082
487.770
490.458
493.146
495.834
498.522
501.210
503.898
506.586
509.274
511.962
514.650
517.338
520.026
522.714
525.402
528.090
530.778
533.466
536.154
538.842
541.530
544.218
546.906
549.594
552.282
554.970
557.658
560.346
563.034
565.722
568.410
571.098
573.786
576.474
579.162
581.850
584.538
587.226
589.914
592.602
595.290
597.978
600.666
603.354
606.042
608.730
611.418
614.106
616.794
619.482
622.170
624.858
627.546
630.234
632.922
635.610
638.298
640.986
643.674
646.362
649.050
651.738
654.426
657.114
659.802
662.490
665.178
667.866
670.554
673.242
675.930
678.618
681.306
683.994
686.682
689.370
692.058
694.746
697.434
700.122
702.810
705.498
708.186
710.874
713.562
716.250
718.938
721.626
724.314
727.002
729.690
732.378
735.066
737.754
740.442
743.130
745.818
748.506
751.194
753.882
756.570
759.258
761.946
764.634
767.322
770.010
772.698
775.386
778.074
780.762
783.450
786.138
788.826
791.514
794.202
796.890
799.578
802.266
804.954
807.642
810.330
813.018
815.706
818.394
821.082
823.770
826.336
828.902
831.468
834.034
836.600
839.166
841.732
844.298
846.864
849.430
851.996
854.562
857.128
859.694
862.260
864.826
867.392
869.958
872.524
875.090
877.656
880.222
882.788
885.354
887.920
890.486
893.052
895.618
898.184
900.750
903.316
905.882
908.448
911.014
913.580
916.146
918.712
921.278
923.844
926.410
928.976
931.542
934.108
936.674
939.240
941.806
944.372
946.938
949.504
952.070
954.636
957.202
959.768
962.334
964.900
967.466
970.032
972.598
975.164
977.730
980.296
982.862
985.428
987.994
990.560
993.126
995.692
998.258
1000.824
1003.390
1005.956
1008.522
1011.088
1013.654
1016.220
1018.786
1021.352
1023.918
1026.484
1029.050
1031.616
1034.182
1036.748
1039.314
1041.880
1044.446
1047.012
1049.578
1052.144
1054.710
1057.276
1059.842
1062.408
1064.974
1067.540
1070.106
1072.672
1075.238
1077.804
1080.370
1082.936
1085.502
1088.068
1090.634
1093.200
1095.766
1098.332
1100.898
1103.464
1106.030
1108.596
1111.162
1113.728
1116.294
1118.860
1121.426
1123.992
1126.558
1129.124
1131.690
1134.256
1136.822
1139.388
1141.954
1144.520
1147.086
1149.652
1152.218
1154.784
1157.350
1159.916
1162.482
1165.048
1167.614
1170.180
1172.746
1175.312
1177.878
1180.444
1183.010
1185.576
1188.142
1190.708
1193.274
1195.840
1198.406
1200.972
1203.538
1206.104
1208.670
1211.236
1213.802
1216.368
1218.934
1221.500
1224.066
1226.632
1229.198
1231.764
1234.330
1236.896
1239.462
1242.028
1244.594
1247.160
1249.726
1252.292
1254.858
1257.424
1259.990
1262.556
1265.122
1267.688
1270.254
1272.820
1275.386
1277.952
1280.518
1283.084
1285.650
1288.216
1290.782
1293.348
1295.914
1298.480
1301.046
1303.612
1306.178
1308.744
1311.310
1313.876
1316.442
1319.008
1321.574
1324.140
1326.706
1329.272
1331.838
1334.404
1336.970
1339.389
1341.809
1344.228
1346.648
1349.067
1351.487
1353.906
1356.326
1358.745
1361.165
1363.584
1366.004
1368.423
1370.843
1373.262
1375.682
1378.101
1380.521
1382.940
1385.360
1387.779
1390.199
1392.618
1395.038
1397.457
1399.877
1402.296
1404.716
1407.135
1409.555
1411.974
1414.394
1416.813
1419.233
1421.652
1424.072
1426.491
1428.911
1431.330
1433.750
1436.169
1438.589
1441.008
1443.428
1445.847
1448.267
1450.686
1453.106
1455.525
1457.945
1460.364
1462.784
1465.203
1467.623
1470.042
1472.462
1474.881
1477.301
1479.720
1482.140
1484.559
1486.979
1489.398
1491.818
1494.237
1496.657
1499.076
1501.496
1503.915
1506.335
1508.754
1511.174
1513.593
1516.013
1518.432
1520.852
1523.271
1525.691
1528.110
1530.530
1532.949
1535.369
1537.788
1540.208
1542.627
1545.047
1547.466
1549.886
1552.305
1554.725
1557.144
1559.564
1561.983
1564.403
1566.822
1569.242
1571.661
1574.081
1576.500
1578.920
1581.339
1583.759
1586.178
1588.598
1591.017
1593.437
1595.856
1598.276
1600.695
1603.115
1605.534
1607.954
1610.373
1612.793
1615.212
1617.632
1620.051
1622.471
1624.890
1627.310
1629.729
1632.149
1634.568
1636.988
1639.407
1641.827
1644.246
1646.666
1649.085
1651.505
1653.924
1656.344
1658.763
1661.183
1663.602
1666.022
1668.441
1670.861
1673.280
1675.700
1678.119
1680.539
1682.958
1685.378
1687.797
1690.217
1692.636
1695.056
1697.475
1699.895
1702.314
1704.734
1707.153
1709.573
1711.992
1714.412
1716.831
1719.251
1721.670
1724.090
1726.509
1728.929
1731.348
1733.768
1736.187
1738.607
1741.026
1743.446
1745.865
1748.285
1750.704
1753.124
1755.543
1757.963
1760.382
1762.802
1765.221
1767.641
1770.060
1772.480
1774.899
1777.319
1779.738
1782.158
1784.577
1786.997
1789.416
1791.836
1794.255
1796.675
1799.094
1801.514
1803.933
1806.353
1808.772
1811.192
1813.611
1816.031
1818.450
1820.870
1821.676
1822.483
1823.289
1824.096
1824.902
1825.709
1826.515
1827.322
1828.128
1828.935
1829.741
1830.548
1831.354
1832.161
1832.967
1833.774
1834.580
1835.387
1836.193
1837.000
1837.806
1838.613
1839.419
1840.226
1841.032
1841.839
1842.645
1843.452
1844.258
1845.065
1845.871
1846.678
1847.484
1848.291
1849.097
1849.904
1850.710
1851.517
1852.323
1853.130
1853.936
1854.743
1855.549
1856.356
1857.162
1857.969
1858.775
1859.582
1860.388
1861.195
1862.001
1862.808
1863.614
1864.421
1865.227
1866.034
1866.840
1867.647
1868.453
1869.260
1870.066
1870.873
1871.679
1872.486
1873.292
1874.099
1874.905
1875.712
1876.518
1877.325
1878.131
1878.938
1879.744
1880.551
1881.357
1882.164
1882.970
1883.777
1884.583
1885.390
1886.196
1887.003
1887.809
1888.616
1889.422
1890.229
1891.035
1891.842
1892.648
1893.455
1894.261
1895.068
1895.874
1896.681
1897.487
1898.294
1899.100
1899.907
1900.713
1901.520
1902.326
1903.133
1903.939
1904.746
1905.552
1906.359
1907.165
1907.972
1908.778
1909.585
1910.391
1911.198
1912.004
1912.811
1913.617
1914.424
1915.230
1916.037
1916.843
1917.650
1918.456
1919.263
1920.069
1920.876
1921.682
1922.489
1923.295
1924.102
1924.908
1925.715
1926.521
1927.328
1928.134
1928.941
1929.747
1930.554
1931.360
1932.167
1932.973
1933.780
1934.586
1935.393
1936.199
1937.006
1937.812
1938.619
1939.425
1940.232
1941.038
1941.845
1942.651
1943.458
1944.264
1945.071
1945.877
1946.684
1947.490
1948.297
1949.103
1949.910
1950.716
1951.523
1952.329
1953.136
1953.942
1954.749
1955.555
1956.362
1957.168
1957.975
1958.781
1959.588
1960.394
1961.201
1962.007
1962.814
1963.620
1964.427
1965.233
1966.040
1966.846
1967.653
1968.459
1969.266
1970.072
1970.879
1971.685
1972.492
1973.298
1974.105
1974.911
1975.718
1976.524
1977.331
1978.137
1978.944
1979.750
1980.557
1981.363
1982.170
1983.245
1984.320
1985.395
1986.470
1987.545
1988.620
1989.695
1990.770
1991.845
1992.920
1993.995
1995.070
1996.145
1997.220
1998.295
1999.370
2000.445
2001.520
2002.595
2003.670
2004.745
2005.820
2006.895
2007.970
2009.045
2010.120
2011.195
2012.270
2013.345
2014.420
2015.495
2016.570
2017.645
2018.720
2019.795
2020.870
2021.945
2023.020
2024.095
2025.170
2026.245
2027.320
2028.395
2029.470
2030.545
2031.620
2032.695
2033.770
2034.845
2035.920
2036.995
2038.070
2039.145
2040.220
2041.295
2042.370
2043.445
2044.520
2045.595
2046.670
2047.745
2048.820
2049.895
2050.970
2052.045
2053.120
2054.195
2055.270
2056.345
2057.420
2058.495
2059.570
2060.645
2061.720
2062.795
2063.870
2064.945
2066.020
2067.095
2068.170
2069.245
2070.320
2071.395
2072.470
2073.545
2074.620
2075.695
2076.770
2077.845
2078.920
2079.995
2081.070
2082.145
2083.220
2084.295
2085.370
2086.445
2087.520
2088.595
2089.670
2090.745
2091.820
2092.895
2093.970
2095.045
2096.120
2097.195
2098.270
2099.345
2100.420
2101.495
2102.570
2103.645
2104.720
2105.795
2106.870
2107.945
2109.020
2110.095
2111.170
2112.245
2113.320
2114.395
2115.470
2116.545
2117.620
2118.695
2119.770
2120.845
2121.920
2122.995
2124.070
2125.145
2126.220
2127.295
2128.370
2129.445
2130.520
2131.595
2132.670
2133.745
2134.820
2135.895
2136.970
2138.045
2139.120
2140.195
2141.270
2142.345
2143.420
2144.495
2145.570
2146.645
2147.720
2148.795
2149.870
2150.945
2152.020
2153.095
2154.170
2155.245
2156.320
2157.395
2158.470
2159.545
2160.620
2161.695
2162.770
2163.845
2164.920
2165.995
2167.070
2168.145
2169.220
2170.295
2171.370
2172.445
2173.520
2174.595
2175.670
2176.745
2177.820
2178.895
2179.970
2181.045
2182.120
2183.195
2184.270
2185.345
2186.420
2187.495
2188.570
2189.645
2190.720
2191.795
2192.870
2193.945
2195.020
2196.095
2197.170
2196.779
2196.388
2195.997
2195.606
2195.215
2194.824
2194.433
2194.042
2193.651
2193.260
2192.869
2192.478
2192.087
2191.696
2191.305
2190.914
2190.523
2190.132
2189.741
2189.350
2188.959
2188.568
2188.177
2187.786
2187.395
2187.004
2186.613
2186.222
2185.831
2185.440
2185.049
2184.658
2184.267
2183.876
2183.485
2183.094
2182.703
2182.312
2181.921
2181.530
2181.139
2180.748
2180.357
2179.966
2179.575
2179.184
2178.793
2178.402
2178.011
2177.620
2177.229
2176.838
2176.447
2176.056
2175.665
2175.274
2174.883
2174.492
2174.101
2173.710
2173.319
2172.928
2172.537
2172.146
2171.755
2171.364
2170.973
2170.582
2170.191
2169.800
2169.409
2169.018
2168.627
2168.236
2167.845
2167.454
2167.063
2166.672
2166.281
2165.890
2165.499
2165.108
2164.717
2164.326
2163.935
2163.544
2163.153
2162.762
2162.371
2161.980
2161.589
2161.198
2160.807
2160.416
2160.025
2159.634
2159.243
2158.852
2158.461
2158.070
2157.679
2157.288
2156.897
2156.506
2156.115
2155.724
2155.333
2154.942
2154.551
2154.160
2153.769
2153.378
2152.987
2152.596
2152.205
2151.814
2151.423
2151.032
2150.641
2150.250
2149.859
2149.468
2149.077
2148.686
2148.295
2147.904
2147.513
2147.122
2146.731
2146.340
2145.949
2145.558
2145.167
2144.776
2144.385
2143.994
2143.603
2143.212
2142.821
2142.430
2142.039
2141.648
2141.257
2140.866
2140.475
2140.084
2139.693
2139.302
2138.911
2138.520
2138.129
2137.738
2137.347
2136.956
2136.565
2136.174
2135.783
2135.392
2135.001
2134.610
2134.219
2133.828
2133.437
2133.046
2132.655
2132.264
2131.873
2131.482
2131.091
2130.700
2130.309
2129.918
2129.527
2129.136
2128.745
2128.354
2127.963
2127.572
2127.181
2126.790
2126.399
2126.008
2125.617
2125.226
2124.835
2124.444
2124.053
2123.662
2123.271
2122.880
2122.489
2122.098
2121.707
2121.316
2120.925
2120.534
2120.143
2119.752
2119.361
2118.970
2118.237
2117.504
2116.771
2116.038
2115.305
2114.572
2113.839
2113.106
2112.373
2111.640
2110.907
2110.174
2109.441
2108.708
2107.975
2107.242
2106.509
2105.776
2105.043
2104.310
2103.577
2102.844
2102.111
2101.378
2100.645
2099.912
2099.179
2098.446
2097.713
2096.980
2096.247
2095.514
2094.781
2094.048
2093.315
2092.582
2091.849
2091.116
2090.383
2089.650
2088.917
2088.184
2087.451
2086.718
2085.985
2085.252
2084.519
2083.786
2083.053
2082.320
2081.587
2080.854
2080.121
2079.388
2078.655
2077.922
2077.189
2076.456
2075.723
2074.990
2074.257
2073.524
2072.791
2072.058
2071.325
2070.592
2069.859
2069.126
2068.393
2067.660
2066.927
2066.194
2065.461
2064.728
2063.995
2063.262
2062.529
2061.796
2061.063
2060.330
2059.597
2058.864
2058.131
2057.398
2056.665
2055.932
2055.199
2054.466
2053.733
2053.000
2052.267
2051.534
2050.801
2050.068
2049.335
2048.602
2047.869
2047.136
2046.403
2045.670
2044.937
2044.204
2043.471
2042.738
2042.005
2041.272
2040.539
2039.806
2039.073
2038.340
2037.607
2036.874
2036.141
2035.408
2034.675
2033.942
2033.209
2032.476
2031.743
2031.010
2030.277
2029.544
2028.811
2028.078
2027.345
2026.612
2025.879
2025.146
2024.413
2023.680
2022.947
2022.214
2021.481
2020.748
2020.015
2019.282
2018.549
2017.816
2017.083
2016.350
2015.617
2014.884
2014.151
2013.418
2012.685
2011.952
2011.219
2010.486
2009.753
2009.020
2008.287
2007.554
2006.821
2006.088
2005.355
2004.622
2003.889
2003.156
2002.423
2001.690
2000.957
2000.224
1999.491
1998.758
1998.025
1997.292
1996.559
1995.826
1995.093
1994.360
1993.627
1992.894
1992.161
1991.428
1990.695
1989.962
1989.229
1988.496
1987.763
1987.030
1986.297
1985.564
1984.831
1984.098
1983.365
1982.632
1981.899
1981.166
1980.433
1979.700
1978.967
1978.234
1977.501
1976.768
1976.035
1975.302
1974.569
1973.836
1973.103
1972.370
1970.464
1968.558
1966.652
1964.746
1962.840
1960.934
1959.028
1957.122
1955.216
1953.310
1951.404
1949.498
1947.592
1945.686
1943.780
1941.874
1939.968
1938.062
1936.156
1934.250
1932.344
1930.438
1928.532
1926.626
1924.720
1922.814
1920.908
1919.002
1917.096
1915.190
1913.284
1911.378
1909.472
1907.566
1905.660
1903.754
1901.848
1899.942
1898.036
1896.130
1894.224
1892.318
1890.412
1888.506
1886.600
1884.694
1882.788
1880.882
1878.976
1877.070
1875.164
1873.258
1871.352
1869.446
1867.540
1865.634
1863.728
1861.822
1859.916
1858.010
1856.104
1854.198
1852.292
1850.386
1848.480
1846.574
1844.668
1842.762
1840.856
1838.950
1837.044
1835.138
1833.232
1831.326
1829.420
1827.514
1825.608
1823.702
1821.796
1819.890
1817.984
1816.078
1814.172
1812.266
1810.360
1808.454
1806.548
1804.642
1802.736
1800.830
1798.924
1797.018
1795.112
1793.206
1791.300
1789.394
1787.488
1785.582
1783.676
1781.770
1779.864
1777.958
1776.052
1774.146
1772.240
1770.334
1768.428
1766.522
1764.616
1762.710
1760.804
1758.898
1756.992
1755.086
1753.180
1751.274
1749.368
1747.462
1745.556
1743.650
1741.744
1739.838
1737.932
1736.026
1734.120
1732.214
1730.308
1728.402
1726.496
1724.590
1722.684
1720.778
1718.872
1716.966
1715.060
1713.154
1711.248
1709.342
1707.436
1705.530
1703.624
1701.718
1699.812
1697.906
1696.000
1694.094
1692.188
1690.282
1688.376
1686.470
1684.564
1682.658
1680.752
1678.846
1676.940
1675.034
1673.128
1671.222
1669.316
1667.410
1665.504
1663.598
1661.692
1659.786
1657.880
1655.974
1654.068
1652.162
1650.256
1648.350
1646.444
1644.538
1642.632
1640.726
1638.820
1636.914
1635.008
1633.102
1631.196
1629.290
1627.384
1625.478
1623.572
1621.666
1619.760
1617.854
1615.948
1614.042
1612.136
1610.230
1608.324
1606.418
1604.512
1602.606
1600.700
1598.794
1596.888
1594.982
1593.076
1591.170
1590.950
1590.730
1590.510
1590.290
1590.070
1589.850
1589.630
1589.410
1589.190
1588.970
1588.750
1588.530
1588.310
1588.090
1587.870
1587.650
1587.430
1587.210
1586.990
1586.770
1586.550
1586.330
1586.110
1585.890
1585.670
1585.450
1585.230
1585.010
1584.790
1584.570
1584.350
1584.130
1583.910
1583.690
1583.470
1583.250
1583.030
1582.810
1582.590
1582.370
1582.150
1581.930
1581.710
1581.490
1581.270
1581.050
1580.830
1580.610
1580.390
1580.170
1579.950
1579.730
1579.510
1579.290
1579.070
1578.850
1578.630
1578.410
1578.190
1577.970
1577.750
1577.530
1577.310
1577.090
1576.870
1576.650
1576.430
1576.210
1575.990
1575.770
1575.550
1575.330
1575.110
1574.890
1574.670
1574.450
1574.230
1574.010
1573.790
1573.570
1573.350
1573.130
1572.910
1572.690
1572.470
1572.250
1572.030
1571.810
1571.590
1571.370
1571.150
1570.930
1570.710
1570.490
1570.270
1570.050
1569.830
1569.610
1569.390
1569.170
1568.950
1568.730
1568.510
1568.290
1568.070
1567.850
1567.630
1567.410
1567.190
1566.970
1566.750
1566.530
1566.310
1566.090
1565.870
1565.650
1565.430
1565.210
1564.990
1564.770
1564.550
1564.330
1564.110
1563.890
1563.670
1563.450
1563.230
1563.010
1562.790
1562.570
1562.350
1562.130
1561.910
1561.690
1561.470
1561.250
1561.030
1560.810
1560.590
1560.370
1560.150
1559.930
1559.710
1559.490
1559.270
1559.050
1558.830
1558.610
1558.390
1558.170
1557.950
1557.730
1557.510
1557.290
1557.070
1556.850
1556.630
1556.410
1556.190
1555.970
1555.750
1555.530
1555.310
1555.090
1554.870
1554.650
1554.430
1554.210
1553.990
1553.770
1553.550
1553.330
1553.110
1552.890
1552.670
1552.450
1552.230
1552.010
1551.790
1551.570
1551.350
1551.130
1550.910
1550.690
1550.470
1550.250
1550.030
1549.810
1549.590
1549.370
1549.150
1548.930
1548.710
1548.490
1548.270
1548.050
1547.830
1547.610
1547.390
1547.170
1550.444
1553.719
1556.993
1560.268
1563.542
1566.817
1570.091
1573.366
1576.640
1579.915
1583.189
1586.464
1589.738
1593.013
1596.287
1599.562
1602.836
1606.111
1609.385
1612.660
1615.934
1619.209
1622.483
1625.758
1629.032
1632.307
1635.581
1638.856
1642.130
1645.405
1648.679
1651.954
1655.228
1658.503
1661.777
1665.052
1668.326
1671.601
1674.875
1678.150
1681.424
1684.699
1687.973
1691.248
1694.522
1697.797
1701.071
1704.346
1707.620
1710.895
1714.169
1717.444
1720.718
1723.993
1727.267
1730.542
1733.816
1737.091
1740.365
1743.640
1746.914
1750.189
1753.463
1756.738
1760.012
1763.287
1766.561
1769.836
1773.110
1776.385
1779.659
1782.934
1786.208
1789.483
1792.757
1796.032
1799.306
1802.581
1805.855
1809.130
1812.404
1815.679
1818.953
1822.228
1825.502
1828.777
1832.051
1835.326
1838.600
1841.875
1845.149
1848.424
1851.698
1854.973
1858.247
1861.522
1864.796
1868.071
1871.345
1874.620
1877.894
1881.169
1884.443
1887.718
1890.992
1894.267
1897.541
1900.816
1904.090
1907.365
1910.639
1913.914
1917.188
1920.463
1923.737
1927.012
1930.286
1933.561
1936.835
1940.110
1943.384
1946.659
1949.933
1953.208
1956.482
1959.757
1963.031
1966.306
1969.580
1972.855
1976.129
1979.404
1982.678
1985.953
1989.227
1992.502
1995.776
1999.051
2002.325
2005.600
2008.874
2012.149
2015.423
2018.698
2021.972
2025.247
2028.521
2031.796
2035.070
2038.345
2041.619
2044.894
2048.168
2051.443
2054.717
2057.992
2061.266
2064.541
2067.815
2071.090
2074.364
2077.639
2080.913
2084.188
2087.462
2090.737
2094.011
2097.286
2100.560
2103.835
2107.109
2110.384
2113.658
2116.933
2120.207
2123.482
2126.756
2130.031
2133.305
2136.580
2139.854
2143.129
2146.403
2149.678
2152.952
2156.227
2159.501
2162.776
2166.050
2169.325
2172.599
2175.874
2179.148
2182.423
2185.697
2188.972
2192.246
2195.521
2198.795
