1453.499
1455.967
1458.435
1460.903
1463.371
1465.839
1468.307
1470.775
1473.243
1475.711
1478.179
1480.647
1483.115
1485.583
1488.051
1490.519
1492.987
1495.455
1497.923
1500.391
1502.859
1505.327
1507.795
1510.263
1512.731
1515.199
1517.667
1520.135
1522.603
1525.071
1527.539
1530.007
1532.475
1534.943
1537.411
1539.879
1542.347
1544.815
1547.283
1549.751
1552.219
1554.687
1557.155
1559.623
1562.091
1564.559
1567.027
1569.495
1571.963
1574.431
1576.899
1579.367
1581.835
1584.303
1586.771
1589.239
1591.707
1594.175
1596.643
1599.111
1601.579
1604.047
1606.515
1608.983
1611.451
1613.919
1616.387
1618.855
1621.323
1623.791
1626.259
1628.727
1631.195
1633.663
1636.131
1638.599
1641.067
1643.535
1646.003
1648.471
1650.939
1653.407
1655.875
1658.343
1660.811
1663.279
1665.747
1668.215
1670.683
1673.151
1675.619
1678.087
1680.555
1683.023
1685.491
1687.959
1690.427
1692.895
1695.363
1697.831
1700.299
1702.767
1705.235
1707.703
1710.171
1712.639
1715.107
1717.575
1720.043
1722.511
1724.979
1727.447
1729.915
1732.383
1734.851
1737.319
1739.787
1742.255
1744.723
1747.191
1749.659
1752.127
1754.595
1757.063
1759.531
1761.999
1764.467
1766.935
1769.403
1771.871
1774.339
1776.807
1779.275
1781.743
1784.211
1786.679
1789.147
1791.615
1794.083
1796.551
1799.019
1801.487
1803.955
1806.423
1808.891
1811.359
1813.827
1816.295
1818.763
1821.231
1823.699
1826.167
1828.635
1831.103
1833.571
1836.039
1838.507
1840.975
1843.443
1845.911
1848.379
1850.847
1853.315
1855.783
1858.251
1860.719
1863.187
1865.655
1868.123
1870.591
1873.059
1875.527
1877.995
1880.463
1882.931
1885.399
1887.867
1890.335
1892.803
1895.271
1897.739
1900.207
1902.675
1905.143
1907.611
1910.079
1912.547
1915.015
1917.483
1919.951
1922.419
1924.887
1927.355
1929.823
1932.291
1934.759
1937.227
1939.695
1942.163
1944.631
1947.099
1946.684
1946.268
1945.853
1945.437
1945.022
1944.606
1944.191
1943.775
1943.360
1942.944
1942.529
1942.113
1941.698
1941.282
1940.867
1940.451
1940.036
1939.620
1939.205
1938.789
1938.374
1937.958
1937.543
1937.127
1936.712
1936.296
1935.881
1935.465
1935.050
1934.634
1934.219
1933.803
1933.388
1932.972
1932.557
1932.141
1931.726
1931.310
1930.895
1930.479
1930.064
1929.648
1929.233
1928.817
1928.402
1927.986
1927.571
1927.155
1926.740
1926.324
1925.909
1925.493
1925.078
1924.662
1924.247
1923.831
1923.416
1923.000
1922.585
1922.169
1921.754
1921.338
1920.923
1920.507
1920.092
1919.676
1919.261
1918.845
1918.430
1918.014
1917.599
1917.183
1916.768
1916.352
1915.937
1915.521
1915.106
1914.690
1914.275
1913.859
1913.444
1913.028
1912.613
1912.197
1911.782
1911.366
1910.951
1910.535
1910.120
1909.704
1909.289
1908.873
1908.458
1908.042
1907.627
1907.211
1906.796
1906.380
1905.965
1905.549
1905.134
1904.718
1904.303
1903.887
1903.472
1903.056
1902.641
1902.225
1901.810
1901.394
1900.979
1900.563
1900.148
1899.732
1899.317
1898.901
1898.486
1898.070
1897.655
1897.239
1896.824
1896.408
1895.993
1895.577
1895.162
1894.746
1894.331
1893.915
1893.500
1893.084
1892.669
1892.253
1891.838
1891.422
1891.007
1890.591
1890.176
1889.760
1889.345
1888.929
1888.514
1888.098
1887.683
1887.267
1886.852
1886.436
1886.021
1885.605
1885.190
1884.774
1884.359
1883.943
1883.528
1883.112
1882.697
1882.281
1881.866
1881.450
1881.035
1880.619
1880.204
1879.788
1879.373
1878.957
1878.542
1878.126
1877.711
1877.295
1876.880
1876.464
1876.049
1875.633
1875.218
1874.802
1874.387
1873.971
1873.556
1873.140
1872.725
1872.309
1871.894
1871.478
1871.063
1870.647
1870.232
1869.816
1869.401
1868.985
1868.570
1868.154
1867.739
1867.323
1866.908
1866.492
1866.077
1865.661
1865.246
1864.830
1864.415
1863.999
1868.496
1872.992
1877.489
1881.985
1886.482
1890.978
1895.475
1899.971
1904.468
1908.964
1913.461
1917.957
1922.454
1926.950
1931.447
1935.943
1940.440
1944.936
1949.433
1953.929
1958.426
1962.922
1967.419
1971.915
1976.412
1980.908
1985.405
1989.901
1994.398
1998.894
2003.391
2007.887
2012.384
2016.880
2021.377
2025.873
2030.370
2034.866
2039.363
2043.859
2048.356
2052.852
2057.349
2061.845
2066.342
2070.838
2075.335
2079.831
2084.328
2088.824
2093.321
2097.817
2102.314
2106.810
2111.307
2115.803
2120.300
2124.796
2129.293
2133.789
2138.286
2142.782
2147.279
2151.775
2156.272
2160.768
2165.265
2169.761
2174.258
2178.754
2183.251
2187.747
2192.244
2196.740
2201.237
2205.733
2210.230
2214.726
2219.223
2223.719
2228.216
2232.712
2237.209
2241.705
2246.202
2250.698
2255.195
2259.691
2264.188
2268.684
2273.181
2277.677
2282.174
2286.670
2291.167
2295.663
2300.160
2304.656
2309.153
2313.649
2318.146
2322.642
2327.139
2331.635
2336.132
2340.628
2345.125
2349.621
2354.118
2358.614
2363.111
2367.607
2372.104
2376.600
2381.097
2385.593
2390.090
2394.586
2399.083
2403.579
2408.076
2412.572
2417.069
2421.565
2426.062
2430.558
2435.055
2439.551
2444.048
2448.544
2453.041
2457.537
2462.034
2466.530
2471.027
2475.523
2480.020
2484.516
2489.013
2493.509
2498.006
2502.502
2506.999
2511.495
2515.992
2520.488
2524.985
2529.481
2533.978
2538.474
2542.971
2547.467
2551.964
2556.460
2560.957
2565.453
2569.950
2574.446
2578.943
2583.439
2587.936
2592.432
2596.929
2601.425
2605.922
2610.418
2614.915
2619.411
2623.908
2628.404
2632.901
2637.397
2641.894
2646.390
2650.887
2655.383
2659.880
2664.376
2668.873
2673.369
2677.866
2682.362
2686.859
2691.355
2695.852
2700.348
2704.845
2709.341
2713.838
2718.334
2722.831
2727.327
2731.824
2736.320
2740.817
2745.313
2749.810
2754.306
2758.803
2763.299
2758.656
2754.013
2749.370
2744.727
2740.084
2735.441
2730.798
2726.155
2721.512
2716.869
2712.226
2707.583
2702.940
2698.297
2693.654
2689.011
2684.368
2679.725
2675.082
2670.439
2665.796
2661.153
2656.510
2651.867
2647.224
2642.581
2637.938
2633.295
2628.652
2624.009
2619.366
2614.723
2610.080
2605.437
2600.794
2596.151
2591.508
2586.865
2582.222
2577.579
2572.936
2568.293
2563.650
2559.007
2554.364
2549.721
2545.078
2540.435
2535.792
2531.149
2526.506
2521.863
2517.220
2512.577
2507.934
2503.291
2498.648
2494.005
2489.362
2484.719
2480.076
2475.433
2470.790
2466.147
2461.504
2456.861
2452.218
2447.575
2442.932
2438.289
2433.646
2429.003
2424.360
2419.717
2415.074
2410.431
2405.788
2401.145
2396.502
2391.859
2387.216
2382.573
2377.930
2373.287
2368.644
2364.001
2359.358
2354.715
2350.072
2345.429
2340.786
2336.143
2331.500
2326.857
2322.214
2317.571
2312.928
2308.285
2303.642
2298.999
2294.356
2289.713
2285.070
2280.427
2275.784
2271.141
2266.498
2261.855
2257.212
2252.569
2247.926
2243.283
2238.640
2233.997
2229.354
2224.711
2220.068
2215.425
2210.782
2206.139
2201.496
2196.853
2192.210
2187.567
2182.924
2178.281
2173.638
2168.995
2164.352
2159.709
2155.066
2150.423
2145.780
2141.137
2136.494
2131.851
2127.208
2122.565
2117.922
2113.279
2108.636
2103.993
2099.350
2094.707
2090.064
2085.421
2080.778
2076.135
2071.492
2066.849
2062.206
2057.563
2052.920
2048.277
2043.634
2038.991
2034.348
2029.705
2025.062
2020.419
2015.776
2011.133
2006.490
2001.847
1997.204
1992.561
1987.918
1983.275
1978.632
1973.989
1969.346
1964.703
1960.060
1955.417
1950.774
1946.131
1941.488
1936.845
1932.202
1927.559
1922.916
1918.273
1913.630
1908.987
1904.344
1899.701
1895.058
1890.415
1885.772
1881.129
1876.486
1871.843
1867.200
1862.557
1857.914
1853.271
1848.628
1843.985
1839.342
1834.699
1837.021
1839.342
1841.664
1843.985
1846.307
1848.628
1850.950
1853.271
1855.593
1857.914
1860.236
1862.557
1864.879
1867.200
1869.522
1871.843
1874.165
1876.486
1878.808
1881.129
1883.451
1885.772
1888.094
1890.415
1892.737
1895.058
1897.380
1899.701
1902.023
1904.344
1906.666
1908.987
1911.309
1913.630
1915.952
1918.273
1920.595
1922.916
1925.238
1927.559
1929.881
1932.202
1934.524
1936.845
1939.167
1941.488
1943.810
1946.131
1948.453
1950.774
1953.096
1955.417
1957.739
1960.060
1962.382
1964.703
1967.025
1969.346
1971.668
1973.989
1976.311
1978.632
1980.954
1983.275
1985.597
1987.918
1990.240
1992.561
1994.883
1997.204
1999.526
2001.847
2004.169
2006.490
2008.812
2011.133
2013.455
2015.776
2018.098
2020.419
2022.741
2025.062
2027.384
2029.705
2032.027
2034.348
2036.670
2038.991
2041.313
2043.634
2045.956
2048.277
2050.599
2052.920
2055.242
2057.563
2059.885
2062.206
2064.528
2066.849
2069.171
2071.492
2073.814
2076.135
2078.457
2080.778
2083.100
2085.421
2087.743
2090.064
2092.386
2094.707
2097.029
2099.350
2101.672
2103.993
2106.315
2108.636
2110.958
2113.279
2115.601
2117.922
2120.244
2122.565
2124.887
2127.208
2129.530
2131.851
2134.173
2136.494
2138.816
2141.137
2143.459
2145.780
2148.102
2150.423
2152.745
2155.066
2157.388
2159.709
2162.031
2164.352
2166.674
2168.995
2171.317
2173.638
2175.960
2178.281
2180.603
2182.924
2185.246
2187.567
2189.889
2192.210
2194.532
2196.853
2199.175
2201.496
2203.818
2206.139
2208.461
2210.782
2213.104
2215.425
2217.747
2220.068
2222.390
2224.711
2227.033
2229.354
2231.676
2233.997
2236.319
2238.640
2240.962
2243.283
2245.605
2247.926
2250.248
2252.569
2254.891
2257.212
2259.534
2261.855
2264.177
2266.498
2268.820
2271.141
2273.463
2275.784
2278.106
2280.427
2282.749
2285.070
2287.392
2289.713
2292.035
2294.356
2296.678
2298.999
2298.902
2298.804
2298.707
2298.609
2298.512
2298.414
2298.317
2298.219
2298.122
2298.024
2297.927
2297.829
2297.732
2297.634
2297.537
2297.439
2297.342
2297.244
2297.147
2297.049
2296.952
2296.854
2296.757
2296.659
2296.562
2296.464
2296.367
2296.269
2296.172
2296.074
2295.977
2295.879
2295.782
2295.684
2295.587
2295.489
2295.392
2295.294
2295.197
2295.099
2295.002
2294.904
2294.807
2294.709
2294.612
2294.514
2294.417
2294.319
2294.222
2294.124
2294.027
2293.929
2293.832
2293.734
2293.637
2293.539
2293.442
2293.344
2293.247
2293.149
2293.052
2292.954
2292.857
2292.759
2292.662
2292.564
2292.467
2292.369
2292.272
2292.174
2292.077
2291.979
2291.882
2291.784
2291.687
2291.589
2291.492
2291.394
2291.297
2291.199
2291.102
2291.004
2290.907
2290.809
2290.712
2290.614
2290.517
2290.419
2290.322
2290.224
2290.127
2290.029
2289.932
2289.834
2289.737
2289.639
2289.542
2289.444
2289.347
2289.249
2289.152
2289.054
2288.957
2288.859
2288.762
2288.664
2288.567
2288.469
2288.372
2288.274
2288.177
2288.079
2287.982
2287.884
2287.787
2287.689
2287.592
2287.494
2287.397
2287.299
2287.202
2287.104
2287.007
2286.909
2286.812
2286.714
2286.617
2286.519
2286.422
2286.324
2286.227
2286.129
2286.032
2285.934
2285.837
2285.739
2285.642
2285.544
2285.447
2285.349
2285.252
2285.154
2285.057
2284.959
2284.862
2284.764
2284.667
2284.569
2284.472
2284.374
2284.277
2284.179
2284.082
2283.984
2283.887
2283.789
2283.692
2283.594
2283.497
2283.399
2283.302
2283.204
2283.107
2283.009
2282.912
2282.814
2282.717
2282.619
2282.522
2282.424
2282.327
2282.229
2282.132
2282.034
2281.937
2281.839
2281.742
2281.644
2281.547
2281.449
2281.352
2281.254
2281.157
2281.059
2280.962
2280.864
2280.767
2280.669
2280.572
2280.474
2280.377
2280.279
2280.182
2280.084
2279.987
2279.889
2279.792
2279.694
2279.597
2279.499
2275.907
2272.314
2268.722
2265.129
2261.537
2257.944
2254.352
2250.759
2247.167
2243.574
2239.982
2236.389
2232.797
2229.204
2225.612
2222.019
2218.427
2214.834
2211.242
2207.649
2204.057
2200.464
2196.872
2193.279
2189.687
2186.094
2182.502
2178.909
2175.317
2171.724
2168.132
2164.539
2160.947
2157.354
2153.762
2150.169
2146.577
2142.984
2139.392
2135.799
2132.207
2128.614
2125.022
2121.429
2117.837
2114.244
2110.652
2107.059
2103.467
2099.874
2096.282
2092.689
2089.097
2085.504
2081.912
2078.319
2074.727
2071.134
2067.542
2063.949
2060.357
2056.764
2053.172
2049.579
2045.987
2042.394
2038.802
2035.209
2031.617
2028.024
2024.432
2020.839
2017.247
2013.654
2010.062
2006.469
2002.877
1999.284
1995.692
1992.099
1988.507
1984.914
1981.322
1977.729
1974.137
1970.544
1966.952
1963.359
1959.767
1956.174
1952.582
1948.989
1945.397
1941.804
1938.212
1934.619
1931.027
1927.434
1923.842
1920.249
1916.657
1913.064
1909.472
1905.879
1902.287
1898.694
1895.102
1891.509
1887.917
1884.324
1880.732
1877.139
1873.547
1869.954
1866.362
1862.769
1859.177
1855.584
1851.992
1848.399
1844.807
1841.214
1837.622
1834.029
1830.437
1826.844
1823.252
1819.659
1816.067
1812.474
1808.882
1805.289
1801.697
1798.104
1794.512
1790.919
1787.327
1783.734
1780.142
1776.549
1772.957
1769.364
1765.772
1762.179
1758.587
1754.994
1751.402
1747.809
1744.217
1740.624
1737.032
1733.439
1729.847
1726.254
1722.662
1719.069
1715.477
1711.884
1708.292
1704.699
1701.107
1697.514
1693.922
1690.329
1686.737
1683.144
1679.552
1675.959
1672.367
1668.774
1665.182
1661.589
1657.997
1654.404
1650.812
1647.219
1643.627
1640.034
1636.442
1632.849
1629.257
1625.664
1622.072
1618.479
1614.887
1611.294
1607.702
1604.109
1600.517
1596.924
1593.332
1589.739
1586.147
1582.554
1578.962
1575.369
1571.777
1568.184
1564.592
1560.999
1562.759
1564.518
1566.278
1568.037
1569.797
1571.556
1573.316
1575.075
1576.835
1578.594
1580.354
1582.113
1583.873
1585.632
1587.392
1589.151
1590.911
1592.670
1594.430
1596.189
1597.949
1599.708
1601.468
1603.227
1604.987
1606.746
1608.506
1610.265
1612.025
1613.784
1615.544
1617.303
1619.063
1620.822
1622.582
1624.341
1626.101
1627.860
1629.620
1631.379
1633.139
1634.898
1636.658
1638.417
1640.177
1641.936
1643.696
1645.455
1647.215
1648.974
1650.734
1652.493
1654.253
1656.012
1657.772
1659.531
1661.291
1663.050
1664.810
1666.569
1668.329
1670.088
1671.848
1673.607
1675.367
1677.126
1678.886
1680.645
1682.405
1684.164
1685.924
1687.683
1689.443
1691.202
1692.962
1694.721
1696.481
1698.240
1700.000
1701.759
1703.519
1705.278
1707.038
1708.797
1710.557
1712.316
1714.076
1715.835
1717.595
1719.354
1721.114
1722.873
1724.633
1726.392
1728.152
1729.911
1731.671
1733.430
1735.190
1736.949
1738.709
1740.468
1742.228
1743.987
1745.747
1747.506
1749.266
1751.025
1752.785
1754.544
1756.304
1758.063
1759.823
1761.582
1763.342
1765.101
1766.861
1768.620
1770.380
1772.139
1773.899
1775.658
1777.418
1779.177
1780.937
1782.696
1784.456
1786.215
1787.975
1789.734
1791.494
1793.253
1795.013
1796.772
1798.532
1800.291
1802.051
1803.810
1805.570
1807.329
1809.089
1810.848
1812.608
1814.367
1816.127
1817.886
1819.646
1821.405
1823.165
1824.924
1826.684
1828.443
1830.203
1831.962
1833.722
1835.481
1837.241
1839.000
1840.760
1842.519
1844.279
1846.038
1847.798
1849.557
1851.317
1853.076
1854.836
1856.595
1858.355
1860.114
1861.874
1863.633
1865.393
1867.152
1868.912
1870.671
1872.431
1874.190
1875.950
1877.709
1879.469
1881.228
1882.988
1884.747
1886.507
1888.266
1890.026
1891.785
1893.545
1895.304
1897.064
1898.823
1900.583
1902.342
1904.102
1905.861
1907.621
1909.380
1911.140
1912.899
1909.380
1905.861
1902.342
1898.823
1895.304
1891.785
1888.266
1884.747
1881.228
1877.709
1874.190
1870.671
1867.152
1863.633
1860.114
1856.595
1853.076
1849.557
1846.038
1842.519
1839.000
1835.481
1831.962
1828.443
1824.924
1821.405
1817.886
1814.367
1810.848
1807.329
1803.810
1800.291
1796.772
1793.253
1789.734
1786.215
1782.696
1779.177
1775.658
1772.139
1768.620
1765.101
1761.582
1758.063
1754.544
1751.025
1747.506
1743.987
1740.468
1736.949
1733.430
1729.911
1726.392
1722.873
1719.354
1715.835
1712.316
1708.797
1705.278
1701.759
1698.240
1694.721
1691.202
1687.683
1684.164
1680.645
1677.126
1673.607
1670.088
1666.569
1663.050
1659.531
1656.012
1652.493
1648.974
1645.455
1641.936
1638.417
1634.898
1631.379
1627.860
1624.341
1620.822
1617.303
1613.784
1610.265
1606.746
1603.227
1599.708
1596.189
1592.670
1589.151
1585.632
1582.113
1578.594
1575.075
1571.556
1568.037
1564.518
1560.999
1557.480
1553.961
1550.442
1546.923
1543.404
1539.885
1536.366
1532.847
1529.328
1525.809
1522.290
1518.771
1515.252
1511.733
1508.214
1504.695
1501.176
1497.657
1494.138
1490.619
1487.100
1483.581
1480.062
1476.543
1473.024
1469.505
1465.986
1462.467
1458.948
1455.429
1451.910
1448.391
1444.872
1441.353
1437.834
1434.315
1430.796
1427.277
1423.758
1420.239
1416.720
1413.201
1409.682
1406.163
1402.644
1399.125
1395.606
1392.087
1388.568
1385.049
1381.530
1378.011
1374.492
1370.973
1367.454
1363.935
1360.416
1356.897
1353.378
1349.859
1346.340
1342.821
1339.302
1335.783
1332.264
1328.745
1325.226
1321.707
1318.188
1314.669
1311.150
1307.631
1304.112
1300.593
1297.074
1293.555
1290.036
1286.517
1282.998
1279.479
1275.960
1272.441
1268.922
1265.403
1261.884
1258.365
1254.846
1251.327
1247.808
1244.289
1240.770
1237.251
1233.732
1230.213
1226.694
1223.175
1219.656
1216.137
1212.618
1209.099
1204.260
1199.421
1194.582
1189.743
1184.904
1180.065
1175.226
1170.387
1165.548
1160.709
1155.870
1151.031
1146.192
1141.353
1136.514
1131.675
1126.836
1121.997
1117.158
1112.319
1107.480
1102.641
1097.802
1092.963
1088.124
1083.285
1078.446
1073.607
1068.768
1063.929
1059.090
1054.251
1049.412
1044.573
1039.734
1034.895
1030.056
1025.217
1020.378
1015.539
1010.700
1005.861
1001.022
996.183
991.344
986.505
981.666
976.827
971.988
967.149
962.310
957.471
952.632
947.793
942.954
938.115
933.276
928.437
923.598
918.759
913.920
909.081
904.242
899.403
894.564
889.725
884.886
880.047
875.208
870.369
865.530
860.691
855.852
851.013
846.174
841.335
836.496
831.657
826.818
821.979
817.140
812.301
807.462
802.623
797.784
792.945
788.106
783.267
778.428
773.589
768.750
763.911
759.072
754.233
749.394
744.555
739.716
734.877
730.038
725.199
720.360
715.521
710.682
705.843
701.004
696.165
691.326
686.487
681.648
676.809
671.970
667.131
662.292
657.453
652.614
647.775
642.936
638.097
633.258
628.419
623.580
618.741
613.902
609.063
604.224
599.385
594.546
589.707
584.868
580.029
575.190
570.351
565.512
560.673
555.834
550.995
546.156
541.317
536.478
531.639
526.800
521.961
517.122
512.283
507.444
502.605
497.766
492.927
488.088
483.249
478.410
473.571
468.732
463.893
459.054
454.215
449.376
444.537
439.698
434.859
430.020
425.181
420.342
415.503
410.664
405.825
400.986
396.147
391.308
386.469
381.630
376.791
371.952
367.113
362.274
357.435
352.596
347.757
342.918
338.079
333.240
328.401
323.562
318.723
313.884
309.045
304.206
299.367
294.528
289.689
284.850
280.011
275.172
270.333
265.494
260.655
255.816
250.977
246.138
