2845.592
2844.761
2843.930
2843.099
2842.268
2841.437
2840.606
2839.775
2838.944
2838.113
2837.282
2836.451
2835.620
2834.789
2833.958
2833.127
2832.296
2831.465
2830.634
2829.803
2828.972
2828.141
2827.310
2826.479
2825.648
2824.817
2823.986
2823.155
2822.324
2821.493
2820.662
2819.831
2819.000
2818.169
2817.338
2816.507
2815.676
2814.845
2814.014
2813.183
2812.352
2811.521
2810.690
2809.859
2809.028
2808.197
2807.366
2806.535
2805.704
2804.873
2804.042
2803.211
2802.380
2801.549
2800.718
2799.887
2799.056
2798.225
2797.394
2796.563
2795.732
2794.901
2794.070
2793.239
2792.408
2791.577
2790.746
2789.915
2789.084
2788.253
2787.422
2786.591
2785.760
2784.929
2784.098
2783.267
2782.436
2781.605
2780.774
2779.943
2779.112
2778.281
2777.450
2776.619
2775.788
2774.957
2774.126
2773.295
2772.464
2771.633
2770.802
2769.971
2769.140
2768.309
2767.478
2766.647
2765.816
2764.985
2764.154
2763.323
2762.492
2761.661
2760.830
2759.999
2759.168
2758.337
2757.506
2756.675
2755.844
2755.013
2754.182
2753.351
2752.520
2751.689
2750.858
2750.027
2749.196
2748.365
2747.534
2746.703
2745.872
2745.041
2744.210
2743.379
2742.548
2741.717
2740.886
2740.055
2739.224
2738.393
2737.562
2736.731
2735.900
2735.069
2734.238
2733.407
2732.576
2731.745
2730.914
2730.083
2729.252
2728.421
2727.590
2726.759
2725.928
2725.097
2724.266
2723.435
2722.604
2721.773
2720.942
2720.111
2719.280
2718.449
2717.618
2716.787
2715.956
2715.125
2714.294
2713.463
2712.632
2711.801
2710.970
2710.139
2709.308
2708.477
2707.646
2706.815
2705.984
2705.153
2704.322
2703.491
2702.660
2701.829
2700.998
2700.167
2699.336
2698.505
2697.674
2696.843
2696.012
2695.181
2694.350
2693.519
2692.688
2691.857
2691.026
2690.195
2689.364
2688.533
2687.702
2686.871
2686.040
2685.209
2684.378
2683.547
2682.716
2681.885
2681.054
2680.223
2679.392
2673.649
2667.906
2662.163
2656.420
2650.677
2644.934
2639.191
2633.448
2627.705
2621.962
2616.219
2610.476
2604.733
2598.990
2593.247
2587.504
2581.761
2576.018
2570.275
2564.532
2558.789
2553.046
2547.303
2541.560
2535.817
2530.074
2524.331
2518.588
2512.845
2507.102
2501.359
2495.616
2489.873
2484.130
2478.387
2472.644
2466.901
2461.158
2455.415
2449.672
2443.929
2438.186
2432.443
2426.700
2420.957
2415.214
2409.471
2403.728
2397.985
2392.242
2386.499
2380.756
2375.013
2369.270
2363.527
2357.784
2352.041
2346.298
2340.555
2334.812
2329.069
2323.326
2317.583
2311.840
2306.097
2300.354
2294.611
2288.868
2283.125
2277.382
2271.639
2265.896
2260.153
2254.410
2248.667
2242.924
2237.181
2231.438
2225.695
2219.952
2214.209
2208.466
2202.723
2196.980
2191.237
2185.494
2179.751
2174.008
2168.265
2162.522
2156.779
2151.036
2145.293
2139.550
2133.807
2128.064
2122.321
2116.578
2110.835
2105.092
2099.349
2093.606
2087.863
2082.120
2076.377
2070.634
2064.891
2059.148
2053.405
2047.662
2041.919
2036.176
2030.433
2024.690
2018.947
2013.204
2007.461
2001.718
1995.975
1990.232
1984.489
1978.746
1973.003
1967.260
1961.517
1955.774
1950.031
1944.288
1938.545
1932.802
1927.059
1921.316
1915.573
1909.830
1904.087
1898.344
1892.601
1886.858
1881.115
1875.372
1869.629
1863.886
1858.143
1852.400
1846.657
1840.914
1835.171
1829.428
1823.685
1817.942
1812.199
1806.456
1800.713
1794.970
1789.227
1783.484
1777.741
1771.998
1766.255
1760.512
1754.769
1749.026
1743.283
1737.540
1731.797
1726.054
1720.311
1714.568
1708.825
1703.082
1697.339
1691.596
1685.853
1680.110
1674.367
1668.624
1662.881
1657.138
1651.395
1645.652
1639.909
1634.166
1628.423
1622.680
1616.937
1611.194
1605.451
1599.708
1593.965
1588.222
1582.479
1576.736
1570.993
1565.250
1559.507
1553.764
1548.021
1542.278
1536.535
1530.792
1533.407
1536.022
1538.637
1541.252
1543.867
1546.482
1549.097
1551.712
1554.327
1556.942
1559.557
1562.172
1564.787
1567.402
1570.017
1572.632
1575.247
1577.862
1580.477
1583.092
1585.707
1588.322
1590.937
1593.552
1596.167
1598.782
1601.397
1604.012
1606.627
1609.242
1611.857
1614.472
1617.087
1619.702
1622.317
1624.932
1627.547
1630.162
1632.777
1635.392
1638.007
1640.622
1643.237
1645.852
1648.467
1651.082
1653.697
1656.312
1658.927
1661.542
1664.157
1666.772
1669.387
1672.002
1674.617
1677.232
1679.847
1682.462
1685.077
1687.692
1690.307
1692.922
1695.537
1698.152
1700.767
1703.382
1705.997
1708.612
1711.227
1713.842
1716.457
1719.072
1721.687
1724.302
1726.917
1729.532
1732.147
1734.762
1737.377
1739.992
1742.607
1745.222
1747.837
1750.452
1753.067
1755.682
1758.297
1760.912
1763.527
1766.142
1768.757
1771.372
1773.987
1776.602
1779.217
1781.832
1784.447
1787.062
1789.677
1792.292
1794.907
1797.522
1800.137
1802.752
1805.367
1807.982
1810.597
1813.212
1815.827
1818.442
1821.057
1823.672
1826.287
1828.902
1831.517
1834.132
1836.747
1839.362
1841.977
1844.592
1847.207
1849.822
1852.437
1855.052
1857.667
1860.282
1862.897
1865.512
1868.127
1870.742
1873.357
1875.972
1878.587
1881.202
1883.817
1886.432
1889.047
1891.662
1894.277
1896.892
1899.507
1902.122
1904.737
1907.352
1909.967
1912.582
1915.197
1917.812
1920.427
1923.042
1925.657
1928.272
1930.887
1933.502
1936.117
1938.732
1941.347
1943.962
1946.577
1949.192
1951.807
1954.422
1957.037
1959.652
1962.267
1964.882
1967.497
1970.112
1972.727
1975.342
1977.957
1980.572
1983.187
1985.802
1988.417
1991.032
1993.647
1996.262
1998.877
2001.492
2004.107
2006.722
2009.337
2011.952
2014.567
2017.182
2019.797
2022.412
2025.027
2027.642
2030.257
2032.872
2035.487
2038.102
2040.717
2043.332
2045.947
2048.562
2051.177
2053.792
2055.381
2056.969
2058.558
2060.146
2061.735
2063.323
2064.912
2066.500
2068.089
2069.677
2071.266
2072.854
2074.443
2076.031
2077.620
2079.208
2080.797
2082.385
2083.974
2085.562
2087.151
2088.739
2090.328
2091.916
2093.505
2095.093
2096.682
2098.270
2099.859
2101.447
2103.036
2104.624
2106.213
2107.801
2109.390
2110.978
2112.567
2114.155
2115.744
2117.332
2118.921
2120.509
2122.098
2123.686
2125.275
2126.863
2128.452
2130.040
2131.629
2133.217
2134.806
2136.394
2137.983
2139.571
2141.160
2142.748
2144.337
2145.925
2147.514
2149.102
2150.691
2152.279
2153.868
2155.456
2157.045
2158.633
2160.222
2161.810
2163.399
2164.987
2166.576
2168.164
2169.753
2171.341
2172.930
2174.518
2176.107
2177.695
2179.284
2180.872
2182.461
2184.049
2185.638
2187.226
2188.815
2190.403
2191.992
2193.580
2195.169
2196.757
2198.346
2199.934
2201.523
2203.111
2204.700
2206.288
2207.877
2209.465
2211.054
2212.642
2214.231
2215.819
2217.408
2218.996
2220.585
2222.173
2223.762
2225.350
2226.939
2228.527
2230.116
2231.704
2233.293
2234.881
2236.470
2238.058
2239.647
2241.235
2242.824
2244.412
2246.001
2247.589
2249.178
2250.766
2252.355
2253.943
2255.532
2257.120
2258.709
2260.297
2261.886
2263.474
2265.063
2266.651
2268.240
2269.828
2271.417
2273.005
2274.594
2276.182
2277.771
2279.359
2280.948
2282.536
2284.125
2285.713
2287.302
2288.890
2290.479
2292.067
2293.656
2295.244
2296.833
2298.421
2300.010
2301.598
2303.187
2304.775
2306.364
2307.952
2309.541
2311.129
2312.718
2314.306
2315.895
2317.483
2319.072
2320.660
2322.249
2323.837
2325.426
2327.014
2328.603
2330.191
2331.780
2333.368
2334.957
2336.545
2338.134
2339.722
2341.311
2342.899
2344.488
2346.076
2347.665
2349.253
2350.842
2352.430
2354.019
2355.607
2357.196
2358.784
2360.373
2361.961
2363.550
2365.138
2366.727
2368.315
2369.904
2371.492
2369.757
2368.021
2366.286
2364.550
2362.815
2361.079
2359.344
2357.608
2355.873
2354.137
2352.402
2350.666
2348.931
2347.195
2345.460
2343.724
2341.989
2340.253
2338.518
2336.782
2335.047
2333.311
2331.576
2329.840
2328.105
2326.369
2324.634
2322.898
2321.163
2319.427
2317.692
2315.956
2314.221
2312.485
2310.750
2309.014
2307.279
2305.543
2303.808
2302.072
2300.337
2298.601
2296.866
2295.130
2293.395
2291.659
2289.924
2288.188
2286.453
2284.717
2282.982
2281.246
2279.511
2277.775
2276.040
2274.304
2272.569
2270.833
2269.098
2267.362
2265.627
2263.891
2262.156
2260.420
2258.685
2256.949
2255.214
2253.478
2251.743
2250.007
2248.272
2246.536
2244.801
2243.065
2241.330
2239.594
2237.859
2236.123
2234.388
2232.652
2230.917
2229.181
2227.446
2225.710
2223.975
2222.239
2220.504
2218.768
2217.033
2215.297
2213.562
2211.826
2210.091
2208.355
2206.620
2204.884
2203.149
2201.413
2199.678
2197.942
2196.207
2194.471
2192.736
2191.000
2189.265
2187.529
2185.794
2184.058
2182.323
2180.587
2178.852
2177.116
2175.381
2173.645
2171.910
2170.174
2168.439
2166.703
2164.968
2163.232
2161.497
2159.761
2158.026
2156.290
2154.555
2152.819
2151.084
2149.348
2147.613
2145.877
2144.142
2142.406
2140.671
2138.935
2137.200
2135.464
2133.729
2131.993
2130.258
2128.522
2126.787
2125.051
2123.316
2121.580
2119.845
2118.109
2116.374
2114.638
2112.903
2111.167
2109.432
2107.696
2105.961
2104.225
2102.490
2100.754
2099.019
2097.283
2095.548
2093.812
2092.077
2090.341
2088.606
2086.870
2085.135
2083.399
2081.664
2079.928
2078.193
2076.457
2074.722
2072.986
2071.251
2069.515
2067.780
2066.044
2064.309
2062.573
2060.838
2059.102
2057.367
2055.631
2053.896
2052.160
2050.425
2048.689
2046.954
2045.218
2043.483
2041.747
2040.012
2038.276
2036.541
2034.805
2033.070
2031.334
2029.599
2027.863
2026.128
2024.392
2028.278
2032.164
2036.050
2039.936
2043.822
2047.708
2051.594
2055.480
2059.366
2063.252
2067.138
2071.024
2074.910
2078.796
2082.682
2086.568
2090.454
2094.340
2098.226
2102.112
2105.998
2109.884
2113.770
2117.656
2121.542
2125.428
2129.314
2133.200
2137.086
2140.972
2144.858
2148.744
2152.630
2156.516
2160.402
2164.288
2168.174
2172.060
2175.946
2179.832
2183.718
2187.604
2191.490
2195.376
2199.262
2203.148
2207.034
2210.920
2214.806
2218.692
2222.578
2226.464
2230.350
2234.236
2238.122
2242.008
2245.894
2249.780
2253.666
2257.552
2261.438
2265.324
2269.210
2273.096
2276.982
2280.868
2284.754
2288.640
2292.526
2296.412
2300.298
2304.184
2308.070
2311.956
2315.842
2319.728
2323.614
2327.500
2331.386
2335.272
2339.158
2343.044
2346.930
2350.816
2354.702
2358.588
2362.474
2366.360
2370.246
2374.132
2378.018
2381.904
2385.790
2389.676
2393.562
2397.448
2401.334
2405.220
2409.106
2412.992
2416.878
2420.764
2424.650
2428.536
2432.422
2436.308
2440.194
2444.080
2447.966
2451.852
2455.738
2459.624
2463.510
2467.396
2471.282
2475.168
2479.054
2482.940
2486.826
2490.712
2494.598
2498.484
2502.370
2506.256
2510.142
2514.028
2517.914
2521.800
2525.686
2529.572
2533.458
2537.344
2541.230
2545.116
2549.002
2552.888
2556.774
2560.660
2564.546
2568.432
2572.318
2576.204
2580.090
2583.976
2587.862
2591.748
2595.634
2599.520
2603.406
2607.292
2611.178
2615.064
2618.950
2622.836
2626.722
2630.608
2634.494
2638.380
2642.266
2646.152
2650.038
2653.924
2657.810
2661.696
2665.582
2669.468
2673.354
2677.240
2681.126
2685.012
2688.898
2692.784
2696.670
2700.556
2704.442
2708.328
2712.214
2716.100
2719.986
2723.872
2727.758
2731.644
2735.530
2739.416
2743.302
2747.188
2751.074
2754.960
2758.846
2762.732
2766.618
2770.504
2774.390
2778.276
2782.162
2786.048
2789.934
2793.820
2797.706
2801.592
2800.101
2798.610
2797.119
2795.628
2794.137
2792.646
2791.155
2789.664
2788.173
2786.682
2785.191
2783.700
2782.209
2780.718
2779.227
2777.736
2776.245
2774.754
2773.263
2771.772
2770.281
2768.790
2767.299
2765.808
2764.317
2762.826
2761.335
2759.844
2758.353
2756.862
2755.371
2753.880
2752.389
2750.898
2749.407
2747.916
2746.425
2744.934
2743.443
2741.952
2740.461
2738.970
2737.479
2735.988
2734.497
2733.006
2731.515
2730.024
2728.533
2727.042
2725.551
2724.060
2722.569
2721.078
2719.587
2718.096
2716.605
2715.114
2713.623
2712.132
2710.641
2709.150
2707.659
2706.168
2704.677
2703.186
2701.695
2700.204
2698.713
2697.222
2695.731
2694.240
2692.749
2691.258
2689.767
2688.276
2686.785
2685.294
2683.803
2682.312
2680.821
2679.330
2677.839
2676.348
2674.857
2673.366
2671.875
2670.384
2668.893
2667.402
2665.911
2664.420
2662.929
2661.438
2659.947
2658.456
2656.965
2655.474
2653.983
2652.492
2651.001
2649.510
2648.019
2646.528
2645.037
2643.546
2642.055
2640.564
2639.073
2637.582
2636.091
2634.600
2633.109
2631.618
2630.127
2628.636
2627.145
2625.654
2624.163
2622.672
2621.181
2619.690
2618.199
2616.708
2615.217
2613.726
2612.235
2610.744
2609.253
2607.762
2606.271
2604.780
2603.289
2601.798
2600.307
2598.816
2597.325
2595.834
2594.343
2592.852
2591.361
2589.870
2588.379
2586.888
2585.397
2583.906
2582.415
2580.924
2579.433
2577.942
2576.451
2574.960
2573.469
2571.978
2570.487
2568.996
2567.505
2566.014
2564.523
2563.032
2561.541
2560.050
2558.559
2557.068
2555.577
2554.086
2552.595
2551.104
2549.613
2548.122
2546.631
2545.140
2543.649
2542.158
2540.667
2539.176
2537.685
2536.194
2534.703
2533.212
2531.721
2530.230
2528.739
2527.248
2525.757
2524.266
2522.775
2521.284
2519.793
2518.302
2516.811
2515.320
2513.829
2512.338
2510.847
2509.356
2507.865
2506.374
2504.883
2503.392
2500.582
2497.772
2494.962
2492.152
2489.342
2486.532
2483.722
2480.912
2478.102
2475.292
2472.482
2469.672
2466.862
2464.052
2461.242
2458.432
2455.622
2452.812
2450.002
2447.192
2444.382
2441.572
2438.762
2435.952
2433.142
2430.332
2427.522
2424.712
2421.902
2419.092
2416.282
2413.472
2410.662
2407.852
2405.042
2402.232
2399.422
2396.612
2393.802
2390.992
2388.182
2385.372
2382.562
2379.752
2376.942
2374.132
2371.322
2368.512
2365.702
2362.892
2360.082
2357.272
2354.462
2351.652
2348.842
2346.032
2343.222
2340.412
2337.602
2334.792
2331.982
2329.172
2326.362
2323.552
2320.742
2317.932
2315.122
2312.312
2309.502
2306.692
2303.882
2301.072
2298.262
2295.452
2292.642
2289.832
2287.022
2284.212
2281.402
2278.592
2275.782
2272.972
2270.162
2267.352
2264.542
2261.732
2258.922
2256.112
2253.302
2250.492
2247.682
2244.872
2242.062
2239.252
2236.442
2233.632
2230.822
2228.012
2225.202
2222.392
2219.582
2216.772
2213.962
2211.152
2208.342
2205.532
2202.722
2199.912
2197.102
2194.292
2191.482
2188.672
2185.862
2183.052
2180.242
2177.432
2174.622
2171.812
2169.002
2166.192
2163.382
2160.572
2157.762
2154.952
2152.142
2149.332
2146.522
2143.712
2140.902
2138.092
2135.282
2132.472
2129.662
2126.852
2124.042
2121.232
2118.422
2115.612
2112.802
2109.992
2107.182
2104.372
2101.562
2098.752
2095.942
2093.132
2090.322
2087.512
2084.702
2081.892
2079.082
2076.272
2073.462
2070.652
2067.842
2065.032
2062.222
2059.412
2056.602
2053.792
2050.982
2048.172
2045.362
2042.552
2039.742
2036.932
2034.122
2031.312
2028.502
2025.692
2022.882
2020.072
2017.262
2014.452
2011.642
2008.832
2006.022
2003.212
2000.402
1997.592
1994.782
1991.972
1989.162
1986.352
1983.542
1980.732
1977.922
1975.112
1972.302
1969.492
1966.682
1963.872
1961.062
1958.252
1955.442
1952.632
1949.822
1947.012
1944.202
1941.392
1935.894
1930.395
1924.897
1919.398
1913.900
1908.401
1902.903
1897.404
1891.906
1886.407
1880.909
1875.410
1869.912
1864.413
1858.915
1853.416
1847.918
1842.419
1836.921
1831.422
1825.924
1820.425
1814.927
1809.428
1803.930
1798.431
1792.933
1787.434
1781.936
1776.437
1770.939
1765.440
1759.942
1754.443
1748.945
1743.446
1737.948
1732.449
1726.951
1721.452
1715.954
1710.455
1704.957
1699.458
1693.960
1688.461
1682.963
1677.464
1671.966
1666.467
1660.969
1655.470
1649.972
1644.473
1638.975
1633.476
1627.978
1622.479
1616.981
1611.482
1605.984
1600.485
1594.987
1589.488
1583.990
1578.491
1572.993
1567.494
1561.996
1556.497
1550.999
1545.500
1540.002
1534.503
1529.005
1523.506
1518.008
1512.509
1507.011
1501.512
1496.014
1490.515
1485.017
1479.518
1474.020
1468.521
1463.023
1457.524
1452.026
1446.527
1441.029
1435.530
1430.032
1424.533
1419.035
1413.536
1408.038
1402.539
1397.041
1391.542
1386.044
1380.545
1375.047
1369.548
1364.050
1358.551
1353.053
1347.554
1342.056
1336.557
1331.059
1325.560
1320.062
1314.563
1309.065
1303.566
1298.068
1292.569
1287.071
1281.572
1276.074
1270.575
1265.077
1259.578
1254.080
1248.581
1243.083
1237.584
1232.086
1226.587
1221.089
1215.590
1210.092
1204.593
1199.095
1193.596
1188.098
1182.599
1177.101
1171.602
1166.104
1160.605
1155.107
1149.608
1144.110
1138.611
1133.113
1127.614
1122.116
1116.617
1111.119
1105.620
1100.122
1094.623
1089.125
1083.626
1078.128
1072.629
1067.131
1061.632
1056.134
1050.635
1045.137
1039.638
1034.140
1028.641
1023.143
1017.644
1012.146
1006.647
1001.149
995.650
990.152
984.653
979.155
973.656
968.158
962.659
957.161
951.662
946.164
940.665
935.167
929.668
924.170
918.671
913.173
907.674
902.176
896.677
891.179
885.680
880.182
874.683
869.185
863.686
858.188
852.689
847.191
841.692
838.393
835.093
831.794
828.494
825.195
821.895
818.596
815.296
811.997
808.697
805.398
802.098
798.799
795.499
792.200
788.900
785.601
782.301
779.002
775.702
772.403
769.103
765.804
762.504
759.205
755.905
752.606
749.306
746.007
742.707
739.408
736.108
732.809
729.509
726.210
722.910
719.611
716.311
713.012
709.712
706.413
703.113
699.814
696.514
693.215
689.915
686.616
683.316
680.017
676.717
673.418
670.118
666.819
663.519
660.220
656.920
653.621
650.321
647.022
643.722
640.423
637.123
633.824
630.524
627.225
623.925
620.626
617.326
614.027
610.727
607.428
604.128
600.829
597.529
594.230
590.930
587.631
584.331
581.032
577.732
574.433
571.133
567.834
564.534
561.235
557.935
554.636
551.336
548.037
544.737
541.438
538.138
534.839
531.539
528.240
524.940
521.641
518.341
515.042
511.742
508.443
505.143
501.844
498.544
495.245
491.945
488.646
485.346
482.047
478.747
475.448
472.148
468.849
465.549
462.250
458.950
455.651
452.351
449.052
445.752
442.453
439.153
435.854
432.554
429.255
425.955
422.656
419.356
416.057
412.757
409.458
406.158
402.859
399.559
396.260
392.960
389.661
386.361
383.062
379.762
376.463
373.163
369.864
366.564
363.265
359.965
356.666
353.366
350.067
346.767
343.468
340.168
336.869
333.569
330.270
326.970
323.671
320.371
317.072
313.772
310.473
307.173
303.874
300.574
297.275
293.975
290.676
287.376
284.077
280.777
277.478
274.178
270.879
267.579
264.280
260.980
257.681
254.381
251.082
247.782
244.483
241.183
237.884
234.584
231.285
227.985
224.686
221.386
218.087
214.787
211.488
208.188
204.889
201.589
198.290
194.990
191.691
188.391
185.092
