325.674
330.659
335.644
340.629
345.614
350.599
355.584
360.569
365.554
370.539
375.524
380.509
385.494
390.479
395.464
400.449
405.434
410.419
415.404
420.389
425.374
430.359
435.344
440.329
445.314
450.299
455.284
460.269
465.254
470.239
475.224
480.209
485.194
490.179
495.164
500.149
505.134
510.119
515.104
520.089
525.074
530.059
535.044
540.029
545.014
549.999
554.984
559.969
564.954
569.939
574.924
579.909
584.894
589.879
594.864
599.849
604.834
609.819
614.804
619.789
624.774
629.759
634.744
639.729
644.714
649.699
654.684
659.669
664.654
669.639
674.624
679.609
684.594
689.579
694.564
699.549
704.534
709.519
714.504
719.489
724.474
729.459
734.444
739.429
744.414
749.399
754.384
759.369
764.354
769.339
774.324
779.309
784.294
789.279
794.264
799.249
804.234
809.219
814.204
819.189
824.174
829.159
834.144
839.129
844.114
849.099
854.084
859.069
864.054
869.039
874.024
879.009
883.994
888.979
893.964
898.949
903.934
908.919
913.904
918.889
923.874
928.859
933.844
938.829
943.814
948.799
953.784
958.769
963.754
968.739
973.724
978.709
983.694
988.679
993.664
998.649
1003.634
1008.619
1013.604
1018.589
1023.574
1028.559
1033.544
1038.529
1043.514
1048.499
1053.484
1058.469
1063.454
1068.439
1073.424
1078.409
1083.394
1088.379
1093.364
1098.349
1103.334
1108.319
1113.304
1118.289
1123.274
1128.259
1133.244
1138.229
1143.214
1148.199
1153.184
1158.169
1163.154
1168.139
1173.124
1178.109
1183.094
1188.079
1193.064
1198.049
1203.034
1208.019
1213.004
1217.989
1222.974
1227.959
1232.944
1237.929
1242.914
1247.899
1252.884
1257.869
1262.854
1267.839
1272.824
1277.809
1282.794
1287.779
1292.764
1297.749
1302.734
1307.719
1312.704
1317.689
1322.674
1323.652
1324.630
1325.608
1326.586
1327.564
1328.542
1329.520
1330.498
1331.476
1332.454
1333.432
1334.410
1335.388
1336.366
1337.344
1338.322
1339.300
1340.278
1341.256
1342.234
1343.212
1344.190
1345.168
1346.146
1347.124
1348.102
1349.080
1350.058
1351.036
1352.014
1352.992
1353.970
1354.948
1355.926
1356.904
1357.882
1358.860
1359.838
1360.816
1361.794
1362.772
1363.750
1364.728
1365.706
1366.684
1367.662
1368.640
1369.618
1370.596
1371.574
1372.552
1373.530
1374.508
1375.486
1376.464
1377.442
1378.420
1379.398
1380.376
1381.354
1382.332
1383.310
1384.288
1385.266
1386.244
1387.222
1388.200
1389.178
1390.156
1391.134
1392.112
1393.090
1394.068
1395.046
1396.024
1397.002
1397.980
1398.958
1399.936
1400.914
1401.892
1402.870
1403.848
1404.826
1405.804
1406.782
1407.760
1408.738
1409.716
1410.694
1411.672
1412.650
1413.628
1414.606
1415.584
1416.562
1417.540
1418.518
1419.496
1420.474
1421.452
1422.430
1423.408
1424.386
1425.364
1426.342
1427.320
1428.298
1429.276
1430.254
1431.232
1432.210
1433.188
1434.166
1435.144
1436.122
1437.100
1438.078
1439.056
1440.034
1441.012
1441.990
1442.968
1443.946
1444.924
1445.902
1446.880
1447.858
1448.836
1449.814
1450.792
1451.770
1452.748
1453.726
1454.704
1455.682
1456.660
1457.638
1458.616
1459.594
1460.572
1461.550
1462.528
1463.506
1464.484
1465.462
1466.440
1467.418
1468.396
1469.374
1470.352
1471.330
1472.308
1473.286
1474.264
1475.242
1476.220
1477.198
1478.176
1479.154
1480.132
1481.110
1482.088
1483.066
1484.044
1485.022
1486.000
1486.978
1487.956
1488.934
1489.912
1490.890
1491.868
1492.846
1493.824
1494.802
1495.780
1496.758
1497.736
1498.714
1499.692
1500.670
1501.648
1502.626
1503.604
1504.582
1505.560
1506.538
1507.516
1508.494
1509.472
1510.450
1511.428
1512.406
1513.384
1514.362
1515.340
1516.318
1517.296
1518.274
1520.302
1522.330
1524.358
1526.386
1528.414
1530.442
1532.470
1534.498
1536.526
1538.554
1540.582
1542.610
1544.638
1546.666
1548.694
1550.722
1552.750
1554.778
1556.806
1558.834
1560.862
1562.890
1564.918
1566.946
1568.974
1571.002
1573.030
1575.058
1577.086
1579.114
1581.142
1583.170
1585.198
1587.226
1589.254
1591.282
1593.310
1595.338
1597.366
1599.394
1601.422
1603.450
1605.478
1607.506
1609.534
1611.562
1613.590
1615.618
1617.646
1619.674
1621.702
1623.730
1625.758
1627.786
1629.814
1631.842
1633.870
1635.898
1637.926
1639.954
1641.982
1644.010
1646.038
1648.066
1650.094
1652.122
1654.150
1656.178
1658.206
1660.234
1662.262
1664.290
1666.318
1668.346
1670.374
1672.402
1674.430
1676.458
1678.486
1680.514
1682.542
1684.570
1686.598
1688.626
1690.654
1692.682
1694.710
1696.738
1698.766
1700.794
1702.822
1704.850
1706.878
1708.906
1710.934
1712.962
1714.990
1717.018
1719.046
1721.074
1723.102
1725.130
1727.158
1729.186
1731.214
1733.242
1735.270
1737.298
1739.326
1741.354
1743.382
1745.410
1747.438
1749.466
1751.494
1753.522
1755.550
1757.578
1759.606
1761.634
1763.662
1765.690
1767.718
1769.746
1771.774
1773.802
1775.830
1777.858
1779.886
1781.914
1783.942
1785.970
1787.998
1790.026
1792.054
1794.082
1796.110
1798.138
1800.166
1802.194
1804.222
1806.250
1808.278
1810.306
1812.334
1814.362
1816.390
1818.418
1820.446
1822.474
1824.502
1826.530
1828.558
1830.586
1832.614
1834.642
1836.670
1838.698
1840.726
1842.754
1844.782
1846.810
1848.838
1850.866
1852.894
1854.922
1856.950
1858.978
1861.006
1863.034
1865.062
1867.090
1869.118
1871.146
1873.174
1875.202
1877.230
1879.258
1881.286
1883.314
1885.342
1887.370
1889.398
1891.426
1893.454
1895.482
1897.510
1899.538
1901.566
1903.594
1905.622
1907.650
1909.678
1911.706
1913.734
1915.762
1917.790
1919.818
1921.846
1923.874
1923.898
1923.923
1923.947
1923.972
1923.996
1924.021
1924.045
1924.070
1924.094
1924.119
1924.143
1924.168
1924.192
1924.217
1924.241
1924.266
1924.290
1924.315
1924.339
1924.364
1924.388
1924.413
1924.437
1924.462
1924.486
1924.511
1924.535
1924.560
1924.584
1924.609
1924.633
1924.658
1924.682
1924.707
1924.731
1924.756
1924.780
1924.805
1924.829
1924.854
1924.878
1924.903
1924.927
1924.952
1924.976
1925.001
1925.025
1925.050
1925.074
1925.099
1925.123
1925.148
1925.172
1925.197
1925.221
1925.246
1925.270
1925.295
1925.319
1925.344
1925.368
1925.393
1925.417
1925.442
1925.466
1925.491
1925.515
1925.540
1925.564
1925.589
1925.613
1925.638
1925.662
1925.687
1925.711
1925.736
1925.760
1925.785
1925.809
1925.834
1925.858
1925.883
1925.907
1925.932
1925.956
1925.981
1926.005
1926.030
1926.054
1926.079
1926.103
1926.128
1926.152
1926.177
1926.201
1926.226
1926.250
1926.275
1926.299
1926.324
1926.348
1926.373
1926.397
1926.422
1926.446
1926.471
1926.495
1926.520
1926.544
1926.569
1926.593
1926.618
1926.642
1926.667
1926.691
1926.716
1926.740
1926.765
1926.789
1926.814
1926.838
1926.863
1926.887
1926.912
1926.936
1926.961
1926.985
1927.010
1927.034
1927.059
1927.083
1927.108
1927.132
1927.157
1927.181
1927.206
1927.230
1927.255
1927.279
1927.304
1927.328
1927.353
1927.377
1927.402
1927.426
1927.451
1927.475
1927.500
1927.524
1927.549
1927.573
1927.598
1927.622
1927.647
1927.671
1927.696
1927.720
1927.745
1927.769
1927.794
1927.818
1927.843
1927.867
1927.892
1927.916
1927.941
1927.965
1927.990
1928.014
1928.039
1928.063
1928.088
1928.112
1928.137
1928.161
1928.186
1928.210
1928.235
1928.259
1928.284
1928.308
1928.333
1928.357
1928.382
1928.406
1928.431
1928.455
1928.480
1928.504
1928.529
1928.553
1928.578
1928.602
1928.627
1928.651
1928.676
1928.700
1928.725
1928.749
1928.774
1930.240
1931.707
1933.173
1934.640
1936.106
1937.573
1939.039
1940.506
1941.972
1943.439
1944.905
1946.372
1947.838
1949.305
1950.771
1952.238
1953.704
1955.171
1956.637
1958.104
1959.570
1961.037
1962.503
1963.970
1965.436
1966.903
1968.369
1969.836
1971.302
1972.769
1974.235
1975.702
1977.168
1978.635
1980.101
1981.568
1983.034
1984.501
1985.967
1987.434
1988.900
1990.367
1991.833
1993.300
1994.766
1996.233
1997.699
1999.166
2000.632
2002.099
2003.565
2005.032
2006.498
2007.965
2009.431
2010.898
2012.364
2013.831
2015.297
2016.764
2018.230
2019.697
2021.163
2022.630
2024.096
2025.563
2027.029
2028.496
2029.962
2031.429
2032.895
2034.362
2035.828
2037.295
2038.761
2040.228
2041.694
2043.161
2044.627
2046.094
2047.560
2049.027
2050.493
2051.960
2053.426
2054.893
2056.359
2057.826
2059.292
2060.759
2062.225
2063.692
2065.158
2066.625
2068.091
2069.558
2071.024
2072.491
2073.957
2075.424
2076.890
2078.357
2079.823
2081.290
2082.756
2084.223
2085.689
2087.156
2088.622
2090.089
2091.555
2093.022
2094.488
2095.955
2097.421
2098.888
2100.354
2101.821
2103.287
2104.754
2106.220
2107.687
2109.153
2110.620
2112.086
2113.553
2115.019
2116.486
2117.952
2119.419
2120.885
2122.352
2123.818
2125.285
2126.751
2128.218
2129.684
2131.151
2132.617
2134.084
2135.550
2137.017
2138.483
2139.950
2141.416
2142.883
2144.349
2145.816
2147.282
2148.749
2150.215
2151.682
2153.148
2154.615
2156.081
2157.548
2159.014
2160.481
2161.947
2163.414
2164.880
2166.347
2167.813
2169.280
2170.746
2172.213
2173.679
2175.146
2176.612
2178.079
2179.545
2181.012
2182.478
2183.945
2185.411
2186.878
2188.344
2189.811
2191.277
2192.744
2194.210
2195.677
2197.143
2198.610
2200.076
2201.543
2203.009
2204.476
2205.942
2207.409
2208.875
2210.342
2211.808
2213.275
2214.741
2216.208
2217.674
2219.141
2220.607
2222.074
2222.122
2222.171
2222.219
2222.268
2222.316
2222.365
2222.413
2222.462
2222.510
2222.559
2222.607
2222.656
2222.704
2222.753
2222.801
2222.850
2222.898
2222.947
2222.995
2223.044
2223.092
2223.141
2223.189
2223.238
2223.286
2223.335
2223.383
2223.432
2223.480
2223.529
2223.577
2223.626
2223.674
2223.723
2223.771
2223.820
2223.868
2223.917
2223.965
2224.014
2224.062
2224.111
2224.159
2224.208
2224.256
2224.305
2224.353
2224.402
2224.450
2224.499
2224.547
2224.596
2224.644
2224.693
2224.741
2224.790
2224.838
2224.887
2224.935
2224.984
2225.032
2225.081
2225.129
2225.178
2225.226
2225.275
2225.323
2225.372
2225.420
2225.469
2225.517
2225.566
2225.614
2225.663
2225.711
2225.760
2225.808
2225.857
2225.905
2225.954
2226.002
2226.051
2226.099
2226.148
2226.196
2226.245
2226.293
2226.342
2226.390
2226.439
2226.487
2226.536
2226.584
2226.633
2226.681
2226.730
2226.778
2226.827
2226.875
2226.924
2226.972
2227.021
2227.069
2227.118
2227.166
2227.215
2227.263
2227.312
2227.360
2227.409
2227.457
2227.506
2227.554
2227.603
2227.651
2227.700
2227.748
2227.797
2227.845
2227.894
2227.942
2227.991
2228.039
2228.088
2228.136
2228.185
2228.233
2228.282
2228.330
2228.379
2228.427
2228.476
2228.524
2228.573
2228.621
2228.670
2228.718
2228.767
2228.815
2228.864
2228.912
2228.961
2229.009
2229.058
2229.106
2229.155
2229.203
2229.252
2229.300
2229.349
2229.397
2229.446
2229.494
2229.543
2229.591
2229.640
2229.688
2229.737
2229.785
2229.834
2229.882
2229.931
2229.979
2230.028
2230.076
2230.125
2230.173
2230.222
2230.270
2230.319
2230.367
2230.416
2230.464
2230.513
2230.561
2230.610
2230.658
2230.707
2230.755
2230.804
2230.852
2230.901
2230.949
2230.998
2231.046
2231.095
2231.143
2231.192
2231.240
2231.289
2231.337
2231.386
2231.434
2231.483
2231.531
2231.580
2231.628
2231.677
2231.725
2231.774
2231.750
2231.726
2231.702
2231.678
2231.654
2231.630
2231.606
2231.582
2231.558
2231.534
2231.510
2231.486
2231.462
2231.438
2231.414
2231.390
2231.366
2231.342
2231.318
2231.294
2231.270
2231.246
2231.222
2231.198
2231.174
2231.150
2231.126
2231.102
2231.078
2231.054
2231.030
2231.006
2230.982
2230.958
2230.934
2230.910
2230.886
2230.862
2230.838
2230.814
2230.790
2230.766
2230.742
2230.718
2230.694
2230.670
2230.646
2230.622
2230.598
2230.574
2230.550
2230.526
2230.502
2230.478
2230.454
2230.430
2230.406
2230.382
2230.358
2230.334
2230.310
2230.286
2230.262
2230.238
2230.214
2230.190
2230.166
2230.142
2230.118
2230.094
2230.070
2230.046
2230.022
2229.998
2229.974
2229.950
2229.926
2229.902
2229.878
2229.854
2229.830
2229.806
2229.782
2229.758
2229.734
2229.710
2229.686
2229.662
2229.638
2229.614
2229.590
2229.566
2229.542
2229.518
2229.494
2229.470
2229.446
2229.422
2229.398
2229.374
2229.350
2229.326
2229.302
2229.278
2229.254
2229.230
2229.206
2229.182
2229.158
2229.134
2229.110
2229.086
2229.062
2229.038
2229.014
2228.990
2228.966
2228.942
2228.918
2228.894
2228.870
2228.846
2228.822
2228.798
2228.774
2228.750
2228.726
2228.702
2228.678
2228.654
2228.630
2228.606
2228.582
2228.558
2228.534
2228.510
2228.486
2228.462
2228.438
2228.414
2228.390
2228.366
2228.342
2228.318
2228.294
2228.270
2228.246
2228.222
2228.198
2228.174
2228.150
2228.126
2228.102
2228.078
2228.054
2228.030
2228.006
2227.982
2227.958
2227.934
2227.910
2227.886
2227.862
2227.838
2227.814
2227.790
2227.766
2227.742
2227.718
2227.694
2227.670
2227.646
2227.622
2227.598
2227.574
2227.550
2227.526
2227.502
2227.478
2227.454
2227.430
2227.406
2227.382
2227.358
2227.334
2227.310
2227.286
2227.262
2227.238
2227.214
2227.190
2227.166
2227.142
2227.118
2227.094
2227.070
2227.046
2227.022
2226.998
2226.974
2227.658
2228.342
2229.026
2229.710
2230.394
2231.078
2231.762
2232.446
2233.130
2233.814
2234.498
2235.182
2235.866
2236.550
2237.234
2237.918
2238.602
2239.286
2239.970
2240.654
2241.338
2242.022
2242.706
2243.390
2244.074
2244.758
2245.442
2246.126
2246.810
2247.494
2248.178
2248.862
2249.546
2250.230
2250.914
2251.598
2252.282
2252.966
2253.650
2254.334
2255.018
2255.702
2256.386
2257.070
2257.754
2258.438
2259.122
2259.806
2260.490
2261.174
2261.858
2262.542
2263.226
2263.910
2264.594
2265.278
2265.962
2266.646
2267.330
2268.014
2268.698
2269.382
2270.066
2270.750
2271.434
2272.118
2272.802
2273.486
2274.170
2274.854
2275.538
2276.222
2276.906
2277.590
2278.274
2278.958
2279.642
2280.326
2281.010
2281.694
2282.378
2283.062
2283.746
2284.430
2285.114
2285.798
2286.482
2287.166
2287.850
2288.534
2289.218
2289.902
2290.586
2291.270
2291.954
2292.638
2293.322
2294.006
2294.690
2295.374
2296.058
2296.742
2297.426
2298.110
2298.794
2299.478
2300.162
2300.846
2301.530
2302.214
2302.898
2303.582
2304.266
2304.950
2305.634
2306.318
2307.002
2307.686
2308.370
2309.054
2309.738
2310.422
2311.106
2311.790
2312.474
2313.158
2313.842
2314.526
2315.210
2315.894
2316.578
2317.262
2317.946
2318.630
2319.314
2319.998
2320.682
2321.366
2322.050
2322.734
2323.418
2324.102
2324.786
2325.470
2326.154
2326.838
2327.522
2328.206
2328.890
2329.574
2330.258
2330.942
2331.626
2332.310
2332.994
2333.678
2334.362
2335.046
2335.730
2336.414
2337.098
2337.782
2338.466
2339.150
2339.834
2340.518
2341.202
2341.886
2342.570
2343.254
2343.938
2344.622
2345.306
2345.990
2346.674
2347.358
2348.042
2348.726
2349.410
2350.094
2350.778
2351.462
2352.146
2352.830
2353.514
2354.198
2354.882
2355.566
2356.250
2356.934
2357.618
2358.302
2358.986
2359.670
2360.354
2361.038
2361.722
2362.406
2363.090
2363.774
2362.381
2360.988
2359.595
2358.202
2356.809
2355.416
2354.023
2352.630
2351.237
2349.844
2348.451
2347.058
2345.665
2344.272
2342.879
2341.486
2340.093
2338.700
2337.307
2335.914
2334.521
2333.128
2331.735
2330.342
2328.949
2327.556
2326.163
2324.770
2323.377
2321.984
2320.591
2319.198
2317.805
2316.412
2315.019
2313.626
2312.233
2310.840
2309.447
2308.054
2306.661
2305.268
2303.875
2302.482
2301.089
2299.696
2298.303
2296.910
2295.517
2294.124
2292.731
2291.338
2289.945
2288.552
2287.159
2285.766
2284.373
2282.980
2281.587
2280.194
2278.801
2277.408
2276.015
2274.622
2273.229
2271.836
2270.443
2269.050
2267.657
2266.264
2264.871
2263.478
2262.085
2260.692
2259.299
2257.906
2256.513
2255.120
2253.727
2252.334
2250.941
2249.548
2248.155
2246.762
2245.369
2243.976
2242.583
2241.190
2239.797
2238.404
2237.011
2235.618
2234.225
2232.832
2231.439
2230.046
2228.653
2227.260
2225.867
2224.474
2223.081
2221.688
2220.295
2218.902
2217.509
2216.116
2214.723
2213.330
2211.937
2210.544
2209.151
2207.758
2206.365
2204.972
2203.579
2202.186
2200.793
2199.400
2198.007
2196.614
2195.221
2193.828
2192.435
2191.042
2189.649
2188.256
2186.863
2185.470
2184.077
2182.684
2181.291
2179.898
2178.505
2177.112
2175.719
2174.326
2172.933
2171.540
2170.147
2168.754
2167.361
2165.968
2164.575
2163.182
2161.789
2160.396
2159.003
2157.610
2156.217
2154.824
2153.431
2152.038
2150.645
2149.252
2147.859
2146.466
2145.073
2143.680
2142.287
2140.894
2139.501
2138.108
2136.715
2135.322
2133.929
2132.536
2131.143
2129.750
2128.357
2126.964
2125.571
2124.178
2122.785
2121.392
2119.999
2118.606
2117.213
2115.820
2114.427
2113.034
2111.641
2110.248
2108.855
2107.462
2106.069
2104.676
2103.283
2101.890
2100.497
2099.104
2097.711
2096.318
2094.925
2093.532
2092.139
2090.746
2089.353
2087.960
2086.567
2085.174
2084.881
2084.588
2084.295
2084.002
2083.709
2083.416
2083.123
2082.830
2082.537
2082.244
2081.951
2081.658
2081.365
2081.072
2080.779
2080.486
2080.193
2079.900
2079.607
2079.314
2079.021
2078.728
2078.435
2078.142
2077.849
2077.556
2077.263
2076.970
2076.677
2076.384
2076.091
2075.798
2075.505
2075.212
2074.919
2074.626
2074.333
2074.040
2073.747
2073.454
2073.161
2072.868
2072.575
2072.282
2071.989
2071.696
2071.403
2071.110
2070.817
2070.524
2070.231
2069.938
2069.645
2069.352
2069.059
2068.766
2068.473
2068.180
2067.887
2067.594
2067.301
2067.008
2066.715
2066.422
2066.129
2065.836
2065.543
2065.250
2064.957
2064.664
2064.371
2064.078
2063.785
2063.492
2063.199
2062.906
2062.613
2062.320
2062.027
2061.734
2061.441
2061.148
2060.855
2060.562
2060.269
2059.976
2059.683
2059.390
2059.097
2058.804
2058.511
2058.218
2057.925
2057.632
2057.339
2057.046
2056.753
2056.460
2056.167
2055.874
2055.581
2055.288
2054.995
2054.702
2054.409
2054.116
2053.823
2053.530
2053.237
2052.944
2052.651
2052.358
2052.065
2051.772
2051.479
2051.186
2050.893
2050.600
2050.307
2050.014
2049.721
2049.428
2049.135
2048.842
2048.549
2048.256
2047.963
2047.670
2047.377
2047.084
2046.791
2046.498
2046.205
2045.912
2045.619
2045.326
2045.033
2044.740
2044.447
2044.154
2043.861
2043.568
2043.275
2042.982
2042.689
2042.396
2042.103
2041.810
2041.517
2041.224
2040.931
2040.638
2040.345
2040.052
2039.759
2039.466
2039.173
2038.880
2038.587
2038.294
2038.001
2037.708
2037.415
2037.122
2036.829
2036.536
2036.243
2035.950
2035.657
2035.364
2035.071
2034.778
2034.485
2034.192
2033.899
2033.606
2033.313
2033.020
2032.727
2032.434
2032.141
2031.848
2031.555
2031.262
2030.969
2030.676
2030.383
2030.090
2029.797
2029.504
2029.211
2028.918
2028.625
2028.332
2028.039
2027.746
2027.453
2027.160
2026.867
