341.685
347.086
352.487
357.888
363.289
368.690
374.091
379.492
384.893
390.294
395.695
401.096
406.497
411.898
417.299
422.700
428.101
433.502
438.903
444.304
449.705
455.106
460.507
465.908
471.309
476.710
482.111
487.512
492.913
498.314
503.715
509.116
514.517
519.918
525.319
530.720
536.121
541.522
546.923
552.324
557.725
563.126
568.527
573.928
579.329
584.730
590.131
595.532
600.933
606.334
611.735
617.136
622.537
627.938
633.339
638.740
644.141
649.542
654.943
660.344
665.745
671.146
676.547
681.948
687.349
692.750
698.151
703.552
708.953
714.354
719.755
725.156
730.557
735.958
741.359
746.760
752.161
757.562
762.963
768.364
773.765
779.166
784.567
789.968
795.369
800.770
806.171
811.572
816.973
822.374
827.775
833.176
838.577
843.978
849.379
854.780
860.181
865.582
870.983
876.384
881.785
887.186
892.587
897.988
903.389
908.790
914.191
919.592
924.993
930.394
935.795
941.196
946.597
951.998
957.399
962.800
968.201
973.602
979.003
984.404
989.805
995.206
1000.607
1006.008
1011.409
1016.810
1022.211
1027.612
1033.013
1038.414
1043.815
1049.216
1054.617
1060.018
1065.419
1070.820
1076.221
1081.622
1087.023
1092.424
1097.825
1103.226
1108.627
1114.028
1119.429
1124.830
1130.231
1135.632
1141.033
1146.434
1151.835
1157.236
1162.637
1168.038
1173.439
1178.840
1184.241
1189.642
1195.043
1200.444
1205.845
1211.246
1216.647
1222.048
1227.449
1232.850
1238.251
1243.652
1249.053
1254.454
1259.855
1265.256
1270.657
1276.058
1281.459
1286.860
1292.261
1297.662
1303.063
1308.464
1313.865
1319.266
1324.667
1330.068
1335.469
1340.870
1346.271
1351.672
1357.073
1362.474
1367.875
1373.276
1378.677
1384.078
1389.479
1394.880
1400.281
1405.682
1411.083
1416.484
1421.885
1423.986
1426.088
1428.189
1430.291
1432.392
1434.494
1436.595
1438.697
1440.798
1442.900
1445.001
1447.103
1449.204
1451.306
1453.407
1455.509
1457.610
1459.712
1461.813
1463.915
1466.016
1468.118
1470.219
1472.321
1474.422
1476.524
1478.625
1480.727
1482.828
1484.930
1487.031
1489.133
1491.234
1493.336
1495.437
1497.539
1499.640
1501.742
1503.843
1505.945
1508.046
1510.148
1512.249
1514.351
1516.452
1518.554
1520.655
1522.757
1524.858
1526.960
1529.061
1531.163
1533.264
1535.366
1537.467
1539.569
1541.670
1543.772
1545.873
1547.975
1550.076
1552.178
1554.279
1556.381
1558.482
1560.584
1562.685
1564.787
1566.888
1568.990
1571.091
1573.193
1575.294
1577.396
1579.497
1581.599
1583.700
1585.802
1587.903
1590.005
1592.106
1594.208
1596.309
1598.411
1600.512
1602.614
1604.715
1606.817
1608.918
1611.020
1613.121
1615.223
1617.324
1619.426
1621.527
1623.629
1625.730
1627.832
1629.933
1632.035
1634.136
1636.238
1638.339
1640.441
1642.542
1644.644
1646.745
1648.847
1650.948
1653.050
1655.151
1657.253
1659.354
1661.456
1663.557
1665.659
1667.760
1669.862
1671.963
1674.065
1676.166
1678.268
1680.369
1682.471
1684.572
1686.674
1688.775
1690.877
1692.978
1695.080
1697.181
1699.283
1701.384
1703.486
1705.587
1707.689
1709.790
1711.892
1713.993
1716.095
1718.196
1720.298
1722.399
1724.501
1726.602
1728.704
1730.805
1732.907
1735.008
1737.110
1739.211
1741.313
1743.414
1745.516
1747.617
1749.719
1751.820
1753.922
1756.023
1758.125
1760.226
1762.328
1764.429
1766.531
1768.632
1770.734
1772.835
1774.937
1777.038
1779.140
1781.241
1783.343
1785.444
1787.546
1789.647
1791.749
1793.850
1795.952
1798.053
1800.155
1802.256
1804.358
1806.459
1808.561
1810.662
1812.764
1814.865
1816.967
1819.068
1821.170
1823.271
1825.373
1827.474
1829.576
1831.677
1833.779
1835.880
1837.982
1840.083
1842.185
1846.144
1850.103
1854.062
1858.021
1861.980
1865.939
1869.898
1873.857
1877.816
1881.775
1885.734
1889.693
1893.652
1897.611
1901.570
1905.529
1909.488
1913.447
1917.406
1921.365
1925.324
1929.283
1933.242
1937.201
1941.160
1945.119
1949.078
1953.037
1956.996
1960.955
1964.914
1968.873
1972.832
1976.791
1980.750
1984.709
1988.668
1992.627
1996.586
2000.545
2004.504
2008.463
2012.422
2016.381
2020.340
2024.299
2028.258
2032.217
2036.176
2040.135
2044.094
2048.053
2052.012
2055.971
2059.930
2063.889
2067.848
2071.807
2075.766
2079.725
2083.684
2087.643
2091.602
2095.561
2099.520
2103.479
2107.438
2111.397
2115.356
2119.315
2123.274
2127.233
2131.192
2135.151
2139.110
2143.069
2147.028
2150.987
2154.946
2158.905
2162.864
2166.823
2170.782
2174.741
2178.700
2182.659
2186.618
2190.577
2194.536
2198.495
2202.454
2206.413
2210.372
2214.331
2218.290
2222.249
2226.208
2230.167
2234.126
2238.085
2242.044
2246.003
2249.962
2253.921
2257.880
2261.839
2265.798
2269.757
2273.716
2277.675
2281.634
2285.593
2289.552
2293.511
2297.470
2301.429
2305.388
2309.347
2313.306
2317.265
2321.224
2325.183
2329.142
2333.101
2337.060
2341.019
2344.978
2348.937
2352.896
2356.855
2360.814
2364.773
2368.732
2372.691
2376.650
2380.609
2384.568
2388.527
2392.486
2396.445
2400.404
2404.363
2408.322
2412.281
2416.240
2420.199
2424.158
2428.117
2432.076
2436.035
2439.994
2443.953
2447.912
2451.871
2455.830
2459.789
2463.748
2467.707
2471.666
2475.625
2479.584
2483.543
2487.502
2491.461
2495.420
2499.379
2503.338
2507.297
2511.256
2515.215
2519.174
2523.133
2527.092
2531.051
2535.010
2538.969
2542.928
2546.887
2550.846
2554.805
2558.764
2562.723
2566.682
2570.641
2574.600
2578.559
2582.518
2586.477
2590.436
2594.395
2598.354
2602.313
2606.272
2610.231
2614.190
2618.149
2622.108
2626.067
2630.026
2633.985
2634.131
2634.278
2634.424
2634.571
2634.717
2634.864
2635.010
2635.157
2635.303
2635.450
2635.596
2635.743
2635.889
2636.036
2636.182
2636.329
2636.475
2636.622
2636.768
2636.915
2637.061
2637.208
2637.354
2637.501
2637.647
2637.794
2637.940
2638.087
2638.233
2638.380
2638.526
2638.673
2638.819
2638.966
2639.112
2639.259
2639.405
2639.552
2639.698
2639.845
2639.991
2640.138
2640.284
2640.431
2640.577
2640.724
2640.870
2641.017
2641.163
2641.310
2641.456
2641.603
2641.749
2641.896
2642.042
2642.189
2642.335
2642.482
2642.628
2642.775
2642.921
2643.068
2643.214
2643.361
2643.507
2643.654
2643.800
2643.947
2644.093
2644.240
2644.386
2644.533
2644.679
2644.826
2644.972
2645.119
2645.265
2645.412
2645.558
2645.705
2645.851
2645.998
2646.144
2646.291
2646.437
2646.584
2646.730
2646.877
2647.023
2647.170
2647.316
2647.463
2647.609
2647.756
2647.902
2648.049
2648.195
2648.342
2648.488
2648.635
2648.781
2648.928
2649.074
2649.221
2649.367
2649.514
2649.660
2649.807
2649.953
2650.100
2650.246
2650.393
2650.539
2650.686
2650.832
2650.979
2651.125
2651.272
2651.418
2651.565
2651.711
2651.858
2652.004
2652.151
2652.297
2652.444
2652.590
2652.737
2652.883
2653.030
2653.176
2653.323
2653.469
2653.616
2653.762
2653.909
2654.055
2654.202
2654.348
2654.495
2654.641
2654.788
2654.934
2655.081
2655.227
2655.374
2655.520
2655.667
2655.813
2655.960
2656.106
2656.253
2656.399
2656.546
2656.692
2656.839
2656.985
2657.132
2657.278
2657.425
2657.571
2657.718
2657.864
2658.011
2658.157
2658.304
2658.450
2658.597
2658.743
2658.890
2659.036
2659.183
2659.329
2659.476
2659.622
2659.769
2659.915
2660.062
2660.208
2660.355
2660.501
2660.648
2660.794
2660.941
2661.087
2661.234
2661.380
2661.527
2661.673
2661.820
2661.966
2662.113
2662.259
2662.406
2662.552
2662.699
2662.845
2662.992
2663.138
2663.285
2660.572
2657.860
2655.147
2652.435
2649.722
2647.010
2644.297
2641.585
2638.872
2636.160
2633.447
2630.735
2628.022
2625.310
2622.597
2619.885
2617.172
2614.460
2611.747
2609.035
2606.322
2603.610
2600.897
2598.185
2595.472
2592.760
2590.047
2587.335
2584.622
2581.910
2579.197
2576.485
2573.772
2571.060
2568.347
2565.635
2562.922
2560.210
2557.497
2554.785
2552.072
2549.360
2546.647
2543.935
2541.222
2538.510
2535.797
2533.085
2530.372
2527.660
2524.947
2522.235
2519.522
2516.810
2514.097
2511.385
2508.672
2505.960
2503.247
2500.535
2497.822
2495.110
2492.397
2489.685
2486.972
2484.260
2481.547
2478.835
2476.122
2473.410
2470.697
2467.985
2465.272
2462.560
2459.847
2457.135
2454.422
2451.710
2448.997
2446.285
2443.572
2440.860
2438.147
2435.435
2432.722
2430.010
2427.297
2424.585
2421.872
2419.160
2416.447
2413.735
2411.022
2408.310
2405.597
2402.885
2400.172
2397.460
2394.747
2392.035
2389.322
2386.610
2383.897
2381.185
2378.472
2375.760
2373.047
2370.335
2367.622
2364.910
2362.197
2359.485
2356.772
2354.060
2351.347
2348.635
2345.922
2343.210
2340.497
2337.785
2335.072
2332.360
2329.647
2326.935
2324.222
2321.510
2318.797
2316.085
2313.372
2310.660
2307.947
2305.235
2302.522
2299.810
2297.097
2294.385
2291.672
2288.960
2286.247
2283.535
2280.822
2278.110
2275.397
2272.685
2269.972
2267.260
2264.547
2261.835
2259.122
2256.410
2253.697
2250.985
2248.272
2245.560
2242.847
2240.135
2237.422
2234.710
2231.997
2229.285
2226.572
2223.860
2221.147
2218.435
2215.722
2213.010
2210.297
2207.585
2204.872
2202.160
2199.447
2196.735
2194.022
2191.310
2188.597
2185.885
2183.172
2180.460
2177.747
2175.035
2172.322
2169.610
2166.897
2164.185
2161.472
2158.760
2156.047
2153.335
2150.622
2147.910
2145.197
2142.485
2139.772
2137.060
2134.347
2131.635
2128.922
2126.210
2123.497
2120.785
2121.689
2122.593
2123.497
2124.401
2125.305
2126.209
2127.113
2128.017
2128.921
2129.825
2130.729
2131.633
2132.537
2133.441
2134.345
2135.249
2136.153
2137.057
2137.961
2138.865
2139.769
2140.673
2141.577
2142.481
2143.385
2144.289
2145.193
2146.097
2147.001
2147.905
2148.809
2149.713
2150.617
2151.521
2152.425
2153.329
2154.233
2155.137
2156.041
2156.945
2157.849
2158.753
2159.657
2160.561
2161.465
2162.369
2163.273
2164.177
2165.081
2165.985
2166.889
2167.793
2168.697
2169.601
2170.505
2171.409
2172.313
2173.217
2174.121
2175.025
2175.929
2176.833
2177.737
2178.641
2179.545
2180.449
2181.353
2182.257
2183.161
2184.065
2184.969
2185.873
2186.777
2187.681
2188.585
2189.489
2190.393
2191.297
2192.201
2193.105
2194.009
2194.913
2195.817
2196.721
2197.625
2198.529
2199.433
2200.337
2201.241
2202.145
2203.049
2203.953
2204.857
2205.761
2206.665
2207.569
2208.473
2209.377
2210.281
2211.185
2212.089
2212.993
2213.897
2214.801
2215.705
2216.609
2217.513
2218.417
2219.321
2220.225
2221.129
2222.033
2222.937
2223.841
2224.745
2225.649
2226.553
2227.457
2228.361
2229.265
2230.169
2231.073
2231.977
2232.881
2233.785
2234.689
2235.593
2236.497
2237.401
2238.305
2239.209
2240.113
2241.017
2241.921
2242.825
2243.729
2244.633
2245.537
2246.441
2247.345
2248.249
2249.153
2250.057
2250.961
2251.865
2252.769
2253.673
2254.577
2255.481
2256.385
2257.289
2258.193
2259.097
2260.001
2260.905
2261.809
2262.713
2263.617
2264.521
2265.425
2266.329
2267.233
2268.137
2269.041
2269.945
2270.849
2271.753
2272.657
2273.561
2274.465
2275.369
2276.273
2277.177
2278.081
2278.985
2279.889
2280.793
2281.697
2282.601
2283.505
2284.409
2285.313
2286.217
2287.121
2288.025
2288.929
2289.833
2290.737
2291.641
2292.545
2293.449
2294.353
2295.257
2296.161
2297.065
2297.969
2298.873
2299.777
2300.681
2301.585
2300.363
2299.141
2297.919
2296.697
2295.475
2294.253
2293.031
2291.809
2290.587
2289.365
2288.143
2286.921
2285.699
2284.477
2283.255
2282.033
2280.811
2279.589
2278.367
2277.145
2275.923
2274.701
2273.479
2272.257
2271.035
2269.813
2268.591
2267.369
2266.147
2264.925
2263.703
2262.481
2261.259
2260.037
2258.815
2257.593
2256.371
2255.149
2253.927
2252.705
2251.483
2250.261
2249.039
2247.817
2246.595
2245.373
2244.151
2242.929
2241.707
2240.485
2239.263
2238.041
2236.819
2235.597
2234.375
2233.153
2231.931
2230.709
2229.487
2228.265
2227.043
2225.821
2224.599
2223.377
2222.155
2220.933
2219.711
2218.489
2217.267
2216.045
2214.823
2213.601
2212.379
2211.157
2209.935
2208.713
2207.491
2206.269
2205.047
2203.825
2202.603
2201.381
2200.159
2198.937
2197.715
2196.493
2195.271
2194.049
2192.827
2191.605
2190.383
2189.161
2187.939
2186.717
2185.495
2184.273
2183.051
2181.829
2180.607
2179.385
2178.163
2176.941
2175.719
2174.497
2173.275
2172.053
2170.831
2169.609
2168.387
2167.165
2165.943
2164.721
2163.499
2162.277
2161.055
2159.833
2158.611
2157.389
2156.167
2154.945
2153.723
2152.501
2151.279
2150.057
2148.835
2147.613
2146.391
2145.169
2143.947
2142.725
2141.503
2140.281
2139.059
2137.837
2136.615
2135.393
2134.171
2132.949
2131.727
2130.505
2129.283
2128.061
2126.839
2125.617
2124.395
2123.173
2121.951
2120.729
2119.507
2118.285
2117.063
2115.841
2114.619
2113.397
2112.175
2110.953
2109.731
2108.509
2107.287
2106.065
2104.843
2103.621
2102.399
2101.177
2099.955
2098.733
2097.511
2096.289
2095.067
2093.845
2092.623
2091.401
2090.179
2088.957
2087.735
2086.513
2085.291
2084.069
2082.847
2081.625
2080.403
2079.181
2077.959
2076.737
2075.515
2074.293
2073.071
2071.849
2070.627
2069.405
2068.183
2066.961
2065.739
2064.517
2063.295
2062.073
2060.851
2059.629
2058.407
2057.185
2057.869
2058.554
2059.238
2059.923
2060.607
2061.292
2061.976
2062.661
2063.345
2064.030
2064.714
2065.399
2066.083
2066.768
2067.452
2068.137
2068.821
2069.506
2070.190
2070.875
2071.559
2072.244
2072.928
2073.613
2074.297
2074.982
2075.666
2076.351
2077.035
2077.720
2078.404
2079.089
2079.773
2080.458
2081.142
2081.827
2082.511
2083.196
2083.880
2084.565
2085.249
2085.934
2086.618
2087.303
2087.987
2088.672
2089.356
2090.041
2090.725
2091.410
2092.094
2092.779
2093.463
2094.148
2094.832
2095.517
2096.201
2096.886
2097.570
2098.255
2098.939
2099.624
2100.308
2100.993
2101.677
2102.362
2103.046
2103.731
2104.415
2105.100
2105.784
2106.469
2107.153
2107.838
2108.522
2109.207
2109.891
2110.576
2111.260
2111.945
2112.629
2113.314
2113.998
2114.683
2115.367
2116.052
2116.736
2117.421
2118.105
2118.790
2119.474
2120.159
2120.843
2121.528
2122.212
2122.897
2123.581
2124.266
2124.950
2125.635
2126.319
2127.004
2127.688
2128.373
2129.057
2129.742
2130.426
2131.111
2131.795
2132.480
2133.164
2133.849
2134.533
2135.218
2135.902
2136.587
2137.271
2137.956
2138.640
2139.325
2140.009
2140.694
2141.378
2142.063
2142.747
2143.432
2144.116
2144.801
2145.485
2146.170
2146.854
2147.539
2148.223
2148.908
2149.592
2150.277
2150.961
2151.646
2152.330
2153.015
2153.699
2154.384
2155.068
2155.753
2156.437
2157.122
2157.806
2158.491
2159.175
2159.860
2160.544
2161.229
2161.913
2162.598
2163.282
2163.967
2164.651
2165.336
2166.020
2166.705
2167.389
2168.074
2168.758
2169.443
2170.127
2170.812
2171.496
2172.181
2172.865
2173.550
2174.234
2174.919
2175.603
2176.288
2176.972
2177.657
2178.341
2179.026
2179.710
2180.395
2181.079
2181.764
2182.448
2183.133
2183.817
2184.502
2185.186
2185.871
2186.555
2187.240
2187.924
2188.609
2189.293
2189.978
2190.662
2191.347
2192.031
2192.716
2193.400
2194.085
2195.356
2196.627
2197.898
2199.169
2200.440
2201.711
2202.982
2204.253
2205.524
2206.795
2208.066
2209.337
2210.608
2211.879
2213.150
2214.421
2215.692
2216.963
2218.234
2219.505
2220.776
2222.047
2223.318
2224.589
2225.860
2227.131
2228.402
2229.673
2230.944
2232.215
2233.486
2234.757
2236.028
2237.299
2238.570
2239.841
2241.112
2242.383
2243.654
2244.925
2246.196
2247.467
2248.738
2250.009
2251.280
2252.551
2253.822
2255.093
2256.364
2257.635
2258.906
2260.177
2261.448
2262.719
2263.990
2265.261
2266.532
2267.803
2269.074
2270.345
2271.616
2272.887
2274.158
2275.429
2276.700
2277.971
2279.242
2280.513
2281.784
2283.055
2284.326
2285.597
2286.868
2288.139
2289.410
2290.681
2291.952
2293.223
2294.494
2295.765
2297.036
2298.307
2299.578
2300.849
2302.120
2303.391
2304.662
2305.933
2307.204
2308.475
2309.746
2311.017
2312.288
2313.559
2314.830
2316.101
2317.372
2318.643
2319.914
2321.185
2322.456
2323.727
2324.998
2326.269
2327.540
2328.811
2330.082
2331.353
2332.624
2333.895
2335.166
2336.437
2337.708
2338.979
2340.250
2341.521
2342.792
2344.063
2345.334
2346.605
2347.876
2349.147
2350.418
2351.689
2352.960
2354.231
2355.502
2356.773
2358.044
2359.315
2360.586
2361.857
2363.128
2364.399
2365.670
2366.941
2368.212
2369.483
2370.754
2372.025
2373.296
2374.567
2375.838
2377.109
2378.380
2379.651
2380.922
2382.193
2383.464
2384.735
2386.006
2387.277
2388.548
2389.819
2391.090
2392.361
2393.632
2394.903
2396.174
2397.445
2398.716
2399.987
2401.258
2402.529
2403.800
2405.071
2406.342
2407.613
2408.884
2410.155
2411.426
2412.697
2413.968
2415.239
2416.510
2417.781
2419.052
2420.323
2421.594
2422.865
2424.136
2425.407
2426.678
2427.949
2429.220
2430.491
2431.762
2433.033
2434.304
2435.575
2436.846
2438.117
2439.388
2440.659
2441.930
2443.201
2444.472
2445.743
2447.014
2448.285
2447.551
2446.818
2446.084
2445.351
2444.617
2443.884
2443.150
2442.417
2441.683
2440.950
2440.216
2439.483
2438.749
2438.016
2437.282
2436.549
2435.815
2435.082
2434.348
2433.615
2432.881
2432.148
2431.414
2430.681
2429.947
2429.214
2428.480
2427.747
2427.013
2426.280
2425.546
2424.813
2424.079
2423.346
2422.612
2421.879
2421.145
2420.412
2419.678
2418.945
2418.211
2417.478
2416.744
2416.011
2415.277
2414.544
2413.810
2413.077
2412.343
2411.610
2410.876
2410.143
2409.409
2408.676
2407.942
2407.209
2406.475
2405.742
2405.008
2404.275
2403.541
2402.808
2402.074
2401.341
2400.607
2399.874
2399.140
2398.407
2397.673
2396.940
2396.206
2395.473
2394.739
2394.006
2393.272
2392.539
2391.805
2391.072
2390.338
2389.605
2388.871
2388.138
2387.404
2386.671
2385.937
2385.204
2384.470
2383.737
2383.003
2382.270
2381.536
2380.803
2380.069
2379.336
2378.602
2377.869
2377.135
2376.402
2375.668
2374.935
2374.201
2373.468
2372.734
2372.001
2371.267
2370.534
2369.800
2369.067
2368.333
2367.600
2366.866
2366.133
2365.399
2364.666
2363.932
2363.199
2362.465
2361.732
2360.998
2360.265
2359.531
2358.798
2358.064
2357.331
2356.597
2355.864
2355.130
2354.397
2353.663
2352.930
2352.196
2351.463
2350.729
2349.996
2349.262
2348.529
2347.795
2347.062
2346.328
2345.595
2344.861
2344.128
2343.394
2342.661
2341.927
2341.194
2340.460
2339.727
2338.993
2338.260
2337.526
2336.793
2336.059
2335.326
2334.592
2333.859
2333.125
2332.392
2331.658
2330.925
2330.191
2329.458
2328.724
2327.991
2327.257
2326.524
2325.790
2325.057
2324.323
2323.590
2322.856
2322.123
2321.389
2320.656
2319.922
2319.189
2318.455
2317.722
2316.988
2316.255
2315.521
2314.788
2314.054
2313.321
2312.587
2311.854
2311.120
2310.387
2309.653
2308.920
2308.186
2307.453
2306.719
2305.986
2305.252
2304.519
2303.785
2303.052
2302.318
