918.485
920.318
922.151
923.984
925.817
927.650
929.483
931.316
933.149
934.982
936.815
938.648
940.481
942.314
944.147
945.980
947.813
949.646
951.479
953.312
955.145
956.978
958.811
960.644
962.477
964.310
966.143
967.976
969.809
971.642
973.475
975.308
977.141
978.974
980.807
982.640
984.473
986.306
988.139
989.972
991.805
993.638
995.471
997.304
999.137
1000.970
1002.803
1004.636
1006.469
1008.302
1010.135
1011.968
1013.801
1015.634
1017.467
1019.300
1021.133
1022.966
1024.799
1026.632
1028.465
1030.298
1032.131
1033.964
1035.797
1037.630
1039.463
1041.296
1043.129
1044.962
1046.795
1048.628
1050.461
1052.294
1054.127
1055.960
1057.793
1059.626
1061.459
1063.292
1065.125
1066.958
1068.791
1070.624
1072.457
1074.290
1076.123
1077.956
1079.789
1081.622
1083.455
1085.288
1087.121
1088.954
1090.787
1092.620
1094.453
1096.286
1098.119
1099.952
1101.785
1103.618
1105.451
1107.284
1109.117
1110.950
1112.783
1114.616
1116.449
1118.282
1120.115
1121.948
1123.781
1125.614
1127.447
1129.280
1131.113
1132.946
1134.779
1136.612
1138.445
1140.278
1142.111
1143.944
1145.777
1147.610
1149.443
1151.276
1153.109
1154.942
1156.775
1158.608
1160.441
1162.274
1164.107
1165.940
1167.773
1169.606
1171.439
1173.272
1175.105
1176.938
1178.771
1180.604
1182.437
1184.270
1186.103
1187.936
1189.769
1191.602
1193.435
1195.268
1197.101
1198.934
1200.767
1202.600
1204.433
1206.266
1208.099
1209.932
1211.765
1213.598
1215.431
1217.264
1219.097
1220.930
1222.763
1224.596
1226.429
1228.262
1230.095
1231.928
1233.761
1235.594
1237.427
1239.260
1241.093
1242.926
1244.759
1246.592
1248.425
1250.258
1252.091
1253.924
1255.757
1257.590
1259.423
1261.256
1263.089
1264.922
1266.755
1268.588
1270.421
1272.254
1274.087
1275.920
1277.753
1279.586
1281.419
1283.252
1285.085
1290.803
1296.522
1302.240
1307.959
1313.677
1319.396
1325.114
1330.833
1336.551
1342.270
1347.988
1353.707
1359.425
1365.144
1370.862
1376.581
1382.299
1388.018
1393.736
1399.455
1405.173
1410.892
1416.610
1422.329
1428.047
1433.766
1439.484
1445.203
1450.921
1456.640
1462.358
1468.077
1473.795
1479.514
1485.232
1490.951
1496.669
1502.388
1508.106
1513.825
1519.543
1525.262
1530.980
1536.699
1542.417
1548.136
1553.854
1559.573
1565.291
1571.010
1576.728
1582.447
1588.165
1593.884
1599.602
1605.321
1611.039
1616.758
1622.476
1628.195
1633.913
1639.632
1645.350
1651.069
1656.787
1662.506
1668.224
1673.943
1679.661
1685.380
1691.098
1696.817
1702.535
1708.254
1713.972
1719.691
1725.409
1731.128
1736.846
1742.565
1748.283
1754.002
1759.720
1765.439
1771.157
1776.876
1782.594
1788.313
1794.031
1799.750
1805.468
1811.187
1816.905
1822.624
1828.342
1834.061
1839.779
1845.498
1851.216
1856.935
1862.653
1868.372
1874.090
1879.809
1885.527
1891.246
1896.964
1902.683
1908.401
1914.120
1919.838
1925.557
1931.275
1936.994
1942.712
1948.431
1954.149
1959.868
1965.586
1971.305
1977.023
1982.742
1988.460
1994.179
1999.897
2005.616
2011.334
2017.053
2022.771
2028.490
2034.208
2039.927
2045.645
2051.364
2057.082
2062.801
2068.519
2074.238
2079.956
2085.675
2091.393
2097.112
2102.830
2108.549
2114.267
2119.986
2125.704
2131.423
2137.141
2142.860
2148.578
2154.297
2160.015
2165.734
2171.452
2177.171
2182.889
2188.608
2194.326
2200.045
2205.763
2211.482
2217.200
2222.919
2228.637
2234.356
2240.074
2245.793
2251.511
2257.230
2262.948
2268.667
2274.385
2280.104
2285.822
2291.541
2297.259
2302.978
2308.696
2314.415
2320.133
2325.852
2331.570
2337.289
2343.007
2348.726
2354.444
2360.163
2365.881
2371.600
2377.318
2383.037
2388.755
2394.474
2400.192
2405.911
2411.629
2417.348
2423.066
2428.785
2425.119
2421.453
2417.787
2414.121
2410.455
2406.789
2403.123
2399.457
2395.791
2392.125
2388.459
2384.793
2381.127
2377.461
2373.795
2370.129
2366.463
2362.797
2359.131
2355.465
2351.799
2348.133
2344.467
2340.801
2337.135
2333.469
2329.803
2326.137
2322.471
2318.805
2315.139
2311.473
2307.807
2304.141
2300.475
2296.809
2293.143
2289.477
2285.811
2282.145
2278.479
2274.813
2271.147
2267.481
2263.815
2260.149
2256.483
2252.817
2249.151
2245.485
2241.819
2238.153
2234.487
2230.821
2227.155
2223.489
2219.823
2216.157
2212.491
2208.825
2205.159
2201.493
2197.827
2194.161
2190.495
2186.829
2183.163
2179.497
2175.831
2172.165
2168.499
2164.833
2161.167
2157.501
2153.835
2150.169
2146.503
2142.837
2139.171
2135.505
2131.839
2128.173
2124.507
2120.841
2117.175
2113.509
2109.843
2106.177
2102.511
2098.845
2095.179
2091.513
2087.847
2084.181
2080.515
2076.849
2073.183
2069.517
2065.851
2062.185
2058.519
2054.853
2051.187
2047.521
2043.855
2040.189
2036.523
2032.857
2029.191
2025.525
2021.859
2018.193
2014.527
2010.861
2007.195
2003.529
1999.863
1996.197
1992.531
1988.865
1985.199
1981.533
1977.867
1974.201
1970.535
1966.869
1963.203
1959.537
1955.871
1952.205
1948.539
1944.873
1941.207
1937.541
1933.875
1930.209
1926.543
1922.877
1919.211
1915.545
1911.879
1908.213
1904.547
1900.881
1897.215
1893.549
1889.883
1886.217
1882.551
1878.885
1875.219
1871.553
1867.887
1864.221
1860.555
1856.889
1853.223
1849.557
1845.891
1842.225
1838.559
1834.893
1831.227
1827.561
1823.895
1820.229
1816.563
1812.897
1809.231
1805.565
1801.899
1798.233
1794.567
1790.901
1787.235
1783.569
1779.903
1776.237
1772.571
1768.905
1765.239
1761.573
1757.907
1754.241
1750.575
1746.909
1743.243
1739.577
1735.911
1732.245
1728.579
1724.913
1721.247
1717.581
1713.915
1710.249
1706.583
1702.917
1699.251
1695.585
1697.613
1699.642
1701.670
1703.699
1705.727
1707.756
1709.784
1711.813
1713.841
1715.870
1717.898
1719.927
1721.955
1723.984
1726.012
1728.041
1730.069
1732.098
1734.126
1736.155
1738.183
1740.212
1742.240
1744.269
1746.297
1748.326
1750.354
1752.383
1754.411
1756.440
1758.468
1760.497
1762.525
1764.554
1766.582
1768.611
1770.639
1772.668
1774.696
1776.725
1778.753
1780.782
1782.810
1784.839
1786.867
1788.896
1790.924
1792.953
1794.981
1797.010
1799.038
1801.067
1803.095
1805.124
1807.152
1809.181
1811.209
1813.238
1815.266
1817.295
1819.323
1821.352
1823.380
1825.409
1827.437
1829.466
1831.494
1833.523
1835.551
1837.580
1839.608
1841.637
1843.665
1845.694
1847.722
1849.751
1851.779
1853.808
1855.836
1857.865
1859.893
1861.922
1863.950
1865.979
1868.007
1870.036
1872.064
1874.093
1876.121
1878.150
1880.178
1882.207
1884.235
1886.264
1888.292
1890.321
1892.349
1894.378
1896.406
1898.435
1900.463
1902.492
1904.520
1906.549
1908.577
1910.606
1912.634
1914.663
1916.691
1918.720
1920.748
1922.777
1924.805
1926.834
1928.862
1930.891
1932.919
1934.948
1936.976
1939.005
1941.033
1943.062
1945.090
1947.119
1949.147
1951.176
1953.204
1955.233
1957.261
1959.290
1961.318
1963.347
1965.375
1967.404
1969.432
1971.461
1973.489
1975.518
1977.546
1979.575
1981.603
1983.632
1985.660
1987.689
1989.717
1991.746
1993.774
1995.803
1997.831
1999.860
2001.888
2003.917
2005.945
2007.974
2010.002
2012.031
2014.059
2016.088
2018.116
2020.145
2022.173
2024.202
2026.230
2028.259
2030.287
2032.316
2034.344
2036.373
2038.401
2040.430
2042.458
2044.487
2046.515
2048.544
2050.572
2052.601
2054.629
2056.658
2058.686
2060.715
2062.743
2064.772
2066.800
2068.829
2070.857
2072.886
2074.914
2076.943
2078.971
2081.000
2083.028
2085.057
2087.085
2089.114
2091.142
2093.171
2095.199
2097.228
2099.256
2101.285
2102.360
2103.435
2104.510
2105.585
2106.660
2107.735
2108.810
2109.885
2110.960
2112.035
2113.110
2114.185
2115.260
2116.335
2117.410
2118.485
2119.560
2120.635
2121.710
2122.785
2123.860
2124.935
2126.010
2127.085
2128.160
2129.235
2130.310
2131.385
2132.460
2133.535
2134.610
2135.685
2136.760
2137.835
2138.910
2139.985
2141.060
2142.135
2143.210
2144.285
2145.360
2146.435
2147.510
2148.585
2149.660
2150.735
2151.810
2152.885
2153.960
2155.035
2156.110
2157.185
2158.260
2159.335
2160.410
2161.485
2162.560
2163.635
2164.710
2165.785
2166.860
2167.935
2169.010
2170.085
2171.160
2172.235
2173.310
2174.385
2175.460
2176.535
2177.610
2178.685
2179.760
2180.835
2181.910
2182.985
2184.060
2185.135
2186.210
2187.285
2188.360
2189.435
2190.510
2191.585
2192.660
2193.735
2194.810
2195.885
2196.960
2198.035
2199.110
2200.185
2201.260
2202.335
2203.410
2204.485
2205.560
2206.635
2207.710
2208.785
2209.860
2210.935
2212.010
2213.085
2214.160
2215.235
2216.310
2217.385
2218.460
2219.535
2220.610
2221.685
2222.760
2223.835
2224.910
2225.985
2227.060
2228.135
2229.210
2230.285
2231.360
2232.435
2233.510
2234.585
2235.660
2236.735
2237.810
2238.885
2239.960
2241.035
2242.110
2243.185
2244.260
2245.335
2246.410
2247.485
2248.560
2249.635
2250.710
2251.785
2252.860
2253.935
2255.010
2256.085
2257.160
2258.235
2259.310
2260.385
2261.460
2262.535
2263.610
2264.685
2265.760
2266.835
2267.910
2268.985
2270.060
2271.135
2272.210
2273.285
2274.360
2275.435
2276.510
2277.585
2278.660
2279.735
2280.810
2281.885
2282.960
2284.035
2285.110
2286.185
2287.260
2288.335
2289.410
2290.485
2291.560
2292.635
2293.710
2294.785
2295.860
2296.935
2298.010
2299.085
2300.160
2301.235
2302.310
2303.385
2304.460
2305.535
2306.610
2307.685
2308.760
2309.835
2310.910
2311.985
2313.060
2314.135
2315.210
2316.285
2318.044
2319.804
2321.563
2323.323
2325.082
2326.842
2328.601
2330.361
2332.120
2333.880
2335.639
2337.399
2339.158
2340.918
2342.677
2344.437
2346.196
2347.956
2349.715
2351.475
2353.234
2354.994
2356.753
2358.513
2360.272
2362.032
2363.791
2365.551
2367.310
2369.070
2370.829
2372.589
2374.348
2376.108
2377.867
2379.627
2381.386
2383.146
2384.905
2386.665
2388.424
2390.184
2391.943
2393.703
2395.462
2397.222
2398.981
2400.741
2402.500
2404.260
2406.019
2407.779
2409.538
2411.298
2413.057
2414.817
2416.576
2418.336
2420.095
2421.855
2423.614
2425.374
2427.133
2428.893
2430.652
2432.412
2434.171
2435.931
2437.690
2439.450
2441.209
2442.969
2444.728
2446.488
2448.247
2450.007
2451.766
2453.526
2455.285
2457.045
2458.804
2460.564
2462.323
2464.083
2465.842
2467.602
2469.361
2471.121
2472.880
2474.640
2476.399
2478.159
2479.918
2481.678
2483.437
2485.197
2486.956
2488.716
2490.475
2492.235
2493.994
2495.754
2497.513
2499.273
2501.032
2502.792
2504.551
2506.311
2508.070
2509.830
2511.589
2513.349
2515.108
2516.868
2518.627
2520.387
2522.146
2523.906
2525.665
2527.425
2529.184
2530.944
2532.703
2534.463
2536.222
2537.982
2539.741
2541.501
2543.260
2545.020
2546.779
2548.539
2550.298
2552.058
2553.817
2555.577
2557.336
2559.096
2560.855
2562.615
2564.374
2566.134
2567.893
2569.653
2571.412
2573.172
2574.931
2576.691
2578.450
2580.210
2581.969
2583.729
2585.488
2587.248
2589.007
2590.767
2592.526
2594.286
2596.045
2597.805
2599.564
2601.324
2603.083
2604.843
2606.602
2608.362
2610.121
2611.881
2613.640
2615.400
2617.159
2618.919
2620.678
2622.438
2624.197
2625.957
2627.716
2629.476
2631.235
2632.995
2634.754
2636.514
2638.273
2640.033
2641.792
2643.552
2645.311
2647.071
2648.830
2650.590
2652.349
2654.109
2655.868
2657.628
2659.387
2661.147
2662.906
2664.666
2666.425
2668.185
2664.422
2660.659
2656.896
2653.133
2649.370
2645.607
2641.844
2638.081
2634.318
2630.555
2626.792
2623.029
2619.266
2615.503
2611.740
2607.977
2604.214
2600.451
2596.688
2592.925
2589.162
2585.399
2581.636
2577.873
2574.110
2570.347
2566.584
2562.821
2559.058
2555.295
2551.532
2547.769
2544.006
2540.243
2536.480
2532.717
2528.954
2525.191
2521.428
2517.665
2513.902
2510.139
2506.376
2502.613
2498.850
2495.087
2491.324
2487.561
2483.798
2480.035
2476.272
2472.509
2468.746
2464.983
2461.220
2457.457
2453.694
2449.931
2446.168
2442.405
2438.642
2434.879
2431.116
2427.353
2423.590
2419.827
2416.064
2412.301
2408.538
2404.775
2401.012
2397.249
2393.486
2389.723
2385.960
2382.197
2378.434
2374.671
2370.908
2367.145
2363.382
2359.619
2355.856
2352.093
2348.330
2344.567
2340.804
2337.041
2333.278
2329.515
2325.752
2321.989
2318.226
2314.463
2310.700
2306.937
2303.174
2299.411
2295.648
2291.885
2288.122
2284.359
2280.596
2276.833
2273.070
2269.307
2265.544
2261.781
2258.018
2254.255
2250.492
2246.729
2242.966
2239.203
2235.440
2231.677
2227.914
2224.151
2220.388
2216.625
2212.862
2209.099
2205.336
2201.573
2197.810
2194.047
2190.284
2186.521
2182.758
2178.995
2175.232
2171.469
2167.706
2163.943
2160.180
2156.417
2152.654
2148.891
2145.128
2141.365
2137.602
2133.839
2130.076
2126.313
2122.550
2118.787
2115.024
2111.261
2107.498
2103.735
2099.972
2096.209
2092.446
2088.683
2084.920
2081.157
2077.394
2073.631
2069.868
2066.105
2062.342
2058.579
2054.816
2051.053
2047.290
2043.527
2039.764
2036.001
2032.238
2028.475
2024.712
2020.949
2017.186
2013.423
2009.660
2005.897
2002.134
1998.371
1994.608
1990.845
1987.082
1983.319
1979.556
1975.793
1972.030
1968.267
1964.504
1960.741
1956.978
1953.215
1949.452
1945.689
1941.926
1938.163
1934.400
1930.637
1926.874
1923.111
1919.348
1915.585
1913.849
1912.114
1910.378
1908.643
1906.907
1905.172
1903.436
1901.701
1899.965
1898.230
1896.494
1894.759
1893.023
1891.288
1889.552
1887.817
1886.081
1884.346
1882.610
1880.875
1879.139
1877.404
1875.668
1873.933
1872.197
1870.462
1868.726
1866.991
1865.255
1863.520
1861.784
1860.049
1858.313
1856.578
1854.842
1853.107
1851.371
1849.636
1847.900
1846.165
1844.429
1842.694
1840.958
1839.223
1837.487
1835.752
1834.016
1832.281
1830.545
1828.810
1827.074
1825.339
1823.603
1821.868
1820.132
1818.397
1816.661
1814.926
1813.190
1811.455
1809.719
1807.984
1806.248
1804.513
1802.777
1801.042
1799.306
1797.571
1795.835
1794.100
1792.364
1790.629
1788.893
1787.158
1785.422
1783.687
1781.951
1780.216
1778.480
1776.745
1775.009
1773.274
1771.538
1769.803
1768.067
1766.332
1764.596
1762.861
1761.125
1759.390
1757.654
1755.919
1754.183
1752.448
1750.712
1748.977
1747.241
1745.506
1743.770
1742.035
1740.299
1738.564
1736.828
1735.093
1733.357
1731.622
1729.886
1728.151
1726.415
1724.680
1722.944
1721.209
1719.473
1717.738
1716.002
1714.267
1712.531
1710.796
1709.060
1707.325
1705.589
1703.854
1702.118
1700.383
1698.647
1696.912
1695.176
1693.441
1691.705
1689.970
1688.234
1686.499
1684.763
1683.028
1681.292
1679.557
1677.821
1676.086
1674.350
1672.615
1670.879
1669.144
1667.408
1665.673
1663.937
1662.202
1660.466
1658.731
1656.995
1655.260
1653.524
1651.789
1650.053
1648.318
1646.582
1644.847
1643.111
1641.376
1639.640
1637.905
1636.169
1634.434
1632.698
1630.963
1629.227
1627.492
1625.756
1624.021
1622.285
1620.550
1618.814
1617.079
1615.343
1613.608
1611.872
1610.137
1608.401
1606.666
1604.930
1603.195
1601.459
1599.724
1597.988
1596.253
1594.517
1592.782
1591.046
1589.311
1587.575
1585.840
1584.104
1582.369
1580.633
1578.898
1577.162
1575.427
1573.691
1571.956
1570.220
1568.485
1571.222
1573.959
1576.696
1579.433
1582.170
1584.907
1587.644
1590.381
1593.118
1595.855
1598.592
1601.329
1604.066
1606.803
1609.540
1612.277
1615.014
1617.751
1620.488
1623.225
1625.962
1628.699
1631.436
1634.173
1636.910
1639.647
1642.384
1645.121
1647.858
1650.595
1653.332
1656.069
1658.806
1661.543
1664.280
1667.017
1669.754
1672.491
1675.228
1677.965
1680.702
1683.439
1686.176
1688.913
1691.650
1694.387
1697.124
1699.861
1702.598
1705.335
1708.072
1710.809
1713.546
1716.283
1719.020
1721.757
1724.494
1727.231
1729.968
1732.705
1735.442
1738.179
1740.916
1743.653
1746.390
1749.127
1751.864
1754.601
1757.338
1760.075
1762.812
1765.549
1768.286
1771.023
1773.760
1776.497
1779.234
1781.971
1784.708
1787.445
1790.182
1792.919
1795.656
1798.393
1801.130
1803.867
1806.604
1809.341
1812.078
1814.815
1817.552
1820.289
1823.026
1825.763
1828.500
1831.237
1833.974
1836.711
1839.448
1842.185
1844.922
1847.659
1850.396
1853.133
1855.870
1858.607
1861.344
1864.081
1866.818
1869.555
1872.292
1875.029
1877.766
1880.503
1883.240
1885.977
1888.714
1891.451
1894.188
1896.925
1899.662
1902.399
1905.136
1907.873
1910.610
1913.347
1916.084
1918.821
1921.558
1924.295
1927.032
1929.769
1932.506
1935.243
1937.980
1940.717
1943.454
1946.191
1948.928
1951.665
1954.402
1957.139
1959.876
1962.613
1965.350
1968.087
1970.824
1973.561
1976.298
1979.035
1981.772
1984.509
1987.246
1989.983
1992.720
1995.457
1998.194
2000.931
2003.668
2006.405
2009.142
2011.879
2014.616
2017.353
2020.090
2022.827
2025.564
2028.301
2031.038
2033.775
2036.512
2039.249
2041.986
2044.723
2047.460
2050.197
2052.934
2055.671
2058.408
2061.145
2063.882
2066.619
2069.356
2072.093
2074.830
2077.567
2080.304
2083.041
2085.778
2088.515
2091.252
2093.989
2096.726
2099.463
2102.200
2104.937
2107.674
2110.411
2113.148
2115.885
2118.500
2121.115
2123.730
2126.345
2128.960
2131.575
2134.190
2136.805
2139.420
2142.035
2144.650
2147.265
2149.880
2152.495
2155.110
2157.725
2160.340
2162.955
2165.570
2168.185
2170.800
2173.415
2176.030
2178.645
2181.260
2183.875
2186.490
2189.105
2191.720
2194.335
2196.950
2199.565
2202.180
2204.795
2207.410
2210.025
2212.640
2215.255
2217.870
2220.485
2223.100
2225.715
2228.330
2230.945
2233.560
2236.175
2238.790
2241.405
2244.020
2246.635
2249.250
2251.865
2254.480
2257.095
2259.710
2262.325
2264.940
2267.555
2270.170
2272.785
2275.400
2278.015
2280.630
2283.245
2285.860
2288.475
2291.090
2293.705
2296.320
2298.935
2301.550
2304.165
2306.780
2309.395
2312.010
2314.625
2317.240
2319.855
2322.470
2325.085
2327.700
2330.315
2332.930
2335.545
2338.160
2340.775
2343.390
2346.005
2348.620
2351.235
2353.850
2356.465
2359.080
2361.695
2364.310
2366.925
2369.540
2372.155
2374.770
2377.385
2380.000
2382.615
2385.230
2387.845
2390.460
2393.075
2395.690
2398.305
2400.920
2403.535
2406.150
2408.765
2411.380
2413.995
2416.610
2419.225
2421.840
2424.455
2427.070
2429.685
2432.300
2434.915
2437.530
2440.145
2442.760
2445.375
2447.990
2450.605
2453.220
2455.835
2458.450
2461.065
2463.680
2466.295
2468.910
2471.525
2474.140
2476.755
2479.370
2481.985
2484.600
2487.215
2489.830
2492.445
2495.060
2497.675
2500.290
2502.905
2505.520
2508.135
2510.750
2513.365
2515.980
2518.595
2521.210
2523.825
2526.440
2529.055
2531.670
2534.285
2536.900
2539.515
2542.130
2544.745
2547.360
2549.975
2552.590
2555.205
2557.820
2560.435
2563.050
2565.665
2568.280
2570.895
2573.510
2576.125
2578.740
2581.355
2583.970
2586.585
2589.200
2591.815
2594.430
2597.045
2599.660
2602.275
2604.890
2607.505
2610.120
2612.735
2615.350
2617.965
2620.580
2623.195
2625.810
2628.425
2631.040
2633.655
2636.270
