746.044
751.347
756.650
761.953
767.256
772.559
777.862
783.165
788.468
793.771
799.074
804.377
809.680
814.983
820.286
825.589
830.892
836.195
841.498
846.801
852.104
857.407
862.710
868.013
873.316
878.619
883.922
889.225
894.528
899.831
905.134
910.437
915.740
921.043
926.346
931.649
936.952
942.255
947.558
952.861
958.164
963.467
968.770
974.073
979.376
984.679
989.982
995.285
1000.588
1005.891
1011.194
1016.497
1021.800
1027.103
1032.406
1037.709
1043.012
1048.315
1053.618
1058.921
1064.224
1069.527
1074.830
1080.133
1085.436
1090.739
1096.042
1101.345
1106.648
1111.951
1117.254
1122.557
1127.860
1133.163
1138.466
1143.769
1149.072
1154.375
1159.678
1164.981
1170.284
1175.587
1180.890
1186.193
1191.496
1196.799
1202.102
1207.405
1212.708
1218.011
1223.314
1228.617
1233.920
1239.223
1244.526
1249.829
1255.132
1260.435
1265.738
1271.041
1276.344
1281.647
1286.950
1292.253
1297.556
1302.859
1308.162
1313.465
1318.768
1324.071
1329.374
1334.677
1339.980
1345.283
1350.586
1355.889
1361.192
1366.495
1371.798
1377.101
1382.404
1387.707
1393.010
1398.313
1403.616
1408.919
1414.222
1419.525
1424.828
1430.131
1435.434
1440.737
1446.040
1451.343
1456.646
1461.949
1467.252
1472.555
1477.858
1483.161
1488.464
1493.767
1499.070
1504.373
1509.676
1514.979
1520.282
1525.585
1530.888
1536.191
1541.494
1546.797
1552.100
1557.403
1562.706
1568.009
1573.312
1578.615
1583.918
1589.221
1594.524
1599.827
1605.130
1610.433
1615.736
1621.039
1626.342
1631.645
1636.948
1642.251
1647.554
1652.857
1658.160
1663.463
1668.766
1674.069
1679.372
1684.675
1689.978
1695.281
1700.584
1705.887
1711.190
1716.493
1721.796
1727.099
1732.402
1737.705
1743.008
1748.311
1753.614
1758.917
1764.220
1769.523
1774.826
1780.129
1785.432
1790.735
1796.038
1801.341
1806.644
1806.375
1806.106
1805.837
1805.568
1805.299
1805.030
1804.761
1804.492
1804.223
1803.954
1803.685
1803.416
1803.147
1802.878
1802.609
1802.340
1802.071
1801.802
1801.533
1801.264
1800.995
1800.726
1800.457
1800.188
1799.919
1799.650
1799.381
1799.112
1798.843
1798.574
1798.305
1798.036
1797.767
1797.498
1797.229
1796.960
1796.691
1796.422
1796.153
1795.884
1795.615
1795.346
1795.077
1794.808
1794.539
1794.270
1794.001
1793.732
1793.463
1793.194
1792.925
1792.656
1792.387
1792.118
1791.849
1791.580
1791.311
1791.042
1790.773
1790.504
1790.235
1789.966
1789.697
1789.428
1789.159
1788.890
1788.621
1788.352
1788.083
1787.814
1787.545
1787.276
1787.007
1786.738
1786.469
1786.200
1785.931
1785.662
1785.393
1785.124
1784.855
1784.586
1784.317
1784.048
1783.779
1783.510
1783.241
1782.972
1782.703
1782.434
1782.165
1781.896
1781.627
1781.358
1781.089
1780.820
1780.551
1780.282
1780.013
1779.744
1779.475
1779.206
1778.937
1778.668
1778.399
1778.130
1777.861
1777.592
1777.323
1777.054
1776.785
1776.516
1776.247
1775.978
1775.709
1775.440
1775.171
1774.902
1774.633
1774.364
1774.095
1773.826
1773.557
1773.288
1773.019
1772.750
1772.481
1772.212
1771.943
1771.674
1771.405
1771.136
1770.867
1770.598
1770.329
1770.060
1769.791
1769.522
1769.253
1768.984
1768.715
1768.446
1768.177
1767.908
1767.639
1767.370
1767.101
1766.832
1766.563
1766.294
1766.025
1765.756
1765.487
1765.218
1764.949
1764.680
1764.411
1764.142
1763.873
1763.604
1763.335
1763.066
1762.797
1762.528
1762.259
1761.990
1761.721
1761.452
1761.183
1760.914
1760.645
1760.376
1760.107
1759.838
1759.569
1759.300
1759.031
1758.762
1758.493
1758.224
1757.955
1757.686
1757.417
1757.148
1756.879
1756.610
1756.341
1756.072
1755.803
1755.534
1755.265
1754.996
1754.727
1754.458
1754.189
1753.920
1753.651
1753.382
1753.113
1752.844
1752.600
1752.356
1752.112
1751.868
1751.624
1751.380
1751.136
1750.892
1750.648
1750.404
1750.160
1749.916
1749.672
1749.428
1749.184
1748.940
1748.696
1748.452
1748.208
1747.964
1747.720
1747.476
1747.232
1746.988
1746.744
1746.500
1746.256
1746.012
1745.768
1745.524
1745.280
1745.036
1744.792
1744.548
1744.304
1744.060
1743.816
1743.572
1743.328
1743.084
1742.840
1742.596
1742.352
1742.108
1741.864
1741.620
1741.376
1741.132
1740.888
1740.644
1740.400
1740.156
1739.912
1739.668
1739.424
1739.180
1738.936
1738.692
1738.448
1738.204
1737.960
1737.716
1737.472
1737.228
1736.984
1736.740
1736.496
1736.252
1736.008
1735.764
1735.520
1735.276
1735.032
1734.788
1734.544
1734.300
1734.056
1733.812
1733.568
1733.324
1733.080
1732.836
1732.592
1732.348
1732.104
1731.860
1731.616
1731.372
1731.128
1730.884
1730.640
1730.396
1730.152
1729.908
1729.664
1729.420
1729.176
1728.932
1728.688
1728.444
1728.200
1727.956
1727.712
1727.468
1727.224
1726.980
1726.736
1726.492
1726.248
1726.004
1725.760
1725.516
1725.272
1725.028
1724.784
1724.540
1724.296
1724.052
1723.808
1723.564
1723.320
1723.076
1722.832
1722.588
1722.344
1722.100
1721.856
1721.612
1721.368
1721.124
1720.880
1720.636
1720.392
1720.148
1719.904
1719.660
1719.416
1719.172
1718.928
1718.684
1718.440
1718.196
1717.952
1717.708
1717.464
1717.220
1716.976
1716.732
1716.488
1716.244
1716.000
1715.756
1715.512
1715.268
1715.024
1714.780
1714.536
1714.292
1714.048
1713.804
1713.560
1713.316
1713.072
1712.828
1712.584
1712.340
1712.096
1711.852
1711.608
1711.364
1711.120
1710.876
1710.632
1710.388
1710.144
1709.900
1709.656
1709.412
1709.168
1708.924
1708.680
1708.436
1708.192
1707.948
1707.704
1707.460
1707.216
1706.972
1706.728
1706.484
1706.240
1705.996
1705.752
1705.508
1705.264
1705.020
1704.776
1704.532
1704.288
1704.044
1706.268
1708.491
1710.715
1712.938
1715.162
1717.385
1719.609
1721.832
1724.056
1726.279
1728.503
1730.726
1732.950
1735.173
1737.397
1739.620
1741.844
1744.067
1746.291
1748.514
1750.738
1752.961
1755.185
1757.408
1759.632
1761.855
1764.079
1766.302
1768.526
1770.749
1772.973
1775.196
1777.420
1779.643
1781.867
1784.090
1786.314
1788.537
1790.761
1792.984
1795.208
1797.431
1799.655
1801.878
1804.102
1806.325
1808.549
1810.772
1812.996
1815.219
1817.443
1819.666
1821.890
1824.113
1826.337
1828.560
1830.784
1833.007
1835.231
1837.454
1839.678
1841.901
1844.125
1846.348
1848.572
1850.795
1853.019
1855.242
1857.466
1859.689
1861.913
1864.136
1866.360
1868.583
1870.807
1873.030
1875.254
1877.477
1879.701
1881.924
1884.148
1886.371
1888.595
1890.818
1893.042
1895.265
1897.489
1899.712
1901.936
1904.159
1906.383
1908.606
1910.830
1913.053
1915.277
1917.500
1919.724
1921.947
1924.171
1926.394
1928.618
1930.841
1933.065
1935.288
1937.512
1939.735
1941.959
1944.182
1946.406
1948.629
1950.853
1953.076
1955.300
1957.523
1959.747
1961.970
1964.194
1966.417
1968.641
1970.864
1973.088
1975.311
1977.535
1979.758
1981.982
1984.205
1986.429
1988.652
1990.876
1993.099
1995.323
1997.546
1999.770
2001.993
2004.217
2006.440
2008.664
2010.887
2013.111
2015.334
2017.558
2019.781
2022.005
2024.228
2026.452
2028.675
2030.899
2033.122
2035.346
2037.569
2039.793
2042.016
2044.240
2046.463
2048.687
2050.910
2053.134
2055.357
2057.581
2059.804
2062.028
2064.251
2066.475
2068.698
2070.922
2073.145
2075.369
2077.592
2079.816
2082.039
2084.263
2086.486
2088.710
2090.933
2093.157
2095.380
2097.604
2099.827
2102.051
2104.274
2106.498
2108.721
2110.945
2113.168
2115.392
2117.615
2119.839
2122.062
2124.286
2126.509
2128.733
2130.956
2133.180
2135.403
2137.627
2139.850
2142.074
2144.297
2146.521
2148.744
2147.962
2147.180
2146.398
2145.616
2144.834
2144.052
2143.270
2142.488
2141.706
2140.924
2140.142
2139.360
2138.578
2137.796
2137.014
2136.232
2135.450
2134.668
2133.886
2133.104
2132.322
2131.540
2130.758
2129.976
2129.194
2128.412
2127.630
2126.848
2126.066
2125.284
2124.502
2123.720
2122.938
2122.156
2121.374
2120.592
2119.810
2119.028
2118.246
2117.464
2116.682
2115.900
2115.118
2114.336
2113.554
2112.772
2111.990
2111.208
2110.426
2109.644
2108.862
2108.080
2107.298
2106.516
2105.734
2104.952
2104.170
2103.388
2102.606
2101.824
2101.042
2100.260
2099.478
2098.696
2097.914
2097.132
2096.350
2095.568
2094.786
2094.004
2093.222
2092.440
2091.658
2090.876
2090.094
2089.312
2088.530
2087.748
2086.966
2086.184
2085.402
2084.620
2083.838
2083.056
2082.274
2081.492
2080.710
2079.928
2079.146
2078.364
2077.582
2076.800
2076.018
2075.236
2074.454
2073.672
2072.890
2072.108
2071.326
2070.544
2069.762
2068.980
2068.198
2067.416
2066.634
2065.852
2065.070
2064.288
2063.506
2062.724
2061.942
2061.160
2060.378
2059.596
2058.814
2058.032
2057.250
2056.468
2055.686
2054.904
2054.122
2053.340
2052.558
2051.776
2050.994
2050.212
2049.430
2048.648
2047.866
2047.084
2046.302
2045.520
2044.738
2043.956
2043.174
2042.392
2041.610
2040.828
2040.046
2039.264
2038.482
2037.700
2036.918
2036.136
2035.354
2034.572
2033.790
2033.008
2032.226
2031.444
2030.662
2029.880
2029.098
2028.316
2027.534
2026.752
2025.970
2025.188
2024.406
2023.624
2022.842
2022.060
2021.278
2020.496
2019.714
2018.932
2018.150
2017.368
2016.586
2015.804
2015.022
2014.240
2013.458
2012.676
2011.894
2011.112
2010.330
2009.548
2008.766
2007.984
2007.202
2006.420
2005.638
2004.856
2004.074
2003.292
2002.510
2001.728
2000.946
2000.164
1999.382
1998.600
1997.818
1997.036
1996.254
1995.472
1994.690
1993.908
1993.126
1992.344
1990.976
1989.607
1988.239
1986.870
1985.502
1984.133
1982.765
1981.396
1980.028
1978.659
1977.291
1975.922
1974.554
1973.185
1971.817
1970.448
1969.080
1967.711
1966.343
1964.974
1963.606
1962.237
1960.869
1959.500
1958.132
1956.763
1955.395
1954.026
1952.658
1951.289
1949.921
1948.552
1947.184
1945.815
1944.447
1943.078
1941.710
1940.341
1938.973
1937.604
1936.236
1934.867
1933.499
1932.130
1930.762
1929.393
1928.025
1926.656
1925.288
1923.919
1922.551
1921.182
1919.814
1918.445
1917.077
1915.708
1914.340
1912.971
1911.603
1910.234
1908.866
1907.497
1906.129
1904.760
1903.392
1902.023
1900.655
1899.286
1897.918
1896.549
1895.181
1893.812
1892.444
1891.075
1889.707
1888.338
1886.970
1885.601
1884.233
1882.864
1881.496
1880.127
1878.759
1877.390
1876.022
1874.653
1873.285
1871.916
1870.548
1869.179
1867.811
1866.442
1865.074
1863.705
1862.337
1860.968
1859.600
1858.231
1856.863
1855.494
1854.126
1852.757
1851.389
1850.020
1848.652
1847.283
1845.915
1844.546
1843.178
1841.809
1840.441
1839.072
1837.704
1836.335
1834.967
1833.598
1832.230
1830.861
1829.493
1828.124
1826.756
1825.387
1824.019
1822.650
1821.282
1819.913
1818.545
1817.176
1815.808
1814.439
1813.071
1811.702
1810.334
1808.965
1807.597
1806.228
1804.860
1803.491
1802.123
1800.754
1799.386
1798.017
1796.649
1795.280
1793.912
1792.543
1791.175
1789.806
1788.438
1787.069
1785.701
1784.332
1782.964
1781.595
1780.227
1778.858
1777.490
1776.121
1774.753
1773.384
1772.016
1770.647
1769.279
1767.910
1766.542
1765.173
1763.805
1762.436
1761.068
1759.699
1758.331
1756.962
1755.594
1754.225
1752.857
1751.488
1750.120
1748.751
1747.383
1746.014
1744.646
1743.277
1741.909
1740.540
1739.172
1737.803
1736.435
1735.066
1733.698
1732.329
1730.961
1729.592
1728.224
1726.855
1725.487
1724.118
1722.750
1721.381
1720.013
1718.644
1720.771
1722.897
1725.024
1727.150
1729.277
1731.403
1733.530
1735.656
1737.783
1739.909
1742.036
1744.162
1746.289
1748.415
1750.542
1752.668
1754.795
1756.921
1759.048
1761.174
1763.301
1765.427
1767.554
1769.680
1771.807
1773.933
1776.060
1778.186
1780.313
1782.439
1784.566
1786.692
1788.819
1790.945
1793.072
1795.198
1797.325
1799.451
1801.578
1803.704
1805.831
1807.957
1810.084
1812.210
1814.337
1816.463
1818.590
1820.716
1822.843
1824.969
1827.096
1829.222
1831.349
1833.475
1835.602
1837.728
1839.855
1841.981
1844.108
1846.234
1848.361
1850.487
1852.614
1854.740
1856.867
1858.993
1861.120
1863.246
1865.373
1867.499
1869.626
1871.752
1873.879
1876.005
1878.132
1880.258
1882.385
1884.511
1886.638
1888.764
1890.891
1893.017
1895.144
1897.270
1899.397
1901.523
1903.650
1905.776
1907.903
1910.029
1912.156
1914.282
1916.409
1918.535
1920.662
1922.788
1924.915
1927.041
1929.168
1931.294
1933.421
1935.547
1937.674
1939.800
1941.927
1944.053
1946.180
1948.306
1950.433
1952.559
1954.686
1956.812
1958.939
1961.065
1963.192
1965.318
1967.445
1969.571
1971.698
1973.824
1975.951
1978.077
1980.204
1982.330
1984.457
1986.583
1988.710
1990.836
1992.963
1995.089
1997.216
1999.342
2001.469
2003.595
2005.722
2007.848
2009.975
2012.101
2014.228
2016.354
2018.481
2020.607
2022.734
2024.860
2026.987
2029.113
2031.240
2033.366
2035.493
2037.619
2039.746
2041.872
2043.999
2046.125
2048.252
2050.378
2052.505
2054.631
2056.758
2058.884
2061.011
2063.137
2065.264
2067.390
2069.517
2071.643
2073.770
2075.896
2078.023
2080.149
2082.276
2084.402
2086.529
2088.655
2090.782
2092.908
2095.035
2097.161
2099.288
2101.414
2103.541
2105.667
2107.794
2109.920
2112.047
2114.173
2116.300
2118.426
2120.553
2122.679
2124.806
2126.932
2129.059
2131.185
2133.312
2135.438
2137.565
2139.691
2141.818
2143.944
2140.352
2136.759
2133.167
2129.574
2125.982
2122.389
2118.797
2115.204
2111.612
2108.019
2104.427
2100.834
2097.242
2093.649
2090.057
2086.464
2082.872
2079.279
2075.687
2072.094
2068.502
2064.909
2061.317
2057.724
2054.132
2050.539
2046.947
2043.354
2039.762
2036.169
2032.577
2028.984
2025.392
2021.799
2018.207
2014.614
2011.022
2007.429
2003.837
2000.244
1996.652
1993.059
1989.467
1985.874
1982.282
1978.689
1975.097
1971.504
1967.912
1964.319
1960.727
1957.134
1953.542
1949.949
1946.357
1942.764
1939.172
1935.579
1931.987
1928.394
1924.802
1921.209
1917.617
1914.024
1910.432
1906.839
1903.247
1899.654
1896.062
1892.469
1888.877
1885.284
1881.692
1878.099
1874.507
1870.914
1867.322
1863.729
1860.137
1856.544
1852.952
1849.359
1845.767
1842.174
1838.582
1834.989
1831.397
1827.804
1824.212
1820.619
1817.027
1813.434
1809.842
1806.249
1802.657
1799.064
1795.472
1791.879
1788.287
1784.694
1781.102
1777.509
1773.917
1770.324
1766.732
1763.139
1759.547
1755.954
1752.362
1748.769
1745.177
1741.584
1737.992
1734.399
1730.807
1727.214
1723.622
1720.029
1716.437
1712.844
1709.252
1705.659
1702.067
1698.474
1694.882
1691.289
1687.697
1684.104
1680.512
1676.919
1673.327
1669.734
1666.142
1662.549
1658.957
1655.364
1651.772
1648.179
1644.587
1640.994
1637.402
1633.809
1630.217
1626.624
1623.032
1619.439
1615.847
1612.254
1608.662
1605.069
1601.477
1597.884
1594.292
1590.699
1587.107
1583.514
1579.922
1576.329
1572.737
1569.144
1565.552
1561.959
1558.367
1554.774
1551.182
1547.589
1543.997
1540.404
1536.812
1533.219
1529.627
1526.034
1522.442
1518.849
1515.257
1511.664
1508.072
1504.479
1500.887
1497.294
1493.702
1490.109
1486.517
1482.924
1479.332
1475.739
1472.147
1468.554
1464.962
1461.369
1457.777
1454.184
1450.592
1446.999
1443.407
1439.814
1436.222
1432.629
1429.037
1425.444
1425.762
1426.079
1426.397
1426.714
1427.032
1427.349
1427.667
1427.984
1428.302
1428.619
1428.937
1429.254
1429.572
1429.889
1430.207
1430.524
1430.842
1431.159
1431.477
1431.794
1432.112
1432.429
1432.747
1433.064
1433.382
1433.699
1434.017
1434.334
1434.652
1434.969
1435.287
1435.604
1435.922
1436.239
1436.557
1436.874
1437.192
1437.509
1437.827
1438.144
1438.462
1438.779
1439.097
1439.414
1439.732
1440.049
1440.367
1440.684
1441.002
1441.319
1441.637
1441.954
1442.272
1442.589
1442.907
1443.224
1443.542
1443.859
1444.177
1444.494
1444.812
1445.129
1445.447
1445.764
1446.082
1446.399
1446.717
1447.034
1447.352
1447.669
1447.987
1448.304
1448.622
1448.939
1449.257
1449.574
1449.892
1450.209
1450.527
1450.844
1451.162
1451.479
1451.797
1452.114
1452.432
1452.749
1453.067
1453.384
1453.702
1454.019
1454.337
1454.654
1454.972
1455.289
1455.607
1455.924
1456.242
1456.559
1456.877
1457.194
1457.512
1457.829
1458.147
1458.464
1458.782
1459.099
1459.417
1459.734
1460.052
1460.369
1460.687
1461.004
1461.322
1461.639
1461.957
1462.274
1462.592
1462.909
1463.227
1463.544
1463.862
1464.179
1464.497
1464.814
1465.132
1465.449
1465.767
1466.084
1466.402
1466.719
1467.037
1467.354
1467.672
1467.989
1468.307
1468.624
1468.942
1469.259
1469.577
1469.894
1470.212
1470.529
1470.847
1471.164
1471.482
1471.799
1472.117
1472.434
1472.752
1473.069
1473.387
1473.704
1474.022
1474.339
1474.657
1474.974
1475.292
1475.609
1475.927
1476.244
1476.562
1476.879
1477.197
1477.514
1477.832
1478.149
1478.467
1478.784
1479.102
1479.419
1479.737
1480.054
1480.372
1480.689
1481.007
1481.324
1481.642
1481.959
1482.277
1482.594
1482.912
1483.229
1483.547
1483.864
1484.182
1484.499
1484.817
1485.134
1485.452
1485.769
1486.087
1486.404
1486.722
1487.039
1487.357
1487.674
1487.992
1488.309
1488.627
1488.944
1483.690
1478.436
1473.182
1467.928
1462.674
1457.420
1452.166
1446.912
1441.658
1436.404
1431.150
1425.896
1420.642
1415.388
1410.134
1404.880
1399.626
1394.372
1389.118
1383.864
1378.610
1373.356
1368.102
1362.848
1357.594
1352.340
1347.086
1341.832
1336.578
1331.324
1326.070
1320.816
1315.562
1310.308
1305.054
1299.800
1294.546
1289.292
1284.038
1278.784
1273.530
1268.276
1263.022
1257.768
1252.514
1247.260
1242.006
1236.752
1231.498
1226.244
1220.990
1215.736
1210.482
1205.228
1199.974
1194.720
1189.466
1184.212
1178.958
1173.704
1168.450
1163.196
1157.942
1152.688
1147.434
1142.180
1136.926
1131.672
1126.418
1121.164
1115.910
1110.656
1105.402
1100.148
1094.894
1089.640
1084.386
1079.132
1073.878
1068.624
1063.370
1058.116
1052.862
1047.608
1042.354
1037.100
1031.846
1026.592
1021.338
1016.084
1010.830
1005.576
1000.322
995.068
989.814
984.560
979.306
974.052
968.798
963.544
958.290
953.036
947.782
942.528
937.274
932.020
926.766
921.512
916.258
911.004
905.750
900.496
895.242
889.988
884.734
879.480
874.226
868.972
863.718
858.464
853.210
847.956
842.702
837.448
832.194
826.940
821.686
816.432
811.178
805.924
800.670
795.416
790.162
784.908
779.654
774.400
769.146
763.892
758.638
753.384
748.130
742.876
737.622
732.368
727.114
721.860
716.606
711.352
706.098
700.844
695.590
690.336
685.082
679.828
674.574
669.320
664.066
658.812
653.558
648.304
643.050
637.796
632.542
627.288
622.034
616.780
611.526
606.272
601.018
595.764
590.510
585.256
580.002
574.748
569.494
564.240
558.986
553.732
548.478
543.224
537.970
532.716
527.462
522.208
516.954
511.700
506.446
501.192
495.938
490.684
485.430
480.176
474.922
469.668
464.414
459.160
453.906
448.652
443.398
