325.747
330.732
335.717
340.702
345.687
350.672
355.657
360.642
365.627
370.612
375.597
380.582
385.567
390.552
395.537
400.522
405.507
410.492
415.477
420.462
425.447
430.432
435.417
440.402
445.387
450.372
455.357
460.342
465.327
470.312
475.297
480.282
485.267
490.252
495.237
500.222
505.207
510.192
515.177
520.162
525.147
530.132
535.117
540.102
545.087
550.072
555.057
560.042
565.027
570.012
574.997
579.982
584.967
589.952
594.937
599.922
604.907
609.892
614.877
619.862
624.847
629.832
634.817
639.802
644.787
649.772
654.757
659.742
664.727
669.712
674.697
679.682
684.667
689.652
694.637
699.622
704.607
709.592
714.577
719.562
724.547
729.532
734.517
739.502
744.487
749.472
754.457
759.442
764.427
769.412
774.397
779.382
784.367
789.352
794.337
799.322
804.307
809.292
814.277
819.262
824.247
829.232
834.217
839.202
844.187
849.172
854.157
859.142
864.127
869.112
874.097
879.082
884.067
889.052
894.037
899.022
904.007
908.992
913.977
918.962
923.947
928.932
933.917
938.902
943.887
948.872
953.857
958.842
963.827
968.812
973.797
978.782
983.767
988.752
993.737
998.722
1003.707
1008.692
1013.677
1018.662
1023.647
1028.632
1033.617
1038.602
1043.587
1048.572
1053.557
1058.542
1063.527
1068.512
1073.497
1078.482
1083.467
1088.452
1093.437
1098.422
1103.407
1108.392
1113.377
1118.362
1123.347
1128.332
1133.317
1138.302
1143.287
1148.272
1153.257
1158.242
1163.227
1168.212
1173.197
1178.182
1183.167
1188.152
1193.137
1198.122
1203.107
1208.092
1213.077
1218.062
1223.047
1228.032
1233.017
1238.002
1242.987
1247.972
1252.957
1257.942
1262.927
1267.912
1272.897
1277.882
1282.867
1287.852
1292.837
1297.822
1302.807
1307.792
1312.777
1317.762
1322.747
1323.725
1324.703
1325.681
1326.659
1327.637
1328.615
1329.593
1330.571
1331.549
1332.527
1333.505
1334.483
1335.461
1336.439
1337.417
1338.395
1339.373
1340.351
1341.329
1342.307
1343.285
1344.263
1345.241
1346.219
1347.197
1348.175
1349.153
1350.131
1351.109
1352.087
1353.065
1354.043
1355.021
1355.999
1356.977
1357.955
1358.933
1359.911
1360.889
1361.867
1362.845
1363.823
1364.801
1365.779
1366.757
1367.735
1368.713
1369.691
1370.669
1371.647
1372.625
1373.603
1374.581
1375.559
1376.537
1377.515
1378.493
1379.471
1380.449
1381.427
1382.405
1383.383
1384.361
1385.339
1386.317
1387.295
1388.273
1389.251
1390.229
1391.207
1392.185
1393.163
1394.141
1395.119
1396.097
1397.075
1398.053
1399.031
1400.009
1400.987
1401.965
1402.943
1403.921
1404.899
1405.877
1406.855
1407.833
1408.811
1409.789
1410.767
1411.745
1412.723
1413.701
1414.679
1415.657
1416.635
1417.613
1418.591
1419.569
1420.547
1421.525
1422.503
1423.481
1424.459
1425.437
1426.415
1427.393
1428.371
1429.349
1430.327
1431.305
1432.283
1433.261
1434.239
1435.217
1436.195
1437.173
1438.151
1439.129
1440.107
1441.085
1442.063
1443.041
1444.019
1444.997
1445.975
1446.953
1447.931
1448.909
1449.887
1450.865
1451.843
1452.821
1453.799
1454.777
1455.755
1456.733
1457.711
1458.689
1459.667
1460.645
1461.623
1462.601
1463.579
1464.557
1465.535
1466.513
1467.491
1468.469
1469.447
1470.425
1471.403
1472.381
1473.359
1474.337
1475.315
1476.293
1477.271
1478.249
1479.227
1480.205
1481.183
1482.161
1483.139
1484.117
1485.095
1486.073
1487.051
1488.029
1489.007
1489.985
1490.963
1491.941
1492.919
1493.897
1494.875
1495.853
1496.831
1497.809
1498.787
1499.765
1500.743
1501.721
1502.699
1503.677
1504.655
1505.633
1506.611
1507.589
1508.567
1509.545
1510.523
1511.501
1512.479
1513.457
1514.435
1515.413
1516.391
1517.369
1518.347
1520.375
1522.403
1524.431
1526.459
1528.487
1530.515
1532.543
1534.571
1536.599
1538.627
1540.655
1542.683
1544.711
1546.739
1548.767
1550.795
1552.823
1554.851
1556.879
1558.907
1560.935
1562.963
1564.991
1567.019
1569.047
1571.075
1573.103
1575.131
1577.159
1579.187
1581.215
1583.243
1585.271
1587.299
1589.327
1591.355
1593.383
1595.411
1597.439
1599.467
1601.495
1603.523
1605.551
1607.579
1609.607
1611.635
1613.663
1615.691
1617.719
1619.747
1621.775
1623.803
1625.831
1627.859
1629.887
1631.915
1633.943
1635.971
1637.999
1640.027
1642.055
1644.083
1646.111
1648.139
1650.167
1652.195
1654.223
1656.251
1658.279
1660.307
1662.335
1664.363
1666.391
1668.419
1670.447
1672.475
1674.503
1676.531
1678.559
1680.587
1682.615
1684.643
1686.671
1688.699
1690.727
1692.755
1694.783
1696.811
1698.839
1700.867
1702.895
1704.923
1706.951
1708.979
1711.007
1713.035
1715.063
1717.091
1719.119
1721.147
1723.175
1725.203
1727.231
1729.259
1731.287
1733.315
1735.343
1737.371
1739.399
1741.427
1743.455
1745.483
1747.511
1749.539
1751.567
1753.595
1755.623
1757.651
1759.679
1761.707
1763.735
1765.763
1767.791
1769.819
1771.847
1773.875
1775.903
1777.931
1779.959
1781.987
1784.015
1786.043
1788.071
1790.099
1792.127
1794.155
1796.183
1798.211
1800.239
1802.267
1804.295
1806.323
1808.351
1810.379
1812.407
1814.435
1816.463
1818.491
1820.519
1822.547
1824.575
1826.603
1828.631
1830.659
1832.687
1834.715
1836.743
1838.771
1840.799
1842.827
1844.855
1846.883
1848.911
1850.939
1852.967
1854.995
1857.023
1859.051
1861.079
1863.107
1865.135
1867.163
1869.191
1871.219
1873.247
1875.275
1877.303
1879.331
1881.359
1883.387
1885.415
1887.443
1889.471
1891.499
1893.527
1895.555
1897.583
1899.611
1901.639
1903.667
1905.695
1907.723
1909.751
1911.779
1913.807
1915.835
1917.863
1919.891
1921.919
1923.947
1923.971
1923.996
1924.020
1924.045
1924.069
1924.094
1924.118
1924.143
1924.167
1924.192
1924.216
1924.241
1924.265
1924.290
1924.314
1924.339
1924.363
1924.388
1924.412
1924.437
1924.461
1924.486
1924.510
1924.535
1924.559
1924.584
1924.608
1924.633
1924.657
1924.682
1924.706
1924.731
1924.755
1924.780
1924.804
1924.829
1924.853
1924.878
1924.902
1924.927
1924.951
1924.976
1925.000
1925.025
1925.049
1925.074
1925.098
1925.123
1925.147
1925.172
1925.196
1925.221
1925.245
1925.270
1925.294
1925.319
1925.343
1925.368
1925.392
1925.417
1925.441
1925.466
1925.490
1925.515
1925.539
1925.564
1925.588
1925.613
1925.637
1925.662
1925.686
1925.711
1925.735
1925.760
1925.784
1925.809
1925.833
1925.858
1925.882
1925.907
1925.931
1925.956
1925.980
1926.005
1926.029
1926.054
1926.078
1926.103
1926.127
1926.152
1926.176
1926.201
1926.225
1926.250
1926.274
1926.299
1926.323
1926.348
1926.372
1926.397
1926.421
1926.446
1926.470
1926.495
1926.519
1926.544
1926.568
1926.593
1926.617
1926.642
1926.666
1926.691
1926.715
1926.740
1926.764
1926.789
1926.813
1926.838
1926.862
1926.887
1926.911
1926.936
1926.960
1926.985
1927.009
1927.034
1927.058
1927.083
1927.107
1927.132
1927.156
1927.181
1927.205
1927.230
1927.254
1927.279
1927.303
1927.328
1927.352
1927.377
1927.401
1927.426
1927.450
1927.475
1927.499
1927.524
1927.548
1927.573
1927.597
1927.622
1927.646
1927.671
1927.695
1927.720
1927.744
1927.769
1927.793
1927.818
1927.842
1927.867
1927.891
1927.916
1927.940
1927.965
1927.989
1928.014
1928.038
1928.063
1928.087
1928.112
1928.136
1928.161
1928.185
1928.210
1928.234
1928.259
1928.283
1928.308
1928.332
1928.357
1928.381
1928.406
1928.430
1928.455
1928.479
1928.504
1928.528
1928.553
1928.577
1928.602
1928.626
1928.651
1928.675
1928.700
1928.724
1928.749
1928.773
1928.798
1928.822
1928.847
1930.313
1931.780
1933.246
1934.713
1936.179
1937.646
1939.112
1940.579
1942.045
1943.512
1944.978
1946.445
1947.911
1949.378
1950.844
1952.311
1953.777
1955.244
1956.710
1958.177
1959.643
1961.110
1962.576
1964.043
1965.509
1966.976
1968.442
1969.909
1971.375
1972.842
1974.308
1975.775
1977.241
1978.708
1980.174
1981.641
1983.107
1984.574
1986.040
1987.507
1988.973
1990.440
1991.906
1993.373
1994.839
1996.306
1997.772
1999.239
2000.705
2002.172
2003.638
2005.105
2006.571
2008.038
2009.504
2010.971
2012.437
2013.904
2015.370
2016.837
2018.303
2019.770
2021.236
2022.703
2024.169
2025.636
2027.102
2028.569
2030.035
2031.502
2032.968
2034.435
2035.901
2037.368
2038.834
2040.301
2041.767
2043.234
2044.700
2046.167
2047.633
2049.100
2050.566
2052.033
2053.499
2054.966
2056.432
2057.899
2059.365
2060.832
2062.298
2063.765
2065.231
2066.698
2068.164
2069.631
2071.097
2072.564
2074.030
2075.497
2076.963
2078.430
2079.896
2081.363
2082.829
2084.296
2085.762
2087.229
2088.695
2090.162
2091.628
2093.095
2094.561
2096.028
2097.494
2098.961
2100.427
2101.894
2103.360
2104.827
2106.293
2107.760
2109.226
2110.693
2112.159
2113.626
2115.092
2116.559
2118.025
2119.492
2120.958
2122.425
2123.891
2125.358
2126.824
2128.291
2129.757
2131.224
2132.690
2134.157
2135.623
2137.090
2138.556
2140.023
2141.489
2142.956
2144.422
2145.889
2147.355
2148.822
2150.288
2151.755
2153.221
2154.688
2156.154
2157.621
2159.087
2160.554
2162.020
2163.487
2164.953
2166.420
2167.886
2169.353
2170.819
2172.286
2173.752
2175.219
2176.685
2178.152
2179.618
2181.085
2182.551
2184.018
2185.484
2186.951
2188.417
2189.884
2191.350
2192.817
2194.283
2195.750
2197.216
2198.683
2200.149
2201.616
2203.082
2204.549
2206.015
2207.482
2208.948
2210.415
2211.881
2213.348
2214.814
2216.281
2217.747
2219.214
2220.680
2222.147
2222.195
2222.244
2222.292
2222.341
2222.389
2222.438
2222.486
2222.535
2222.583
2222.632
2222.680
2222.729
2222.777
2222.826
2222.874
2222.923
2222.971
2223.020
2223.068
2223.117
2223.165
2223.214
2223.262
2223.311
2223.359
2223.408
2223.456
2223.505
2223.553
2223.602
2223.650
2223.699
2223.747
2223.796
2223.844
2223.893
2223.941
2223.990
2224.038
2224.087
2224.135
2224.184
2224.232
2224.281
2224.329
2224.378
2224.426
2224.475
2224.523
2224.572
2224.620
2224.669
2224.717
2224.766
2224.814
2224.863
2224.911
2224.960
2225.008
2225.057
2225.105
2225.154
2225.202
2225.251
2225.299
2225.348
2225.396
2225.445
2225.493
2225.542
2225.590
2225.639
2225.687
2225.736
2225.784
2225.833
2225.881
2225.930
2225.978
2226.027
2226.075
2226.124
2226.172
2226.221
2226.269
2226.318
2226.366
2226.415
2226.463
2226.512
2226.560
2226.609
2226.657
2226.706
2226.754
2226.803
2226.851
2226.900
2226.948
2226.997
2227.045
2227.094
2227.142
2227.191
2227.239
2227.288
2227.336
2227.385
2227.433
2227.482
2227.530
2227.579
2227.627
2227.676
2227.724
2227.773
2227.821
2227.870
2227.918
2227.967
2228.015
2228.064
2228.112
2228.161
2228.209
2228.258
2228.306
2228.355
2228.403
2228.452
2228.500
2228.549
2228.597
2228.646
2228.694
2228.743
2228.791
2228.840
2228.888
2228.937
2228.985
2229.034
2229.082
2229.131
2229.179
2229.228
2229.276
2229.325
2229.373
2229.422
2229.470
2229.519
2229.567
2229.616
2229.664
2229.713
2229.761
2229.810
2229.858
2229.907
2229.955
2230.004
2230.052
2230.101
2230.149
2230.198
2230.246
2230.295
2230.343
2230.392
2230.440
2230.489
2230.537
2230.586
2230.634
2230.683
2230.731
2230.780
2230.828
2230.877
2230.925
2230.974
2231.022
2231.071
2231.119
2231.168
2231.216
2231.265
2231.313
2231.362
2231.410
2231.459
2231.507
2231.556
2231.604
2231.653
2231.701
2231.750
2231.798
2231.847
2231.823
2231.799
2231.775
2231.751
2231.727
2231.703
2231.679
2231.655
2231.631
2231.607
2231.583
2231.559
2231.535
2231.511
2231.487
2231.463
2231.439
2231.415
2231.391
2231.367
2231.343
2231.319
2231.295
2231.271
2231.247
2231.223
2231.199
2231.175
2231.151
2231.127
2231.103
2231.079
2231.055
2231.031
2231.007
2230.983
2230.959
2230.935
2230.911
2230.887
2230.863
2230.839
2230.815
2230.791
2230.767
2230.743
2230.719
2230.695
2230.671
2230.647
2230.623
2230.599
2230.575
2230.551
2230.527
2230.503
2230.479
2230.455
2230.431
2230.407
2230.383
2230.359
2230.335
2230.311
2230.287
2230.263
2230.239
2230.215
2230.191
2230.167
2230.143
2230.119
2230.095
2230.071
2230.047
2230.023
2229.999
2229.975
2229.951
2229.927
2229.903
2229.879
2229.855
2229.831
2229.807
2229.783
2229.759
2229.735
2229.711
2229.687
2229.663
2229.639
2229.615
2229.591
2229.567
2229.543
2229.519
2229.495
2229.471
2229.447
2229.423
2229.399
2229.375
2229.351
2229.327
2229.303
2229.279
2229.255
2229.231
2229.207
2229.183
2229.159
2229.135
2229.111
2229.087
2229.063
2229.039
2229.015
2228.991
2228.967
2228.943
2228.919
2228.895
2228.871
2228.847
2228.823
2228.799
2228.775
2228.751
2228.727
2228.703
2228.679
2228.655
2228.631
2228.607
2228.583
2228.559
2228.535
2228.511
2228.487
2228.463
2228.439
2228.415
2228.391
2228.367
2228.343
2228.319
2228.295
2228.271
2228.247
2228.223
2228.199
2228.175
2228.151
2228.127
2228.103
2228.079
2228.055
2228.031
2228.007
2227.983
2227.959
2227.935
2227.911
2227.887
2227.863
2227.839
2227.815
2227.791
2227.767
2227.743
2227.719
2227.695
2227.671
2227.647
2227.623
2227.599
2227.575
2227.551
2227.527
2227.503
2227.479
2227.455
2227.431
2227.407
2227.383
2227.359
2227.335
2227.311
2227.287
2227.263
2227.239
2227.215
2227.191
2227.167
2227.143
2227.119
2227.095
2227.071
2227.047
2227.731
2228.415
2229.099
2229.783
2230.467
2231.151
2231.835
2232.519
2233.203
2233.887
2234.571
2235.255
2235.939
2236.623
2237.307
2237.991
2238.675
2239.359
2240.043
2240.727
2241.411
2242.095
2242.779
2243.463
2244.147
2244.831
2245.515
2246.199
2246.883
2247.567
2248.251
2248.935
2249.619
2250.303
2250.987
2251.671
2252.355
2253.039
2253.723
2254.407
2255.091
2255.775
2256.459
2257.143
2257.827
2258.511
2259.195
2259.879
2260.563
2261.247
2261.931
2262.615
2263.299
2263.983
2264.667
2265.351
2266.035
2266.719
2267.403
2268.087
2268.771
2269.455
2270.139
2270.823
2271.507
2272.191
2272.875
2273.559
2274.243
2274.927
2275.611
2276.295
2276.979
2277.663
2278.347
2279.031
2279.715
2280.399
2281.083
2281.767
2282.451
2283.135
2283.819
2284.503
2285.187
2285.871
2286.555
2287.239
2287.923
2288.607
2289.291
2289.975
2290.659
2291.343
2292.027
2292.711
2293.395
2294.079
2294.763
2295.447
2296.131
2296.815
2297.499
2298.183
2298.867
2299.551
2300.235
2300.919
2301.603
2302.287
2302.971
2303.655
2304.339
2305.023
2305.707
2306.391
2307.075
2307.759
2308.443
2309.127
2309.811
2310.495
2311.179
2311.863
2312.547
2313.231
2313.915
2314.599
2315.283
2315.967
2316.651
2317.335
2318.019
2318.703
2319.387
2320.071
2320.755
2321.439
2322.123
2322.807
2323.491
2324.175
2324.859
2325.543
2326.227
2326.911
2327.595
2328.279
2328.963
2329.647
2330.331
2331.015
2331.699
2332.383
2333.067
2333.751
2334.435
2335.119
2335.803
2336.487
2337.171
2337.855
2338.539
2339.223
2339.907
2340.591
2341.275
2341.959
2342.643
2343.327
2344.011
2344.695
2345.379
2346.063
2346.747
2347.431
2348.115
2348.799
2349.483
2350.167
2350.851
2351.535
2352.219
2352.903
2353.587
2354.271
2354.955
2355.639
2356.323
2357.007
2357.691
2358.375
2359.059
2359.743
2360.427
2361.111
2361.795
2362.479
2363.163
2363.847
2362.454
2361.061
2359.668
2358.275
2356.882
2355.489
2354.096
2352.703
2351.310
2349.917
2348.524
2347.131
2345.738
2344.345
2342.952
2341.559
2340.166
2338.773
2337.380
2335.987
2334.594
2333.201
2331.808
2330.415
2329.022
2327.629
2326.236
2324.843
2323.450
2322.057
2320.664
2319.271
2317.878
2316.485
2315.092
2313.699
2312.306
2310.913
2309.520
2308.127
2306.734
2305.341
2303.948
2302.555
2301.162
2299.769
2298.376
2296.983
2295.590
2294.197
2292.804
2291.411
2290.018
2288.625
2287.232
2285.839
2284.446
2283.053
2281.660
2280.267
2278.874
2277.481
2276.088
2274.695
2273.302
2271.909
2270.516
2269.123
2267.730
2266.337
2264.944
2263.551
2262.158
2260.765
2259.372
2257.979
2256.586
2255.193
2253.800
2252.407
2251.014
2249.621
2248.228
2246.835
2245.442
2244.049
2242.656
2241.263
2239.870
2238.477
2237.084
2235.691
2234.298
2232.905
2231.512
2230.119
2228.726
2227.333
2225.940
2224.547
2223.154
2221.761
2220.368
2218.975
2217.582
2216.189
2214.796
2213.403
2212.010
2210.617
2209.224
2207.831
2206.438
2205.045
2203.652
2202.259
2200.866
2199.473
2198.080
2196.687
2195.294
2193.901
2192.508
2191.115
2189.722
2188.329
2186.936
2185.543
2184.150
2182.757
2181.364
2179.971
2178.578
2177.185
2175.792
2174.399
2173.006
2171.613
2170.220
2168.827
2167.434
2166.041
2164.648
2163.255
2161.862
2160.469
2159.076
2157.683
2156.290
2154.897
2153.504
2152.111
2150.718
2149.325
2147.932
2146.539
2145.146
2143.753
2142.360
2140.967
2139.574
2138.181
2136.788
2135.395
2134.002
2132.609
2131.216
2129.823
2128.430
2127.037
2125.644
2124.251
2122.858
2121.465
2120.072
2118.679
2117.286
2115.893
2114.500
2113.107
2111.714
2110.321
2108.928
2107.535
2106.142
2104.749
2103.356
2101.963
2100.570
2099.177
2097.784
2096.391
2094.998
2093.605
2092.212
2090.819
2089.426
2088.033
2086.640
2085.247
2084.954
2084.661
2084.368
2084.075
2083.782
2083.489
2083.196
2082.903
2082.610
2082.317
2082.024
2081.731
2081.438
2081.145
2080.852
2080.559
2080.266
2079.973
2079.680
2079.387
2079.094
2078.801
2078.508
2078.215
2077.922
2077.629
2077.336
2077.043
2076.750
2076.457
2076.164
2075.871
2075.578
2075.285
2074.992
2074.699
2074.406
2074.113
2073.820
2073.527
2073.234
2072.941
2072.648
2072.355
2072.062
2071.769
2071.476
2071.183
2070.890
2070.597
2070.304
2070.011
2069.718
2069.425
2069.132
2068.839
2068.546
2068.253
2067.960
2067.667
2067.374
2067.081
2066.788
2066.495
2066.202
2065.909
2065.616
2065.323
2065.030
2064.737
2064.444
2064.151
2063.858
2063.565
2063.272
2062.979
2062.686
2062.393
2062.100
2061.807
2061.514
2061.221
2060.928
2060.635
2060.342
2060.049
2059.756
2059.463
2059.170
2058.877
2058.584
2058.291
2057.998
2057.705
2057.412
2057.119
2056.826
2056.533
2056.240
2055.947
2055.654
2055.361
2055.068
2054.775
2054.482
2054.189
2053.896
2053.603
2053.310
2053.017
2052.724
2052.431
2052.138
2051.845
2051.552
2051.259
2050.966
2050.673
2050.380
2050.087
2049.794
2049.501
2049.208
2048.915
2048.622
2048.329
2048.036
2047.743
2047.450
2047.157
2046.864
2046.571
2046.278
2045.985
2045.692
2045.399
2045.106
2044.813
2044.520
2044.227
2043.934
2043.641
2043.348
2043.055
2042.762
2042.469
2042.176
2041.883
2041.590
2041.297
2041.004
2040.711
2040.418
2040.125
2039.832
2039.539
2039.246
2038.953
2038.660
2038.367
2038.074
2037.781
2037.488
2037.195
2036.902
2036.609
2036.316
2036.023
2035.730
2035.437
2035.144
2034.851
2034.558
2034.265
2033.972
2033.679
2033.386
2033.093
2032.800
2032.507
2032.214
2031.921
2031.628
2031.335
2031.042
2030.749
2030.456
2030.163
2029.870
2029.577
2029.284
2028.991
2028.698
2028.405
2028.112
2027.819
2027.526
2027.233
2026.940
