1132.484
1134.927
1137.371
1139.814
1142.258
1144.701
1147.145
1149.588
1152.032
1154.475
1156.919
1159.362
1161.806
1164.249
1166.693
1169.136
1171.580
1174.023
1176.467
1178.910
1181.354
1183.797
1186.241
1188.684
1191.128
1193.571
1196.015
1198.458
1200.902
1203.345
1205.789
1208.232
1210.676
1213.119
1215.563
1218.006
1220.450
1222.893
1225.337
1227.780
1230.224
1232.667
1235.111
1237.554
1239.998
1242.441
1244.885
1247.328
1249.772
1252.215
1254.659
1257.102
1259.546
1261.989
1264.433
1266.876
1269.320
1271.763
1274.207
1276.650
1279.094
1281.537
1283.981
1286.424
1288.868
1291.311
1293.755
1296.198
1298.642
1301.085
1303.529
1305.972
1308.416
1310.859
1313.303
1315.746
1318.190
1320.633
1323.077
1325.520
1327.964
1330.407
1332.851
1335.294
1337.738
1340.181
1342.625
1345.068
1347.512
1349.955
1352.399
1354.842
1357.286
1359.729
1362.173
1364.616
1367.060
1369.503
1371.947
1374.390
1376.834
1379.277
1381.721
1384.164
1386.608
1389.051
1391.495
1393.938
1396.382
1398.825
1401.269
1403.712
1406.156
1408.599
1411.043
1413.486
1415.930
1418.373
1420.817
1423.260
1425.704
1428.147
1430.591
1433.034
1435.478
1437.921
1440.365
1442.808
1445.252
1447.695
1450.139
1452.582
1455.026
1457.469
1459.913
1462.356
1464.800
1467.243
1469.687
1472.130
1474.574
1477.017
1479.461
1481.904
1484.348
1486.791
1489.235
1491.678
1494.122
1496.565
1499.009
1501.452
1503.896
1506.339
1508.783
1511.226
1513.670
1516.113
1518.557
1521.000
1523.444
1525.887
1528.331
1530.774
1533.218
1535.661
1538.105
1540.548
1542.992
1545.435
1547.879
1550.322
1552.766
1555.209
1557.653
1560.096
1562.540
1564.983
1567.427
1569.870
1572.314
1574.757
1577.201
1579.644
1582.088
1584.531
1586.975
1589.418
1591.862
1594.305
1596.749
1599.192
1601.636
1604.079
1606.523
1608.966
1611.410
1613.853
1616.297
1618.740
1621.184
1623.286
1625.388
1627.490
1629.592
1631.694
1633.796
1635.898
1638.000
1640.102
1642.204
1644.306
1646.408
1648.510
1650.612
1652.714
1654.816
1656.918
1659.020
1661.122
1663.224
1665.326
1667.428
1669.530
1671.632
1673.734
1675.836
1677.938
1680.040
1682.142
1684.244
1686.346
1688.448
1690.550
1692.652
1694.754
1696.856
1698.958
1701.060
1703.162
1705.264
1707.366
1709.468
1711.570
1713.672
1715.774
1717.876
1719.978
1722.080
1724.182
1726.284
1728.386
1730.488
1732.590
1734.692
1736.794
1738.896
1740.998
1743.100
1745.202
1747.304
1749.406
1751.508
1753.610
1755.712
1757.814
1759.916
1762.018
1764.120
1766.222
1768.324
1770.426
1772.528
1774.630
1776.732
1778.834
1780.936
1783.038
1785.140
1787.242
1789.344
1791.446
1793.548
1795.650
1797.752
1799.854
1801.956
1804.058
1806.160
1808.262
1810.364
1812.466
1814.568
1816.670
1818.772
1820.874
1822.976
1825.078
1827.180
1829.282
1831.384
1833.486
1835.588
1837.690
1839.792
1841.894
1843.996
1846.098
1848.200
1850.302
1852.404
1854.506
1856.608
1858.710
1860.812
1862.914
1865.016
1867.118
1869.220
1871.322
1873.424
1875.526
1877.628
1879.730
1881.832
1883.934
1886.036
1888.138
1890.240
1892.342
1894.444
1896.546
1898.648
1900.750
1902.852
1904.954
1907.056
1909.158
1911.260
1913.362
1915.464
1917.566
1919.668
1921.770
1923.872
1925.974
1928.076
1930.178
1932.280
1934.382
1936.484
1938.586
1940.688
1942.790
1944.892
1946.994
1949.096
1951.198
1953.300
1955.402
1957.504
1959.606
1961.708
1963.810
1965.912
1968.014
1970.116
1972.218
1974.320
1976.422
1978.524
1980.626
1982.728
1984.830
1986.932
1989.034
1991.136
1993.238
1995.340
1997.442
1999.544
2001.646
2003.748
2005.850
2007.952
2010.054
2012.156
2014.258
2016.360
2018.462
2020.564
2022.666
2024.768
2026.870
2028.972
2031.074
2033.176
2035.278
2037.380
2039.482
2041.584
2042.097
2042.610
2043.123
2043.636
2044.149
2044.662
2045.175
2045.688
2046.201
2046.714
2047.227
2047.740
2048.253
2048.766
2049.279
2049.792
2050.305
2050.818
2051.331
2051.844
2052.357
2052.870
2053.383
2053.896
2054.409
2054.922
2055.435
2055.948
2056.461
2056.974
2057.487
2058.000
2058.513
2059.026
2059.539
2060.052
2060.565
2061.078
2061.591
2062.104
2062.617
2063.130
2063.643
2064.156
2064.669
2065.182
2065.695
2066.208
2066.721
2067.234
2067.747
2068.260
2068.773
2069.286
2069.799
2070.312
2070.825
2071.338
2071.851
2072.364
2072.877
2073.390
2073.903
2074.416
2074.929
2075.442
2075.955
2076.468
2076.981
2077.494
2078.007
2078.520
2079.033
2079.546
2080.059
2080.572
2081.085
2081.598
2082.111
2082.624
2083.137
2083.650
2084.163
2084.676
2085.189
2085.702
2086.215
2086.728
2087.241
2087.754
2088.267
2088.780
2089.293
2089.806
2090.319
2090.832
2091.345
2091.858
2092.371
2092.884
2093.397
2093.910
2094.423
2094.936
2095.449
2095.962
2096.475
2096.988
2097.501
2098.014
2098.527
2099.040
2099.553
2100.066
2100.579
2101.092
2101.605
2102.118
2102.631
2103.144
2103.657
2104.170
2104.683
2105.196
2105.709
2106.222
2106.735
2107.248
2107.761
2108.274
2108.787
2109.300
2109.813
2110.326
2110.839
2111.352
2111.865
2112.378
2112.891
2113.404
2113.917
2114.430
2114.943
2115.456
2115.969
2116.482
2116.995
2117.508
2118.021
2118.534
2119.047
2119.560
2120.073
2120.586
2121.099
2121.612
2122.125
2122.638
2123.151
2123.664
2124.177
2124.690
2125.203
2125.716
2126.229
2126.742
2127.255
2127.768
2128.281
2128.794
2129.307
2129.820
2130.333
2130.846
2131.359
2131.872
2132.385
2132.898
2133.411
2133.924
2134.437
2134.950
2135.463
2135.976
2136.489
2137.002
2137.515
2138.028
2138.541
2139.054
2139.567
2140.080
2140.593
2141.106
2141.619
2142.132
2142.645
2143.158
2143.671
2144.184
2142.742
2141.300
2139.858
2138.416
2136.974
2135.532
2134.090
2132.648
2131.206
2129.764
2128.322
2126.880
2125.438
2123.996
2122.554
2121.112
2119.670
2118.228
2116.786
2115.344
2113.902
2112.460
2111.018
2109.576
2108.134
2106.692
2105.250
2103.808
2102.366
2100.924
2099.482
2098.040
2096.598
2095.156
2093.714
2092.272
2090.830
2089.388
2087.946
2086.504
2085.062
2083.620
2082.178
2080.736
2079.294
2077.852
2076.410
2074.968
2073.526
2072.084
2070.642
2069.200
2067.758
2066.316
2064.874
2063.432
2061.990
2060.548
2059.106
2057.664
2056.222
2054.780
2053.338
2051.896
2050.454
2049.012
2047.570
2046.128
2044.686
2043.244
2041.802
2040.360
2038.918
2037.476
2036.034
2034.592
2033.150
2031.708
2030.266
2028.824
2027.382
2025.940
2024.498
2023.056
2021.614
2020.172
2018.730
2017.288
2015.846
2014.404
2012.962
2011.520
2010.078
2008.636
2007.194
2005.752
2004.310
2002.868
2001.426
1999.984
1998.542
1997.100
1995.658
1994.216
1992.774
1991.332
1989.890
1988.448
1987.006
1985.564
1984.122
1982.680
1981.238
1979.796
1978.354
1976.912
1975.470
1974.028
1972.586
1971.144
1969.702
1968.260
1966.818
1965.376
1963.934
1962.492
1961.050
1959.608
1958.166
1956.724
1955.282
1953.840
1952.398
1950.956
1949.514
1948.072
1946.630
1945.188
1943.746
1942.304
1940.862
1939.420
1937.978
1936.536
1935.094
1933.652
1932.210
1930.768
1929.326
1927.884
1926.442
1925.000
1923.558
1922.116
1920.674
1919.232
1917.790
1916.348
1914.906
1913.464
1912.022
1910.580
1909.138
1907.696
1906.254
1904.812
1903.370
1901.928
1900.486
1899.044
1897.602
1896.160
1894.718
1893.276
1891.834
1890.392
1888.950
1887.508
1886.066
1884.624
1883.182
1881.740
1880.298
1878.856
1877.414
1875.972
1874.530
1873.088
1871.646
1870.204
1868.762
1867.320
1865.878
1864.436
1862.994
1861.552
1860.110
1858.668
1857.226
1855.784
1858.154
1860.525
1862.895
1865.266
1867.636
1870.007
1872.377
1874.748
1877.118
1879.489
1881.859
1884.230
1886.600
1888.971
1891.341
1893.712
1896.082
1898.453
1900.823
1903.194
1905.564
1907.935
1910.305
1912.676
1915.046
1917.417
1919.787
1922.158
1924.528
1926.899
1929.269
1931.640
1934.010
1936.381
1938.751
1941.122
1943.492
1945.863
1948.233
1950.604
1952.974
1955.345
1957.715
1960.086
1962.456
1964.827
1967.197
1969.568
1971.938
1974.309
1976.679
1979.050
1981.420
1983.791
1986.161
1988.532
1990.902
1993.273
1995.643
1998.014
2000.384
2002.755
2005.125
2007.496
2009.866
2012.237
2014.607
2016.978
2019.348
2021.719
2024.089
2026.460
2028.830
2031.201
2033.571
2035.942
2038.312
2040.683
2043.053
2045.424
2047.794
2050.165
2052.535
2054.906
2057.276
2059.647
2062.017
2064.388
2066.758
2069.129
2071.499
2073.870
2076.240
2078.611
2080.981
2083.352
2085.722
2088.093
2090.463
2092.834
2095.204
2097.575
2099.945
2102.316
2104.686
2107.057
2109.427
2111.798
2114.168
2116.539
2118.909
2121.280
2123.650
2126.021
2128.391
2130.762
2133.132
2135.503
2137.873
2140.244
2142.614
2144.985
2147.355
2149.726
2152.096
2154.467
2156.837
2159.208
2161.578
2163.949
2166.319
2168.690
2171.060
2173.431
2175.801
2178.172
2180.542
2182.913
2185.283
2187.654
2190.024
2192.395
2194.765
2197.136
2199.506
2201.877
2204.247
2206.618
2208.988
2211.359
2213.729
2216.100
2218.470
2220.841
2223.211
2225.582
2227.952
2230.323
2232.693
2235.064
2237.434
2239.805
2242.175
2244.546
2246.916
2249.287
2251.657
2254.028
2256.398
2258.769
2261.139
2263.510
2265.880
2268.251
2270.621
2272.992
2275.362
2277.733
2280.103
2282.474
2284.844
2287.215
2289.585
2291.956
2294.326
2296.697
2299.067
2301.438
2303.808
2306.179
2308.549
2310.920
2313.290
2315.661
2318.031
2320.402
2322.772
2325.143
2327.513
2329.884
2329.029
2328.174
2327.319
2326.464
2325.609
2324.754
2323.899
2323.044
2322.189
2321.334
2320.479
2319.624
2318.769
2317.914
2317.059
2316.204
2315.349
2314.494
2313.639
2312.784
2311.929
2311.074
2310.219
2309.364
2308.509
2307.654
2306.799
2305.944
2305.089
2304.234
2303.379
2302.524
2301.669
2300.814
2299.959
2299.104
2298.249
2297.394
2296.539
2295.684
2294.829
2293.974
2293.119
2292.264
2291.409
2290.554
2289.699
2288.844
2287.989
2287.134
2286.279
2285.424
2284.569
2283.714
2282.859
2282.004
2281.149
2280.294
2279.439
2278.584
2277.729
2276.874
2276.019
2275.164
2274.309
2273.454
2272.599
2271.744
2270.889
2270.034
2269.179
2268.324
2267.469
2266.614
2265.759
2264.904
2264.049
2263.194
2262.339
2261.484
2260.629
2259.774
2258.919
2258.064
2257.209
2256.354
2255.499
2254.644
2253.789
2252.934
2252.079
2251.224
2250.369
2249.514
2248.659
2247.804
2246.949
2246.094
2245.239
2244.384
2243.529
2242.674
2241.819
2240.964
2240.109
2239.254
2238.399
2237.544
2236.689
2235.834
2234.979
2234.124
2233.269
2232.414
2231.559
2230.704
2229.849
2228.994
2228.139
2227.284
2226.429
2225.574
2224.719
2223.864
2223.009
2222.154
2221.299
2220.444
2219.589
2218.734
2217.879
2217.024
2216.169
2215.314
2214.459
2213.604
2212.749
2211.894
2211.039
2210.184
2209.329
2208.474
2207.619
2206.764
2205.909
2205.054
2204.199
2203.344
2202.489
2201.634
2200.779
2199.924
2199.069
2198.214
2197.359
2196.504
2195.649
2194.794
2193.939
2193.084
2192.229
2191.374
2190.519
2189.664
2188.809
2187.954
2187.099
2186.244
2185.389
2184.534
2183.679
2182.824
2181.969
2181.114
2180.259
2179.404
2178.549
2177.694
2176.839
2175.984
2175.129
2174.274
2173.419
2172.564
2171.709
2170.854
2169.999
2169.144
2168.289
2167.434
2166.579
2165.724
2164.869
2164.014
2163.159
2162.304
2161.449
2160.594
2159.739
2158.884
2156.660
2154.436
2152.212
2149.988
2147.764
2145.540
2143.316
2141.092
2138.868
2136.644
2134.420
2132.196
2129.972
2127.748
2125.524
2123.300
2121.076
2118.852
2116.628
2114.404
2112.180
2109.956
2107.732
2105.508
2103.284
2101.060
2098.836
2096.612
2094.388
2092.164
2089.940
2087.716
2085.492
2083.268
2081.044
2078.820
2076.596
2074.372
2072.148
2069.924
2067.700
2065.476
2063.252
2061.028
2058.804
2056.580
2054.356
2052.132
2049.908
2047.684
2045.460
2043.236
2041.012
2038.788
2036.564
2034.340
2032.116
2029.892
2027.668
2025.444
2023.220
2020.996
2018.772
2016.548
2014.324
2012.100
2009.876
2007.652
2005.428
2003.204
2000.980
1998.756
1996.532
1994.308
1992.084
1989.860
1987.636
1985.412
1983.188
1980.964
1978.740
1976.516
1974.292
1972.068
1969.844
1967.620
1965.396
1963.172
1960.948
1958.724
1956.500
1954.276
1952.052
1949.828
1947.604
1945.380
1943.156
1940.932
1938.708
1936.484
1934.260
1932.036
1929.812
1927.588
1925.364
1923.140
1920.916
1918.692
1916.468
1914.244
1912.020
1909.796
1907.572
1905.348
1903.124
1900.900
1898.676
1896.452
1894.228
1892.004
1889.780
1887.556
1885.332
1883.108
1880.884
1878.660
1876.436
1874.212
1871.988
1869.764
1867.540
1865.316
1863.092
1860.868
1858.644
1856.420
1854.196
1851.972
1849.748
1847.524
1845.300
1843.076
1840.852
1838.628
1836.404
1834.180
1831.956
1829.732
1827.508
1825.284
1823.060
1820.836
1818.612
1816.388
1814.164
1811.940
1809.716
1807.492
1805.268
1803.044
1800.820
1798.596
1796.372
1794.148
1791.924
1789.700
1787.476
1785.252
1783.028
1780.804
1778.580
1776.356
1774.132
1771.908
1769.684
1767.460
1765.236
1763.012
1760.788
1758.564
1756.340
1754.116
1751.892
1749.668
1747.444
1745.220
1742.996
1740.772
1738.548
1736.324
1734.100
1731.876
1729.652
1727.428
1725.204
1722.980
1720.756
1718.532
1716.308
1714.084
1716.405
1718.727
1721.048
1723.370
1725.691
1728.013
1730.334
1732.656
1734.977
1737.299
1739.620
1741.942
1744.263
1746.585
1748.906
1751.228
1753.549
1755.871
1758.192
1760.514
1762.835
1765.157
1767.478
1769.800
1772.121
1774.443
1776.764
1779.086
1781.407
1783.729
1786.050
1788.372
1790.693
1793.015
1795.336
1797.658
1799.979
1802.301
1804.622
1806.944
1809.265
1811.587
1813.908
1816.230
1818.551
1820.873
1823.194
1825.516
1827.837
1830.159
1832.480
1834.802
1837.123
1839.445
1841.766
1844.088
1846.409
1848.731
1851.052
1853.374
1855.695
1858.017
1860.338
1862.660
1864.981
1867.303
1869.624
1871.946
1874.267
1876.589
1878.910
1881.232
1883.553
1885.875
1888.196
1890.518
1892.839
1895.161
1897.482
1899.804
1902.125
1904.447
1906.768
1909.090
1911.411
1913.733
1916.054
1918.376
1920.697
1923.019
1925.340
1927.662
1929.983
1932.305
1934.626
1936.948
1939.269
1941.591
1943.912
1946.234
1948.555
1950.877
1953.198
1955.520
1957.841
1960.163
1962.484
1964.806
1967.127
1969.449
1971.770
1974.092
1976.413
1978.735
1981.056
1983.378
1985.699
1988.021
1990.342
1992.664
1994.985
1997.307
1999.628
2001.950
2004.271
2006.593
2008.914
2011.236
2013.557
2015.879
2018.200
2020.522
2022.843
2025.165
2027.486
2029.808
2032.129
2034.451
2036.772
2039.094
2041.415
2043.737
2046.058
2048.380
2050.701
2053.023
2055.344
2057.666
2059.987
2062.309
2064.630
2066.952
2069.273
2071.595
2073.916
2076.238
2078.559
2080.881
2083.202
2085.524
2087.845
2090.167
2092.488
2094.810
2097.131
2099.453
2101.774
2104.096
2106.417
2108.739
2111.060
2113.382
2115.703
2118.025
2120.346
2122.668
2124.989
2127.311
2129.632
2131.954
2134.275
2136.597
2138.918
2141.240
2143.561
2145.883
2148.204
2150.526
2152.847
2155.169
2157.490
2159.812
2162.133
2164.455
2166.776
2169.098
2171.419
2173.741
2176.062
2178.384
2181.805
2185.227
2188.648
2192.070
2195.491
2198.913
2202.334
2205.756
2209.177
2212.599
2216.020
2219.442
2222.863
2226.285
2229.706
2233.128
2236.549
2239.971
2243.392
2246.814
2250.235
2253.657
2257.078
2260.500
2263.921
2267.343
2270.764
2274.186
2277.607
2281.029
2284.450
2287.872
2291.293
2294.715
2298.136
2301.558
2304.979
2308.401
2311.822
2315.244
2318.665
2322.087
2325.508
2328.930
2332.351
2335.773
2339.194
2342.616
2346.037
2349.459
2352.880
2356.302
2359.723
2363.145
2366.566
2369.988
2373.409
2376.831
2380.252
2383.674
2387.095
2390.517
2393.938
2397.360
2400.781
2404.203
2407.624
2411.046
2414.467
2417.889
2421.310
2424.732
2428.153
2431.575
2434.996
2438.418
2441.839
2445.261
2448.682
2452.104
2455.525
2458.947
2462.368
2465.790
2469.211
2472.633
2476.054
2479.476
2482.897
2486.319
2489.740
2493.162
2496.583
2500.005
2503.426
2506.848
2510.269
2513.691
2517.112
2520.534
2523.955
2527.377
2530.798
2534.220
2537.641
2541.063
2544.484
2547.906
2551.327
2554.749
2558.170
2561.592
2565.013
2568.435
2571.856
2575.278
2578.699
2582.121
2585.542
2588.964
2592.385
2595.807
2599.228
2602.650
2606.071
2609.493
2612.914
2616.336
2619.757
2623.179
2626.600
2630.022
2633.443
2636.865
2640.286
2643.708
2647.129
2650.551
2653.972
2657.394
2660.815
2664.237
2667.658
2671.080
2674.501
2677.923
2681.344
2684.766
2688.187
2691.609
2695.030
2698.452
2701.873
2705.295
2708.716
2712.138
2715.559
2718.981
2722.402
2725.824
2729.245
2732.667
2736.088
2739.510
2742.931
2746.353
2749.774
2753.196
2756.617
2760.039
2763.460
2766.882
2770.303
2773.725
2777.146
2780.568
2783.989
2787.411
2790.832
2794.254
2797.675
2801.097
2804.518
2807.940
2811.361
2814.783
2818.204
2821.626
2825.047
2828.469
2831.890
2835.312
2838.733
2842.155
2845.576
2848.998
2852.419
2855.841
2859.262
2862.684
2859.971
2857.259
2854.546
2851.834
2849.121
2846.409
2843.696
2840.984
2838.271
2835.559
2832.846
2830.134
2827.421
2824.709
2821.996
2819.284
2816.571
2813.859
2811.146
2808.434
2805.721
2803.009
2800.296
2797.584
2794.871
2792.159
2789.446
2786.734
2784.021
2781.309
2778.596
2775.884
2773.171
2770.459
2767.746
2765.034
2762.321
2759.609
2756.896
2754.184
2751.471
2748.759
2746.046
2743.334
2740.621
2737.909
2735.196
2732.484
2729.771
2727.059
2724.346
2721.634
2718.921
2716.209
2713.496
2710.784
2708.071
2705.359
2702.646
2699.934
2697.221
2694.509
2691.796
2689.084
2686.371
2683.659
2680.946
2678.234
2675.521
2672.809
2670.096
2667.384
2664.671
2661.959
2659.246
2656.534
2653.821
2651.109
2648.396
2645.684
2642.971
2640.259
2637.546
2634.834
2632.121
2629.409
2626.696
2623.984
2621.271
2618.559
2615.846
2613.134
2610.421
2607.709
2604.996
2602.284
2599.571
2596.859
2594.146
2591.434
2588.721
2586.009
2583.296
2580.584
2577.871
2575.159
2572.446
2569.734
2567.021
2564.309
2561.596
2558.884
2556.171
2553.459
2550.746
2548.034
2545.321
2542.609
2539.896
2537.184
2534.471
2531.759
2529.046
2526.334
2523.621
2520.909
2518.196
2515.484
2512.771
2510.059
2507.346
2504.634
2501.921
2499.209
2496.496
2493.784
2491.071
2488.359
2485.646
2482.934
2480.221
2477.509
2474.796
2472.084
2469.371
2466.659
2463.946
2461.234
2458.521
2455.809
2453.096
2450.384
2447.671
2444.959
2442.246
2439.534
2436.821
2434.109
2431.396
2428.684
2425.971
2423.259
2420.546
2417.834
2415.121
2412.409
2409.696
2406.984
2404.271
2401.559
2398.846
2396.134
2393.421
2390.709
2387.996
2385.284
2382.571
2379.859
2377.146
2374.434
2371.721
2369.009
2366.296
2363.584
2360.871
2358.159
2355.446
2352.734
2350.021
2347.309
2344.596
2341.884
2339.171
2336.459
2333.746
2331.034
2328.321
2325.609
2322.896
