821.806
824.372
826.938
829.504
832.070
834.636
837.202
839.768
842.334
844.900
847.466
850.032
852.598
855.164
857.730
860.296
862.862
865.428
867.994
870.560
873.126
875.692
878.258
880.824
883.390
885.956
888.522
891.088
893.654
896.220
898.786
901.352
903.918
906.484
909.050
911.616
914.182
916.748
919.314
921.880
924.446
927.012
929.578
932.144
934.710
937.276
939.842
942.408
944.974
947.540
950.106
952.672
955.238
957.804
960.370
962.936
965.502
968.068
970.634
973.200
975.766
978.332
980.898
983.464
986.030
988.596
991.162
993.728
996.294
998.860
1001.426
1003.992
1006.558
1009.124
1011.690
1014.256
1016.822
1019.388
1021.954
1024.520
1027.086
1029.652
1032.218
1034.784
1037.350
1039.916
1042.482
1045.048
1047.614
1050.180
1052.746
1055.312
1057.878
1060.444
1063.010
1065.576
1068.142
1070.708
1073.274
1075.840
1078.406
1080.972
1083.538
1086.104
1088.670
1091.236
1093.802
1096.368
1098.934
1101.500
1104.066
1106.632
1109.198
1111.764
1114.330
1116.896
1119.462
1122.028
1124.594
1127.160
1129.726
1132.292
1134.858
1137.424
1139.990
1142.556
1145.122
1147.688
1150.254
1152.820
1155.386
1157.952
1160.518
1163.084
1165.650
1168.216
1170.782
1173.348
1175.914
1178.480
1181.046
1183.612
1186.178
1188.744
1191.310
1193.876
1196.442
1199.008
1201.574
1204.140
1206.706
1209.272
1211.838
1214.404
1216.970
1219.536
1222.102
1224.668
1227.234
1229.800
1232.366
1234.932
1237.498
1240.064
1242.630
1245.196
1247.762
1250.328
1252.894
1255.460
1258.026
1260.592
1263.158
1265.724
1268.290
1270.856
1273.422
1275.988
1278.554
1281.120
1283.686
1286.252
1288.818
1291.384
1293.950
1296.516
1299.082
1301.648
1304.214
1306.780
1309.346
1311.912
1314.478
1317.044
1319.610
1322.176
1324.742
1327.308
1329.874
1332.440
1335.006
1337.425
1339.845
1342.264
1344.684
1347.103
1349.523
1351.942
1354.362
1356.781
1359.201
1361.620
1364.040
1366.459
1368.879
1371.298
1373.718
1376.137
1378.557
1380.976
1383.396
1385.815
1388.235
1390.654
1393.074
1395.493
1397.913
1400.332
1402.752
1405.171
1407.591
1410.010
1412.430
1414.849
1417.269
1419.688
1422.108
1424.527
1426.947
1429.366
1431.786
1434.205
1436.625
1439.044
1441.464
1443.883
1446.303
1448.722
1451.142
1453.561
1455.981
1458.400
1460.820
1463.239
1465.659
1468.078
1470.498
1472.917
1475.337
1477.756
1480.176
1482.595
1485.015
1487.434
1489.854
1492.273
1494.693
1497.112
1499.532
1501.951
1504.371
1506.790
1509.210
1511.629
1514.049
1516.468
1518.888
1521.307
1523.727
1526.146
1528.566
1530.985
1533.405
1535.824
1538.244
1540.663
1543.083
1545.502
1547.922
1550.341
1552.761
1555.180
1557.600
1560.019
1562.439
1564.858
1567.278
1569.697
1572.117
1574.536
1576.956
1579.375
1581.795
1584.214
1586.634
1589.053
1591.473
1593.892
1596.312
1598.731
1601.151
1603.570
1605.990
1608.409
1610.829
1613.248
1615.668
1618.087
1620.507
1622.926
1625.346
1627.765
1630.185
1632.604
1635.024
1637.443
1639.863
1642.282
1644.702
1647.121
1649.541
1651.960
1654.380
1656.799
1659.219
1661.638
1664.058
1666.477
1668.897
1671.316
1673.736
1676.155
1678.575
1680.994
1683.414
1685.833
1688.253
1690.672
1693.092
1695.511
1697.931
1700.350
1702.770
1705.189
1707.609
1710.028
1712.448
1714.867
1717.287
1719.706
1722.126
1724.545
1726.965
1729.384
1731.804
1734.223
1736.643
1739.062
1741.482
1743.901
1746.321
1748.740
1751.160
1753.579
1755.999
1758.418
1760.838
1763.257
1765.677
1768.096
1770.516
1772.935
1775.355
1777.774
1780.194
1782.613
1785.033
1787.452
1789.872
1792.291
1794.711
1797.130
1799.550
1801.969
1804.389
1806.808
1809.228
1811.647
1814.067
1816.486
1818.906
1819.712
1820.519
1821.325
1822.132
1822.938
1823.745
1824.551
1825.358
1826.164
1826.971
1827.777
1828.584
1829.390
1830.197
1831.003
1831.810
1832.616
1833.423
1834.229
1835.036
1835.842
1836.649
1837.455
1838.262
1839.068
1839.875
1840.681
1841.488
1842.294
1843.101
1843.907
1844.714
1845.520
1846.327
1847.133
1847.940
1848.746
1849.553
1850.359
1851.166
1851.972
1852.779
1853.585
1854.392
1855.198
1856.005
1856.811
1857.618
1858.424
1859.231
1860.037
1860.844
1861.650
1862.457
1863.263
1864.070
1864.876
1865.683
1866.489
1867.296
1868.102
1868.909
1869.715
1870.522
1871.328
1872.135
1872.941
1873.748
1874.554
1875.361
1876.167
1876.974
1877.780
1878.587
1879.393
1880.200
1881.006
1881.813
1882.619
1883.426
1884.232
1885.039
1885.845
1886.652
1887.458
1888.265
1889.071
1889.878
1890.684
1891.491
1892.297
1893.104
1893.910
1894.717
1895.523
1896.330
1897.136
1897.943
1898.749
1899.556
1900.362
1901.169
1901.975
1902.782
1903.588
1904.395
1905.201
1906.008
1906.814
1907.621
1908.427
1909.234
1910.040
1910.847
1911.653
1912.460
1913.266
1914.073
1914.879
1915.686
1916.492
1917.299
1918.105
1918.912
1919.718
1920.525
1921.331
1922.138
1922.944
1923.751
1924.557
1925.364
1926.170
1926.977
1927.783
1928.590
1929.396
1930.203
1931.009
1931.816
1932.622
1933.429
1934.235
1935.042
1935.848
1936.655
1937.461
1938.268
1939.074
1939.881
1940.687
1941.494
1942.300
1943.107
1943.913
1944.720
1945.526
1946.333
1947.139
1947.946
1948.752
1949.559
1950.365
1951.172
1951.978
1952.785
1953.591
1954.398
1955.204
1956.011
1956.817
1957.624
1958.430
1959.237
1960.043
1960.850
1961.656
1962.463
1963.269
1964.076
1964.882
1965.689
1966.495
1967.302
1968.108
1968.915
1969.721
1970.528
1971.334
1972.141
1972.947
1973.754
1974.560
1975.367
1976.173
1976.980
1977.786
1978.593
1979.399
1980.206
1981.281
1982.356
1983.431
1984.506
1985.581
1986.656
1987.731
1988.806
1989.881
1990.956
1992.031
1993.106
1994.181
1995.256
1996.331
1997.406
1998.481
1999.556
2000.631
2001.706
2002.781
2003.856
2004.931
2006.006
2007.081
2008.156
2009.231
2010.306
2011.381
2012.456
2013.531
2014.606
2015.681
2016.756
2017.831
2018.906
2019.981
2021.056
2022.131
2023.206
2024.281
2025.356
2026.431
2027.506
2028.581
2029.656
2030.731
2031.806
2032.881
2033.956
2035.031
2036.106
2037.181
2038.256
2039.331
2040.406
2041.481
2042.556
2043.631
2044.706
2045.781
2046.856
2047.931
2049.006
2050.081
2051.156
2052.231
2053.306
2054.381
2055.456
2056.531
2057.606
2058.681
2059.756
2060.831
2061.906
2062.981
2064.056
2065.131
2066.206
2067.281
2068.356
2069.431
2070.506
2071.581
2072.656
2073.731
2074.806
2075.881
2076.956
2078.031
2079.106
2080.181
2081.256
2082.331
2083.406
2084.481
2085.556
2086.631
2087.706
2088.781
2089.856
2090.931
2092.006
2093.081
2094.156
2095.231
2096.306
2097.381
2098.456
2099.531
2100.606
2101.681
2102.756
2103.831
2104.906
2105.981
2107.056
2108.131
2109.206
2110.281
2111.356
2112.431
2113.506
2114.581
2115.656
2116.731
2117.806
2118.881
2119.956
2121.031
2122.106
2123.181
2124.256
2125.331
2126.406
2127.481
2128.556
2129.631
2130.706
2131.781
2132.856
2133.931
2135.006
2136.081
2137.156
2138.231
2139.306
2140.381
2141.456
2142.531
2143.606
2144.681
2145.756
2146.831
2147.906
2148.981
2150.056
2151.131
2152.206
2153.281
2154.356
2155.431
2156.506
2157.581
2158.656
2159.731
2160.806
2161.881
2162.956
2164.031
2165.106
2166.181
2167.256
2168.331
2169.406
2170.481
2171.556
2172.631
2173.706
2174.781
2175.856
2176.931
2178.006
2179.081
2180.156
2181.231
2182.306
2183.381
2184.456
2185.531
2186.606
2187.681
2188.756
2189.831
2190.906
2191.981
2193.056
2194.131
2195.206
2194.815
2194.424
2194.033
2193.642
2193.251
2192.860
2192.469
2192.078
2191.687
2191.296
2190.905
2190.514
2190.123
2189.732
2189.341
2188.950
2188.559
2188.168
2187.777
2187.386
2186.995
2186.604
2186.213
2185.822
2185.431
2185.040
2184.649
2184.258
2183.867
2183.476
2183.085
2182.694
2182.303
2181.912
2181.521
2181.130
2180.739
2180.348
2179.957
2179.566
2179.175
2178.784
2178.393
2178.002
2177.611
2177.220
2176.829
2176.438
2176.047
2175.656
2175.265
2174.874
2174.483
2174.092
2173.701
2173.310
2172.919
2172.528
2172.137
2171.746
2171.355
2170.964
2170.573
2170.182
2169.791
2169.400
2169.009
2168.618
2168.227
2167.836
2167.445
2167.054
2166.663
2166.272
2165.881
2165.490
2165.099
2164.708
2164.317
2163.926
2163.535
2163.144
2162.753
2162.362
2161.971
2161.580
2161.189
2160.798
2160.407
2160.016
2159.625
2159.234
2158.843
2158.452
2158.061
2157.670
2157.279
2156.888
2156.497
2156.106
2155.715
2155.324
2154.933
2154.542
2154.151
2153.760
2153.369
2152.978
2152.587
2152.196
2151.805
2151.414
2151.023
2150.632
2150.241
2149.850
2149.459
2149.068
2148.677
2148.286
2147.895
2147.504
2147.113
2146.722
2146.331
2145.940
2145.549
2145.158
2144.767
2144.376
2143.985
2143.594
2143.203
2142.812
2142.421
2142.030
2141.639
2141.248
2140.857
2140.466
2140.075
2139.684
2139.293
2138.902
2138.511
2138.120
2137.729
2137.338
2136.947
2136.556
2136.165
2135.774
2135.383
2134.992
2134.601
2134.210
2133.819
2133.428
2133.037
2132.646
2132.255
2131.864
2131.473
2131.082
2130.691
2130.300
2129.909
2129.518
2129.127
2128.736
2128.345
2127.954
2127.563
2127.172
2126.781
2126.390
2125.999
2125.608
2125.217
2124.826
2124.435
2124.044
2123.653
2123.262
2122.871
2122.480
2122.089
2121.698
2121.307
2120.916
2120.525
2120.134
2119.743
2119.352
2118.961
2118.570
2118.179
2117.788
2117.397
2117.006
2116.273
2115.540
2114.807
2114.074
2113.341
2112.608
2111.875
2111.142
2110.409
2109.676
2108.943
2108.210
2107.477
2106.744
2106.011
2105.278
2104.545
2103.812
2103.079
2102.346
2101.613
2100.880
2100.147
2099.414
2098.681
2097.948
2097.215
2096.482
2095.749
2095.016
2094.283
2093.550
2092.817
2092.084
2091.351
2090.618
2089.885
2089.152
2088.419
2087.686
2086.953
2086.220
2085.487
2084.754
2084.021
2083.288
2082.555
2081.822
2081.089
2080.356
2079.623
2078.890
2078.157
2077.424
2076.691
2075.958
2075.225
2074.492
2073.759
2073.026
2072.293
2071.560
2070.827
2070.094
2069.361
2068.628
2067.895
2067.162
2066.429
2065.696
2064.963
2064.230
2063.497
2062.764
2062.031
2061.298
2060.565
2059.832
2059.099
2058.366
2057.633
2056.900
2056.167
2055.434
2054.701
2053.968
2053.235
2052.502
2051.769
2051.036
2050.303
2049.570
2048.837
2048.104
2047.371
2046.638
2045.905
2045.172
2044.439
2043.706
2042.973
2042.240
2041.507
2040.774
2040.041
2039.308
2038.575
2037.842
2037.109
2036.376
2035.643
2034.910
2034.177
2033.444
2032.711
2031.978
2031.245
2030.512
2029.779
2029.046
2028.313
2027.580
2026.847
2026.114
2025.381
2024.648
2023.915
2023.182
2022.449
2021.716
2020.983
2020.250
2019.517
2018.784
2018.051
2017.318
2016.585
2015.852
2015.119
2014.386
2013.653
2012.920
2012.187
2011.454
2010.721
2009.988
2009.255
2008.522
2007.789
2007.056
2006.323
2005.590
2004.857
2004.124
2003.391
2002.658
2001.925
2001.192
2000.459
1999.726
1998.993
1998.260
1997.527
1996.794
1996.061
1995.328
1994.595
1993.862
1993.129
1992.396
1991.663
1990.930
1990.197
1989.464
1988.731
1987.998
1987.265
1986.532
1985.799
1985.066
1984.333
1983.600
1982.867
1982.134
1981.401
1980.668
1979.935
1979.202
1978.469
1977.736
1977.003
1976.270
1975.537
1974.804
1974.071
1973.338
1972.605
1971.872
1971.139
1970.406
1968.500
1966.594
1964.688
1962.782
1960.876
1958.970
1957.064
1955.158
1953.252
1951.346
1949.440
1947.534
1945.628
1943.722
1941.816
1939.910
1938.004
1936.098
1934.192
1932.286
1930.380
1928.474
1926.568
1924.662
1922.756
1920.850
1918.944
1917.038
1915.132
1913.226
1911.320
1909.414
1907.508
1905.602
1903.696
1901.790
1899.884
1897.978
1896.072
1894.166
1892.260
1890.354
1888.448
1886.542
1884.636
1882.730
1880.824
1878.918
1877.012
1875.106
1873.200
1871.294
1869.388
1867.482
1865.576
1863.670
1861.764
1859.858
1857.952
1856.046
1854.140
1852.234
1850.328
1848.422
1846.516
1844.610
1842.704
1840.798
1838.892
1836.986
1835.080
1833.174
1831.268
1829.362
1827.456
1825.550
1823.644
1821.738
1819.832
1817.926
1816.020
1814.114
1812.208
1810.302
1808.396
1806.490
1804.584
1802.678
1800.772
1798.866
1796.960
1795.054
1793.148
1791.242
1789.336
1787.430
1785.524
1783.618
1781.712
1779.806
1777.900
1775.994
1774.088
1772.182
1770.276
1768.370
1766.464
1764.558
1762.652
1760.746
1758.840
1756.934
1755.028
1753.122
1751.216
1749.310
1747.404
1745.498
1743.592
1741.686
1739.780
1737.874
1735.968
1734.062
1732.156
1730.250
1728.344
1726.438
1724.532
1722.626
1720.720
1718.814
1716.908
1715.002
1713.096
1711.190
1709.284
1707.378
1705.472
1703.566
1701.660
1699.754
1697.848
1695.942
1694.036
1692.130
1690.224
1688.318
1686.412
1684.506
1682.600
1680.694
1678.788
1676.882
1674.976
1673.070
1671.164
1669.258
1667.352
1665.446
1663.540
1661.634
1659.728
1657.822
1655.916
1654.010
1652.104
1650.198
1648.292
1646.386
1644.480
1642.574
1640.668
1638.762
1636.856
1634.950
1633.044
1631.138
1629.232
1627.326
1625.420
1623.514
1621.608
1619.702
1617.796
1615.890
1613.984
1612.078
1610.172
1608.266
1606.360
1604.454
1602.548
1600.642
1598.736
1596.830
1594.924
1593.018
1591.112
1589.206
1588.986
1588.766
1588.546
1588.326
1588.106
1587.886
1587.666
1587.446
1587.226
1587.006
1586.786
1586.566
1586.346
1586.126
1585.906
1585.686
1585.466
1585.246
1585.026
1584.806
1584.586
1584.366
1584.146
1583.926
1583.706
1583.486
1583.266
1583.046
1582.826
1582.606
1582.386
1582.166
1581.946
1581.726
1581.506
1581.286
1581.066
1580.846
1580.626
1580.406
1580.186
1579.966
1579.746
1579.526
1579.306
1579.086
1578.866
1578.646
1578.426
1578.206
1577.986
1577.766
1577.546
1577.326
1577.106
1576.886
1576.666
1576.446
1576.226
1576.006
1575.786
1575.566
1575.346
1575.126
1574.906
1574.686
1574.466
1574.246
1574.026
1573.806
1573.586
1573.366
1573.146
1572.926
1572.706
1572.486
1572.266
1572.046
1571.826
1571.606
1571.386
1571.166
1570.946
1570.726
1570.506
1570.286
1570.066
1569.846
1569.626
1569.406
1569.186
1568.966
1568.746
1568.526
1568.306
1568.086
1567.866
1567.646
1567.426
1567.206
1566.986
1566.766
1566.546
1566.326
1566.106
1565.886
1565.666
1565.446
1565.226
1565.006
1564.786
1564.566
1564.346
1564.126
1563.906
1563.686
1563.466
1563.246
1563.026
1562.806
1562.586
1562.366
1562.146
1561.926
1561.706
1561.486
1561.266
1561.046
1560.826
1560.606
1560.386
1560.166
1559.946
1559.726
1559.506
1559.286
1559.066
1558.846
1558.626
1558.406
1558.186
1557.966
1557.746
1557.526
1557.306
1557.086
1556.866
1556.646
1556.426
1556.206
1555.986
1555.766
1555.546
1555.326
1555.106
1554.886
1554.666
1554.446
1554.226
1554.006
1553.786
1553.566
1553.346
1553.126
1552.906
1552.686
1552.466
1552.246
1552.026
1551.806
1551.586
1551.366
1551.146
1550.926
1550.706
1550.486
1550.266
1550.046
1549.826
1549.606
1549.386
1549.166
1548.946
1548.726
1548.506
1548.286
1548.066
1547.846
1547.626
1547.406
1547.186
1546.966
1546.746
1546.526
1546.306
1546.086
1545.866
1545.646
1545.426
1545.206
1548.480
1551.755
1555.029
1558.304
1561.578
1564.853
1568.127
1571.402
1574.676
1577.951
1581.225
1584.500
1587.774
1591.049
1594.323
1597.598
1600.872
1604.147
1607.421
1610.696
1613.970
1617.245
1620.519
1623.794
1627.068
1630.343
1633.617
1636.892
1640.166
1643.441
1646.715
1649.990
1653.264
1656.539
1659.813
1663.088
1666.362
1669.637
1672.911
1676.186
1679.460
1682.735
1686.009
1689.284
1692.558
1695.833
1699.107
1702.382
1705.656
1708.931
1712.205
1715.480
1718.754
1722.029
1725.303
1728.578
1731.852
1735.127
1738.401
1741.676
1744.950
1748.225
1751.499
1754.774
1758.048
1761.323
1764.597
1767.872
1771.146
1774.421
1777.695
1780.970
1784.244
1787.519
1790.793
1794.068
1797.342
1800.617
1803.891
1807.166
1810.440
1813.715
1816.989
1820.264
1823.538
1826.813
1830.087
1833.362
1836.636
1839.911
1843.185
1846.460
1849.734
1853.009
1856.283
1859.558
1862.832
1866.107
1869.381
1872.656
1875.930
1879.205
1882.479
1885.754
1889.028
1892.303
1895.577
1898.852
1902.126
1905.401
1908.675
1911.950
1915.224
1918.499
1921.773
1925.048
1928.322
1931.597
1934.871
1938.146
1941.420
1944.695
1947.969
1951.244
1954.518
1957.793
1961.067
1964.342
1967.616
1970.891
1974.165
1977.440
1980.714
1983.989
1987.263
1990.538
1993.812
1997.087
2000.361
2003.636
2006.910
2010.185
2013.459
2016.734
2020.008
2023.283
2026.557
2029.832
2033.106
2036.381
2039.655
2042.930
2046.204
2049.479
2052.753
2056.028
2059.302
2062.577
2065.851
2069.126
2072.400
2075.675
2078.949
2082.224
2085.498
2088.773
2092.047
2095.322
2098.596
2101.871
2105.145
2108.420
2111.694
2114.969
2118.243
2121.518
2124.792
2128.067
2131.341
2134.616
2137.890
2141.165
2144.439
2147.714
2150.988
2154.263
2157.537
2160.812
2164.086
2167.361
2170.635
2173.910
2177.184
2180.459
2183.733
2187.008
2190.282
2193.557
2196.831
2200.106
2197.980
2195.854
2193.728
2191.602
2189.476
2187.350
2185.224
2183.098
2180.972
2178.846
2176.720
2174.594
2172.468
2170.342
2168.216
2166.090
2163.964
2161.838
2159.712
2157.586
2155.460
2153.334
2151.208
2149.082
2146.956
2144.830
2142.704
2140.578
2138.452
2136.326
2134.200
2132.074
2129.948
2127.822
2125.696
2123.570
2121.444
2119.318
2117.192
2115.066
2112.940
2110.814
2108.688
2106.562
2104.436
2102.310
2100.184
2098.058
2095.932
2093.806
2091.680
2089.554
2087.428
2085.302
2083.176
2081.050
2078.924
2076.798
2074.672
2072.546
2070.420
2068.294
2066.168
2064.042
2061.916
2059.790
2057.664
2055.538
2053.412
2051.286
2049.160
2047.034
2044.908
2042.782
2040.656
2038.530
2036.404
2034.278
2032.152
2030.026
2027.900
2025.774
2023.648
2021.522
2019.396
2017.270
2015.144
2013.018
2010.892
2008.766
2006.640
2004.514
2002.388
2000.262
1998.136
1996.010
1993.884
1991.758
1989.632
1987.506
1985.380
1983.254
1981.128
1979.002
1976.876
1974.750
1972.624
1970.498
1968.372
1966.246
1964.120
1961.994
1959.868
1957.742
1955.616
1953.490
1951.364
1949.238
1947.112
1944.986
1942.860
1940.734
1938.608
1936.482
1934.356
1932.230
1930.104
1927.978
1925.852
1923.726
1921.600
1919.474
1917.348
1915.222
1913.096
1910.970
1908.844
1906.718
1904.592
1902.466
1900.340
1898.214
1896.088
1893.962
1891.836
1889.710
1887.584
1885.458
1883.332
1881.206
1879.080
1876.954
1874.828
1872.702
1870.576
1868.450
1866.324
1864.198
1862.072
1859.946
1857.820
1855.694
1853.568
1851.442
1849.316
1847.190
1845.064
1842.938
1840.812
1838.686
1836.560
1834.434
1832.308
1830.182
1828.056
1825.930
1823.804
1821.678
1819.552
1817.426
1815.300
1813.174
1811.048
1808.922
1806.796
1804.670
1802.544
1800.418
1798.292
1796.166
1794.040
1791.914
1789.788
1787.662
1785.536
1783.410
1781.284
1779.158
1777.032
