1808.553
1808.284
1808.015
1807.746
1807.477
1807.208
1806.939
1806.670
1806.401
1806.132
1805.863
1805.594
1805.325
1805.056
1804.787
1804.518
1804.249
1803.980
1803.711
1803.442
1803.173
1802.904
1802.635
1802.366
1802.097
1801.828
1801.559
1801.290
1801.021
1800.752
1800.483
1800.214
1799.945
1799.676
1799.407
1799.138
1798.869
1798.600
1798.331
1798.062
1797.793
1797.524
1797.255
1796.986
1796.717
1796.448
1796.179
1795.910
1795.641
1795.372
1795.103
1794.834
1794.565
1794.296
1794.027
1793.758
1793.489
1793.220
1792.951
1792.682
1792.413
1792.144
1791.875
1791.606
1791.337
1791.068
1790.799
1790.530
1790.261
1789.992
1789.723
1789.454
1789.185
1788.916
1788.647
1788.378
1788.109
1787.840
1787.571
1787.302
1787.033
1786.764
1786.495
1786.226
1785.957
1785.688
1785.419
1785.150
1784.881
1784.612
1784.343
1784.074
1783.805
1783.536
1783.267
1782.998
1782.729
1782.460
1782.191
1781.922
1781.653
1781.384
1781.115
1780.846
1780.577
1780.308
1780.039
1779.770
1779.501
1779.232
1778.963
1778.694
1778.425
1778.156
1777.887
1777.618
1777.349
1777.080
1776.811
1776.542
1776.273
1776.004
1775.735
1775.466
1775.197
1774.928
1774.659
1774.390
1774.121
1773.852
1773.583
1773.314
1773.045
1772.776
1772.507
1772.238
1771.969
1771.700
1771.431
1771.162
1770.893
1770.624
1770.355
1770.086
1769.817
1769.548
1769.279
1769.010
1768.741
1768.472
1768.203
1767.934
1767.665
1767.396
1767.127
1766.858
1766.589
1766.320
1766.051
1765.782
1765.513
1765.244
1764.975
1764.706
1764.437
1764.168
1763.899
1763.630
1763.361
1763.092
1762.823
1762.554
1762.285
1762.016
1761.747
1761.478
1761.209
1760.940
1760.671
1760.402
1760.133
1759.864
1759.595
1759.326
1759.057
1758.788
1758.519
1758.250
1757.981
1757.712
1757.443
1757.174
1756.905
1756.636
1756.367
1756.098
1755.829
1755.560
1755.291
1755.022
1754.753
1754.509
1754.265
1754.021
1753.777
1753.533
1753.289
1753.045
1752.801
1752.557
1752.313
1752.069
1751.825
1751.581
1751.337
1751.093
1750.849
1750.605
1750.361
1750.117
1749.873
1749.629
1749.385
1749.141
1748.897
1748.653
1748.409
1748.165
1747.921
1747.677
1747.433
1747.189
1746.945
1746.701
1746.457
1746.213
1745.969
1745.725
1745.481
1745.237
1744.993
1744.749
1744.505
1744.261
1744.017
1743.773
1743.529
1743.285
1743.041
1742.797
1742.553
1742.309
1742.065
1741.821
1741.577
1741.333
1741.089
1740.845
1740.601
1740.357
1740.113
1739.869
1739.625
1739.381
1739.137
1738.893
1738.649
1738.405
1738.161
1737.917
1737.673
1737.429
1737.185
1736.941
1736.697
1736.453
1736.209
1735.965
1735.721
1735.477
1735.233
1734.989
1734.745
1734.501
1734.257
1734.013
1733.769
1733.525
1733.281
1733.037
1732.793
1732.549
1732.305
1732.061
1731.817
1731.573
1731.329
1731.085
1730.841
1730.597
1730.353
1730.109
1729.865
1729.621
1729.377
1729.133
1728.889
1728.645
1728.401
1728.157
1727.913
1727.669
1727.425
1727.181
1726.937
1726.693
1726.449
1726.205
1725.961
1725.717
1725.473
1725.229
1724.985
1724.741
1724.497
1724.253
1724.009
1723.765
1723.521
1723.277
1723.033
1722.789
1722.545
1722.301
1722.057
1721.813
1721.569
1721.325
1721.081
1720.837
1720.593
1720.349
1720.105
1719.861
1719.617
1719.373
1719.129
1718.885
1718.641
1718.397
1718.153
1717.909
1717.665
1717.421
1717.177
1716.933
1716.689
1716.445
1716.201
1715.957
1715.713
1715.469
1715.225
1714.981
1714.737
1714.493
1714.249
1714.005
1713.761
1713.517
1713.273
1713.029
1712.785
1712.541
1712.297
1712.053
1711.809
1711.565
1711.321
1711.077
1710.833
1710.589
1710.345
1710.101
1709.857
1709.613
1709.369
1709.125
1708.881
1708.637
1708.393
1708.149
1707.905
1707.661
1707.417
1707.173
1706.929
1706.685
1706.441
1706.197
1705.953
1708.176
1710.400
1712.623
1714.847
1717.070
1719.294
1721.517
1723.741
1725.964
1728.188
1730.411
1732.635
1734.858
1737.082
1739.305
1741.529
1743.752
1745.976
1748.199
1750.423
1752.646
1754.870
1757.093
1759.317
1761.540
1763.764
1765.987
1768.211
1770.434
1772.658
1774.881
1777.105
1779.328
1781.552
1783.775
1785.999
1788.222
1790.446
1792.669
1794.893
1797.116
1799.340
1801.563
1803.787
1806.010
1808.234
1810.457
1812.681
1814.904
1817.128
1819.351
1821.575
1823.798
1826.022
1828.245
1830.469
1832.692
1834.916
1837.139
1839.363
1841.586
1843.810
1846.033
1848.257
1850.480
1852.704
1854.927
1857.151
1859.374
1861.598
1863.821
1866.045
1868.268
1870.492
1872.715
1874.939
1877.162
1879.386
1881.609
1883.833
1886.056
1888.280
1890.503
1892.727
1894.950
1897.174
1899.397
1901.621
1903.844
1906.068
1908.291
1910.515
1912.738
1914.962
1917.185
1919.409
1921.632
1923.856
1926.079
1928.303
1930.526
1932.750
1934.973
1937.197
1939.420
1941.644
1943.867
1946.091
1948.314
1950.538
1952.761
1954.985
1957.208
1959.432
1961.655
1963.879
1966.102
1968.326
1970.549
1972.773
1974.996
1977.220
1979.443
1981.667
1983.890
1986.114
1988.337
1990.561
1992.784
1995.008
1997.231
1999.455
2001.678
2003.902
2006.125
2008.349
2010.572
2012.796
2015.019
2017.243
2019.466
2021.690
2023.913
2026.137
2028.360
2030.584
2032.807
2035.031
2037.254
2039.478
2041.701
2043.925
2046.148
2048.372
2050.595
2052.819
2055.042
2057.266
2059.489
2061.713
2063.936
2066.160
2068.383
2070.607
2072.830
2075.054
2077.277
2079.501
2081.724
2083.948
2086.171
2088.395
2090.618
2092.842
2095.065
2097.289
2099.512
2101.736
2103.959
2106.183
2108.406
2110.630
2112.853
2115.077
2117.300
2119.524
2121.747
2123.971
2126.194
2128.418
2130.641
2132.865
2135.088
2137.312
2139.535
2141.759
2143.982
2146.206
2148.429
2150.653
2149.871
2149.089
2148.307
2147.525
2146.743
2145.961
2145.179
2144.397
2143.615
2142.833
2142.051
2141.269
2140.487
2139.705
2138.923
2138.141
2137.359
2136.577
2135.795
2135.013
2134.231
2133.449
2132.667
2131.885
2131.103
2130.321
2129.539
2128.757
2127.975
2127.193
2126.411
2125.629
2124.847
2124.065
2123.283
2122.501
2121.719
2120.937
2120.155
2119.373
2118.591
2117.809
2117.027
2116.245
2115.463
2114.681
2113.899
2113.117
2112.335
2111.553
2110.771
2109.989
2109.207
2108.425
2107.643
2106.861
2106.079
2105.297
2104.515
2103.733
2102.951
2102.169
2101.387
2100.605
2099.823
2099.041
2098.259
2097.477
2096.695
2095.913
2095.131
2094.349
2093.567
2092.785
2092.003
2091.221
2090.439
2089.657
2088.875
2088.093
2087.311
2086.529
2085.747
2084.965
2084.183
2083.401
2082.619
2081.837
2081.055
2080.273
2079.491
2078.709
2077.927
2077.145
2076.363
2075.581
2074.799
2074.017
2073.235
2072.453
2071.671
2070.889
2070.107
2069.325
2068.543
2067.761
2066.979
2066.197
2065.415
2064.633
2063.851
2063.069
2062.287
2061.505
2060.723
2059.941
2059.159
2058.377
2057.595
2056.813
2056.031
2055.249
2054.467
2053.685
2052.903
2052.121
2051.339
2050.557
2049.775
2048.993
2048.211
2047.429
2046.647
2045.865
2045.083
2044.301
2043.519
2042.737
2041.955
2041.173
2040.391
2039.609
2038.827
2038.045
2037.263
2036.481
2035.699
2034.917
2034.135
2033.353
2032.571
2031.789
2031.007
2030.225
2029.443
2028.661
2027.879
2027.097
2026.315
2025.533
2024.751
2023.969
2023.187
2022.405
2021.623
2020.841
2020.059
2019.277
2018.495
2017.713
2016.931
2016.149
2015.367
2014.585
2013.803
2013.021
2012.239
2011.457
2010.675
2009.893
2009.111
2008.329
2007.547
2006.765
2005.983
2005.201
2004.419
2003.637
2002.855
2002.073
2001.291
2000.509
1999.727
1998.945
1998.163
1997.381
1996.599
1995.817
1995.035
1994.253
1992.884
1991.516
1990.147
1988.779
1987.410
1986.042
1984.673
1983.305
1981.936
1980.568
1979.199
1977.831
1976.462
1975.094
1973.725
1972.357
1970.988
1969.620
1968.251
1966.883
1965.514
1964.146
1962.777
1961.409
1960.040
1958.672
1957.303
1955.935
1954.566
1953.198
1951.829
1950.461
1949.092
1947.724
1946.355
1944.987
1943.618
1942.250
1940.881
1939.513
1938.144
1936.776
1935.407
1934.039
1932.670
1931.302
1929.933
1928.565
1927.196
1925.828
1924.459
1923.091
1921.722
1920.354
1918.985
1917.617
1916.248
1914.880
1913.511
1912.143
1910.774
1909.406
1908.037
1906.669
1905.300
1903.932
1902.563
1901.195
1899.826
1898.458
1897.089
1895.721
1894.352
1892.984
1891.615
1890.247
1888.878
1887.510
1886.141
1884.773
1883.404
1882.036
1880.667
1879.299
1877.930
1876.562
1875.193
1873.825
1872.456
1871.088
1869.719
1868.351
1866.982
1865.614
1864.245
1862.877
1861.508
1860.140
1858.771
1857.403
1856.034
1854.666
1853.297
1851.929
1850.560
1849.192
1847.823
1846.455
1845.086
1843.718
1842.349
1840.981
1839.612
1838.244
1836.875
1835.507
1834.138
1832.770
1831.401
1830.033
1828.664
1827.296
1825.927
1824.559
1823.190
1821.822
1820.453
1819.085
1817.716
1816.348
1814.979
1813.611
1812.242
1810.874
1809.505
1808.137
1806.768
1805.400
1804.031
1802.663
1801.294
1799.926
1798.557
1797.189
1795.820
1794.452
1793.083
1791.715
1790.346
1788.978
1787.609
1786.241
1784.872
1783.504
1782.135
1780.767
1779.398
1778.030
1776.661
1775.293
1773.924
1772.556
1771.187
1769.819
1768.450
1767.082
1765.713
1764.345
1762.976
1761.608
1760.239
1758.871
1757.502
1756.134
1754.765
1753.397
1752.028
1750.660
1749.291
1747.923
1746.554
1745.186
1743.817
1742.449
1741.080
1739.712
1738.343
1736.975
1735.606
1734.238
1732.869
1731.501
1730.132
1728.764
1727.395
1726.027
1724.658
1723.290
1721.921
1720.553
1722.679
1724.806
1726.932
1729.059
1731.185
1733.312
1735.438
1737.565
1739.691
1741.818
1743.944
1746.071
1748.197
1750.324
1752.450
1754.577
1756.703
1758.830
1760.956
1763.083
1765.209
1767.336
1769.462
1771.589
1773.715
1775.842
1777.968
1780.095
1782.221
1784.348
1786.474
1788.601
1790.727
1792.854
1794.980
1797.107
1799.233
1801.360
1803.486
1805.613
1807.739
1809.866
1811.992
1814.119
1816.245
1818.372
1820.498
1822.625
1824.751
1826.878
1829.004
1831.131
1833.257
1835.384
1837.510
1839.637
1841.763
1843.890
1846.016
1848.143
1850.269
1852.396
1854.522
1856.649
1858.775
1860.902
1863.028
1865.155
1867.281
1869.408
1871.534
1873.661
1875.787
1877.914
1880.040
1882.167
1884.293
1886.420
1888.546
1890.673
1892.799
1894.926
1897.052
1899.179
1901.305
1903.432
1905.558
1907.685
1909.811
1911.938
1914.064
1916.191
1918.317
1920.444
1922.570
1924.697
1926.823
1928.950
1931.076
1933.203
1935.329
1937.456
1939.582
1941.709
1943.835
1945.962
1948.088
1950.215
1952.341
1954.468
1956.594
1958.721
1960.847
1962.974
1965.100
1967.227
1969.353
1971.480
1973.606
1975.733
1977.859
1979.986
1982.112
1984.239
1986.365
1988.492
1990.618
1992.745
1994.871
1996.998
1999.124
2001.251
2003.377
2005.504
2007.630
2009.757
2011.883
2014.010
2016.136
2018.263
2020.389
2022.516
2024.642
2026.769
2028.895
2031.022
2033.148
2035.275
2037.401
2039.528
2041.654
2043.781
2045.907
2048.034
2050.160
2052.287
2054.413
2056.540
2058.666
2060.793
2062.919
2065.046
2067.172
2069.299
2071.425
2073.552
2075.678
2077.805
2079.931
2082.058
2084.184
2086.311
2088.437
2090.564
2092.690
2094.817
2096.943
2099.070
2101.196
2103.323
2105.449
2107.576
2109.702
2111.829
2113.955
2116.082
2118.208
2120.335
2122.461
2124.588
2126.714
2128.841
2130.967
2133.094
2135.220
2137.347
2139.473
2141.600
2143.726
2145.853
2142.260
2138.668
2135.075
2131.483
2127.890
2124.298
2120.705
2117.113
2113.520
2109.928
2106.335
2102.743
2099.150
2095.558
2091.965
2088.373
2084.780
2081.188
2077.595
2074.003
2070.410
2066.818
2063.225
2059.633
2056.040
2052.448
2048.855
2045.263
2041.670
2038.078
2034.485
2030.893
2027.300
2023.708
2020.115
2016.523
2012.930
2009.338
2005.745
2002.153
1998.560
1994.968
1991.375
1987.783
1984.190
1980.598
1977.005
1973.413
1969.820
1966.228
1962.635
1959.043
1955.450
1951.858
1948.265
1944.673
1941.080
1937.488
1933.895
1930.303
1926.710
1923.118
1919.525
1915.933
1912.340
1908.748
1905.155
1901.563
1897.970
1894.378
1890.785
1887.193
1883.600
1880.008
1876.415
1872.823
1869.230
1865.638
1862.045
1858.453
1854.860
1851.268
1847.675
1844.083
1840.490
1836.898
1833.305
1829.713
1826.120
1822.528
1818.935
1815.343
1811.750
1808.158
1804.565
1800.973
1797.380
1793.788
1790.195
1786.603
1783.010
1779.418
1775.825
1772.233
1768.640
1765.048
1761.455
1757.863
1754.270
1750.678
1747.085
1743.493
1739.900
1736.308
1732.715
1729.123
1725.530
1721.938
1718.345
1714.753
1711.160
1707.568
1703.975
1700.383
1696.790
1693.198
1689.605
1686.013
1682.420
1678.828
1675.235
1671.643
1668.050
1664.458
1660.865
1657.273
1653.680
1650.088
1646.495
1642.903
1639.310
1635.718
1632.125
1628.533
1624.940
1621.348
1617.755
1614.163
1610.570
1606.978
1603.385
1599.793
1596.200
1592.608
1589.015
1585.423
1581.830
1578.238
1574.645
1571.053
1567.460
1563.868
1560.275
1556.683
1553.090
1549.498
1545.905
1542.313
1538.720
1535.128
1531.535
1527.943
1524.350
1520.758
1517.165
1513.573
1509.980
1506.388
1502.795
1499.203
1495.610
1492.018
1488.425
1484.833
1481.240
1477.648
1474.055
1470.463
1466.870
1463.278
1459.685
1456.093
1452.500
1448.908
1445.315
1441.723
1438.130
1434.538
1430.945
1427.353
1427.670
1427.988
1428.305
1428.623
1428.940
1429.258
1429.575
1429.893
1430.210
1430.528
1430.845
1431.163
1431.480
1431.798
1432.115
1432.433
1432.750
1433.068
1433.385
1433.703
1434.020
1434.338
1434.655
1434.973
1435.290
1435.608
1435.925
1436.243
1436.560
1436.878
1437.195
1437.513
1437.830
1438.148
1438.465
1438.783
1439.100
1439.418
1439.735
1440.053
1440.370
1440.688
1441.005
1441.323
1441.640
1441.958
1442.275
1442.593
1442.910
1443.228
1443.545
1443.863
1444.180
1444.498
1444.815
1445.133
1445.450
1445.768
1446.085
1446.403
1446.720
1447.038
1447.355
1447.673
1447.990
1448.308
1448.625
1448.943
1449.260
1449.578
1449.895
1450.213
1450.530
1450.848
1451.165
1451.483
1451.800
1452.118
1452.435
1452.753
1453.070
1453.388
1453.705
1454.023
1454.340
1454.658
1454.975
1455.293
1455.610
1455.928
1456.245
1456.563
1456.880
1457.198
1457.515
1457.833
1458.150
1458.468
1458.785
1459.103
1459.420
1459.738
1460.055
1460.373
1460.690
1461.008
1461.325
1461.643
1461.960
1462.278
1462.595
1462.913
1463.230
1463.548
1463.865
1464.183
1464.500
1464.818
1465.135
1465.453
1465.770
1466.088
1466.405
1466.723
1467.040
1467.358
1467.675
1467.993
1468.310
1468.628
1468.945
1469.263
1469.580
1469.898
1470.215
1470.533
1470.850
1471.168
1471.485
1471.803
1472.120
1472.438
1472.755
1473.073
1473.390
1473.708
1474.025
1474.343
1474.660
1474.978
1475.295
1475.613
1475.930
1476.248
1476.565
1476.883
1477.200
1477.518
1477.835
1478.153
1478.470
1478.788
1479.105
1479.423
1479.740
1480.058
1480.375
1480.693
1481.010
1481.328
1481.645
1481.963
1482.280
1482.598
1482.915
1483.233
1483.550
1483.868
1484.185
1484.503
1484.820
1485.138
1485.455
1485.773
1486.090
1486.408
1486.725
1487.043
1487.360
1487.678
1487.995
1488.313
1488.630
1488.948
1489.265
1489.583
1489.900
1490.218
1490.535
1490.853
1485.599
1480.345
1475.091
1469.837
1464.583
1459.329
1454.075
1448.821
1443.567
1438.313
1433.059
1427.805
1422.551
1417.297
1412.043
1406.789
1401.535
1396.281
1391.027
1385.773
1380.519
1375.265
1370.011
1364.757
1359.503
1354.249
1348.995
1343.741
1338.487
1333.233
1327.979
1322.725
1317.471
1312.217
1306.963
1301.709
1296.455
1291.201
1285.947
1280.693
1275.439
1270.185
1264.931
1259.677
1254.423
1249.169
1243.915
1238.661
1233.407
1228.153
1222.899
1217.645
1212.391
1207.137
1201.883
1196.629
1191.375
1186.121
1180.867
1175.613
1170.359
1165.105
1159.851
1154.597
1149.343
1144.089
1138.835
1133.581
1128.327
1123.073
1117.819
1112.565
1107.311
1102.057
1096.803
1091.549
1086.295
1081.041
1075.787
1070.533
1065.279
1060.025
1054.771
1049.517
1044.263
1039.009
1033.755
1028.501
1023.247
1017.993
1012.739
1007.485
1002.231
996.977
991.723
986.469
981.215
975.961
970.707
965.453
960.199
954.945
949.691
944.437
939.183
933.929
928.675
923.421
918.167
912.913
907.659
902.405
897.151
891.897
886.643
881.389
876.135
870.881
865.627
860.373
855.119
849.865
844.611
839.357
834.103
828.849
823.595
818.341
813.087
807.833
802.579
797.325
792.071
786.817
781.563
776.309
771.055
765.801
760.547
755.293
750.039
744.785
739.531
734.277
729.023
723.769
718.515
713.261
708.007
702.753
697.499
692.245
686.991
681.737
676.483
671.229
665.975
660.721
655.467
650.213
644.959
639.705
634.451
629.197
623.943
618.689
613.435
608.181
602.927
597.673
592.419
587.165
581.911
576.657
571.403
566.149
560.895
555.641
550.387
545.133
539.879
534.625
529.371
524.117
518.863
513.609
508.355
503.101
497.847
492.593
487.339
482.085
476.831
471.577
466.323
461.069
455.815
450.561
445.307
440.053
438.733
437.414
436.094
434.775
433.455
432.136
430.816
429.497
428.177
426.858
425.538
424.219
422.899
421.580
420.260
418.941
417.621
416.302
414.982
413.663
412.343
411.024
409.704
408.385
407.065
405.746
404.426
403.107
401.787
400.468
399.148
397.829
396.509
395.190
393.870
392.551
391.231
389.912
388.592
387.273
385.953
384.634
383.314
381.995
380.675
379.356
378.036
376.717
375.397
374.078
372.758
371.439
370.119
368.800
367.480
366.161
364.841
363.522
362.202
360.883
359.563
358.244
356.924
355.605
354.285
352.966
351.646
350.327
349.007
347.688
346.368
345.049
343.729
342.410
341.090
339.771
338.451
337.132
335.812
334.493
333.173
331.854
330.534
329.215
327.895
326.576
325.256
323.937
322.617
321.298
319.978
318.659
317.339
316.020
314.700
313.381
312.061
310.742
309.422
308.103
306.783
305.464
304.144
302.825
301.505
300.186
298.866
297.547
296.227
294.908
293.588
292.269
290.949
289.630
288.310
286.991
285.671
284.352
283.032
281.713
280.393
279.074
277.754
276.435
275.115
273.796
272.476
271.157
269.837
268.518
267.198
265.879
264.559
263.240
261.920
260.601
259.281
257.962
256.642
255.323
254.003
252.684
251.364
250.045
248.725
247.406
246.086
244.767
243.447
242.128
240.808
239.489
238.169
236.850
235.530
234.211
232.891
231.572
230.252
228.933
227.613
226.294
224.974
223.655
222.335
221.016
219.696
218.377
217.057
215.738
214.418
213.099
211.779
210.460
209.140
207.821
206.501
205.182
203.862
202.543
201.223
199.904
198.584
197.265
195.945
194.626
193.306
191.987
190.667
189.348
188.028
186.709
185.389
184.070
182.750
181.431
180.111
178.792
177.472
