1225.955
1230.623
1235.291
1239.959
1244.627
1249.295
1253.963
1258.631
1263.299
1267.967
1272.635
1277.303
1281.971
1286.639
1291.307
1295.975
1300.643
1305.311
1309.979
1314.647
1319.315
1323.983
1328.651
1333.319
1337.987
1342.655
1347.323
1351.991
1356.659
1361.327
1365.995
1370.663
1375.331
1379.999
1384.667
1389.335
1394.003
1398.671
1403.339
1408.007
1412.675
1417.343
1422.011
1426.679
1431.347
1436.015
1440.683
1445.351
1450.019
1454.687
1459.355
1464.023
1468.691
1473.359
1478.027
1482.695
1487.363
1492.031
1496.699
1501.367
1506.035
1510.703
1515.371
1520.039
1524.707
1529.375
1534.043
1538.711
1543.379
1548.047
1552.715
1557.383
1562.051
1566.719
1571.387
1576.055
1580.723
1585.391
1590.059
1594.727
1599.395
1604.063
1608.731
1613.399
1618.067
1622.735
1627.403
1632.071
1636.739
1641.407
1646.075
1650.743
1655.411
1660.079
1664.747
1669.415
1674.083
1678.751
1683.419
1688.087
1692.755
1697.423
1702.091
1706.759
1711.427
1716.095
1720.763
1725.431
1730.099
1734.767
1739.435
1744.103
1748.771
1753.439
1758.107
1762.775
1767.443
1772.111
1776.779
1781.447
1786.115
1790.783
1795.451
1800.119
1804.787
1809.455
1814.123
1818.791
1823.459
1828.127
1832.795
1837.463
1842.131
1846.799
1851.467
1856.135
1860.803
1865.471
1870.139
1874.807
1879.475
1884.143
1888.811
1893.479
1898.147
1902.815
1907.483
1912.151
1916.819
1921.487
1926.155
1930.823
1935.491
1940.159
1944.827
1949.495
1954.163
1958.831
1963.499
1968.167
1972.835
1977.503
1982.171
1986.839
1991.507
1996.175
2000.843
2005.511
2010.179
2014.847
2019.515
2024.183
2028.851
2033.519
2038.187
2042.855
2047.523
2052.191
2056.859
2061.527
2066.195
2070.863
2075.531
2080.199
2084.867
2089.535
2094.203
2098.871
2103.539
2108.207
2112.875
2117.543
2122.211
2126.879
2131.547
2136.215
2140.883
2145.551
2150.219
2154.887
2159.555
2159.897
2160.239
2160.581
2160.923
2161.265
2161.607
2161.949
2162.291
2162.633
2162.975
2163.317
2163.659
2164.001
2164.343
2164.685
2165.027
2165.369
2165.711
2166.053
2166.395
2166.737
2167.079
2167.421
2167.763
2168.105
2168.447
2168.789
2169.131
2169.473
2169.815
2170.157
2170.499
2170.841
2171.183
2171.525
2171.867
2172.209
2172.551
2172.893
2173.235
2173.577
2173.919
2174.261
2174.603
2174.945
2175.287
2175.629
2175.971
2176.313
2176.655
2176.997
2177.339
2177.681
2178.023
2178.365
2178.707
2179.049
2179.391
2179.733
2180.075
2180.417
2180.759
2181.101
2181.443
2181.785
2182.127
2182.469
2182.811
2183.153
2183.495
2183.837
2184.179
2184.521
2184.863
2185.205
2185.547
2185.889
2186.231
2186.573
2186.915
2187.257
2187.599
2187.941
2188.283
2188.625
2188.967
2189.309
2189.651
2189.993
2190.335
2190.677
2191.019
2191.361
2191.703
2192.045
2192.387
2192.729
2193.071
2193.413
2193.755
2194.097
2194.439
2194.781
2195.123
2195.465
2195.807
2196.149
2196.491
2196.833
2197.175
2197.517
2197.859
2198.201
2198.543
2198.885
2199.227
2199.569
2199.911
2200.253
2200.595
2200.937
2201.279
2201.621
2201.963
2202.305
2202.647
2202.989
2203.331
2203.673
2204.015
2204.357
2204.699
2205.041
2205.383
2205.725
2206.067
2206.409
2206.751
2207.093
2207.435
2207.777
2208.119
2208.461
2208.803
2209.145
2209.487
2209.829
2210.171
2210.513
2210.855
2211.197
2211.539
2211.881
2212.223
2212.565
2212.907
2213.249
2213.591
2213.933
2214.275
2214.617
2214.959
2215.301
2215.643
2215.985
2216.327
2216.669
2217.011
2217.353
2217.695
2218.037
2218.379
2218.721
2219.063
2219.405
2219.747
2220.089
2220.431
2220.773
2221.115
2221.457
2221.799
2222.141
2222.483
2222.825
2223.167
2223.509
2223.851
2224.193
2224.535
2224.877
2225.219
2225.561
2225.903
2226.245
2226.587
2226.929
2227.271
2227.613
2227.955
2224.827
2221.699
2218.571
2215.443
2212.315
2209.187
2206.059
2202.931
2199.803
2196.675
2193.547
2190.419
2187.291
2184.163
2181.035
2177.907
2174.779
2171.651
2168.523
2165.395
2162.267
2159.139
2156.011
2152.883
2149.755
2146.627
2143.499
2140.371
2137.243
2134.115
2130.987
2127.859
2124.731
2121.603
2118.475
2115.347
2112.219
2109.091
2105.963
2102.835
2099.707
2096.579
2093.451
2090.323
2087.195
2084.067
2080.939
2077.811
2074.683
2071.555
2068.427
2065.299
2062.171
2059.043
2055.915
2052.787
2049.659
2046.531
2043.403
2040.275
2037.147
2034.019
2030.891
2027.763
2024.635
2021.507
2018.379
2015.251
2012.123
2008.995
2005.867
2002.739
1999.611
1996.483
1993.355
1990.227
1987.099
1983.971
1980.843
1977.715
1974.587
1971.459
1968.331
1965.203
1962.075
1958.947
1955.819
1952.691
1949.563
1946.435
1943.307
1940.179
1937.051
1933.923
1930.795
1927.667
1924.539
1921.411
1918.283
1915.155
1912.027
1908.899
1905.771
1902.643
1899.515
1896.387
1893.259
1890.131
1887.003
1883.875
1880.747
1877.619
1874.491
1871.363
1868.235
1865.107
1861.979
1858.851
1855.723
1852.595
1849.467
1846.339
1843.211
1840.083
1836.955
1833.827
1830.699
1827.571
1824.443
1821.315
1818.187
1815.059
1811.931
1808.803
1805.675
1802.547
1799.419
1796.291
1793.163
1790.035
1786.907
1783.779
1780.651
1777.523
1774.395
1771.267
1768.139
1765.011
1761.883
1758.755
1755.627
1752.499
1749.371
1746.243
1743.115
1739.987
1736.859
1733.731
1730.603
1727.475
1724.347
1721.219
1718.091
1714.963
1711.835
1708.707
1705.579
1702.451
1699.323
1696.195
1693.067
1689.939
1686.811
1683.683
1680.555
1677.427
1674.299
1671.171
1668.043
1664.915
1661.787
1658.659
1655.531
1652.403
1649.275
1646.147
1643.019
1639.891
1636.763
1633.635
1630.507
1627.379
1624.251
1621.123
1617.995
1614.867
1611.739
1608.611
1605.483
1602.355
1606.363
1610.371
1614.379
1618.387
1622.395
1626.403
1630.411
1634.419
1638.427
1642.435
1646.443
1650.451
1654.459
1658.467
1662.475
1666.483
1670.491
1674.499
1678.507
1682.515
1686.523
1690.531
1694.539
1698.547
1702.555
1706.563
1710.571
1714.579
1718.587
1722.595
1726.603
1730.611
1734.619
1738.627
1742.635
1746.643
1750.651
1754.659
1758.667
1762.675
1766.683
1770.691
1774.699
1778.707
1782.715
1786.723
1790.731
1794.739
1798.747
1802.755
1806.763
1810.771
1814.779
1818.787
1822.795
1826.803
1830.811
1834.819
1838.827
1842.835
1846.843
1850.851
1854.859
1858.867
1862.875
1866.883
1870.891
1874.899
1878.907
1882.915
1886.923
1890.931
1894.939
1898.947
1902.955
1906.963
1910.971
1914.979
1918.987
1922.995
1927.003
1931.011
1935.019
1939.027
1943.035
1947.043
1951.051
1955.059
1959.067
1963.075
1967.083
1971.091
1975.099
1979.107
1983.115
1987.123
1991.131
1995.139
1999.147
2003.155
2007.163
2011.171
2015.179
2019.187
2023.195
2027.203
2031.211
2035.219
2039.227
2043.235
2047.243
2051.251
2055.259
2059.267
2063.275
2067.283
2071.291
2075.299
2079.307
2083.315
2087.323
2091.331
2095.339
2099.347
2103.355
2107.363
2111.371
2115.379
2119.387
2123.395
2127.403
2131.411
2135.419
2139.427
2143.435
2147.443
2151.451
2155.459
2159.467
2163.475
2167.483
2171.491
2175.499
2179.507
2183.515
2187.523
2191.531
2195.539
2199.547
2203.555
2207.563
2211.571
2215.579
2219.587
2223.595
2227.603
2231.611
2235.619
2239.627
2243.635
2247.643
2251.651
2255.659
2259.667
2263.675
2267.683
2271.691
2275.699
2279.707
2283.715
2287.723
2291.731
2295.739
2299.747
2303.755
2307.763
2311.771
2315.779
2319.787
2323.795
2327.803
2331.811
2335.819
2339.827
2343.835
2347.843
2351.851
2355.859
2359.867
2363.875
2367.883
2371.891
2375.899
2379.907
2383.915
2387.923
2391.931
2395.939
2399.947
2403.955
2401.486
2399.018
2396.549
2394.081
2391.612
2389.144
2386.675
2384.207
2381.738
2379.270
2376.801
2374.333
2371.864
2369.396
2366.927
2364.459
2361.990
2359.522
2357.053
2354.585
2352.116
2349.648
2347.179
2344.711
2342.242
2339.774
2337.305
2334.837
2332.368
2329.900
2327.431
2324.963
2322.494
2320.026
2317.557
2315.089
2312.620
2310.152
2307.683
2305.215
2302.746
2300.278
2297.809
2295.341
2292.872
2290.404
2287.935
2285.467
2282.998
2280.530
2278.061
2275.593
2273.124
2270.656
2268.187
2265.719
2263.250
2260.782
2258.313
2255.845
2253.376
2250.908
2248.439
2245.971
2243.502
2241.034
2238.565
2236.097
2233.628
2231.160
2228.691
2226.223
2223.754
2221.286
2218.817
2216.349
2213.880
2211.412
2208.943
2206.475
2204.006
2201.538
2199.069
2196.601
2194.132
2191.664
2189.195
2186.727
2184.258
2181.790
2179.321
2176.853
2174.384
2171.916
2169.447
2166.979
2164.510
2162.042
2159.573
2157.105
2154.636
2152.168
2149.699
2147.231
2144.762
2142.294
2139.825
2137.357
2134.888
2132.420
2129.951
2127.483
2125.014
2122.546
2120.077
2117.609
2115.140
2112.672
2110.203
2107.735
2105.266
2102.798
2100.329
2097.861
2095.392
2092.924
2090.455
2087.987
2085.518
2083.050
2080.581
2078.113
2075.644
2073.176
2070.707
2068.239
2065.770
2063.302
2060.833
2058.365
2055.896
2053.428
2050.959
2048.491
2046.022
2043.554
2041.085
2038.617
2036.148
2033.680
2031.211
2028.743
2026.274
2023.806
2021.337
2018.869
2016.400
2013.932
2011.463
2008.995
2006.526
2004.058
2001.589
1999.121
1996.652
1994.184
1991.715
1989.247
1986.778
1984.310
1981.841
1979.373
1976.904
1974.436
1971.967
1969.499
1967.030
1964.562
1962.093
1959.625
1957.156
1954.688
1952.219
1949.751
1947.282
1944.814
1942.345
1939.877
1937.408
1934.940
1932.471
1930.003
1927.534
1925.066
1922.597
1920.129
1917.660
1915.192
1912.723
1910.255
1909.082
1907.909
1906.736
1905.563
1904.390
1903.217
1902.044
1900.871
1899.698
1898.525
1897.352
1896.179
1895.006
1893.833
1892.660
1891.487
1890.314
1889.141
1887.968
1886.795
1885.622
1884.449
1883.276
1882.103
1880.930
1879.757
1878.584
1877.411
1876.238
1875.065
1873.892
1872.719
1871.546
1870.373
1869.200
1868.027
1866.854
1865.681
1864.508
1863.335
1862.162
1860.989
1859.816
1858.643
1857.470
1856.297
1855.124
1853.951
1852.778
1851.605
1850.432
1849.259
1848.086
1846.913
1845.740
1844.567
1843.394
1842.221
1841.048
1839.875
1838.702
1837.529
1836.356
1835.183
1834.010
1832.837
1831.664
1830.491
1829.318
1828.145
1826.972
1825.799
1824.626
1823.453
1822.280
1821.107
1819.934
1818.761
1817.588
1816.415
1815.242
1814.069
1812.896
1811.723
1810.550
1809.377
1808.204
1807.031
1805.858
1804.685
1803.512
1802.339
1801.166
1799.993
1798.820
1797.647
1796.474
1795.301
1794.128
1792.955
1791.782
1790.609
1789.436
1788.263
1787.090
1785.917
1784.744
1783.571
1782.398
1781.225
1780.052
1778.879
1777.706
1776.533
1775.360
1774.187
1773.014
1771.841
1770.668
1769.495
1768.322
1767.149
1765.976
1764.803
1763.630
1762.457
1761.284
1760.111
1758.938
1757.765
1756.592
1755.419
1754.246
1753.073
1751.900
1750.727
1749.554
1748.381
1747.208
1746.035
1744.862
1743.689
1742.516
1741.343
1740.170
1738.997
1737.824
1736.651
1735.478
1734.305
1733.132
1731.959
1730.786
1729.613
1728.440
1727.267
1726.094
1724.921
1723.748
1722.575
1721.402
1720.229
1719.056
1717.883
1716.710
1715.537
1714.364
1713.191
1712.018
1710.845
1709.672
1708.499
1707.326
1706.153
1704.980
1703.807
1702.634
1701.461
1700.288
1699.115
1697.942
1696.769
1695.596
1694.423
1693.250
1692.077
1690.904
1689.731
1688.558
1687.385
1686.212
1685.039
1683.866
1682.693
1681.520
1680.347
1679.174
1678.001
1676.828
1675.655
1672.600
1669.546
1666.491
1663.437
1660.382
1657.328
1654.273
1651.219
1648.164
1645.110
1642.055
1639.001
1635.946
1632.892
1629.837
1626.783
1623.728
1620.674
1617.619
1614.565
1611.510
1608.456
1605.401
1602.347
1599.292
1596.238
1593.183
1590.129
1587.074
1584.020
1580.965
1577.911
1574.856
1571.802
1568.747
1565.693
1562.638
1559.584
1556.529
1553.475
1550.420
1547.366
1544.311
1541.257
1538.202
1535.148
1532.093
1529.039
1525.984
1522.930
1519.875
1516.821
1513.766
1510.712
1507.657
1504.603
1501.548
1498.494
1495.439
1492.385
1489.330
1486.276
1483.221
1480.167
1477.112
1474.058
1471.003
1467.949
1464.894
1461.840
1458.785
1455.731
1452.676
1449.622
1446.567
1443.513
1440.458
1437.404
1434.349
1431.295
1428.240
1425.186
1422.131
1419.077
1416.022
1412.968
1409.913
1406.859
1403.804
1400.750
1397.695
1394.641
1391.586
1388.532
1385.477
1382.423
1379.368
1376.314
1373.259
1370.205
1367.150
1364.096
1361.041
1357.987
1354.932
1351.878
1348.823
1345.769
1342.714
1339.660
1336.605
1333.551
1330.496
1327.442
1324.387
1321.333
1318.278
1315.224
1312.169
1309.115
1306.060
1303.006
1299.951
1296.897
1293.842
1290.788
1287.733
1284.679
1281.624
1278.570
1275.515
1272.461
1269.406
1266.352
1263.297
1260.243
1257.188
1254.134
1251.079
1248.025
1244.970
1241.916
1238.861
1235.807
1232.752
1229.698
1226.643
1223.589
1220.534
1217.480
1214.425
1211.371
1208.316
1205.262
1202.207
1199.153
1196.098
1193.044
1189.989
1186.935
1183.880
1180.826
1177.771
1174.717
1171.662
1168.608
1165.553
1162.499
1159.444
1156.390
1153.335
1150.281
1147.226
1144.172
1141.117
1138.063
1135.008
1131.954
1128.899
1125.845
1122.790
1119.736
1116.681
1113.627
1110.572
1107.518
1104.463
1101.409
1098.354
1095.300
1092.245
1089.191
1086.136
1083.082
1080.027
1076.973
1073.918
1070.864
1067.809
1064.755
1068.225
1071.695
1075.165
1078.635
1082.105
1085.575
1089.045
1092.515
1095.985
1099.455
1102.925
1106.395
1109.865
1113.335
1116.805
1120.275
1123.745
1127.215
1130.685
1134.155
1137.625
1141.095
1144.565
1148.035
1151.505
1154.975
1158.445
1161.915
1165.385
1168.855
1172.325
1175.795
1179.265
1182.735
1186.205
1189.675
1193.145
1196.615
1200.085
1203.555
1207.025
1210.495
1213.965
1217.435
1220.905
1224.375
1227.845
1231.315
1234.785
1238.255
1241.725
1245.195
1248.665
1252.135
1255.605
1259.075
1262.545
1266.015
1269.485
1272.955
1276.425
1279.895
1283.365
1286.835
1290.305
1293.775
1297.245
1300.715
1304.185
1307.655
1311.125
1314.595
1318.065
1321.535
1325.005
1328.475
1331.945
1335.415
1338.885
1342.355
1345.825
1349.295
1352.765
1356.235
1359.705
1363.175
1366.645
1370.115
1373.585
1377.055
1380.525
1383.995
1387.465
1390.935
1394.405
1397.875
1401.345
1404.815
1408.285
1411.755
1415.225
1418.695
1422.165
1425.635
1429.105
1432.575
1436.045
1439.515
1442.985
1446.455
1449.925
1453.395
1456.865
1460.335
1463.805
1467.275
1470.745
1474.215
1477.685
1481.155
1484.625
1488.095
1491.565
1495.035
1498.505
1501.975
1505.445
1508.915
1512.385
1515.855
1519.325
1522.795
1526.265
1529.735
1533.205
1536.675
1540.145
1543.615
1547.085
1550.555
1554.025
1557.495
1560.965
1564.435
1567.905
1571.375
1574.845
1578.315
1581.785
1585.255
1588.725
1592.195
1595.665
1599.135
1602.605
1606.075
1609.545
1613.015
1616.485
1619.955
1623.425
1626.895
1630.365
1633.835
1637.305
1640.775
1644.245
1647.715
1651.185
1654.655
1658.125
1661.595
1665.065
1668.535
1672.005
1675.475
1678.945
1682.415
1685.885
1689.355
1692.825
1696.295
1699.765
1703.235
1706.705
1710.175
1713.645
1717.115
1720.585
1724.055
1727.525
1730.995
1734.465
1737.935
1741.405
1744.875
1748.345
1751.815
1755.285
1758.755
1751.863
1744.972
1738.080
1731.189
1724.297
1717.406
1710.514
1703.623
1696.731
1689.840
1682.948
1676.057
1669.165
1662.274
1655.382
1648.491
1641.599
1634.708
1627.816
1620.925
1614.033
1607.142
1600.250
1593.359
1586.467
1579.576
1572.684
1565.793
1558.901
1552.010
1545.118
1538.227
1531.335
1524.444
1517.552
1510.661
1503.769
1496.878
1489.986
1483.095
1476.203
1469.312
1462.420
1455.529
1448.637
1441.746
1434.854
1427.963
1421.071
1414.180
1407.288
1400.397
1393.505
1386.614
1379.722
1372.831
1365.939
1359.048
1352.156
1345.265
1338.373
1331.482
1324.590
1317.699
1310.807
1303.916
1297.024
1290.133
1283.241
1276.350
1269.458
1262.567
1255.675
1248.784
1241.892
1235.001
1228.109
1221.218
1214.326
1207.435
1200.543
1193.652
1186.760
1179.869
1172.977
1166.086
1159.194
1152.303
1145.411
1138.520
1131.628
1124.737
1117.845
1110.954
1104.062
1097.171
1090.279
1083.388
1076.496
1069.605
1062.713
1055.822
1048.930
1042.039
1035.147
1028.256
1021.364
1014.473
1007.581
1000.690
993.798
986.907
980.015
973.124
966.232
959.341
952.449
945.558
938.666
931.775
924.883
917.992
911.100
904.209
897.317
890.426
883.534
876.643
869.751
862.860
855.968
849.077
842.185
835.294
828.402
821.511
814.619
807.728
800.836
793.945
787.053
780.162
773.270
766.379
759.487
752.596
745.704
738.813
731.921
725.030
718.138
711.247
704.355
697.464
690.572
683.681
676.789
669.898
663.006
656.115
649.223
642.332
635.440
628.549
621.657
614.766
607.874
600.983
594.091
587.200
580.308
573.417
566.525
559.634
552.742
545.851
538.959
532.068
525.176
518.285
511.393
504.502
497.610
490.719
483.827
476.936
470.044
463.153
456.261
449.370
442.478
435.587
428.695
421.804
414.912
408.021
401.129
394.238
387.346
380.455
379.306
378.158
377.009
375.861
374.712
373.564
372.415
371.267
370.118
368.970
367.821
366.673
365.524
364.376
363.227
362.079
360.930
359.782
358.633
357.485
356.336
355.188
354.039
352.891
351.742
350.594
349.445
348.297
347.148
346.000
344.851
343.703
342.554
341.406
340.257
339.109
337.960
336.812
335.663
334.515
333.366
332.218
331.069
329.921
328.772
327.624
326.475
325.327
324.178
323.030
321.881
320.733
319.584
318.436
317.287
316.139
314.990
313.842
312.693
311.545
310.396
309.248
308.099
306.951
305.802
304.654
303.505
302.357
301.208
300.060
298.911
297.763
296.614
295.466
294.317
293.169
292.020
290.872
289.723
288.575
287.426
286.278
285.129
283.981
282.832
281.684
280.535
279.387
278.238
277.090
275.941
274.793
273.644
272.496
271.347
270.199
269.050
267.902
266.753
265.605
264.456
263.308
262.159
261.011
259.862
258.714
257.565
256.417
255.268
254.120
252.971
251.823
250.674
249.526
248.377
247.229
246.080
244.932
243.783
242.635
241.486
240.338
239.189
238.041
236.892
235.744
234.595
233.447
232.298
231.150
230.001
228.853
227.704
226.556
225.407
224.259
223.110
221.962
220.813
219.665
218.516
217.368
216.219
215.071
213.922
212.774
211.625
210.477
209.328
208.180
207.031
205.883
204.734
203.586
202.437
201.289
200.140
198.992
197.843
196.695
195.546
194.398
193.249
192.101
190.952
189.804
188.655
187.507
186.358
185.210
184.061
182.913
181.764
180.616
179.467
178.319
177.170
176.022
174.873
173.725
172.576
171.428
170.279
169.131
167.982
166.834
165.685
164.537
163.388
162.240
161.091
159.943
158.794
157.646
156.497
155.349
154.200
153.052
151.903
