914.929
916.762
918.595
920.428
922.261
924.094
925.927
927.760
929.593
931.426
933.259
935.092
936.925
938.758
940.591
942.424
944.257
946.090
947.923
949.756
951.589
953.422
955.255
957.088
958.921
960.754
962.587
964.420
966.253
968.086
969.919
971.752
973.585
975.418
977.251
979.084
980.917
982.750
984.583
986.416
988.249
990.082
991.915
993.748
995.581
997.414
999.247
1001.080
1002.913
1004.746
1006.579
1008.412
1010.245
1012.078
1013.911
1015.744
1017.577
1019.410
1021.243
1023.076
1024.909
1026.742
1028.575
1030.408
1032.241
1034.074
1035.907
1037.740
1039.573
1041.406
1043.239
1045.072
1046.905
1048.738
1050.571
1052.404
1054.237
1056.070
1057.903
1059.736
1061.569
1063.402
1065.235
1067.068
1068.901
1070.734
1072.567
1074.400
1076.233
1078.066
1079.899
1081.732
1083.565
1085.398
1087.231
1089.064
1090.897
1092.730
1094.563
1096.396
1098.229
1100.062
1101.895
1103.728
1105.561
1107.394
1109.227
1111.060
1112.893
1114.726
1116.559
1118.392
1120.225
1122.058
1123.891
1125.724
1127.557
1129.390
1131.223
1133.056
1134.889
1136.722
1138.555
1140.388
1142.221
1144.054
1145.887
1147.720
1149.553
1151.386
1153.219
1155.052
1156.885
1158.718
1160.551
1162.384
1164.217
1166.050
1167.883
1169.716
1171.549
1173.382
1175.215
1177.048
1178.881
1180.714
1182.547
1184.380
1186.213
1188.046
1189.879
1191.712
1193.545
1195.378
1197.211
1199.044
1200.877
1202.710
1204.543
1206.376
1208.209
1210.042
1211.875
1213.708
1215.541
1217.374
1219.207
1221.040
1222.873
1224.706
1226.539
1228.372
1230.205
1232.038
1233.871
1235.704
1237.537
1239.370
1241.203
1243.036
1244.869
1246.702
1248.535
1250.368
1252.201
1254.034
1255.867
1257.700
1259.533
1261.366
1263.199
1265.032
1266.865
1268.698
1270.531
1272.364
1274.197
1276.030
1277.863
1279.696
1281.529
1287.247
1292.966
1298.684
1304.403
1310.121
1315.840
1321.558
1327.277
1332.995
1338.714
1344.432
1350.151
1355.869
1361.588
1367.306
1373.025
1378.743
1384.462
1390.180
1395.899
1401.617
1407.336
1413.054
1418.773
1424.491
1430.210
1435.928
1441.647
1447.365
1453.084
1458.802
1464.521
1470.239
1475.958
1481.676
1487.395
1493.113
1498.832
1504.550
1510.269
1515.987
1521.706
1527.424
1533.143
1538.861
1544.580
1550.298
1556.017
1561.735
1567.454
1573.172
1578.891
1584.609
1590.328
1596.046
1601.765
1607.483
1613.202
1618.920
1624.639
1630.357
1636.076
1641.794
1647.513
1653.231
1658.950
1664.668
1670.387
1676.105
1681.824
1687.542
1693.261
1698.979
1704.698
1710.416
1716.135
1721.853
1727.572
1733.290
1739.009
1744.727
1750.446
1756.164
1761.883
1767.601
1773.320
1779.038
1784.757
1790.475
1796.194
1801.912
1807.631
1813.349
1819.068
1824.786
1830.505
1836.223
1841.942
1847.660
1853.379
1859.097
1864.816
1870.534
1876.253
1881.971
1887.690
1893.408
1899.127
1904.845
1910.564
1916.282
1922.001
1927.719
1933.438
1939.156
1944.875
1950.593
1956.312
1962.030
1967.749
1973.467
1979.186
1984.904
1990.623
1996.341
2002.060
2007.778
2013.497
2019.215
2024.934
2030.652
2036.371
2042.089
2047.808
2053.526
2059.245
2064.963
2070.682
2076.400
2082.119
2087.837
2093.556
2099.274
2104.993
2110.711
2116.430
2122.148
2127.867
2133.585
2139.304
2145.022
2150.741
2156.459
2162.178
2167.896
2173.615
2179.333
2185.052
2190.770
2196.489
2202.207
2207.926
2213.644
2219.363
2225.081
2230.800
2236.518
2242.237
2247.955
2253.674
2259.392
2265.111
2270.829
2276.548
2282.266
2287.985
2293.703
2299.422
2305.140
2310.859
2316.577
2322.296
2328.014
2333.733
2339.451
2345.170
2350.888
2356.607
2362.325
2368.044
2373.762
2379.481
2385.199
2390.918
2396.636
2402.355
2408.073
2413.792
2419.510
2425.229
2421.563
2417.897
2414.231
2410.565
2406.899
2403.233
2399.567
2395.901
2392.235
2388.569
2384.903
2381.237
2377.571
2373.905
2370.239
2366.573
2362.907
2359.241
2355.575
2351.909
2348.243
2344.577
2340.911
2337.245
2333.579
2329.913
2326.247
2322.581
2318.915
2315.249
2311.583
2307.917
2304.251
2300.585
2296.919
2293.253
2289.587
2285.921
2282.255
2278.589
2274.923
2271.257
2267.591
2263.925
2260.259
2256.593
2252.927
2249.261
2245.595
2241.929
2238.263
2234.597
2230.931
2227.265
2223.599
2219.933
2216.267
2212.601
2208.935
2205.269
2201.603
2197.937
2194.271
2190.605
2186.939
2183.273
2179.607
2175.941
2172.275
2168.609
2164.943
2161.277
2157.611
2153.945
2150.279
2146.613
2142.947
2139.281
2135.615
2131.949
2128.283
2124.617
2120.951
2117.285
2113.619
2109.953
2106.287
2102.621
2098.955
2095.289
2091.623
2087.957
2084.291
2080.625
2076.959
2073.293
2069.627
2065.961
2062.295
2058.629
2054.963
2051.297
2047.631
2043.965
2040.299
2036.633
2032.967
2029.301
2025.635
2021.969
2018.303
2014.637
2010.971
2007.305
2003.639
1999.973
1996.307
1992.641
1988.975
1985.309
1981.643
1977.977
1974.311
1970.645
1966.979
1963.313
1959.647
1955.981
1952.315
1948.649
1944.983
1941.317
1937.651
1933.985
1930.319
1926.653
1922.987
1919.321
1915.655
1911.989
1908.323
1904.657
1900.991
1897.325
1893.659
1889.993
1886.327
1882.661
1878.995
1875.329
1871.663
1867.997
1864.331
1860.665
1856.999
1853.333
1849.667
1846.001
1842.335
1838.669
1835.003
1831.337
1827.671
1824.005
1820.339
1816.673
1813.007
1809.341
1805.675
1802.009
1798.343
1794.677
1791.011
1787.345
1783.679
1780.013
1776.347
1772.681
1769.015
1765.349
1761.683
1758.017
1754.351
1750.685
1747.019
1743.353
1739.687
1736.021
1732.355
1728.689
1725.023
1721.357
1717.691
1714.025
1710.359
1706.693
1703.027
1699.361
1695.695
1692.029
1694.057
1696.086
1698.114
1700.143
1702.171
1704.200
1706.228
1708.257
1710.285
1712.314
1714.342
1716.371
1718.399
1720.428
1722.456
1724.485
1726.513
1728.542
1730.570
1732.599
1734.627
1736.656
1738.684
1740.713
1742.741
1744.770
1746.798
1748.827
1750.855
1752.884
1754.912
1756.941
1758.969
1760.998
1763.026
1765.055
1767.083
1769.112
1771.140
1773.169
1775.197
1777.226
1779.254
1781.283
1783.311
1785.340
1787.368
1789.397
1791.425
1793.454
1795.482
1797.511
1799.539
1801.568
1803.596
1805.625
1807.653
1809.682
1811.710
1813.739
1815.767
1817.796
1819.824
1821.853
1823.881
1825.910
1827.938
1829.967
1831.995
1834.024
1836.052
1838.081
1840.109
1842.138
1844.166
1846.195
1848.223
1850.252
1852.280
1854.309
1856.337
1858.366
1860.394
1862.423
1864.451
1866.480
1868.508
1870.537
1872.565
1874.594
1876.622
1878.651
1880.679
1882.708
1884.736
1886.765
1888.793
1890.822
1892.850
1894.879
1896.907
1898.936
1900.964
1902.993
1905.021
1907.050
1909.078
1911.107
1913.135
1915.164
1917.192
1919.221
1921.249
1923.278
1925.306
1927.335
1929.363
1931.392
1933.420
1935.449
1937.477
1939.506
1941.534
1943.563
1945.591
1947.620
1949.648
1951.677
1953.705
1955.734
1957.762
1959.791
1961.819
1963.848
1965.876
1967.905
1969.933
1971.962
1973.990
1976.019
1978.047
1980.076
1982.104
1984.133
1986.161
1988.190
1990.218
1992.247
1994.275
1996.304
1998.332
2000.361
2002.389
2004.418
2006.446
2008.475
2010.503
2012.532
2014.560
2016.589
2018.617
2020.646
2022.674
2024.703
2026.731
2028.760
2030.788
2032.817
2034.845
2036.874
2038.902
2040.931
2042.959
2044.988
2047.016
2049.045
2051.073
2053.102
2055.130
2057.159
2059.187
2061.216
2063.244
2065.273
2067.301
2069.330
2071.358
2073.387
2075.415
2077.444
2079.472
2081.501
2083.529
2085.558
2087.586
2089.615
2091.643
2093.672
2095.700
2097.729
2098.804
2099.879
2100.954
2102.029
2103.104
2104.179
2105.254
2106.329
2107.404
2108.479
2109.554
2110.629
2111.704
2112.779
2113.854
2114.929
2116.004
2117.079
2118.154
2119.229
2120.304
2121.379
2122.454
2123.529
2124.604
2125.679
2126.754
2127.829
2128.904
2129.979
2131.054
2132.129
2133.204
2134.279
2135.354
2136.429
2137.504
2138.579
2139.654
2140.729
2141.804
2142.879
2143.954
2145.029
2146.104
2147.179
2148.254
2149.329
2150.404
2151.479
2152.554
2153.629
2154.704
2155.779
2156.854
2157.929
2159.004
2160.079
2161.154
2162.229
2163.304
2164.379
2165.454
2166.529
2167.604
2168.679
2169.754
2170.829
2171.904
2172.979
2174.054
2175.129
2176.204
2177.279
2178.354
2179.429
2180.504
2181.579
2182.654
2183.729
2184.804
2185.879
2186.954
2188.029
2189.104
2190.179
2191.254
2192.329
2193.404
2194.479
2195.554
2196.629
2197.704
2198.779
2199.854
2200.929
2202.004
2203.079
2204.154
2205.229
2206.304
2207.379
2208.454
2209.529
2210.604
2211.679
2212.754
2213.829
2214.904
2215.979
2217.054
2218.129
2219.204
2220.279
2221.354
2222.429
2223.504
2224.579
2225.654
2226.729
2227.804
2228.879
2229.954
2231.029
2232.104
2233.179
2234.254
2235.329
2236.404
2237.479
2238.554
2239.629
2240.704
2241.779
2242.854
2243.929
2245.004
2246.079
2247.154
2248.229
2249.304
2250.379
2251.454
2252.529
2253.604
2254.679
2255.754
2256.829
2257.904
2258.979
2260.054
2261.129
2262.204
2263.279
2264.354
2265.429
2266.504
2267.579
2268.654
2269.729
2270.804
2271.879
2272.954
2274.029
2275.104
2276.179
2277.254
2278.329
2279.404
2280.479
2281.554
2282.629
2283.704
2284.779
2285.854
2286.929
2288.004
2289.079
2290.154
2291.229
2292.304
2293.379
2294.454
2295.529
2296.604
2297.679
2298.754
2299.829
2300.904
2301.979
2303.054
2304.129
2305.204
2306.279
2307.354
2308.429
2309.504
2310.579
2311.654
2312.729
2314.488
2316.248
2318.007
2319.767
2321.526
2323.286
2325.045
2326.805
2328.564
2330.324
2332.083
2333.843
2335.602
2337.362
2339.121
2340.881
2342.640
2344.400
2346.159
2347.919
2349.678
2351.438
2353.197
2354.957
2356.716
2358.476
2360.235
2361.995
2363.754
2365.514
2367.273
2369.033
2370.792
2372.552
2374.311
2376.071
2377.830
2379.590
2381.349
2383.109
2384.868
2386.628
2388.387
2390.147
2391.906
2393.666
2395.425
2397.185
2398.944
2400.704
2402.463
2404.223
2405.982
2407.742
2409.501
2411.261
2413.020
2414.780
2416.539
2418.299
2420.058
2421.818
2423.577
2425.337
2427.096
2428.856
2430.615
2432.375
2434.134
2435.894
2437.653
2439.413
2441.172
2442.932
2444.691
2446.451
2448.210
2449.970
2451.729
2453.489
2455.248
2457.008
2458.767
2460.527
2462.286
2464.046
2465.805
2467.565
2469.324
2471.084
2472.843
2474.603
2476.362
2478.122
2479.881
2481.641
2483.400
2485.160
2486.919
2488.679
2490.438
2492.198
2493.957
2495.717
2497.476
2499.236
2500.995
2502.755
2504.514
2506.274
2508.033
2509.793
2511.552
2513.312
2515.071
2516.831
2518.590
2520.350
2522.109
2523.869
2525.628
2527.388
2529.147
2530.907
2532.666
2534.426
2536.185
2537.945
2539.704
2541.464
2543.223
2544.983
2546.742
2548.502
2550.261
2552.021
2553.780
2555.540
2557.299
2559.059
2560.818
2562.578
2564.337
2566.097
2567.856
2569.616
2571.375
2573.135
2574.894
2576.654
2578.413
2580.173
2581.932
2583.692
2585.451
2587.211
2588.970
2590.730
2592.489
2594.249
2596.008
2597.768
2599.527
2601.287
2603.046
2604.806
2606.565
2608.325
2610.084
2611.844
2613.603
2615.363
2617.122
2618.882
2620.641
2622.401
2624.160
2625.920
2627.679
2629.439
2631.198
2632.958
2634.717
2636.477
2638.236
2639.996
2641.755
2643.515
2645.274
2647.034
2648.793
2650.553
2652.312
2654.072
2655.831
2657.591
2659.350
2661.110
2662.869
2664.629
2660.866
2657.103
2653.340
2649.577
2645.814
2642.051
2638.288
2634.525
2630.762
2626.999
2623.236
2619.473
2615.710
2611.947
2608.184
2604.421
2600.658
2596.895
2593.132
2589.369
2585.606
2581.843
2578.080
2574.317
2570.554
2566.791
2563.028
2559.265
2555.502
2551.739
2547.976
2544.213
2540.450
2536.687
2532.924
2529.161
2525.398
2521.635
2517.872
2514.109
2510.346
2506.583
2502.820
2499.057
2495.294
2491.531
2487.768
2484.005
2480.242
2476.479
2472.716
2468.953
2465.190
2461.427
2457.664
2453.901
2450.138
2446.375
2442.612
2438.849
2435.086
2431.323
2427.560
2423.797
2420.034
2416.271
2412.508
2408.745
2404.982
2401.219
2397.456
2393.693
2389.930
2386.167
2382.404
2378.641
2374.878
2371.115
2367.352
2363.589
2359.826
2356.063
2352.300
2348.537
2344.774
2341.011
2337.248
2333.485
2329.722
2325.959
2322.196
2318.433
2314.670
2310.907
2307.144
2303.381
2299.618
2295.855
2292.092
2288.329
2284.566
2280.803
2277.040
2273.277
2269.514
2265.751
2261.988
2258.225
2254.462
2250.699
2246.936
2243.173
2239.410
2235.647
2231.884
2228.121
2224.358
2220.595
2216.832
2213.069
2209.306
2205.543
2201.780
2198.017
2194.254
2190.491
2186.728
2182.965
2179.202
2175.439
2171.676
2167.913
2164.150
2160.387
2156.624
2152.861
2149.098
2145.335
2141.572
2137.809
2134.046
2130.283
2126.520
2122.757
2118.994
2115.231
2111.468
2107.705
2103.942
2100.179
2096.416
2092.653
2088.890
2085.127
2081.364
2077.601
2073.838
2070.075
2066.312
2062.549
2058.786
2055.023
2051.260
2047.497
2043.734
2039.971
2036.208
2032.445
2028.682
2024.919
2021.156
2017.393
2013.630
2009.867
2006.104
2002.341
1998.578
1994.815
1991.052
1987.289
1983.526
1979.763
1976.000
1972.237
1968.474
1964.711
1960.948
1957.185
1953.422
1949.659
1945.896
1942.133
1938.370
1934.607
1930.844
1927.081
1923.318
1919.555
1915.792
1912.029
1910.293
1908.558
1906.822
1905.087
1903.351
1901.616
1899.880
1898.145
1896.409
1894.674
1892.938
1891.203
1889.467
1887.732
1885.996
1884.261
1882.525
1880.790
1879.054
1877.319
1875.583
1873.848
1872.112
1870.377
1868.641
1866.906
1865.170
1863.435
1861.699
1859.964
1858.228
1856.493
1854.757
1853.022
1851.286
1849.551
1847.815
1846.080
1844.344
1842.609
1840.873
1839.138
1837.402
1835.667
1833.931
1832.196
1830.460
1828.725
1826.989
1825.254
1823.518
1821.783
1820.047
1818.312
1816.576
1814.841
1813.105
1811.370
1809.634
1807.899
1806.163
1804.428
1802.692
1800.957
1799.221
1797.486
1795.750
1794.015
1792.279
1790.544
1788.808
1787.073
1785.337
1783.602
1781.866
1780.131
1778.395
1776.660
1774.924
1773.189
1771.453
1769.718
1767.982
1766.247
1764.511
1762.776
1761.040
1759.305
1757.569
1755.834
1754.098
1752.363
1750.627
1748.892
1747.156
1745.421
1743.685
1741.950
1740.214
1738.479
1736.743
1735.008
1733.272
1731.537
1729.801
1728.066
1726.330
1724.595
1722.859
1721.124
1719.388
1717.653
1715.917
1714.182
1712.446
1710.711
1708.975
1707.240
1705.504
1703.769
1702.033
1700.298
1698.562
1696.827
1695.091
1693.356
1691.620
1689.885
1688.149
1686.414
1684.678
1682.943
1681.207
1679.472
1677.736
1676.001
1674.265
1672.530
1670.794
1669.059
1667.323
1665.588
1663.852
1662.117
1660.381
1658.646
1656.910
1655.175
1653.439
1651.704
1649.968
1648.233
1646.497
1644.762
1643.026
1641.291
1639.555
1637.820
1636.084
1634.349
1632.613
1630.878
1629.142
1627.407
1625.671
1623.936
1622.200
1620.465
1618.729
1616.994
1615.258
1613.523
1611.787
1610.052
1608.316
1606.581
1604.845
1603.110
1601.374
1599.639
1597.903
1596.168
1594.432
1592.697
1590.961
1589.226
1587.490
1585.755
1584.019
1582.284
1580.548
1578.813
1577.077
1575.342
1573.606
1571.871
1570.135
1568.400
1566.664
1564.929
1567.666
1570.403
1573.140
1575.877
1578.614
1581.351
1584.088
1586.825
1589.562
1592.299
1595.036
1597.773
1600.510
1603.247
1605.984
1608.721
1611.458
1614.195
1616.932
1619.669
1622.406
1625.143
1627.880
1630.617
1633.354
1636.091
1638.828
1641.565
1644.302
1647.039
1649.776
1652.513
1655.250
1657.987
1660.724
1663.461
1666.198
1668.935
1671.672
1674.409
1677.146
1679.883
1682.620
1685.357
1688.094
1690.831
1693.568
1696.305
1699.042
1701.779
1704.516
1707.253
1709.990
1712.727
1715.464
1718.201
1720.938
1723.675
1726.412
1729.149
1731.886
1734.623
1737.360
1740.097
1742.834
1745.571
1748.308
1751.045
1753.782
1756.519
1759.256
1761.993
1764.730
1767.467
1770.204
1772.941
1775.678
1778.415
1781.152
1783.889
1786.626
1789.363
1792.100
1794.837
1797.574
1800.311
1803.048
1805.785
1808.522
1811.259
1813.996
1816.733
1819.470
1822.207
1824.944
1827.681
1830.418
1833.155
1835.892
1838.629
1841.366
1844.103
1846.840
1849.577
1852.314
1855.051
1857.788
1860.525
1863.262
1865.999
1868.736
1871.473
1874.210
1876.947
1879.684
1882.421
1885.158
1887.895
1890.632
1893.369
1896.106
1898.843
1901.580
1904.317
1907.054
1909.791
1912.528
1915.265
1918.002
1920.739
1923.476
1926.213
1928.950
1931.687
1934.424
1937.161
1939.898
1942.635
1945.372
1948.109
1950.846
1953.583
1956.320
1959.057
1961.794
1964.531
1967.268
1970.005
1972.742
1975.479
1978.216
1980.953
1983.690
1986.427
1989.164
1991.901
1994.638
1997.375
2000.112
2002.849
2005.586
2008.323
2011.060
2013.797
2016.534
2019.271
2022.008
2024.745
2027.482
2030.219
2032.956
2035.693
2038.430
2041.167
2043.904
2046.641
2049.378
2052.115
2054.852
2057.589
2060.326
2063.063
2065.800
2068.537
2071.274
2074.011
2076.748
2079.485
2082.222
2084.959
2087.696
2090.433
2093.170
2095.907
2098.644
2101.381
2104.118
2106.855
2109.592
2112.329
2114.944
2117.559
2120.174
2122.789
2125.404
2128.019
2130.634
2133.249
2135.864
2138.479
2141.094
2143.709
2146.324
2148.939
2151.554
2154.169
2156.784
2159.399
2162.014
2164.629
2167.244
2169.859
2172.474
2175.089
2177.704
2180.319
2182.934
2185.549
2188.164
2190.779
2193.394
2196.009
2198.624
2201.239
2203.854
2206.469
2209.084
2211.699
2214.314
2216.929
2219.544
2222.159
2224.774
2227.389
2230.004
2232.619
2235.234
2237.849
2240.464
2243.079
2245.694
2248.309
2250.924
2253.539
2256.154
2258.769
2261.384
2263.999
2266.614
2269.229
2271.844
2274.459
2277.074
2279.689
2282.304
2284.919
2287.534
2290.149
2292.764
2295.379
2297.994
2300.609
2303.224
2305.839
2308.454
2311.069
2313.684
2316.299
2318.914
2321.529
2324.144
2326.759
2329.374
2331.989
2334.604
2337.219
2339.834
2342.449
2345.064
2347.679
2350.294
2352.909
2355.524
2358.139
2360.754
2363.369
2365.984
2368.599
2371.214
2373.829
2376.444
2379.059
2381.674
2384.289
2386.904
2389.519
2392.134
2394.749
2397.364
2399.979
2402.594
2405.209
2407.824
2410.439
2413.054
2415.669
2418.284
2420.899
2423.514
2426.129
2428.744
2431.359
2433.974
2436.589
2439.204
2441.819
2444.434
2447.049
2449.664
2452.279
2454.894
2457.509
2460.124
2462.739
2465.354
2467.969
2470.584
2473.199
2475.814
2478.429
2481.044
2483.659
2486.274
2488.889
2491.504
2494.119
2496.734
2499.349
2501.964
2504.579
2507.194
2509.809
2512.424
2515.039
2517.654
2520.269
2522.884
2525.499
2528.114
2530.729
2533.344
2535.959
2538.574
2541.189
2543.804
2546.419
2549.034
2551.649
2554.264
2556.879
2559.494
2562.109
2564.724
2567.339
2569.954
2572.569
2575.184
2577.799
2580.414
2583.029
2585.644
2588.259
2590.874
2593.489
2596.104
2598.719
2601.334
2603.949
2606.564
2609.179
2611.794
2614.409
2617.024
2619.639
2622.254
2624.869
2627.484
2630.099
2632.714
