1957.306
1956.890
1956.475
1956.059
1955.644
1955.228
1954.813
1954.397
1953.982
1953.566
1953.151
1952.735
1952.320
1951.904
1951.489
1951.073
1950.658
1950.242
1949.827
1949.411
1948.996
1948.580
1948.165
1947.749
1947.334
1946.918
1946.503
1946.087
1945.672
1945.256
1944.841
1944.425
1944.010
1943.594
1943.179
1942.763
1942.348
1941.932
1941.517
1941.101
1940.686
1940.270
1939.855
1939.439
1939.024
1938.608
1938.193
1937.777
1937.362
1936.946
1936.531
1936.115
1935.700
1935.284
1934.869
1934.453
1934.038
1933.622
1933.207
1932.791
1932.376
1931.960
1931.545
1931.129
1930.714
1930.298
1929.883
1929.467
1929.052
1928.636
1928.221
1927.805
1927.390
1926.974
1926.559
1926.143
1925.728
1925.312
1924.897
1924.481
1924.066
1923.650
1923.235
1922.819
1922.404
1921.988
1921.573
1921.157
1920.742
1920.326
1919.911
1919.495
1919.080
1918.664
1918.249
1917.833
1917.418
1917.002
1916.587
1916.171
1915.756
1915.340
1914.925
1914.509
1914.094
1913.678
1913.263
1912.847
1912.432
1912.016
1911.601
1911.185
1910.770
1910.354
1909.939
1909.523
1909.108
1908.692
1908.277
1907.861
1907.446
1907.030
1906.615
1906.199
1905.784
1905.368
1904.953
1904.537
1904.122
1903.706
1903.291
1902.875
1902.460
1902.044
1901.629
1901.213
1900.798
1900.382
1899.967
1899.551
1899.136
1898.720
1898.305
1897.889
1897.474
1897.058
1896.643
1896.227
1895.812
1895.396
1894.981
1894.565
1894.150
1893.734
1893.319
1892.903
1892.488
1892.072
1891.657
1891.241
1890.826
1890.410
1889.995
1889.579
1889.164
1888.748
1888.333
1887.917
1887.502
1887.086
1886.671
1886.255
1885.840
1885.424
1885.009
1884.593
1884.178
1883.762
1883.347
1882.931
1882.516
1882.100
1881.685
1881.269
1880.854
1880.438
1880.023
1879.607
1879.192
1878.776
1878.361
1877.945
1877.530
1877.114
1876.699
1876.283
1875.868
1875.452
1875.037
1874.621
1874.206
1878.702
1883.199
1887.695
1892.192
1896.688
1901.185
1905.681
1910.178
1914.674
1919.171
1923.667
1928.164
1932.660
1937.157
1941.653
1946.150
1950.646
1955.143
1959.639
1964.136
1968.632
1973.129
1977.625
1982.122
1986.618
1991.115
1995.611
2000.108
2004.604
2009.101
2013.597
2018.094
2022.590
2027.087
2031.583
2036.080
2040.576
2045.073
2049.569
2054.066
2058.562
2063.059
2067.555
2072.052
2076.548
2081.045
2085.541
2090.038
2094.534
2099.031
2103.527
2108.024
2112.520
2117.017
2121.513
2126.010
2130.506
2135.003
2139.499
2143.996
2148.492
2152.989
2157.485
2161.982
2166.478
2170.975
2175.471
2179.968
2184.464
2188.961
2193.457
2197.954
2202.450
2206.947
2211.443
2215.940
2220.436
2224.933
2229.429
2233.926
2238.422
2242.919
2247.415
2251.912
2256.408
2260.905
2265.401
2269.898
2274.394
2278.891
2283.387
2287.884
2292.380
2296.877
2301.373
2305.870
2310.366
2314.863
2319.359
2323.856
2328.352
2332.849
2337.345
2341.842
2346.338
2350.835
2355.331
2359.828
2364.324
2368.821
2373.317
2377.814
2382.310
2386.807
2391.303
2395.800
2400.296
2404.793
2409.289
2413.786
2418.282
2422.779
2427.275
2431.772
2436.268
2440.765
2445.261
2449.758
2454.254
2458.751
2463.247
2467.744
2472.240
2476.737
2481.233
2485.730
2490.226
2494.723
2499.219
2503.716
2508.212
2512.709
2517.205
2521.702
2526.198
2530.695
2535.191
2539.688
2544.184
2548.681
2553.177
2557.674
2562.170
2566.667
2571.163
2575.660
2580.156
2584.653
2589.149
2593.646
2598.142
2602.639
2607.135
2611.632
2616.128
2620.625
2625.121
2629.618
2634.114
2638.611
2643.107
2647.604
2652.100
2656.597
2661.093
2665.590
2670.086
2674.583
2679.079
2683.576
2688.072
2692.569
2697.065
2701.562
2706.058
2710.555
2715.051
2719.548
2724.044
2728.541
2733.037
2737.534
2742.030
2746.527
2751.023
2755.520
2760.016
2764.513
2769.009
2773.506
2768.863
2764.220
2759.577
2754.934
2750.291
2745.648
2741.005
2736.362
2731.719
2727.076
2722.433
2717.790
2713.147
2708.504
2703.861
2699.218
2694.575
2689.932
2685.289
2680.646
2676.003
2671.360
2666.717
2662.074
2657.431
2652.788
2648.145
2643.502
2638.859
2634.216
2629.573
2624.930
2620.287
2615.644
2611.001
2606.358
2601.715
2597.072
2592.429
2587.786
2583.143
2578.500
2573.857
2569.214
2564.571
2559.928
2555.285
2550.642
2545.999
2541.356
2536.713
2532.070
2527.427
2522.784
2518.141
2513.498
2508.855
2504.212
2499.569
2494.926
2490.283
2485.640
2480.997
2476.354
2471.711
2467.068
2462.425
2457.782
2453.139
2448.496
2443.853
2439.210
2434.567
2429.924
2425.281
2420.638
2415.995
2411.352
2406.709
2402.066
2397.423
2392.780
2388.137
2383.494
2378.851
2374.208
2369.565
2364.922
2360.279
2355.636
2350.993
2346.350
2341.707
2337.064
2332.421
2327.778
2323.135
2318.492
2313.849
2309.206
2304.563
2299.920
2295.277
2290.634
2285.991
2281.348
2276.705
2272.062
2267.419
2262.776
2258.133
2253.490
2248.847
2244.204
2239.561
2234.918
2230.275
2225.632
2220.989
2216.346
2211.703
2207.060
2202.417
2197.774
2193.131
2188.488
2183.845
2179.202
2174.559
2169.916
2165.273
2160.630
2155.987
2151.344
2146.701
2142.058
2137.415
2132.772
2128.129
2123.486
2118.843
2114.200
2109.557
2104.914
2100.271
2095.628
2090.985
2086.342
2081.699
2077.056
2072.413
2067.770
2063.127
2058.484
2053.841
2049.198
2044.555
2039.912
2035.269
2030.626
2025.983
2021.340
2016.697
2012.054
2007.411
2002.768
1998.125
1993.482
1988.839
1984.196
1979.553
1974.910
1970.267
1965.624
1960.981
1956.338
1951.695
1947.052
1942.409
1937.766
1933.123
1928.480
1923.837
1919.194
1914.551
1909.908
1905.265
1900.622
1895.979
1891.336
1886.693
1882.050
1877.407
1872.764
1868.121
1863.478
1858.835
1854.192
1849.549
1844.906
1847.227
1849.549
1851.870
1854.192
1856.513
1858.835
1861.156
1863.478
1865.799
1868.121
1870.442
1872.764
1875.085
1877.407
1879.728
1882.050
1884.371
1886.693
1889.014
1891.336
1893.657
1895.979
1898.300
1900.622
1902.943
1905.265
1907.586
1909.908
1912.229
1914.551
1916.872
1919.194
1921.515
1923.837
1926.158
1928.480
1930.801
1933.123
1935.444
1937.766
1940.087
1942.409
1944.730
1947.052
1949.373
1951.695
1954.016
1956.338
1958.659
1960.981
1963.302
1965.624
1967.945
1970.267
1972.588
1974.910
1977.231
1979.553
1981.874
1984.196
1986.517
1988.839
1991.160
1993.482
1995.803
1998.125
2000.446
2002.768
2005.089
2007.411
2009.732
2012.054
2014.375
2016.697
2019.018
2021.340
2023.661
2025.983
2028.304
2030.626
2032.947
2035.269
2037.590
2039.912
2042.233
2044.555
2046.876
2049.198
2051.519
2053.841
2056.162
2058.484
2060.805
2063.127
2065.448
2067.770
2070.091
2072.413
2074.734
2077.056
2079.377
2081.699
2084.020
2086.342
2088.663
2090.985
2093.306
2095.628
2097.949
2100.271
2102.592
2104.914
2107.235
2109.557
2111.878
2114.200
2116.521
2118.843
2121.164
2123.486
2125.807
2128.129
2130.450
2132.772
2135.093
2137.415
2139.736
2142.058
2144.379
2146.701
2149.022
2151.344
2153.665
2155.987
2158.308
2160.630
2162.951
2165.273
2167.594
2169.916
2172.237
2174.559
2176.880
2179.202
2181.523
2183.845
2186.166
2188.488
2190.809
2193.131
2195.452
2197.774
2200.095
2202.417
2204.738
2207.060
2209.381
2211.703
2214.024
2216.346
2218.667
2220.989
2223.310
2225.632
2227.953
2230.275
2232.596
2234.918
2237.239
2239.561
2241.882
2244.204
2246.525
2248.847
2251.168
2253.490
2255.811
2258.133
2260.454
2262.776
2265.097
2267.419
2269.740
2272.062
2274.383
2276.705
2279.026
2281.348
2283.669
2285.991
2288.312
2290.634
2292.955
2295.277
2297.598
2299.920
2302.241
2304.563
2306.884
2309.206
2309.108
2309.011
2308.913
2308.816
2308.718
2308.621
2308.523
2308.426
2308.328
2308.231
2308.133
2308.036
2307.938
2307.841
2307.743
2307.646
2307.548
2307.451
2307.353
2307.256
2307.158
2307.061
2306.963
2306.866
2306.768
2306.671
2306.573
2306.476
2306.378
2306.281
2306.183
2306.086
2305.988
2305.891
2305.793
2305.696
2305.598
2305.501
2305.403
2305.306
2305.208
2305.111
2305.013
2304.916
2304.818
2304.721
2304.623
2304.526
2304.428
2304.331
2304.233
2304.136
2304.038
2303.941
2303.843
2303.746
2303.648
2303.551
2303.453
2303.356
2303.258
2303.161
2303.063
2302.966
2302.868
2302.771
2302.673
2302.576
2302.478
2302.381
2302.283
2302.186
2302.088
2301.991
2301.893
2301.796
2301.698
2301.601
2301.503
2301.406
2301.308
2301.211
2301.113
2301.016
2300.918
2300.821
2300.723
2300.626
2300.528
2300.431
2300.333
2300.236
2300.138
2300.041
2299.943
2299.846
2299.748
2299.651
2299.553
2299.456
2299.358
2299.261
2299.163
2299.066
2298.968
2298.871
2298.773
2298.676
2298.578
2298.481
2298.383
2298.286
2298.188
2298.091
2297.993
2297.896
2297.798
2297.701
2297.603
2297.506
2297.408
2297.311
2297.213
2297.116
2297.018
2296.921
2296.823
2296.726
2296.628
2296.531
2296.433
2296.336
2296.238
2296.141
2296.043
2295.946
2295.848
2295.751
2295.653
2295.556
2295.458
2295.361
2295.263
2295.166
2295.068
2294.971
2294.873
2294.776
2294.678
2294.581
2294.483
2294.386
2294.288
2294.191
2294.093
2293.996
2293.898
2293.801
2293.703
2293.606
2293.508
2293.411
2293.313
2293.216
2293.118
2293.021
2292.923
2292.826
2292.728
2292.631
2292.533
2292.436
2292.338
2292.241
2292.143
2292.046
2291.948
2291.851
2291.753
2291.656
2291.558
2291.461
2291.363
2291.266
2291.168
2291.071
2290.973
2290.876
2290.778
2290.681
2290.583
2290.486
2290.388
2290.291
2290.193
2290.096
2289.998
2289.901
2289.803
2289.706
2286.113
2282.521
2278.928
2275.336
2271.743
2268.151
2264.558
2260.966
2257.373
2253.781
2250.188
2246.596
2243.003
2239.411
2235.818
2232.226
2228.633
2225.041
2221.448
2217.856
2214.263
2210.671
2207.078
2203.486
2199.893
2196.301
2192.708
2189.116
2185.523
2181.931
2178.338
2174.746
2171.153
2167.561
2163.968
2160.376
2156.783
2153.191
2149.598
2146.006
2142.413
2138.821
2135.228
2131.636
2128.043
2124.451
2120.858
2117.266
2113.673
2110.081
2106.488
2102.896
2099.303
2095.711
2092.118
2088.526
2084.933
2081.341
2077.748
2074.156
2070.563
2066.971
2063.378
2059.786
2056.193
2052.601
2049.008
2045.416
2041.823
2038.231
2034.638
2031.046
2027.453
2023.861
2020.268
2016.676
2013.083
2009.491
2005.898
2002.306
1998.713
1995.121
1991.528
1987.936
1984.343
1980.751
1977.158
1973.566
1969.973
1966.381
1962.788
1959.196
1955.603
1952.011
1948.418
1944.826
1941.233
1937.641
1934.048
1930.456
1926.863
1923.271
1919.678
1916.086
1912.493
1908.901
1905.308
1901.716
1898.123
1894.531
1890.938
1887.346
1883.753
1880.161
1876.568
1872.976
1869.383
1865.791
1862.198
1858.606
1855.013
1851.421
1847.828
1844.236
1840.643
1837.051
1833.458
1829.866
1826.273
1822.681
1819.088
1815.496
1811.903
1808.311
1804.718
1801.126
1797.533
1793.941
1790.348
1786.756
1783.163
1779.571
1775.978
1772.386
1768.793
1765.201
1761.608
1758.016
1754.423
1750.831
1747.238
1743.646
1740.053
1736.461
1732.868
1729.276
1725.683
1722.091
1718.498
1714.906
1711.313
1707.721
1704.128
1700.536
1696.943
1693.351
1689.758
1686.166
1682.573
1678.981
1675.388
1671.796
1668.203
1664.611
1661.018
1657.426
1653.833
1650.241
1646.648
1643.056
1639.463
1635.871
1632.278
1628.686
1625.093
1621.501
1617.908
1614.316
1610.723
1607.131
1603.538
1599.946
1596.353
1592.761
1589.168
1585.576
1581.983
1578.391
1574.798
1571.206
1572.965
1574.725
1576.484
1578.244
1580.003
1581.763
1583.522
1585.282
1587.041
1588.801
1590.560
1592.320
1594.079
1595.839
1597.598
1599.358
1601.117
1602.877
1604.636
1606.396
1608.155
1609.915
1611.674
1613.434
1615.193
1616.953
1618.712
1620.472
1622.231
1623.991
1625.750
1627.510
1629.269
1631.029
1632.788
1634.548
1636.307
1638.067
1639.826
1641.586
1643.345
1645.105
1646.864
1648.624
1650.383
1652.143
1653.902
1655.662
1657.421
1659.181
1660.940
1662.700
1664.459
1666.219
1667.978
1669.738
1671.497
1673.257
1675.016
1676.776
1678.535
1680.295
1682.054
1683.814
1685.573
1687.333
1689.092
1690.852
1692.611
1694.371
1696.130
1697.890
1699.649
1701.409
1703.168
1704.928
1706.687
1708.447
1710.206
1711.966
1713.725
1715.485
1717.244
1719.004
1720.763
1722.523
1724.282
1726.042
1727.801
1729.561
1731.320
1733.080
1734.839
1736.599
1738.358
1740.118
1741.877
1743.637
1745.396
1747.156
1748.915
1750.675
1752.434
1754.194
1755.953
1757.713
1759.472
1761.232
1762.991
1764.751
1766.510
1768.270
1770.029
1771.789
1773.548
1775.308
1777.067
1778.827
1780.586
1782.346
1784.105
1785.865
1787.624
1789.384
1791.143
1792.903
1794.662
1796.422
1798.181
1799.941
1801.700
1803.460
1805.219
1806.979
1808.738
1810.498
1812.257
1814.017
1815.776
1817.536
1819.295
1821.055
1822.814
1824.574
1826.333
1828.093
1829.852
1831.612
1833.371
1835.131
1836.890
1838.650
1840.409
1842.169
1843.928
1845.688
1847.447
1849.207
1850.966
1852.726
1854.485
1856.245
1858.004
1859.764
1861.523
1863.283
1865.042
1866.802
1868.561
1870.321
1872.080
1873.840
1875.599
1877.359
1879.118
1880.878
1882.637
1884.397
1886.156
1887.916
1889.675
1891.435
1893.194
1894.954
1896.713
1898.473
1900.232
1901.992
1903.751
1905.511
1907.270
1909.030
1910.789
1912.549
1914.308
1916.068
1917.827
1919.587
1921.346
1923.106
1919.587
1916.068
1912.549
1909.030
1905.511
1901.992
1898.473
1894.954
1891.435
1887.916
1884.397
1880.878
1877.359
1873.840
1870.321
1866.802
1863.283
1859.764
1856.245
1852.726
1849.207
1845.688
1842.169
1838.650
1835.131
1831.612
1828.093
1824.574
1821.055
1817.536
1814.017
1810.498
1806.979
1803.460
1799.941
1796.422
1792.903
1789.384
1785.865
1782.346
1778.827
1775.308
1771.789
1768.270
1764.751
1761.232
1757.713
1754.194
1750.675
1747.156
1743.637
1740.118
1736.599
1733.080
1729.561
1726.042
1722.523
1719.004
1715.485
1711.966
1708.447
1704.928
1701.409
1697.890
1694.371
1690.852
1687.333
1683.814
1680.295
1676.776
1673.257
1669.738
1666.219
1662.700
1659.181
1655.662
1652.143
1648.624
1645.105
1641.586
1638.067
1634.548
1631.029
1627.510
1623.991
1620.472
1616.953
1613.434
1609.915
1606.396
1602.877
1599.358
1595.839
1592.320
1588.801
1585.282
1581.763
1578.244
1574.725
1571.206
1567.687
1564.168
1560.649
1557.130
1553.611
1550.092
1546.573
1543.054
1539.535
1536.016
1532.497
1528.978
1525.459
1521.940
1518.421
1514.902
1511.383
1507.864
1504.345
1500.826
1497.307
1493.788
1490.269
1486.750
1483.231
1479.712
1476.193
1472.674
1469.155
1465.636
1462.117
1458.598
1455.079
1451.560
1448.041
1444.522
1441.003
1437.484
1433.965
1430.446
1426.927
1423.408
1419.889
1416.370
1412.851
1409.332
1405.813
1402.294
1398.775
1395.256
1391.737
1388.218
1384.699
1381.180
1377.661
1374.142
1370.623
1367.104
1363.585
1360.066
1356.547
1353.028
1349.509
1345.990
1342.471
1338.952
1335.433
1331.914
1328.395
1324.876
1321.357
1317.838
1314.319
1310.800
1307.281
1303.762
1300.243
1296.724
1293.205
1289.686
1286.167
1282.648
1279.129
1275.610
1272.091
1268.572
1265.053
1261.534
1258.015
1254.496
1250.977
1247.458
1243.939
1240.420
1236.901
1233.382
1229.863
1226.344
1222.825
1219.306
1214.467
1209.628
1204.789
1199.950
1195.111
1190.272
1185.433
1180.594
1175.755
1170.916
1166.077
1161.238
1156.399
1151.560
1146.721
1141.882
1137.043
1132.204
1127.365
1122.526
1117.687
1112.848
1108.009
1103.170
1098.331
1093.492
1088.653
1083.814
1078.975
1074.136
1069.297
1064.458
1059.619
1054.780
1049.941
1045.102
1040.263
1035.424
1030.585
1025.746
1020.907
1016.068
1011.229
1006.390
1001.551
996.712
991.873
987.034
982.195
977.356
972.517
967.678
962.839
958.000
953.161
948.322
943.483
938.644
933.805
928.966
924.127
919.288
914.449
909.610
904.771
899.932
895.093
890.254
885.415
880.576
875.737
870.898
866.059
861.220
856.381
851.542
846.703
841.864
837.025
832.186
827.347
822.508
817.669
812.830
807.991
803.152
798.313
793.474
788.635
783.796
778.957
774.118
769.279
764.440
759.601
754.762
749.923
745.084
740.245
735.406
730.567
725.728
720.889
716.050
711.211
706.372
701.533
696.694
691.855
687.016
682.177
677.338
672.499
667.660
662.821
657.982
653.143
648.304
643.465
638.626
633.787
628.948
624.109
619.270
614.431
609.592
604.753
599.914
595.075
590.236
585.397
580.558
575.719
570.880
566.041
561.202
556.363
551.524
546.685
541.846
537.007
532.168
527.329
522.490
517.651
512.812
507.973
503.134
498.295
493.456
488.617
483.778
478.939
474.100
469.261
464.422
459.583
454.744
449.905
445.066
440.227
435.388
430.549
425.710
420.871
416.032
411.193
406.354
401.515
396.676
391.837
386.998
382.159
377.320
372.481
367.642
362.803
357.964
353.125
348.286
343.447
338.608
333.769
328.930
324.091
319.252
314.413
309.574
304.735
299.896
295.057
290.218
285.379
280.540
275.701
270.862
266.023
261.184
256.345
251.506
251.139
250.773
250.406
250.040
249.673
249.307
248.940
248.574
248.207
247.841
247.474
247.108
246.741
246.375
246.008
245.642
245.275
244.909
244.542
244.176
243.809
243.443
243.076
242.710
242.343
241.977
241.610
241.244
240.877
240.511
240.144
239.778
239.411
239.045
238.678
238.312
237.945
237.579
237.212
236.846
236.479
236.113
235.746
235.380
235.013
234.647
234.280
233.914
233.547
233.181
232.814
232.448
232.081
231.715
231.348
230.982
230.615
230.249
229.882
229.516
229.149
228.783
228.416
228.050
227.683
227.317
226.950
226.584
226.217
225.851
225.484
225.118
224.751
224.385
224.018
223.652
223.285
222.919
222.552
222.186
221.819
221.453
221.086
220.720
220.353
219.987
219.620
219.254
218.887
218.521
218.154
217.788
217.421
217.055
216.688
216.322
215.955
215.589
215.222
214.856
214.489
214.123
213.756
213.390
213.023
212.657
212.290
211.924
211.557
211.191
210.824
210.458
210.091
209.725
209.358
208.992
208.625
208.259
207.892
207.526
207.159
206.793
206.426
206.060
205.693
205.327
204.960
204.594
204.227
203.861
203.494
203.128
202.761
202.395
202.028
201.662
201.295
200.929
200.562
200.196
199.829
199.463
199.096
198.730
198.363
197.997
197.630
197.264
196.897
196.531
196.164
195.798
195.431
195.065
194.698
194.332
193.965
193.599
193.232
192.866
192.499
192.133
191.766
191.400
191.033
190.667
190.300
189.934
189.567
189.201
188.834
188.468
188.101
187.735
187.368
187.002
186.635
186.269
185.902
185.536
185.169
184.803
184.436
184.070
183.703
183.337
182.970
182.604
182.237
181.871
181.504
181.138
180.771
180.405
180.038
179.672
179.305
178.939
178.572
