1343.373
1345.793
1348.212
1350.632
1353.051
1355.471
1357.890
1360.310
1362.729
1365.149
1367.568
1369.988
1372.407
1374.827
1377.246
1379.666
1382.085
1384.505
1386.924
1389.344
1391.763
1394.183
1396.602
1399.022
1401.441
1403.861
1406.280
1408.700
1411.119
1413.539
1415.958
1418.378
1420.797
1423.217
1425.636
1428.056
1430.475
1432.895
1435.314
1437.734
1440.153
1442.573
1444.992
1447.412
1449.831
1452.251
1454.670
1457.090
1459.509
1461.929
1464.348
1466.768
1469.187
1471.607
1474.026
1476.446
1478.865
1481.285
1483.704
1486.124
1488.543
1490.963
1493.382
1495.802
1498.221
1500.641
1503.060
1505.480
1507.899
1510.319
1512.738
1515.158
1517.577
1519.997
1522.416
1524.836
1527.255
1529.675
1532.094
1534.514
1536.933
1539.353
1541.772
1544.192
1546.611
1549.031
1551.450
1553.870
1556.289
1558.709
1561.128
1563.548
1565.967
1568.387
1570.806
1573.226
1575.645
1578.065
1580.484
1582.904
1585.323
1587.743
1590.162
1592.582
1595.001
1597.421
1599.840
1602.260
1604.679
1607.099
1609.518
1611.938
1614.357
1616.777
1619.196
1621.616
1624.035
1626.455
1628.874
1631.294
1633.713
1636.133
1638.552
1640.972
1643.391
1645.811
1648.230
1650.650
1653.069
1655.489
1657.908
1660.328
1662.747
1665.167
1667.586
1670.006
1672.425
1674.845
1677.264
1679.684
1682.103
1684.523
1686.942
1689.362
1691.781
1694.201
1696.620
1699.040
1701.459
1703.879
1706.298
1708.718
1711.137
1713.557
1715.976
1718.396
1720.815
1723.235
1725.654
1728.074
1730.493
1732.913
1735.332
1737.752
1740.171
1742.591
1745.010
1747.430
1749.849
1752.269
1754.688
1757.108
1759.527
1761.947
1764.366
1766.786
1769.205
1771.625
1774.044
1776.464
1778.883
1781.303
1783.722
1786.142
1788.561
1790.981
1793.400
1795.820
1798.239
1800.659
1803.078
1805.498
1807.917
1810.337
1812.756
1815.176
1817.595
1820.015
1822.434
1824.854
1827.273
1828.080
1828.886
1829.693
1830.499
1831.306
1832.112
1832.919
1833.725
1834.532
1835.338
1836.145
1836.951
1837.758
1838.564
1839.371
1840.177
1840.984
1841.790
1842.597
1843.403
1844.210
1845.016
1845.823
1846.629
1847.436
1848.242
1849.049
1849.855
1850.662
1851.468
1852.275
1853.081
1853.888
1854.694
1855.501
1856.307
1857.114
1857.920
1858.727
1859.533
1860.340
1861.146
1861.953
1862.759
1863.566
1864.372
1865.179
1865.985
1866.792
1867.598
1868.405
1869.211
1870.018
1870.824
1871.631
1872.437
1873.244
1874.050
1874.857
1875.663
1876.470
1877.276
1878.083
1878.889
1879.696
1880.502
1881.309
1882.115
1882.922
1883.728
1884.535
1885.341
1886.148
1886.954
1887.761
1888.567
1889.374
1890.180
1890.987
1891.793
1892.600
1893.406
1894.213
1895.019
1895.826
1896.632
1897.439
1898.245
1899.052
1899.858
1900.665
1901.471
1902.278
1903.084
1903.891
1904.697
1905.504
1906.310
1907.117
1907.923
1908.730
1909.536
1910.343
1911.149
1911.956
1912.762
1913.569
1914.375
1915.182
1915.988
1916.795
1917.601
1918.408
1919.214
1920.021
1920.827
1921.634
1922.440
1923.247
1924.053
1924.860
1925.666
1926.473
1927.279
1928.086
1928.892
1929.699
1930.505
1931.312
1932.118
1932.925
1933.731
1934.538
1935.344
1936.151
1936.957
1937.764
1938.570
1939.377
1940.183
1940.990
1941.796
1942.603
1943.409
1944.216
1945.022
1945.829
1946.635
1947.442
1948.248
1949.055
1949.861
1950.668
1951.474
1952.281
1953.087
1953.894
1954.700
1955.507
1956.313
1957.120
1957.926
1958.733
1959.539
1960.346
1961.152
1961.959
1962.765
1963.572
1964.378
1965.185
1965.991
1966.798
1967.604
1968.411
1969.217
1970.024
1970.830
1971.637
1972.443
1973.250
1974.056
1974.863
1975.669
1976.476
1977.282
1978.089
1978.895
1979.702
1980.508
1981.315
1982.121
1982.928
1983.734
1984.541
1985.347
1986.154
1986.960
1987.767
1988.573
1989.648
1990.723
1991.798
1992.873
1993.948
1995.023
1996.098
1997.173
1998.248
1999.323
2000.398
2001.473
2002.548
2003.623
2004.698
2005.773
2006.848
2007.923
2008.998
2010.073
2011.148
2012.223
2013.298
2014.373
2015.448
2016.523
2017.598
2018.673
2019.748
2020.823
2021.898
2022.973
2024.048
2025.123
2026.198
2027.273
2028.348
2029.423
2030.498
2031.573
2032.648
2033.723
2034.798
2035.873
2036.948
2038.023
2039.098
2040.173
2041.248
2042.323
2043.398
2044.473
2045.548
2046.623
2047.698
2048.773
2049.848
2050.923
2051.998
2053.073
2054.148
2055.223
2056.298
2057.373
2058.448
2059.523
2060.598
2061.673
2062.748
2063.823
2064.898
2065.973
2067.048
2068.123
2069.198
2070.273
2071.348
2072.423
2073.498
2074.573
2075.648
2076.723
2077.798
2078.873
2079.948
2081.023
2082.098
2083.173
2084.248
2085.323
2086.398
2087.473
2088.548
2089.623
2090.698
2091.773
2092.848
2093.923
2094.998
2096.073
2097.148
2098.223
2099.298
2100.373
2101.448
2102.523
2103.598
2104.673
2105.748
2106.823
2107.898
2108.973
2110.048
2111.123
2112.198
2113.273
2114.348
2115.423
2116.498
2117.573
2118.648
2119.723
2120.798
2121.873
2122.948
2124.023
2125.098
2126.173
2127.248
2128.323
2129.398
2130.473
2131.548
2132.623
2133.698
2134.773
2135.848
2136.923
2137.998
2139.073
2140.148
2141.223
2142.298
2143.373
2144.448
2145.523
2146.598
2147.673
2148.748
2149.823
2150.898
2151.973
2153.048
2154.123
2155.198
2156.273
2157.348
2158.423
2159.498
2160.573
2161.648
2162.723
2163.798
2164.873
2165.948
2167.023
2168.098
2169.173
2170.248
2171.323
2172.398
2173.473
2174.548
2175.623
2176.698
2177.773
2178.848
2179.923
2180.998
2182.073
2183.148
2184.223
2185.298
2186.373
2187.448
2188.523
2189.598
2190.673
2191.748
2192.823
2193.898
2194.973
2196.048
2197.123
2198.198
2199.273
2200.348
2201.423
2202.498
2203.573
2203.182
2202.791
2202.400
2202.009
2201.618
2201.227
2200.836
2200.445
2200.054
2199.663
2199.272
2198.881
2198.490
2198.099
2197.708
2197.317
2196.926
2196.535
2196.144
2195.753
2195.362
2194.971
2194.580
2194.189
2193.798
2193.407
2193.016
2192.625
2192.234
2191.843
2191.452
2191.061
2190.670
2190.279
2189.888
2189.497
2189.106
2188.715
2188.324
2187.933
2187.542
2187.151
2186.760
2186.369
2185.978
2185.587
2185.196
2184.805
2184.414
2184.023
2183.632
2183.241
2182.850
2182.459
2182.068
2181.677
2181.286
2180.895
2180.504
2180.113
2179.722
2179.331
2178.940
2178.549
2178.158
2177.767
2177.376
2176.985
2176.594
2176.203
2175.812
2175.421
2175.030
2174.639
2174.248
2173.857
2173.466
2173.075
2172.684
2172.293
2171.902
2171.511
2171.120
2170.729
2170.338
2169.947
2169.556
2169.165
2168.774
2168.383
2167.992
2167.601
2167.210
2166.819
2166.428
2166.037
2165.646
2165.255
2164.864
2164.473
2164.082
2163.691
2163.300
2162.909
2162.518
2162.127
2161.736
2161.345
2160.954
2160.563
2160.172
2159.781
2159.390
2158.999
2158.608
2158.217
2157.826
2157.435
2157.044
2156.653
2156.262
2155.871
2155.480
2155.089
2154.698
2154.307
2153.916
2153.525
2153.134
2152.743
2152.352
2151.961
2151.570
2151.179
2150.788
2150.397
2150.006
2149.615
2149.224
2148.833
2148.442
2148.051
2147.660
2147.269
2146.878
2146.487
2146.096
2145.705
2145.314
2144.923
2144.532
2144.141
2143.750
2143.359
2142.968
2142.577
2142.186
2141.795
2141.404
2141.013
2140.622
2140.231
2139.840
2139.449
2139.058
2138.667
2138.276
2137.885
2137.494
2137.103
2136.712
2136.321
2135.930
2135.539
2135.148
2134.757
2134.366
2133.975
2133.584
2133.193
2132.802
2132.411
2132.020
2131.629
2131.238
2130.847
2130.456
2130.065
2129.674
2129.283
2128.892
2128.501
2128.110
2127.719
2127.328
2126.937
2126.546
2126.155
2125.764
2125.373
2124.640
2123.907
2123.174
2122.441
2121.708
2120.975
2120.242
2119.509
2118.776
2118.043
2117.310
2116.577
2115.844
2115.111
2114.378
2113.645
2112.912
2112.179
2111.446
2110.713
2109.980
2109.247
2108.514
2107.781
2107.048
2106.315
2105.582
2104.849
2104.116
2103.383
2102.650
2101.917
2101.184
2100.451
2099.718
2098.985
2098.252
2097.519
2096.786
2096.053
2095.320
2094.587
2093.854
2093.121
2092.388
2091.655
2090.922
2090.189
2089.456
2088.723
2087.990
2087.257
2086.524
2085.791
2085.058
2084.325
2083.592
2082.859
2082.126
2081.393
2080.660
2079.927
2079.194
2078.461
2077.728
2076.995
2076.262
2075.529
2074.796
2074.063
2073.330
2072.597
2071.864
2071.131
2070.398
2069.665
2068.932
2068.199
2067.466
2066.733
2066.000
2065.267
2064.534
2063.801
2063.068
2062.335
2061.602
2060.869
2060.136
2059.403
2058.670
2057.937
2057.204
2056.471
2055.738
2055.005
2054.272
2053.539
2052.806
2052.073
2051.340
2050.607
2049.874
2049.141
2048.408
2047.675
2046.942
2046.209
2045.476
2044.743
2044.010
2043.277
2042.544
2041.811
2041.078
2040.345
2039.612
2038.879
2038.146
2037.413
2036.680
2035.947
2035.214
2034.481
2033.748
2033.015
2032.282
2031.549
2030.816
2030.083
2029.350
2028.617
2027.884
2027.151
2026.418
2025.685
2024.952
2024.219
2023.486
2022.753
2022.020
2021.287
2020.554
2019.821
2019.088
2018.355
2017.622
2016.889
2016.156
2015.423
2014.690
2013.957
2013.224
2012.491
2011.758
2011.025
2010.292
2009.559
2008.826
2008.093
2007.360
2006.627
2005.894
2005.161
2004.428
2003.695
2002.962
2002.229
2001.496
2000.763
2000.030
1999.297
1998.564
1997.831
1997.098
1996.365
1995.632
1994.899
1994.166
1993.433
1992.700
1991.967
1991.234
1990.501
1989.768
1989.035
1988.302
1987.569
1986.836
1986.103
1985.370
1984.637
1983.904
1983.171
1982.438
1981.705
1980.972
1980.239
1979.506
1978.773
1976.867
1974.961
1973.055
1971.149
1969.243
1967.337
1965.431
1963.525
1961.619
1959.713
1957.807
1955.901
1953.995
1952.089
1950.183
1948.277
1946.371
1944.465
1942.559
1940.653
1938.747
1936.841
1934.935
1933.029
1931.123
1929.217
1927.311
1925.405
1923.499
1921.593
1919.687
1917.781
1915.875
1913.969
1912.063
1910.157
1908.251
1906.345
1904.439
1902.533
1900.627
1898.721
1896.815
1894.909
1893.003
1891.097
1889.191
1887.285
1885.379
1883.473
1881.567
1879.661
1877.755
1875.849
1873.943
1872.037
1870.131
1868.225
1866.319
1864.413
1862.507
1860.601
1858.695
1856.789
1854.883
1852.977
1851.071
1849.165
1847.259
1845.353
1843.447
1841.541
1839.635
1837.729
1835.823
1833.917
1832.011
1830.105
1828.199
1826.293
1824.387
1822.481
1820.575
1818.669
1816.763
1814.857
1812.951
1811.045
1809.139
1807.233
1805.327
1803.421
1801.515
1799.609
1797.703
1795.797
1793.891
1791.985
1790.079
1788.173
1786.267
1784.361
1782.455
1780.549
1778.643
1776.737
1774.831
1772.925
1771.019
1769.113
1767.207
1765.301
1763.395
1761.489
1759.583
1757.677
1755.771
1753.865
1751.959
1750.053
1748.147
1746.241
1744.335
1742.429
1740.523
1738.617
1736.711
1734.805
1732.899
1730.993
1729.087
1727.181
1725.275
1723.369
1721.463
1719.557
1717.651
1715.745
1713.839
1711.933
1710.027
1708.121
1706.215
1704.309
1702.403
1700.497
1698.591
1696.685
1694.779
1692.873
1690.967
1689.061
1687.155
1685.249
1683.343
1681.437
1679.531
1677.625
1675.719
1673.813
1671.907
1670.001
1668.095
1666.189
1664.283
1662.377
1660.471
1658.565
1656.659
1654.753
1652.847
1650.941
1649.035
1647.129
1645.223
1643.317
1641.411
1639.505
1637.599
1635.693
1633.787
1631.881
1629.975
1628.069
1626.163
1624.257
1622.351
1620.445
1618.539
1616.633
1614.727
1612.821
1610.915
1609.009
1607.103
1605.197
1603.291
1601.385
1599.479
1597.573
1597.353
1597.133
1596.913
1596.693
1596.473
1596.253
1596.033
1595.813
1595.593
1595.373
1595.153
1594.933
1594.713
1594.493
1594.273
1594.053
1593.833
1593.613
1593.393
1593.173
1592.953
1592.733
1592.513
1592.293
1592.073
1591.853
1591.633
1591.413
1591.193
1590.973
1590.753
1590.533
1590.313
1590.093
1589.873
1589.653
1589.433
1589.213
1588.993
1588.773
1588.553
1588.333
1588.113
1587.893
1587.673
1587.453
1587.233
1587.013
1586.793
1586.573
1586.353
1586.133
1585.913
1585.693
1585.473
1585.253
1585.033
1584.813
1584.593
1584.373
1584.153
1583.933
1583.713
1583.493
1583.273
1583.053
1582.833
1582.613
1582.393
1582.173
1581.953
1581.733
1581.513
1581.293
1581.073
1580.853
1580.633
1580.413
1580.193
1579.973
1579.753
1579.533
1579.313
1579.093
1578.873
1578.653
1578.433
1578.213
1577.993
1577.773
1577.553
1577.333
1577.113
1576.893
1576.673
1576.453
1576.233
1576.013
1575.793
1575.573
1575.353
1575.133
1574.913
1574.693
1574.473
1574.253
1574.033
1573.813
1573.593
1573.373
1573.153
1572.933
1572.713
1572.493
1572.273
1572.053
1571.833
1571.613
1571.393
1571.173
1570.953
1570.733
1570.513
1570.293
1570.073
1569.853
1569.633
1569.413
1569.193
1568.973
1568.753
1568.533
1568.313
1568.093
1567.873
1567.653
1567.433
1567.213
1566.993
1566.773
1566.553
1566.333
1566.113
1565.893
1565.673
1565.453
1565.233
1565.013
1564.793
1564.573
1564.353
1564.133
1563.913
1563.693
1563.473
1563.253
1563.033
1562.813
1562.593
1562.373
1562.153
1561.933
1561.713
1561.493
1561.273
1561.053
1560.833
1560.613
1560.393
1560.173
1559.953
1559.733
1559.513
1559.293
1559.073
1558.853
1558.633
1558.413
1558.193
1557.973
1557.753
1557.533
1557.313
1557.093
1556.873
1556.653
1556.433
1556.213
1555.993
1555.773
1555.553
1555.333
1555.113
1554.893
1554.673
1554.453
1554.233
1554.013
1553.793
1553.573
1556.848
1560.122
1563.397
1566.671
1569.946
1573.220
1576.495
1579.769
1583.044
1586.318
1589.593
1592.867
1596.142
1599.416
1602.691
1605.965
1609.240
1612.514
1615.789
1619.063
1622.338
1625.612
1628.887
1632.161
1635.436
1638.710
1641.985
1645.259
1648.534
1651.808
1655.083
1658.357
1661.632
1664.906
1668.181
1671.455
1674.730
1678.004
1681.279
1684.553
1687.828
1691.102
1694.377
1697.651
1700.926
1704.200
1707.475
1710.749
1714.024
1717.298
1720.573
1723.847
1727.122
1730.396
1733.671
1736.945
1740.220
1743.494
1746.769
1750.043
1753.318
1756.592
1759.867
1763.141
1766.416
1769.690
1772.965
1776.239
1779.514
1782.788
1786.063
1789.337
1792.612
1795.886
1799.161
1802.435
1805.710
1808.984
1812.259
1815.533
1818.808
1822.082
1825.357
1828.631
1831.906
1835.180
1838.455
1841.729
1845.004
1848.278
1851.553
1854.827
1858.102
1861.376
1864.651
1867.925
1871.200
1874.474
1877.749
1881.023
1884.298
1887.572
1890.847
1894.121
1897.396
1900.670
1903.945
1907.219
1910.494
1913.768
1917.043
1920.317
1923.592
1926.866
1930.141
1933.415
1936.690
1939.964
1943.239
1946.513
1949.788
1953.062
1956.337
1959.611
1962.886
1966.160
1969.435
1972.709
1975.984
1979.258
1982.533
1985.807
1989.082
1992.356
1995.631
1998.905
2002.180
2005.454
2008.729
2012.003
2015.278
2018.552
2021.827
2025.101
2028.376
2031.650
2034.925
2038.199
2041.474
2044.748
2048.023
2051.297
2054.572
2057.846
2061.121
2064.395
2067.670
2070.944
2074.219
2077.493
2080.768
2084.042
2087.317
2090.591
2093.866
2097.140
2100.415
2103.689
2106.964
2110.238
2113.513
2116.787
2120.062
2123.336
2126.611
2129.885
2133.160
2136.434
2139.709
2142.983
2146.258
2149.532
2152.807
2156.081
2159.356
2162.630
2165.905
2169.179
2172.454
2175.728
2179.003
2182.277
2185.552
2188.826
2192.101
2195.375
2198.650
2201.924
2205.199
2208.473
2206.347
2204.221
2202.095
2199.969
2197.843
2195.717
2193.591
2191.465
2189.339
2187.213
2185.087
2182.961
2180.835
2178.709
2176.583
2174.457
2172.331
2170.205
2168.079
2165.953
2163.827
2161.701
2159.575
2157.449
2155.323
2153.197
2151.071
2148.945
2146.819
2144.693
2142.567
2140.441
2138.315
2136.189
2134.063
2131.937
2129.811
2127.685
2125.559
2123.433
2121.307
2119.181
2117.055
2114.929
2112.803
2110.677
2108.551
2106.425
2104.299
2102.173
2100.047
2097.921
2095.795
2093.669
2091.543
2089.417
2087.291
2085.165
2083.039
2080.913
2078.787
2076.661
2074.535
2072.409
2070.283
2068.157
2066.031
2063.905
2061.779
2059.653
2057.527
2055.401
2053.275
2051.149
2049.023
2046.897
2044.771
2042.645
2040.519
2038.393
2036.267
2034.141
2032.015
2029.889
2027.763
2025.637
2023.511
2021.385
2019.259
2017.133
2015.007
2012.881
2010.755
2008.629
2006.503
2004.377
2002.251
2000.125
1997.999
1995.873
1993.747
1991.621
1989.495
1987.369
1985.243
1983.117
1980.991
1978.865
1976.739
1974.613
1972.487
1970.361
1968.235
1966.109
1963.983
1961.857
1959.731
1957.605
1955.479
1953.353
1951.227
1949.101
1946.975
1944.849
1942.723
1940.597
1938.471
1936.345
1934.219
1932.093
1929.967
1927.841
1925.715
1923.589
1921.463
1919.337
1917.211
1915.085
1912.959
1910.833
1908.707
1906.581
1904.455
1902.329
1900.203
1898.077
1895.951
1893.825
1891.699
1889.573
1887.447
1885.321
1883.195
1881.069
1878.943
1876.817
1874.691
1872.565
1870.439
1868.313
1866.187
1864.061
1861.935
1859.809
1857.683
1855.557
1853.431
1851.305
1849.179
1847.053
1844.927
1842.801
1840.675
1838.549
1836.423
1834.297
1832.171
1830.045
1827.919
1825.793
1823.667
1821.541
1819.415
1817.289
1815.163
1813.037
1810.911
1808.785
1806.659
1804.533
1802.407
1800.281
1798.155
1796.029
1793.903
1791.777
1789.651
1787.525
1785.399
1783.273
1782.247
1781.220
1780.194
1779.167
1778.141
1777.114
1776.088
1775.061
1774.035
1773.008
1771.982
1770.955
1769.929
1768.902
1767.876
1766.849
1765.823
1764.796
1763.770
1762.743
1761.717
1760.690
1759.664
1758.637
1757.611
1756.584
1755.558
1754.531
1753.505
1752.478
1751.452
1750.425
1749.399
1748.372
1747.346
1746.319
1745.293
1744.266
1743.240
1742.213
1741.187
1740.160
1739.134
1738.107
1737.081
1736.054
1735.028
1734.001
1732.975
1731.948
1730.922
1729.895
1728.869
1727.842
1726.816
1725.789
1724.763
1723.736
1722.710
1721.683
1720.657
1719.630
1718.604
1717.577
1716.551
1715.524
1714.498
1713.471
1712.445
1711.418
1710.392
1709.365
1708.339
1707.312
1706.286
1705.259
1704.233
1703.206
1702.180
1701.153
1700.127
1699.100
1698.074
1697.047
1696.021
1694.994
1693.968
1692.941
1691.915
1690.888
1689.862
1688.835
1687.809
1686.782
1685.756
1684.729
1683.703
1682.676
1681.650
1680.623
1679.597
1678.570
1677.544
1676.517
1675.491
1674.464
1673.438
1672.411
1671.385
1670.358
1669.332
1668.305
1667.279
1666.252
1665.226
1664.199
1663.173
1662.146
1661.120
1660.093
1659.067
1658.040
1657.014
1655.987
1654.961
1653.934
1652.908
1651.881
1650.855
1649.828
1648.802
1647.775
1646.749
1645.722
1644.696
1643.669
1642.643
1641.616
1640.590
1639.563
1638.537
1637.510
1636.484
1635.457
1634.431
1633.404
1632.378
1631.351
1630.325
1629.298
1628.272
1627.245
1626.219
1625.192
1624.166
1623.139
1622.113
1621.086
1620.060
1619.033
1618.007
1616.980
1615.954
1614.927
1613.901
1612.874
1611.848
1610.821
1609.795
1608.768
1607.742
1606.715
1605.689
1604.662
1603.636
1602.609
1601.583
1600.556
1599.530
1598.503
1597.477
1596.450
1595.424
1594.397
1593.371
1592.344
1591.318
1590.291
1589.265
1588.238
1587.212
1586.185
1585.159
1584.132
1583.106
1582.079
1581.053
1580.026
1579.000
