2174.594
2174.936
2175.278
2175.620
2175.962
2176.304
2176.646
2176.988
2177.330
2177.672
2178.014
2178.356
2178.698
2179.040
2179.382
2179.724
2180.066
2180.408
2180.750
2181.092
2181.434
2181.776
2182.118
2182.460
2182.802
2183.144
2183.486
2183.828
2184.170
2184.512
2184.854
2185.196
2185.538
2185.880
2186.222
2186.564
2186.906
2187.248
2187.590
2187.932
2188.274
2188.616
2188.958
2189.300
2189.642
2189.984
2190.326
2190.668
2191.010
2191.352
2191.694
2192.036
2192.378
2192.720
2193.062
2193.404
2193.746
2194.088
2194.430
2194.772
2195.114
2195.456
2195.798
2196.140
2196.482
2196.824
2197.166
2197.508
2197.850
2198.192
2198.534
2198.876
2199.218
2199.560
2199.902
2200.244
2200.586
2200.928
2201.270
2201.612
2201.954
2202.296
2202.638
2202.980
2203.322
2203.664
2204.006
2204.348
2204.690
2205.032
2205.374
2205.716
2206.058
2206.400
2206.742
2207.084
2207.426
2207.768
2208.110
2208.452
2208.794
2209.136
2209.478
2209.820
2210.162
2210.504
2210.846
2211.188
2211.530
2211.872
2212.214
2212.556
2212.898
2213.240
2213.582
2213.924
2214.266
2214.608
2214.950
2215.292
2215.634
2215.976
2216.318
2216.660
2217.002
2217.344
2217.686
2218.028
2218.370
2218.712
2219.054
2219.396
2219.738
2220.080
2220.422
2220.764
2221.106
2221.448
2221.790
2222.132
2222.474
2222.816
2223.158
2223.500
2223.842
2224.184
2224.526
2224.868
2225.210
2225.552
2225.894
2226.236
2226.578
2226.920
2227.262
2227.604
2227.946
2228.288
2228.630
2228.972
2229.314
2229.656
2229.998
2230.340
2230.682
2231.024
2231.366
2231.708
2232.050
2232.392
2232.734
2233.076
2233.418
2233.760
2234.102
2234.444
2234.786
2235.128
2235.470
2235.812
2236.154
2236.496
2236.838
2237.180
2237.522
2237.864
2238.206
2238.548
2238.890
2239.232
2239.574
2239.916
2240.258
2240.600
2240.942
2241.284
2241.626
2241.968
2242.310
2242.652
2242.994
2239.866
2236.738
2233.610
2230.482
2227.354
2224.226
2221.098
2217.970
2214.842
2211.714
2208.586
2205.458
2202.330
2199.202
2196.074
2192.946
2189.818
2186.690
2183.562
2180.434
2177.306
2174.178
2171.050
2167.922
2164.794
2161.666
2158.538
2155.410
2152.282
2149.154
2146.026
2142.898
2139.770
2136.642
2133.514
2130.386
2127.258
2124.130
2121.002
2117.874
2114.746
2111.618
2108.490
2105.362
2102.234
2099.106
2095.978
2092.850
2089.722
2086.594
2083.466
2080.338
2077.210
2074.082
2070.954
2067.826
2064.698
2061.570
2058.442
2055.314
2052.186
2049.058
2045.930
2042.802
2039.674
2036.546
2033.418
2030.290
2027.162
2024.034
2020.906
2017.778
2014.650
2011.522
2008.394
2005.266
2002.138
1999.010
1995.882
1992.754
1989.626
1986.498
1983.370
1980.242
1977.114
1973.986
1970.858
1967.730
1964.602
1961.474
1958.346
1955.218
1952.090
1948.962
1945.834
1942.706
1939.578
1936.450
1933.322
1930.194
1927.066
1923.938
1920.810
1917.682
1914.554
1911.426
1908.298
1905.170
1902.042
1898.914
1895.786
1892.658
1889.530
1886.402
1883.274
1880.146
1877.018
1873.890
1870.762
1867.634
1864.506
1861.378
1858.250
1855.122
1851.994
1848.866
1845.738
1842.610
1839.482
1836.354
1833.226
1830.098
1826.970
1823.842
1820.714
1817.586
1814.458
1811.330
1808.202
1805.074
1801.946
1798.818
1795.690
1792.562
1789.434
1786.306
1783.178
1780.050
1776.922
1773.794
1770.666
1767.538
1764.410
1761.282
1758.154
1755.026
1751.898
1748.770
1745.642
1742.514
1739.386
1736.258
1733.130
1730.002
1726.874
1723.746
1720.618
1717.490
1714.362
1711.234
1708.106
1704.978
1701.850
1698.722
1695.594
1692.466
1689.338
1686.210
1683.082
1679.954
1676.826
1673.698
1670.570
1667.442
1664.314
1661.186
1658.058
1654.930
1651.802
1648.674
1645.546
1642.418
1639.290
1636.162
1633.034
1629.906
1626.778
1623.650
1620.522
1617.394
1621.402
1625.410
1629.418
1633.426
1637.434
1641.442
1645.450
1649.458
1653.466
1657.474
1661.482
1665.490
1669.498
1673.506
1677.514
1681.522
1685.530
1689.538
1693.546
1697.554
1701.562
1705.570
1709.578
1713.586
1717.594
1721.602
1725.610
1729.618
1733.626
1737.634
1741.642
1745.650
1749.658
1753.666
1757.674
1761.682
1765.690
1769.698
1773.706
1777.714
1781.722
1785.730
1789.738
1793.746
1797.754
1801.762
1805.770
1809.778
1813.786
1817.794
1821.802
1825.810
1829.818
1833.826
1837.834
1841.842
1845.850
1849.858
1853.866
1857.874
1861.882
1865.890
1869.898
1873.906
1877.914
1881.922
1885.930
1889.938
1893.946
1897.954
1901.962
1905.970
1909.978
1913.986
1917.994
1922.002
1926.010
1930.018
1934.026
1938.034
1942.042
1946.050
1950.058
1954.066
1958.074
1962.082
1966.090
1970.098
1974.106
1978.114
1982.122
1986.130
1990.138
1994.146
1998.154
2002.162
2006.170
2010.178
2014.186
2018.194
2022.202
2026.210
2030.218
2034.226
2038.234
2042.242
2046.250
2050.258
2054.266
2058.274
2062.282
2066.290
2070.298
2074.306
2078.314
2082.322
2086.330
2090.338
2094.346
2098.354
2102.362
2106.370
2110.378
2114.386
2118.394
2122.402
2126.410
2130.418
2134.426
2138.434
2142.442
2146.450
2150.458
2154.466
2158.474
2162.482
2166.490
2170.498
2174.506
2178.514
2182.522
2186.530
2190.538
2194.546
2198.554
2202.562
2206.570
2210.578
2214.586
2218.594
2222.602
2226.610
2230.618
2234.626
2238.634
2242.642
2246.650
2250.658
2254.666
2258.674
2262.682
2266.690
2270.698
2274.706
2278.714
2282.722
2286.730
2290.738
2294.746
2298.754
2302.762
2306.770
2310.778
2314.786
2318.794
2322.802
2326.810
2330.818
2334.826
2338.834
2342.842
2346.850
2350.858
2354.866
2358.874
2362.882
2366.890
2370.898
2374.906
2378.914
2382.922
2386.930
2390.938
2394.946
2398.954
2402.962
2406.970
2410.978
2414.986
2418.994
2416.525
2414.057
2411.588
2409.120
2406.651
2404.183
2401.714
2399.246
2396.777
2394.309
2391.840
2389.372
2386.903
2384.435
2381.966
2379.498
2377.029
2374.561
2372.092
2369.624
2367.155
2364.687
2362.218
2359.750
2357.281
2354.813
2352.344
2349.876
2347.407
2344.939
2342.470
2340.002
2337.533
2335.065
2332.596
2330.128
2327.659
2325.191
2322.722
2320.254
2317.785
2315.317
2312.848
2310.380
2307.911
2305.443
2302.974
2300.506
2298.037
2295.569
2293.100
2290.632
2288.163
2285.695
2283.226
2280.758
2278.289
2275.821
2273.352
2270.884
2268.415
2265.947
2263.478
2261.010
2258.541
2256.073
2253.604
2251.136
2248.667
2246.199
2243.730
2241.262
2238.793
2236.325
2233.856
2231.388
2228.919
2226.451
2223.982
2221.514
2219.045
2216.577
2214.108
2211.640
2209.171
2206.703
2204.234
2201.766
2199.297
2196.829
2194.360
2191.892
2189.423
2186.955
2184.486
2182.018
2179.549
2177.081
2174.612
2172.144
2169.675
2167.207
2164.738
2162.270
2159.801
2157.333
2154.864
2152.396
2149.927
2147.459
2144.990
2142.522
2140.053
2137.585
2135.116
2132.648
2130.179
2127.711
2125.242
2122.774
2120.305
2117.837
2115.368
2112.900
2110.431
2107.963
2105.494
2103.026
2100.557
2098.089
2095.620
2093.152
2090.683
2088.215
2085.746
2083.278
2080.809
2078.341
2075.872
2073.404
2070.935
2068.467
2065.998
2063.530
2061.061
2058.593
2056.124
2053.656
2051.187
2048.719
2046.250
2043.782
2041.313
2038.845
2036.376
2033.908
2031.439
2028.971
2026.502
2024.034
2021.565
2019.097
2016.628
2014.160
2011.691
2009.223
2006.754
2004.286
2001.817
1999.349
1996.880
1994.412
1991.943
1989.475
1987.006
1984.538
1982.069
1979.601
1977.132
1974.664
1972.195
1969.727
1967.258
1964.790
1962.321
1959.853
1957.384
1954.916
1952.447
1949.979
1947.510
1945.042
1942.573
1940.105
1937.636
1935.168
1932.699
1930.231
1927.762
1925.294
1924.121
1922.948
1921.775
1920.602
1919.429
1918.256
1917.083
1915.910
1914.737
1913.564
1912.391
1911.218
1910.045
1908.872
1907.699
1906.526
1905.353
1904.180
1903.007
1901.834
1900.661
1899.488
1898.315
1897.142
1895.969
1894.796
1893.623
1892.450
1891.277
1890.104
1888.931
1887.758
1886.585
1885.412
1884.239
1883.066
1881.893
1880.720
1879.547
1878.374
1877.201
1876.028
1874.855
1873.682
1872.509
1871.336
1870.163
1868.990
1867.817
1866.644
1865.471
1864.298
1863.125
1861.952
1860.779
1859.606
1858.433
1857.260
1856.087
1854.914
1853.741
1852.568
1851.395
1850.222
1849.049
1847.876
1846.703
1845.530
1844.357
1843.184
1842.011
1840.838
1839.665
1838.492
1837.319
1836.146
1834.973
1833.800
1832.627
1831.454
1830.281
1829.108
1827.935
1826.762
1825.589
1824.416
1823.243
1822.070
1820.897
1819.724
1818.551
1817.378
1816.205
1815.032
1813.859
1812.686
1811.513
1810.340
1809.167
1807.994
1806.821
1805.648
1804.475
1803.302
1802.129
1800.956
1799.783
1798.610
1797.437
1796.264
1795.091
1793.918
1792.745
1791.572
1790.399
1789.226
1788.053
1786.880
1785.707
1784.534
1783.361
1782.188
1781.015
1779.842
1778.669
1777.496
1776.323
1775.150
1773.977
1772.804
1771.631
1770.458
1769.285
1768.112
1766.939
1765.766
1764.593
1763.420
1762.247
1761.074
1759.901
1758.728
1757.555
1756.382
1755.209
1754.036
1752.863
1751.690
1750.517
1749.344
1748.171
1746.998
1745.825
1744.652
1743.479
1742.306
1741.133
1739.960
1738.787
1737.614
1736.441
1735.268
1734.095
1732.922
1731.749
1730.576
1729.403
1728.230
1727.057
1725.884
1724.711
1723.538
1722.365
1721.192
1720.019
1718.846
1717.673
1716.500
1715.327
1714.154
1712.981
1711.808
1710.635
1709.462
1708.289
1707.116
1705.943
1704.770
1703.597
1702.424
1701.251
1700.078
1698.905
1697.732
1696.559
1695.386
1694.213
1693.040
1691.867
1690.694
1687.639
1684.585
1681.530
1678.476
1675.421
1672.367
1669.312
1666.258
1663.203
1660.149
1657.094
1654.040
1650.985
1647.931
1644.876
1641.822
1638.767
1635.713
1632.658
1629.604
1626.549
1623.495
1620.440
1617.386
1614.331
1611.277
1608.222
1605.168
1602.113
1599.059
1596.004
1592.950
1589.895
1586.841
1583.786
1580.732
1577.677
1574.623
1571.568
1568.514
1565.459
1562.405
1559.350
1556.296
1553.241
1550.187
1547.132
1544.078
1541.023
1537.969
1534.914
1531.860
1528.805
1525.751
1522.696
1519.642
1516.587
1513.533
1510.478
1507.424
1504.369
1501.315
1498.260
1495.206
1492.151
1489.097
1486.042
1482.988
1479.933
1476.879
1473.824
1470.770
1467.715
1464.661
1461.606
1458.552
1455.497
1452.443
1449.388
1446.334
1443.279
1440.225
1437.170
1434.116
1431.061
1428.007
1424.952
1421.898
1418.843
1415.789
1412.734
1409.680
1406.625
1403.571
1400.516
1397.462
1394.407
1391.353
1388.298
1385.244
1382.189
1379.135
1376.080
1373.026
1369.971
1366.917
1363.862
1360.808
1357.753
1354.699
1351.644
1348.590
1345.535
1342.481
1339.426
1336.372
1333.317
1330.263
1327.208
1324.154
1321.099
1318.045
1314.990
1311.936
1308.881
1305.827
1302.772
1299.718
1296.663
1293.609
1290.554
1287.500
1284.445
1281.391
1278.336
1275.282
1272.227
1269.173
1266.118
1263.064
1260.009
1256.955
1253.900
1250.846
1247.791
1244.737
1241.682
1238.628
1235.573
1232.519
1229.464
1226.410
1223.355
1220.301
1217.246
1214.192
1211.137
1208.083
1205.028
1201.974
1198.919
1195.865
1192.810
1189.756
1186.701
1183.647
1180.592
1177.538
1174.483
1171.429
1168.374
1165.320
1162.265
1159.211
1156.156
1153.102
1150.047
1146.993
1143.938
1140.884
1137.829
1134.775
1131.720
1128.666
1125.611
1122.557
1119.502
1116.448
1113.393
1110.339
1107.284
1104.230
1101.175
1098.121
1095.066
1092.012
1088.957
1085.903
1082.848
1079.794
1083.264
1086.734
1090.204
1093.674
1097.144
1100.614
1104.084
1107.554
1111.024
1114.494
1117.964
1121.434
1124.904
1128.374
1131.844
1135.314
1138.784
1142.254
1145.724
1149.194
1152.664
1156.134
1159.604
1163.074
1166.544
1170.014
1173.484
1176.954
1180.424
1183.894
1187.364
1190.834
1194.304
1197.774
1201.244
1204.714
1208.184
1211.654
1215.124
1218.594
1222.064
1225.534
1229.004
1232.474
1235.944
1239.414
1242.884
1246.354
1249.824
1253.294
1256.764
1260.234
1263.704
1267.174
1270.644
1274.114
1277.584
1281.054
1284.524
1287.994
1291.464
1294.934
1298.404
1301.874
1305.344
1308.814
1312.284
1315.754
1319.224
1322.694
1326.164
1329.634
1333.104
1336.574
1340.044
1343.514
1346.984
1350.454
1353.924
1357.394
1360.864
1364.334
1367.804
1371.274
1374.744
1378.214
1381.684
1385.154
1388.624
1392.094
1395.564
1399.034
1402.504
1405.974
1409.444
1412.914
1416.384
1419.854
1423.324
1426.794
1430.264
1433.734
1437.204
1440.674
1444.144
1447.614
1451.084
1454.554
1458.024
1461.494
1464.964
1468.434
1471.904
1475.374
1478.844
1482.314
1485.784
1489.254
1492.724
1496.194
1499.664
1503.134
1506.604
1510.074
1513.544
1517.014
1520.484
1523.954
1527.424
1530.894
1534.364
1537.834
1541.304
1544.774
1548.244
1551.714
1555.184
1558.654
1562.124
1565.594
1569.064
1572.534
1576.004
1579.474
1582.944
1586.414
1589.884
1593.354
1596.824
1600.294
1603.764
1607.234
1610.704
1614.174
1617.644
1621.114
1624.584
1628.054
1631.524
1634.994
1638.464
1641.934
1645.404
1648.874
1652.344
1655.814
1659.284
1662.754
1666.224
1669.694
1673.164
1676.634
1680.104
1683.574
1687.044
1690.514
1693.984
1697.454
1700.924
1704.394
1707.864
1711.334
1714.804
1718.274
1721.744
1725.214
1728.684
1732.154
1735.624
1739.094
1742.564
1746.034
1749.504
1752.974
1756.444
1759.914
1763.384
1766.854
1770.324
1773.794
1766.902
1760.011
1753.119
1746.228
1739.336
1732.445
1725.553
1718.662
1711.770
1704.879
1697.987
1691.096
1684.204
1677.313
1670.421
1663.530
1656.638
1649.747
1642.855
1635.964
1629.072
1622.181
1615.289
1608.398
1601.506
1594.615
1587.723
1580.832
1573.940
1567.049
1560.157
1553.266
1546.374
1539.483
1532.591
1525.700
1518.808
1511.917
1505.025
1498.134
1491.242
1484.351
1477.459
1470.568
1463.676
1456.785
1449.893
1443.002
1436.110
1429.219
1422.327
1415.436
1408.544
1401.653
1394.761
1387.870
1380.978
1374.087
1367.195
1360.304
1353.412
1346.521
1339.629
1332.738
1325.846
1318.955
1312.063
1305.172
1298.280
1291.389
1284.497
1277.606
1270.714
1263.823
1256.931
1250.040
1243.148
1236.257
1229.365
1222.474
1215.582
1208.691
1201.799
1194.908
1188.016
1181.125
1174.233
1167.342
1160.450
1153.559
1146.667
1139.776
1132.884
1125.993
1119.101
1112.210
1105.318
1098.427
1091.535
1084.644
1077.752
1070.861
1063.969
1057.078
1050.186
1043.295
1036.403
1029.512
1022.620
1015.729
1008.837
1001.946
995.054
988.163
981.271
974.380
967.488
960.597
953.705
946.814
939.922
933.031
926.139
919.248
912.356
905.465
898.573
891.682
884.790
877.899
871.007
864.116
857.224
850.333
843.441
836.550
829.658
822.767
815.875
808.984
802.092
795.201
788.309
781.418
774.526
767.635
760.743
753.852
746.960
740.069
733.177
726.286
719.394
712.503
705.611
698.720
691.828
684.937
678.045
671.154
664.262
657.371
650.479
643.588
636.696
629.805
622.913
616.022
609.130
602.239
595.347
588.456
581.564
574.673
567.781
560.890
553.998
547.107
540.215
533.324
526.432
519.541
512.649
505.758
498.866
491.975
485.083
478.192
471.300
464.409
457.517
450.626
443.734
436.843
429.951
423.060
416.168
409.277
402.385
395.494
394.345
393.197
392.048
390.900
389.751
388.603
387.454
386.306
385.157
384.009
382.860
381.712
380.563
379.415
378.266
377.118
375.969
374.821
373.672
372.524
371.375
370.227
369.078
367.930
366.781
365.633
364.484
363.336
362.187
361.039
359.890
358.742
357.593
356.445
355.296
354.148
352.999
351.851
350.702
349.554
348.405
347.257
346.108
344.960
343.811
342.663
341.514
340.366
339.217
338.069
336.920
335.772
334.623
333.475
332.326
331.178
330.029
328.881
327.732
326.584
325.435
324.287
323.138
321.990
320.841
319.693
318.544
317.396
316.247
315.099
313.950
312.802
311.653
310.505
309.356
308.208
307.059
305.911
304.762
303.614
302.465
301.317
300.168
299.020
297.871
296.723
295.574
294.426
293.277
292.129
290.980
289.832
288.683
287.535
286.386
285.238
284.089
282.941
281.792
280.644
279.495
278.347
277.198
276.050
274.901
273.753
272.604
271.456
270.307
269.159
268.010
266.862
265.713
264.565
263.416
262.268
261.119
259.971
258.822
257.674
256.525
255.377
254.228
253.080
251.931
250.783
249.634
248.486
247.337
246.189
245.040
243.892
242.743
241.595
240.446
239.298
238.149
237.001
235.852
234.704
233.555
232.407
231.258
230.110
228.961
227.813
226.664
225.516
224.367
223.219
222.070
220.922
219.773
218.625
217.476
216.328
215.179
214.031
212.882
211.734
210.585
209.437
208.288
207.140
205.991
204.843
203.694
202.546
201.397
200.249
199.100
197.952
196.803
195.655
194.506
193.358
192.209
191.061
189.912
188.764
187.615
186.467
185.318
184.170
183.021
181.873
180.724
179.576
178.427
177.279
176.130
174.982
173.833
172.685
171.536
170.388
169.239
168.091
166.942
165.794
165.794
165.794
165.794
165.794
165.794
165.794
165.794
165.794
165.794
165.794
165.794
165.794
165.794
165.794
165.794
165.794
165.794
165.794
165.794
165.794
165.794
165.794
165.794
165.794
165.794
165.794
165.794
165.794
165.794
165.794
165.794
165.794
165.794
165.794
165.794
165.794
165.794
165.794
165.794
165.794
165.794
165.794
165.794
165.794
165.794
165.794
165.794
165.794
165.794
165.794
165.794
165.794
165.794
165.794
165.794
165.794
165.794
165.794
165.794
165.794
165.794
165.794
165.794
165.794
165.794
165.794
165.794
165.794
165.794
165.794
165.794
165.794
165.794
165.794
165.794
165.794
165.794
165.794
165.794
165.794
165.794
165.794
165.794
165.794
165.794
165.794
165.794
165.794
165.794
165.794
165.794
165.794
165.794
165.794
165.794
165.794
165.794
165.794
165.794
165.794
165.794
165.794
165.794
165.794
165.794
165.794
165.794
165.794
165.794
165.794
165.794
165.794
165.794
165.794
165.794
165.794
165.794
165.794
165.794
165.794
165.794
165.794
165.794
165.794
165.794
165.794
165.794
165.794
165.794
165.794
165.794
165.794
165.794
165.794
165.794
165.794
165.794
165.794
165.794
165.794
165.794
165.794
165.794
165.794
165.794
165.794
165.794
165.794
165.794
165.794
165.794
165.794
165.794
165.794
165.794
165.794
165.794
165.794
165.794
165.794
165.794
165.794
165.794
165.794
165.794
165.794
165.794
165.794
165.794
165.794
165.794
165.794
165.794
165.794
165.794
165.794
165.794
165.794
165.794
165.794
165.794
165.794
165.794
165.794
165.794
165.794
165.794
165.794
165.794
165.794
165.794
165.794
165.794
165.794
165.794
165.794
165.794
165.794
165.794
