327.141
332.126
337.111
342.096
347.081
352.066
357.051
362.036
367.021
372.006
376.991
381.976
386.961
391.946
396.931
401.916
406.901
411.886
416.871
421.856
426.841
431.826
436.811
441.796
446.781
451.766
456.751
461.736
466.721
471.706
476.691
481.676
486.661
491.646
496.631
501.616
506.601
511.586
516.571
521.556
526.541
531.526
536.511
541.496
546.481
551.466
556.451
561.436
566.421
571.406
576.391
581.376
586.361
591.346
596.331
601.316
606.301
611.286
616.271
621.256
626.241
631.226
636.211
641.196
646.181
651.166
656.151
661.136
666.121
671.106
676.091
681.076
686.061
691.046
696.031
701.016
706.001
710.986
715.971
720.956
725.941
730.926
735.911
740.896
745.881
750.866
755.851
760.836
765.821
770.806
775.791
780.776
785.761
790.746
795.731
800.716
805.701
810.686
815.671
820.656
825.641
830.626
835.611
840.596
845.581
850.566
855.551
860.536
865.521
870.506
875.491
880.476
885.461
890.446
895.431
900.416
905.401
910.386
915.371
920.356
925.341
930.326
935.311
940.296
945.281
950.266
955.251
960.236
965.221
970.206
975.191
980.176
985.161
990.146
995.131
1000.116
1005.101
1010.086
1015.071
1020.056
1025.041
1030.026
1035.011
1039.996
1044.981
1049.966
1054.951
1059.936
1064.921
1069.906
1074.891
1079.876
1084.861
1089.846
1094.831
1099.816
1104.801
1109.786
1114.771
1119.756
1124.741
1129.726
1134.711
1139.696
1144.681
1149.666
1154.651
1159.636
1164.621
1169.606
1174.591
1179.576
1184.561
1189.546
1194.531
1199.516
1204.501
1209.486
1214.471
1219.456
1224.441
1229.426
1234.411
1239.396
1244.381
1249.366
1254.351
1259.336
1264.321
1269.306
1274.291
1279.276
1284.261
1289.246
1294.231
1299.216
1304.201
1309.186
1314.171
1319.156
1324.141
1325.119
1326.097
1327.075
1328.053
1329.031
1330.009
1330.987
1331.965
1332.943
1333.921
1334.899
1335.877
1336.855
1337.833
1338.811
1339.789
1340.767
1341.745
1342.723
1343.701
1344.679
1345.657
1346.635
1347.613
1348.591
1349.569
1350.547
1351.525
1352.503
1353.481
1354.459
1355.437
1356.415
1357.393
1358.371
1359.349
1360.327
1361.305
1362.283
1363.261
1364.239
1365.217
1366.195
1367.173
1368.151
1369.129
1370.107
1371.085
1372.063
1373.041
1374.019
1374.997
1375.975
1376.953
1377.931
1378.909
1379.887
1380.865
1381.843
1382.821
1383.799
1384.777
1385.755
1386.733
1387.711
1388.689
1389.667
1390.645
1391.623
1392.601
1393.579
1394.557
1395.535
1396.513
1397.491
1398.469
1399.447
1400.425
1401.403
1402.381
1403.359
1404.337
1405.315
1406.293
1407.271
1408.249
1409.227
1410.205
1411.183
1412.161
1413.139
1414.117
1415.095
1416.073
1417.051
1418.029
1419.007
1419.985
1420.963
1421.941
1422.919
1423.897
1424.875
1425.853
1426.831
1427.809
1428.787
1429.765
1430.743
1431.721
1432.699
1433.677
1434.655
1435.633
1436.611
1437.589
1438.567
1439.545
1440.523
1441.501
1442.479
1443.457
1444.435
1445.413
1446.391
1447.369
1448.347
1449.325
1450.303
1451.281
1452.259
1453.237
1454.215
1455.193
1456.171
1457.149
1458.127
1459.105
1460.083
1461.061
1462.039
1463.017
1463.995
1464.973
1465.951
1466.929
1467.907
1468.885
1469.863
1470.841
1471.819
1472.797
1473.775
1474.753
1475.731
1476.709
1477.687
1478.665
1479.643
1480.621
1481.599
1482.577
1483.555
1484.533
1485.511
1486.489
1487.467
1488.445
1489.423
1490.401
1491.379
1492.357
1493.335
1494.313
1495.291
1496.269
1497.247
1498.225
1499.203
1500.181
1501.159
1502.137
1503.115
1504.093
1505.071
1506.049
1507.027
1508.005
1508.983
1509.961
1510.939
1511.917
1512.895
1513.873
1514.851
1515.829
1516.807
1517.785
1518.763
1519.741
1521.769
1523.797
1525.825
1527.853
1529.881
1531.909
1533.937
1535.965
1537.993
1540.021
1542.049
1544.077
1546.105
1548.133
1550.161
1552.189
1554.217
1556.245
1558.273
1560.301
1562.329
1564.357
1566.385
1568.413
1570.441
1572.469
1574.497
1576.525
1578.553
1580.581
1582.609
1584.637
1586.665
1588.693
1590.721
1592.749
1594.777
1596.805
1598.833
1600.861
1602.889
1604.917
1606.945
1608.973
1611.001
1613.029
1615.057
1617.085
1619.113
1621.141
1623.169
1625.197
1627.225
1629.253
1631.281
1633.309
1635.337
1637.365
1639.393
1641.421
1643.449
1645.477
1647.505
1649.533
1651.561
1653.589
1655.617
1657.645
1659.673
1661.701
1663.729
1665.757
1667.785
1669.813
1671.841
1673.869
1675.897
1677.925
1679.953
1681.981
1684.009
1686.037
1688.065
1690.093
1692.121
1694.149
1696.177
1698.205
1700.233
1702.261
1704.289
1706.317
1708.345
1710.373
1712.401
1714.429
1716.457
1718.485
1720.513
1722.541
1724.569
1726.597
1728.625
1730.653
1732.681
1734.709
1736.737
1738.765
1740.793
1742.821
1744.849
1746.877
1748.905
1750.933
1752.961
1754.989
1757.017
1759.045
1761.073
1763.101
1765.129
1767.157
1769.185
1771.213
1773.241
1775.269
1777.297
1779.325
1781.353
1783.381
1785.409
1787.437
1789.465
1791.493
1793.521
1795.549
1797.577
1799.605
1801.633
1803.661
1805.689
1807.717
1809.745
1811.773
1813.801
1815.829
1817.857
1819.885
1821.913
1823.941
1825.969
1827.997
1830.025
1832.053
1834.081
1836.109
1838.137
1840.165
1842.193
1844.221
1846.249
1848.277
1850.305
1852.333
1854.361
1856.389
1858.417
1860.445
1862.473
1864.501
1866.529
1868.557
1870.585
1872.613
1874.641
1876.669
1878.697
1880.725
1882.753
1884.781
1886.809
1888.837
1890.865
1892.893
1894.921
1896.949
1898.977
1901.005
1903.033
1905.061
1907.089
1909.117
1911.145
1913.173
1915.201
1917.229
1919.257
1921.285
1923.313
1925.341
1925.366
1925.390
1925.415
1925.439
1925.464
1925.488
1925.513
1925.537
1925.562
1925.586
1925.611
1925.635
1925.660
1925.684
1925.709
1925.733
1925.758
1925.782
1925.807
1925.831
1925.856
1925.880
1925.905
1925.929
1925.954
1925.978
1926.003
1926.027
1926.052
1926.076
1926.101
1926.125
1926.150
1926.174
1926.199
1926.223
1926.248
1926.272
1926.297
1926.321
1926.346
1926.370
1926.395
1926.419
1926.444
1926.468
1926.493
1926.517
1926.542
1926.566
1926.591
1926.615
1926.640
1926.664
1926.689
1926.713
1926.738
1926.762
1926.787
1926.811
1926.836
1926.860
1926.885
1926.909
1926.934
1926.958
1926.983
1927.007
1927.032
1927.056
1927.081
1927.105
1927.130
1927.154
1927.179
1927.203
1927.228
1927.252
1927.277
1927.301
1927.326
1927.350
1927.375
1927.399
1927.424
1927.448
1927.473
1927.497
1927.522
1927.546
1927.571
1927.595
1927.620
1927.644
1927.669
1927.693
1927.718
1927.742
1927.767
1927.791
1927.816
1927.840
1927.865
1927.889
1927.914
1927.938
1927.963
1927.987
1928.012
1928.036
1928.061
1928.085
1928.110
1928.134
1928.159
1928.183
1928.208
1928.232
1928.257
1928.281
1928.306
1928.330
1928.355
1928.379
1928.404
1928.428
1928.453
1928.477
1928.502
1928.526
1928.551
1928.575
1928.600
1928.624
1928.649
1928.673
1928.698
1928.722
1928.747
1928.771
1928.796
1928.820
1928.845
1928.869
1928.894
1928.918
1928.943
1928.967
1928.992
1929.016
1929.041
1929.065
1929.090
1929.114
1929.139
1929.163
1929.188
1929.212
1929.237
1929.261
1929.286
1929.310
1929.335
1929.359
1929.384
1929.408
1929.433
1929.457
1929.482
1929.506
1929.531
1929.555
1929.580
1929.604
1929.629
1929.653
1929.678
1929.702
1929.727
1929.751
1929.776
1929.800
1929.825
1929.849
1929.874
1929.898
1929.923
1929.947
1929.972
1929.996
1930.021
1930.045
1930.070
1930.094
1930.119
1930.143
1930.168
1930.192
1930.217
1930.241
1931.708
1933.174
1934.641
1936.107
1937.574
1939.040
1940.507
1941.973
1943.440
1944.906
1946.373
1947.839
1949.306
1950.772
1952.239
1953.705
1955.172
1956.638
1958.105
1959.571
1961.038
1962.504
1963.971
1965.437
1966.904
1968.370
1969.837
1971.303
1972.770
1974.236
1975.703
1977.169
1978.636
1980.102
1981.569
1983.035
1984.502
1985.968
1987.435
1988.901
1990.368
1991.834
1993.301
1994.767
1996.234
1997.700
1999.167
2000.633
2002.100
2003.566
2005.033
2006.499
2007.966
2009.432
2010.899
2012.365
2013.832
2015.298
2016.765
2018.231
2019.698
2021.164
2022.631
2024.097
2025.564
2027.030
2028.497
2029.963
2031.430
2032.896
2034.363
2035.829
2037.296
2038.762
2040.229
2041.695
2043.162
2044.628
2046.095
2047.561
2049.028
2050.494
2051.961
2053.427
2054.894
2056.360
2057.827
2059.293
2060.760
2062.226
2063.693
2065.159
2066.626
2068.092
2069.559
2071.025
2072.492
2073.958
2075.425
2076.891
2078.358
2079.824
2081.291
2082.757
2084.224
2085.690
2087.157
2088.623
2090.090
2091.556
2093.023
2094.489
2095.956
2097.422
2098.889
2100.355
2101.822
2103.288
2104.755
2106.221
2107.688
2109.154
2110.621
2112.087
2113.554
2115.020
2116.487
2117.953
2119.420
2120.886
2122.353
2123.819
2125.286
2126.752
2128.219
2129.685
2131.152
2132.618
2134.085
2135.551
2137.018
2138.484
2139.951
2141.417
2142.884
2144.350
2145.817
2147.283
2148.750
2150.216
2151.683
2153.149
2154.616
2156.082
2157.549
2159.015
2160.482
2161.948
2163.415
2164.881
2166.348
2167.814
2169.281
2170.747
2172.214
2173.680
2175.147
2176.613
2178.080
2179.546
2181.013
2182.479
2183.946
2185.412
2186.879
2188.345
2189.812
2191.278
2192.745
2194.211
2195.678
2197.144
2198.611
2200.077
2201.544
2203.010
2204.477
2205.943
2207.410
2208.876
2210.343
2211.809
2213.276
2214.742
2216.209
2217.675
2219.142
2220.608
2222.075
2223.541
2223.590
2223.638
2223.687
2223.735
2223.784
2223.832
2223.881
2223.929
2223.978
2224.026
2224.075
2224.123
2224.172
2224.220
2224.269
2224.317
2224.366
2224.414
2224.463
2224.511
2224.560
2224.608
2224.657
2224.705
2224.754
2224.802
2224.851
2224.899
2224.948
2224.996
2225.045
2225.093
2225.142
2225.190
2225.239
2225.287
2225.336
2225.384
2225.433
2225.481
2225.530
2225.578
2225.627
2225.675
2225.724
2225.772
2225.821
2225.869
2225.918
2225.966
2226.015
2226.063
2226.112
2226.160
2226.209
2226.257
2226.306
2226.354
2226.403
2226.451
2226.500
2226.548
2226.597
2226.645
2226.694
2226.742
2226.791
2226.839
2226.888
2226.936
2226.985
2227.033
2227.082
2227.130
2227.179
2227.227
2227.276
2227.324
2227.373
2227.421
2227.470
2227.518
2227.567
2227.615
2227.664
2227.712
2227.761
2227.809
2227.858
2227.906
2227.955
2228.003
2228.052
2228.100
2228.149
2228.197
2228.246
2228.294
2228.343
2228.391
2228.440
2228.488
2228.537
2228.585
2228.634
2228.682
2228.731
2228.779
2228.828
2228.876
2228.925
2228.973
2229.022
2229.070
2229.119
2229.167
2229.216
2229.264
2229.313
2229.361
2229.410
2229.458
2229.507
2229.555
2229.604
2229.652
2229.701
2229.749
2229.798
2229.846
2229.895
2229.943
2229.992
2230.040
2230.089
2230.137
2230.186
2230.234
2230.283
2230.331
2230.380
2230.428
2230.477
2230.525
2230.574
2230.622
2230.671
2230.719
2230.768
2230.816
2230.865
2230.913
2230.962
2231.010
2231.059
2231.107
2231.156
2231.204
2231.253
2231.301
2231.350
2231.398
2231.447
2231.495
2231.544
2231.592
2231.641
2231.689
2231.738
2231.786
2231.835
2231.883
2231.932
2231.980
2232.029
2232.077
2232.126
2232.174
2232.223
2232.271
2232.320
2232.368
2232.417
2232.465
2232.514
2232.562
2232.611
2232.659
2232.708
2232.756
2232.805
2232.853
2232.902
2232.950
2232.999
2233.047
2233.096
2233.144
2233.193
2233.241
2233.217
2233.193
2233.169
2233.145
2233.121
2233.097
2233.073
2233.049
2233.025
2233.001
2232.977
2232.953
2232.929
2232.905
2232.881
2232.857
2232.833
2232.809
2232.785
2232.761
2232.737
2232.713
2232.689
2232.665
2232.641
2232.617
2232.593
2232.569
2232.545
2232.521
2232.497
2232.473
2232.449
2232.425
2232.401
2232.377
2232.353
2232.329
2232.305
2232.281
2232.257
2232.233
2232.209
2232.185
2232.161
2232.137
2232.113
2232.089
2232.065
2232.041
2232.017
2231.993
2231.969
2231.945
2231.921
2231.897
2231.873
2231.849
2231.825
2231.801
2231.777
2231.753
2231.729
2231.705
2231.681
2231.657
2231.633
2231.609
2231.585
2231.561
2231.537
2231.513
2231.489
2231.465
2231.441
2231.417
2231.393
2231.369
2231.345
2231.321
2231.297
2231.273
2231.249
2231.225
2231.201
2231.177
2231.153
2231.129
2231.105
2231.081
2231.057
2231.033
2231.009
2230.985
2230.961
2230.937
2230.913
2230.889
2230.865
2230.841
2230.817
2230.793
2230.769
2230.745
2230.721
2230.697
2230.673
2230.649
2230.625
2230.601
2230.577
2230.553
2230.529
2230.505
2230.481
2230.457
2230.433
2230.409
2230.385
2230.361
2230.337
2230.313
2230.289
2230.265
2230.241
2230.217
2230.193
2230.169
2230.145
2230.121
2230.097
2230.073
2230.049
2230.025
2230.001
2229.977
2229.953
2229.929
2229.905
2229.881
2229.857
2229.833
2229.809
2229.785
2229.761
2229.737
2229.713
2229.689
2229.665
2229.641
2229.617
2229.593
2229.569
2229.545
2229.521
2229.497
2229.473
2229.449
2229.425
2229.401
2229.377
2229.353
2229.329
2229.305
2229.281
2229.257
2229.233
2229.209
2229.185
2229.161
2229.137
2229.113
2229.089
2229.065
2229.041
2229.017
2228.993
2228.969
2228.945
2228.921
2228.897
2228.873
2228.849
2228.825
2228.801
2228.777
2228.753
2228.729
2228.705
2228.681
2228.657
2228.633
2228.609
2228.585
2228.561
2228.537
2228.513
2228.489
2228.465
2228.441
2229.125
2229.809
2230.493
2231.177
2231.861
2232.545
2233.229
2233.913
2234.597
2235.281
2235.965
2236.649
2237.333
2238.017
2238.701
2239.385
2240.069
2240.753
2241.437
2242.121
2242.805
2243.489
2244.173
2244.857
2245.541
2246.225
2246.909
2247.593
2248.277
2248.961
2249.645
2250.329
2251.013
2251.697
2252.381
2253.065
2253.749
2254.433
2255.117
2255.801
2256.485
2257.169
2257.853
2258.537
2259.221
2259.905
2260.589
2261.273
2261.957
2262.641
2263.325
2264.009
2264.693
2265.377
2266.061
2266.745
2267.429
2268.113
2268.797
2269.481
2270.165
2270.849
2271.533
2272.217
2272.901
2273.585
2274.269
2274.953
2275.637
2276.321
2277.005
2277.689
2278.373
2279.057
2279.741
2280.425
2281.109
2281.793
2282.477
2283.161
2283.845
2284.529
2285.213
2285.897
2286.581
2287.265
2287.949
2288.633
2289.317
2290.001
2290.685
2291.369
2292.053
2292.737
2293.421
2294.105
2294.789
2295.473
2296.157
2296.841
2297.525
2298.209
2298.893
2299.577
2300.261
2300.945
2301.629
2302.313
2302.997
2303.681
2304.365
2305.049
2305.733
2306.417
2307.101
2307.785
2308.469
2309.153
2309.837
2310.521
2311.205
2311.889
2312.573
2313.257
2313.941
2314.625
2315.309
2315.993
2316.677
2317.361
2318.045
2318.729
2319.413
2320.097
2320.781
2321.465
2322.149
2322.833
2323.517
2324.201
2324.885
2325.569
2326.253
2326.937
2327.621
2328.305
2328.989
2329.673
2330.357
2331.041
2331.725
2332.409
2333.093
2333.777
2334.461
2335.145
2335.829
2336.513
2337.197
2337.881
2338.565
2339.249
2339.933
2340.617
2341.301
2341.985
2342.669
2343.353
2344.037
2344.721
2345.405
2346.089
2346.773
2347.457
2348.141
2348.825
2349.509
2350.193
2350.877
2351.561
2352.245
2352.929
2353.613
2354.297
2354.981
2355.665
2356.349
2357.033
2357.717
2358.401
2359.085
2359.769
2360.453
2361.137
2361.821
2362.505
2363.189
2363.873
2364.557
2365.241
2363.848
2362.455
2361.062
2359.669
2358.276
2356.883
2355.490
2354.097
2352.704
2351.311
2349.918
2348.525
2347.132
2345.739
2344.346
2342.953
2341.560
2340.167
2338.774
2337.381
2335.988
2334.595
2333.202
2331.809
2330.416
2329.023
2327.630
2326.237
2324.844
2323.451
2322.058
2320.665
2319.272
2317.879
2316.486
2315.093
2313.700
2312.307
2310.914
2309.521
2308.128
2306.735
2305.342
2303.949
2302.556
2301.163
2299.770
2298.377
2296.984
2295.591
2294.198
2292.805
2291.412
2290.019
2288.626
2287.233
2285.840
2284.447
2283.054
2281.661
2280.268
2278.875
2277.482
2276.089
2274.696
2273.303
2271.910
2270.517
2269.124
2267.731
2266.338
2264.945
2263.552
2262.159
2260.766
2259.373
2257.980
2256.587
2255.194
2253.801
2252.408
2251.015
2249.622
2248.229
2246.836
2245.443
2244.050
2242.657
2241.264
2239.871
2238.478
2237.085
2235.692
2234.299
2232.906
2231.513
2230.120
2228.727
2227.334
2225.941
2224.548
2223.155
2221.762
2220.369
2218.976
2217.583
2216.190
2214.797
2213.404
2212.011
2210.618
2209.225
2207.832
2206.439
2205.046
2203.653
2202.260
2200.867
2199.474
2198.081
2196.688
2195.295
2193.902
2192.509
2191.116
2189.723
2188.330
2186.937
2185.544
2184.151
2182.758
2181.365
2179.972
2178.579
2177.186
2175.793
2174.400
2173.007
2171.614
2170.221
2168.828
2167.435
2166.042
2164.649
2163.256
2161.863
2160.470
2159.077
2157.684
2156.291
2154.898
2153.505
2152.112
2150.719
2149.326
2147.933
2146.540
2145.147
2143.754
2142.361
2140.968
2139.575
2138.182
2136.789
2135.396
2134.003
2132.610
2131.217
2129.824
2128.431
2127.038
2125.645
2124.252
2122.859
2121.466
2120.073
2118.680
2117.287
2115.894
2114.501
2113.108
2111.715
2110.322
2108.929
2107.536
2106.143
2104.750
2103.357
2101.964
2100.571
2099.178
2097.785
2096.392
2094.999
2093.606
2092.213
2090.820
2089.427
2088.034
2086.641
2086.348
2086.055
2085.762
2085.469
2085.176
2084.883
2084.590
2084.297
2084.004
2083.711
2083.418
2083.125
2082.832
2082.539
2082.246
2081.953
2081.660
2081.367
2081.074
2080.781
2080.488
2080.195
2079.902
2079.609
2079.316
2079.023
2078.730
2078.437
2078.144
2077.851
2077.558
2077.265
2076.972
2076.679
2076.386
2076.093
2075.800
2075.507
2075.214
2074.921
2074.628
2074.335
2074.042
2073.749
2073.456
2073.163
2072.870
2072.577
2072.284
2071.991
2071.698
2071.405
2071.112
2070.819
2070.526
2070.233
2069.940
2069.647
2069.354
2069.061
2068.768
2068.475
2068.182
2067.889
2067.596
2067.303
2067.010
2066.717
2066.424
2066.131
2065.838
2065.545
2065.252
2064.959
2064.666
2064.373
2064.080
2063.787
2063.494
2063.201
2062.908
2062.615
2062.322
2062.029
2061.736
2061.443
2061.150
2060.857
2060.564
2060.271
2059.978
2059.685
2059.392
2059.099
2058.806
2058.513
2058.220
2057.927
2057.634
2057.341
2057.048
2056.755
2056.462
2056.169
2055.876
2055.583
2055.290
2054.997
2054.704
2054.411
2054.118
2053.825
2053.532
2053.239
2052.946
2052.653
2052.360
2052.067
2051.774
2051.481
2051.188
2050.895
2050.602
2050.309
2050.016
2049.723
2049.430
2049.137
2048.844
2048.551
2048.258
2047.965
2047.672
2047.379
2047.086
2046.793
2046.500
2046.207
2045.914
2045.621
2045.328
2045.035
2044.742
2044.449
2044.156
2043.863
2043.570
2043.277
2042.984
2042.691
2042.398
2042.105
2041.812
2041.519
2041.226
2040.933
2040.640
2040.347
2040.054
2039.761
2039.468
2039.175
2038.882
2038.589
2038.296
2038.003
2037.710
2037.417
2037.124
2036.831
2036.538
2036.245
2035.952
2035.659
2035.366
2035.073
2034.780
2034.487
2034.194
2033.901
2033.608
2033.315
2033.022
2032.729
2032.436
2032.143
2031.850
2031.557
2031.264
2030.971
2030.678
2030.385
2030.092
2029.799
2029.506
2029.213
2028.920
2028.627
2028.334
