1327.199
1328.177
1329.155
1330.133
1331.111
1332.089
1333.067
1334.045
1335.023
1336.001
1336.979
1337.957
1338.935
1339.913
1340.891
1341.869
1342.847
1343.825
1344.803
1345.781
1346.759
1347.737
1348.715
1349.693
1350.671
1351.649
1352.627
1353.605
1354.583
1355.561
1356.539
1357.517
1358.495
1359.473
1360.451
1361.429
1362.407
1363.385
1364.363
1365.341
1366.319
1367.297
1368.275
1369.253
1370.231
1371.209
1372.187
1373.165
1374.143
1375.121
1376.099
1377.077
1378.055
1379.033
1380.011
1380.989
1381.967
1382.945
1383.923
1384.901
1385.879
1386.857
1387.835
1388.813
1389.791
1390.769
1391.747
1392.725
1393.703
1394.681
1395.659
1396.637
1397.615
1398.593
1399.571
1400.549
1401.527
1402.505
1403.483
1404.461
1405.439
1406.417
1407.395
1408.373
1409.351
1410.329
1411.307
1412.285
1413.263
1414.241
1415.219
1416.197
1417.175
1418.153
1419.131
1420.109
1421.087
1422.065
1423.043
1424.021
1424.999
1425.977
1426.955
1427.933
1428.911
1429.889
1430.867
1431.845
1432.823
1433.801
1434.779
1435.757
1436.735
1437.713
1438.691
1439.669
1440.647
1441.625
1442.603
1443.581
1444.559
1445.537
1446.515
1447.493
1448.471
1449.449
1450.427
1451.405
1452.383
1453.361
1454.339
1455.317
1456.295
1457.273
1458.251
1459.229
1460.207
1461.185
1462.163
1463.141
1464.119
1465.097
1466.075
1467.053
1468.031
1469.009
1469.987
1470.965
1471.943
1472.921
1473.899
1474.877
1475.855
1476.833
1477.811
1478.789
1479.767
1480.745
1481.723
1482.701
1483.679
1484.657
1485.635
1486.613
1487.591
1488.569
1489.547
1490.525
1491.503
1492.481
1493.459
1494.437
1495.415
1496.393
1497.371
1498.349
1499.327
1500.305
1501.283
1502.261
1503.239
1504.217
1505.195
1506.173
1507.151
1508.129
1509.107
1510.085
1511.063
1512.041
1513.019
1513.997
1514.975
1515.953
1516.931
1517.909
1518.887
1519.865
1520.843
1521.821
1522.799
1524.827
1526.855
1528.883
1530.911
1532.939
1534.967
1536.995
1539.023
1541.051
1543.079
1545.107
1547.135
1549.163
1551.191
1553.219
1555.247
1557.275
1559.303
1561.331
1563.359
1565.387
1567.415
1569.443
1571.471
1573.499
1575.527
1577.555
1579.583
1581.611
1583.639
1585.667
1587.695
1589.723
1591.751
1593.779
1595.807
1597.835
1599.863
1601.891
1603.919
1605.947
1607.975
1610.003
1612.031
1614.059
1616.087
1618.115
1620.143
1622.171
1624.199
1626.227
1628.255
1630.283
1632.311
1634.339
1636.367
1638.395
1640.423
1642.451
1644.479
1646.507
1648.535
1650.563
1652.591
1654.619
1656.647
1658.675
1660.703
1662.731
1664.759
1666.787
1668.815
1670.843
1672.871
1674.899
1676.927
1678.955
1680.983
1683.011
1685.039
1687.067
1689.095
1691.123
1693.151
1695.179
1697.207
1699.235
1701.263
1703.291
1705.319
1707.347
1709.375
1711.403
1713.431
1715.459
1717.487
1719.515
1721.543
1723.571
1725.599
1727.627
1729.655
1731.683
1733.711
1735.739
1737.767
1739.795
1741.823
1743.851
1745.879
1747.907
1749.935
1751.963
1753.991
1756.019
1758.047
1760.075
1762.103
1764.131
1766.159
1768.187
1770.215
1772.243
1774.271
1776.299
1778.327
1780.355
1782.383
1784.411
1786.439
1788.467
1790.495
1792.523
1794.551
1796.579
1798.607
1800.635
1802.663
1804.691
1806.719
1808.747
1810.775
1812.803
1814.831
1816.859
1818.887
1820.915
1822.943
1824.971
1826.999
1829.027
1831.055
1833.083
1835.111
1837.139
1839.167
1841.195
1843.223
1845.251
1847.279
1849.307
1851.335
1853.363
1855.391
1857.419
1859.447
1861.475
1863.503
1865.531
1867.559
1869.587
1871.615
1873.643
1875.671
1877.699
1879.727
1881.755
1883.783
1885.811
1887.839
1889.867
1891.895
1893.923
1895.951
1897.979
1900.007
1902.035
1904.063
1906.091
1908.119
1910.147
1912.175
1914.203
1916.231
1918.259
1920.287
1922.315
1924.343
1926.371
1928.399
1928.424
1928.448
1928.473
1928.497
1928.522
1928.546
1928.571
1928.595
1928.620
1928.644
1928.669
1928.693
1928.718
1928.742
1928.767
1928.791
1928.816
1928.840
1928.865
1928.889
1928.914
1928.938
1928.963
1928.987
1929.012
1929.036
1929.061
1929.085
1929.110
1929.134
1929.159
1929.183
1929.208
1929.232
1929.257
1929.281
1929.306
1929.330
1929.355
1929.379
1929.404
1929.428
1929.453
1929.477
1929.502
1929.526
1929.551
1929.575
1929.600
1929.624
1929.649
1929.673
1929.698
1929.722
1929.747
1929.771
1929.796
1929.820
1929.845
1929.869
1929.894
1929.918
1929.943
1929.967
1929.992
1930.016
1930.041
1930.065
1930.090
1930.114
1930.139
1930.163
1930.188
1930.212
1930.237
1930.261
1930.286
1930.310
1930.335
1930.359
1930.384
1930.408
1930.433
1930.457
1930.482
1930.506
1930.531
1930.555
1930.580
1930.604
1930.629
1930.653
1930.678
1930.702
1930.727
1930.751
1930.776
1930.800
1930.825
1930.849
1930.874
1930.898
1930.923
1930.947
1930.972
1930.996
1931.021
1931.045
1931.070
1931.094
1931.119
1931.143
1931.168
1931.192
1931.217
1931.241
1931.266
1931.290
1931.315
1931.339
1931.364
1931.388
1931.413
1931.437
1931.462
1931.486
1931.511
1931.535
1931.560
1931.584
1931.609
1931.633
1931.658
1931.682
1931.707
1931.731
1931.756
1931.780
1931.805
1931.829
1931.854
1931.878
1931.903
1931.927
1931.952
1931.976
1932.001
1932.025
1932.050
1932.074
1932.099
1932.123
1932.148
1932.172
1932.197
1932.221
1932.246
1932.270
1932.295
1932.319
1932.344
1932.368
1932.393
1932.417
1932.442
1932.466
1932.491
1932.515
1932.540
1932.564
1932.589
1932.613
1932.638
1932.662
1932.687
1932.711
1932.736
1932.760
1932.785
1932.809
1932.834
1932.858
1932.883
1932.907
1932.932
1932.956
1932.981
1933.005
1933.030
1933.054
1933.079
1933.103
1933.128
1933.152
1933.177
1933.201
1933.226
1933.250
1933.275
1933.299
1934.766
1936.232
1937.699
1939.165
1940.632
1942.098
1943.565
1945.031
1946.498
1947.964
1949.431
1950.897
1952.364
1953.830
1955.297
1956.763
1958.230
1959.696
1961.163
1962.629
1964.096
1965.562
1967.029
1968.495
1969.962
1971.428
1972.895
1974.361
1975.828
1977.294
1978.761
1980.227
1981.694
1983.160
1984.627
1986.093
1987.560
1989.026
1990.493
1991.959
1993.426
1994.892
1996.359
1997.825
1999.292
2000.758
2002.225
2003.691
2005.158
2006.624
2008.091
2009.557
2011.024
2012.490
2013.957
2015.423
2016.890
2018.356
2019.823
2021.289
2022.756
2024.222
2025.689
2027.155
2028.622
2030.088
2031.555
2033.021
2034.488
2035.954
2037.421
2038.887
2040.354
2041.820
2043.287
2044.753
2046.220
2047.686
2049.153
2050.619
2052.086
2053.552
2055.019
2056.485
2057.952
2059.418
2060.885
2062.351
2063.818
2065.284
2066.751
2068.217
2069.684
2071.150
2072.617
2074.083
2075.550
2077.016
2078.483
2079.949
2081.416
2082.882
2084.349
2085.815
2087.282
2088.748
2090.215
2091.681
2093.148
2094.614
2096.081
2097.547
2099.014
2100.480
2101.947
2103.413
2104.880
2106.346
2107.813
2109.279
2110.746
2112.212
2113.679
2115.145
2116.612
2118.078
2119.545
2121.011
2122.478
2123.944
2125.411
2126.877
2128.344
2129.810
2131.277
2132.743
2134.210
2135.676
2137.143
2138.609
2140.076
2141.542
2143.009
2144.475
2145.942
2147.408
2148.875
2150.341
2151.808
2153.274
2154.741
2156.207
2157.674
2159.140
2160.607
2162.073
2163.540
2165.006
2166.473
2167.939
2169.406
2170.872
2172.339
2173.805
2175.272
2176.738
2178.205
2179.671
2181.138
2182.604
2184.071
2185.537
2187.004
2188.470
2189.937
2191.403
2192.870
2194.336
2195.803
2197.269
2198.736
2200.202
2201.669
2203.135
2204.602
2206.068
2207.535
2209.001
2210.468
2211.934
2213.401
2214.867
2216.334
2217.800
2219.267
2220.733
2222.200
2223.666
2225.133
2226.599
2226.648
2226.696
2226.745
2226.793
2226.842
2226.890
2226.939
2226.987
2227.036
2227.084
2227.133
2227.181
2227.230
2227.278
2227.327
2227.375
2227.424
2227.472
2227.521
2227.569
2227.618
2227.666
2227.715
2227.763
2227.812
2227.860
2227.909
2227.957
2228.006
2228.054
2228.103
2228.151
2228.200
2228.248
2228.297
2228.345
2228.394
2228.442
2228.491
2228.539
2228.588
2228.636
2228.685
2228.733
2228.782
2228.830
2228.879
2228.927
2228.976
2229.024
2229.073
2229.121
2229.170
2229.218
2229.267
2229.315
2229.364
2229.412
2229.461
2229.509
2229.558
2229.606
2229.655
2229.703
2229.752
2229.800
2229.849
2229.897
2229.946
2229.994
2230.043
2230.091
2230.140
2230.188
2230.237
2230.285
2230.334
2230.382
2230.431
2230.479
2230.528
2230.576
2230.625
2230.673
2230.722
2230.770
2230.819
2230.867
2230.916
2230.964
2231.013
2231.061
2231.110
2231.158
2231.207
2231.255
2231.304
2231.352
2231.401
2231.449
2231.498
2231.546
2231.595
2231.643
2231.692
2231.740
2231.789
2231.837
2231.886
2231.934
2231.983
2232.031
2232.080
2232.128
2232.177
2232.225
2232.274
2232.322
2232.371
2232.419
2232.468
2232.516
2232.565
2232.613
2232.662
2232.710
2232.759
2232.807
2232.856
2232.904
2232.953
2233.001
2233.050
2233.098
2233.147
2233.195
2233.244
2233.292
2233.341
2233.389
2233.438
2233.486
2233.535
2233.583
2233.632
2233.680
2233.729
2233.777
2233.826
2233.874
2233.923
2233.971
2234.020
2234.068
2234.117
2234.165
2234.214
2234.262
2234.311
2234.359
2234.408
2234.456
2234.505
2234.553
2234.602
2234.650
2234.699
2234.747
2234.796
2234.844
2234.893
2234.941
2234.990
2235.038
2235.087
2235.135
2235.184
2235.232
2235.281
2235.329
2235.378
2235.426
2235.475
2235.523
2235.572
2235.620
2235.669
2235.717
2235.766
2235.814
2235.863
2235.911
2235.960
2236.008
2236.057
2236.105
2236.154
2236.202
2236.251
2236.299
2236.275
2236.251
2236.227
2236.203
2236.179
2236.155
2236.131
2236.107
2236.083
2236.059
2236.035
2236.011
2235.987
2235.963
2235.939
2235.915
2235.891
2235.867
2235.843
2235.819
2235.795
2235.771
2235.747
2235.723
2235.699
2235.675
2235.651
2235.627
2235.603
2235.579
2235.555
2235.531
2235.507
2235.483
2235.459
2235.435
2235.411
2235.387
2235.363
2235.339
2235.315
2235.291
2235.267
2235.243
2235.219
2235.195
2235.171
2235.147
2235.123
2235.099
2235.075
2235.051
2235.027
2235.003
2234.979
2234.955
2234.931
2234.907
2234.883
2234.859
2234.835
2234.811
2234.787
2234.763
2234.739
2234.715
2234.691
2234.667
2234.643
2234.619
2234.595
2234.571
2234.547
2234.523
2234.499
2234.475
2234.451
2234.427
2234.403
2234.379
2234.355
2234.331
2234.307
2234.283
2234.259
2234.235
2234.211
2234.187
2234.163
2234.139
2234.115
2234.091
2234.067
2234.043
2234.019
2233.995
2233.971
2233.947
2233.923
2233.899
2233.875
2233.851
2233.827
2233.803
2233.779
2233.755
2233.731
2233.707
2233.683
2233.659
2233.635
2233.611
2233.587
2233.563
2233.539
2233.515
2233.491
2233.467
2233.443
2233.419
2233.395
2233.371
2233.347
2233.323
2233.299
2233.275
2233.251
2233.227
2233.203
2233.179
2233.155
2233.131
2233.107
2233.083
2233.059
2233.035
2233.011
2232.987
2232.963
2232.939
2232.915
2232.891
2232.867
2232.843
2232.819
2232.795
2232.771
2232.747
2232.723
2232.699
2232.675
2232.651
2232.627
2232.603
2232.579
2232.555
2232.531
2232.507
2232.483
2232.459
2232.435
2232.411
2232.387
2232.363
2232.339
2232.315
2232.291
2232.267
2232.243
2232.219
2232.195
2232.171
2232.147
2232.123
2232.099
2232.075
2232.051
2232.027
2232.003
2231.979
2231.955
2231.931
2231.907
2231.883
2231.859
2231.835
2231.811
2231.787
2231.763
2231.739
2231.715
2231.691
2231.667
2231.643
2231.619
2231.595
2231.571
2231.547
2231.523
2231.499
2232.183
2232.867
2233.551
2234.235
2234.919
2235.603
2236.287
2236.971
2237.655
2238.339
2239.023
2239.707
2240.391
2241.075
2241.759
2242.443
2243.127
2243.811
2244.495
2245.179
2245.863
2246.547
2247.231
2247.915
2248.599
2249.283
2249.967
2250.651
2251.335
2252.019
2252.703
2253.387
2254.071
2254.755
2255.439
2256.123
2256.807
2257.491
2258.175
2258.859
2259.543
2260.227
2260.911
2261.595
2262.279
2262.963
2263.647
2264.331
2265.015
2265.699
2266.383
2267.067
2267.751
2268.435
2269.119
2269.803
2270.487
2271.171
2271.855
2272.539
2273.223
2273.907
2274.591
2275.275
2275.959
2276.643
2277.327
2278.011
2278.695
2279.379
2280.063
2280.747
2281.431
2282.115
2282.799
2283.483
2284.167
2284.851
2285.535
2286.219
2286.903
2287.587
2288.271
2288.955
2289.639
2290.323
2291.007
2291.691
2292.375
2293.059
2293.743
2294.427
2295.111
2295.795
2296.479
2297.163
2297.847
2298.531
2299.215
2299.899
2300.583
2301.267
2301.951
2302.635
2303.319
2304.003
2304.687
2305.371
2306.055
2306.739
2307.423
2308.107
2308.791
2309.475
2310.159
2310.843
2311.527
2312.211
2312.895
2313.579
2314.263
2314.947
2315.631
2316.315
2316.999
2317.683
2318.367
2319.051
2319.735
2320.419
2321.103
2321.787
2322.471
2323.155
2323.839
2324.523
2325.207
2325.891
2326.575
2327.259
2327.943
2328.627
2329.311
2329.995
2330.679
2331.363
2332.047
2332.731
2333.415
2334.099
2334.783
2335.467
2336.151
2336.835
2337.519
2338.203
2338.887
2339.571
2340.255
2340.939
2341.623
2342.307
2342.991
2343.675
2344.359
2345.043
2345.727
2346.411
2347.095
2347.779
2348.463
2349.147
2349.831
2350.515
2351.199
2351.883
2352.567
2353.251
2353.935
2354.619
2355.303
2355.987
2356.671
2357.355
2358.039
2358.723
2359.407
2360.091
2360.775
2361.459
2362.143
2362.827
2363.511
2364.195
2364.879
2365.563
2366.247
2366.931
2367.615
2368.299
2366.906
2365.513
2364.120
2362.727
2361.334
2359.941
2358.548
2357.155
2355.762
2354.369
2352.976
2351.583
2350.190
2348.797
2347.404
2346.011
2344.618
2343.225
2341.832
2340.439
2339.046
2337.653
2336.260
2334.867
2333.474
2332.081
2330.688
2329.295
2327.902
2326.509
2325.116
2323.723
2322.330
2320.937
2319.544
2318.151
2316.758
2315.365
2313.972
2312.579
2311.186
2309.793
2308.400
2307.007
2305.614
2304.221
2302.828
2301.435
2300.042
2298.649
2297.256
2295.863
2294.470
2293.077
2291.684
2290.291
2288.898
2287.505
2286.112
2284.719
2283.326
2281.933
2280.540
2279.147
2277.754
2276.361
2274.968
2273.575
2272.182
2270.789
2269.396
2268.003
2266.610
2265.217
2263.824
2262.431
2261.038
2259.645
2258.252
2256.859
2255.466
2254.073
2252.680
2251.287
2249.894
2248.501
2247.108
2245.715
2244.322
2242.929
2241.536
2240.143
2238.750
2237.357
2235.964
2234.571
2233.178
2231.785
2230.392
2228.999
2227.606
2226.213
2224.820
2223.427
2222.034
2220.641
2219.248
2217.855
2216.462
2215.069
2213.676
2212.283
2210.890
2209.497
2208.104
2206.711
2205.318
2203.925
2202.532
2201.139
2199.746
2198.353
2196.960
2195.567
2194.174
2192.781
2191.388
2189.995
2188.602
2187.209
2185.816
2184.423
2183.030
2181.637
2180.244
2178.851
2177.458
2176.065
2174.672
2173.279
2171.886
2170.493
2169.100
2167.707
2166.314
2164.921
2163.528
2162.135
2160.742
2159.349
2157.956
2156.563
2155.170
2153.777
2152.384
2150.991
2149.598
2148.205
2146.812
2145.419
2144.026
2142.633
2141.240
2139.847
2138.454
2137.061
2135.668
2134.275
2132.882
2131.489
2130.096
2128.703
2127.310
2125.917
2124.524
2123.131
2121.738
2120.345
2118.952
2117.559
2116.166
2114.773
2113.380
2111.987
2110.594
2109.201
2107.808
2106.415
2105.022
2103.629
2102.236
2100.843
2099.450
2098.057
2096.664
2095.271
2093.878
2092.485
2091.092
2089.699
2089.406
2089.113
2088.820
2088.527
2088.234
2087.941
2087.648
2087.355
2087.062
2086.769
2086.476
2086.183
2085.890
2085.597
2085.304
2085.011
2084.718
2084.425
2084.132
2083.839
2083.546
2083.253
2082.960
2082.667
2082.374
2082.081
2081.788
2081.495
2081.202
2080.909
2080.616
2080.323
2080.030
2079.737
2079.444
2079.151
2078.858
2078.565
2078.272
2077.979
2077.686
2077.393
2077.100
2076.807
2076.514
2076.221
2075.928
2075.635
2075.342
2075.049
2074.756
2074.463
2074.170
2073.877
2073.584
2073.291
2072.998
2072.705
2072.412
2072.119
2071.826
2071.533
2071.240
2070.947
2070.654
2070.361
2070.068
2069.775
2069.482
2069.189
2068.896
2068.603
2068.310
2068.017
2067.724
2067.431
2067.138
2066.845
2066.552
2066.259
2065.966
2065.673
2065.380
2065.087
2064.794
2064.501
2064.208
2063.915
2063.622
2063.329
2063.036
2062.743
2062.450
2062.157
2061.864
2061.571
2061.278
2060.985
2060.692
2060.399
2060.106
2059.813
2059.520
2059.227
2058.934
2058.641
2058.348
2058.055
2057.762
2057.469
2057.176
2056.883
2056.590
2056.297
2056.004
2055.711
2055.418
2055.125
2054.832
2054.539
2054.246
2053.953
2053.660
2053.367
2053.074
2052.781
2052.488
2052.195
2051.902
2051.609
2051.316
2051.023
2050.730
2050.437
2050.144
2049.851
2049.558
2049.265
2048.972
2048.679
2048.386
2048.093
2047.800
2047.507
2047.214
2046.921
2046.628
2046.335
2046.042
2045.749
2045.456
2045.163
2044.870
2044.577
2044.284
2043.991
2043.698
2043.405
2043.112
2042.819
2042.526
2042.233
2041.940
2041.647
2041.354
2041.061
2040.768
2040.475
2040.182
2039.889
2039.596
2039.303
2039.010
2038.717
2038.424
2038.131
2037.838
2037.545
2037.252
2036.959
2036.666
2036.373
2036.080
2035.787
2035.494
2035.201
2034.908
2034.615
2034.322
2034.029
2033.736
2033.443
2033.150
2032.857
2032.564
2032.271
2031.978
2031.685
2031.392
2031.099
2023.426
2015.752
2008.079
2000.405
1992.732
1985.058
1977.385
1969.711
1962.038
1954.364
1946.691
1939.017
1931.344
1923.670
1915.997
1908.323
1900.650
1892.976
1885.303
1877.629
1869.956
1862.282
1854.609
1846.935
1839.262
1831.588
1823.915
1816.241
1808.568
1800.894
1793.221
1785.547
1777.874
1770.200
1762.527
1754.853
1747.180
1739.506
1731.833
1724.159
1716.486
1708.812
1701.139
1693.465
1685.792
1678.118
1670.445
1662.771
1655.098
1647.424
1639.751
1632.077
1624.404
1616.730
1609.057
1601.383
1593.710
1586.036
1578.363
1570.689
1563.016
1555.342
1547.669
1539.995
1532.322
1524.648
1516.975
1509.301
1501.628
1493.954
1486.281
1478.607
1470.934
1463.260
1455.587
1447.913
1440.240
1432.566
1424.893
1417.219
1409.546
1401.872
1394.199
1386.525
1378.852
1371.178
1363.505
1355.831
1348.158
1340.484
1332.811
1325.137
1317.464
1309.790
1302.117
1294.443
1286.770
1279.096
1271.423
1263.749
1256.076
1248.402
1240.729
1233.055
1225.382
1217.708
1210.035
1202.361
1194.688
1187.014
1179.341
1171.667
1163.994
1156.320
1148.647
1140.973
1133.300
1125.626
1117.953
1110.279
1102.606
1094.932
1087.259
1079.585
1071.912
1064.238
1056.565
1048.891
1041.218
1033.544
1025.871
1018.197
1010.524
1002.850
995.177
987.503
979.830
972.156
964.483
956.809
949.136
941.462
933.789
926.115
918.442
910.768
903.095
895.421
887.748
880.074
872.401
864.727
857.054
849.380
841.707
834.033
826.360
818.686
811.013
803.339
795.666
787.992
780.319
772.645
764.972
757.298
749.625
741.951
734.278
726.604
718.931
711.257
703.584
695.910
688.237
680.563
672.890
665.216
657.543
649.869
642.196
634.522
626.849
619.175
611.502
603.828
596.155
588.481
580.808
573.134
565.461
557.787
550.114
542.440
534.767
527.093
519.420
511.746
504.073
