270.652
277.763
284.875
291.986
299.098
306.209
313.321
320.432
327.544
334.655
341.767
348.878
355.990
363.101
370.213
377.324
384.436
391.547
398.659
405.770
412.882
419.993
427.105
434.216
441.328
448.439
455.551
462.662
469.774
476.885
483.997
491.108
498.220
505.331
512.443
519.554
526.666
533.777
540.889
548.000
555.112
562.223
569.335
576.446
583.558
590.669
597.781
604.892
612.004
619.115
626.227
633.338
640.450
647.561
654.673
661.784
668.896
676.007
683.119
690.230
697.342
704.453
711.565
718.676
725.788
732.899
740.011
747.122
754.234
761.345
768.457
775.568
782.680
789.791
796.903
804.014
811.126
818.237
825.349
832.460
839.572
846.683
853.795
860.906
868.018
875.129
882.241
889.352
896.464
903.575
910.687
917.798
924.910
932.021
939.133
946.244
953.356
960.467
967.579
974.690
981.802
988.913
996.025
1003.136
1010.248
1017.359
1024.471
1031.582
1038.694
1045.805
1052.917
1060.028
1067.140
1074.251
1081.363
1088.474
1095.586
1102.697
1109.809
1116.920
1124.032
1131.143
1138.255
1145.366
1152.478
1159.589
1166.701
1173.812
1180.924
1188.035
1195.147
1202.258
1209.370
1216.481
1223.593
1230.704
1237.816
1244.927
1252.039
1259.150
1266.262
1273.373
1280.485
1287.596
1294.708
1301.819
1308.931
1316.042
1323.154
1330.265
1337.377
1344.488
1351.600
1358.711
1365.823
1372.934
1380.046
1387.157
1394.269
1401.380
1408.492
1415.603
1422.715
1429.826
1436.938
1444.049
1451.161
1458.272
1465.384
1472.495
1479.607
1486.718
1493.830
1500.941
1508.053
1515.164
1522.276
1529.387
1536.499
1543.610
1550.722
1557.833
1564.945
1572.056
1579.168
1586.279
1593.391
1600.502
1607.614
1614.725
1621.837
1628.948
1636.060
1643.171
1650.283
1657.394
1664.506
1671.617
1678.729
1685.840
1692.952
1698.793
1704.634
1710.475
1716.316
1722.157
1727.998
1733.839
1739.680
1745.521
1751.362
1757.203
1763.044
1768.885
1774.726
1780.567
1786.408
1792.249
1798.090
1803.931
1809.772
1815.613
1821.454
1827.295
1833.136
1838.977
1844.818
1850.659
1856.500
1862.341
1868.182
1874.023
1879.864
1885.705
1891.546
1897.387
1903.228
1909.069
1914.910
1920.751
1926.592
1932.433
1938.274
1944.115
1949.956
1955.797
1961.638
1967.479
1973.320
1979.161
1985.002
1990.843
1996.684
2002.525
2008.366
2014.207
2020.048
2025.889
2031.730
2037.571
2043.412
2049.253
2055.094
2060.935
2066.776
2072.617
2078.458
2084.299
2090.140
2095.981
2101.822
2107.663
2113.504
2119.345
2125.186
2131.027
2136.868
2142.709
2148.550
2154.391
2160.232
2166.073
2171.914
2177.755
2183.596
2189.437
2195.278
2201.119
2206.960
2212.801
2218.642
2224.483
2230.324
2236.165
2242.006
2247.847
2253.688
2259.529
2265.370
2271.211
2277.052
2282.893
2288.734
2294.575
2300.416
2306.257
2312.098
2317.939
2323.780
2329.621
2335.462
2341.303
2347.144
2352.985
2358.826
2364.667
2370.508
2376.349
2382.190
2388.031
2393.872
2399.713
2405.554
2411.395
2417.236
2423.077
2428.918
2434.759
2440.600
2446.441
2452.282
2458.123
2463.964
2469.805
2475.646
2481.487
2487.328
2493.169
2499.010
2504.851
2510.692
2516.533
2522.374
2528.215
2534.056
2539.897
2545.738
2551.579
2557.420
2563.261
2569.102
2574.943
2580.784
2586.625
2592.466
2598.307
2604.148
2609.989
2615.830
2621.671
2627.512
2633.353
2639.194
2645.035
2650.876
2656.717
2662.558
2668.399
2674.240
2680.081
2685.922
2691.763
2697.604
2703.445
2709.286
2715.127
2720.968
2726.809
2732.650
2738.491
2744.332
2750.173
2756.014
2761.855
2767.696
2773.537
2779.378
2785.219
2791.060
2796.901
2802.742
2808.583
2814.424
2820.265
2826.106
2831.947
2837.788
2843.629
2849.470
2855.311
2861.152
2860.321
2859.490
2858.659
2857.828
2856.997
2856.166
2855.335
2854.504
2853.673
2852.842
2852.011
2851.180
2850.349
2849.518
2848.687
2847.856
2847.025
2846.194
2845.363
2844.532
2843.701
2842.870
2842.039
2841.208
2840.377
2839.546
2838.715
2837.884
2837.053
2836.222
2835.391
2834.560
2833.729
2832.898
2832.067
2831.236
2830.405
2829.574
2828.743
2827.912
2827.081
2826.250
2825.419
2824.588
2823.757
2822.926
2822.095
2821.264
2820.433
2819.602
2818.771
2817.940
2817.109
2816.278
2815.447
2814.616
2813.785
2812.954
2812.123
2811.292
2810.461
2809.630
2808.799
2807.968
2807.137
2806.306
2805.475
2804.644
2803.813
2802.982
2802.151
2801.320
2800.489
2799.658
2798.827
2797.996
2797.165
2796.334
2795.503
2794.672
2793.841
2793.010
2792.179
2791.348
2790.517
2789.686
2788.855
2788.024
2787.193
2786.362
2785.531
2784.700
2783.869
2783.038
2782.207
2781.376
2780.545
2779.714
2778.883
2778.052
2777.221
2776.390
2775.559
2774.728
2773.897
2773.066
2772.235
2771.404
2770.573
2769.742
2768.911
2768.080
2767.249
2766.418
2765.587
2764.756
2763.925
2763.094
2762.263
2761.432
2760.601
2759.770
2758.939
2758.108
2757.277
2756.446
2755.615
2754.784
2753.953
2753.122
2752.291
2751.460
2750.629
2749.798
2748.967
2748.136
2747.305
2746.474
2745.643
2744.812
2743.981
2743.150
2742.319
2741.488
2740.657
2739.826
2738.995
2738.164
2737.333
2736.502
2735.671
2734.840
2734.009
2733.178
2732.347
2731.516
2730.685
2729.854
2729.023
2728.192
2727.361
2726.530
2725.699
2724.868
2724.037
2723.206
2722.375
2721.544
2720.713
2719.882
2719.051
2718.220
2717.389
2716.558
2715.727
2714.896
2714.065
2713.234
2712.403
2711.572
2710.741
2709.910
2709.079
2708.248
2707.417
2706.586
2705.755
2704.924
2704.093
2703.262
2702.431
2701.600
2700.769
2699.938
2699.107
2698.276
2697.445
2696.614
2695.783
2694.952
2689.209
2683.466
2677.723
2671.980
2666.237
2660.494
2654.751
2649.008
2643.265
2637.522
2631.779
2626.036
2620.293
2614.550
2608.807
2603.064
2597.321
2591.578
2585.835
2580.092
2574.349
2568.606
2562.863
2557.120
2551.377
2545.634
2539.891
2534.148
2528.405
2522.662
2516.919
2511.176
2505.433
2499.690
2493.947
2488.204
2482.461
2476.718
2470.975
2465.232
2459.489
2453.746
2448.003
2442.260
2436.517
2430.774
2425.031
2419.288
2413.545
2407.802
2402.059
2396.316
2390.573
2384.830
2379.087
2373.344
2367.601
2361.858
2356.115
2350.372
2344.629
2338.886
2333.143
2327.400
2321.657
2315.914
2310.171
2304.428
2298.685
2292.942
2287.199
2281.456
2275.713
2269.970
2264.227
2258.484
2252.741
2246.998
2241.255
2235.512
2229.769
2224.026
2218.283
2212.540
2206.797
2201.054
2195.311
2189.568
2183.825
2178.082
2172.339
2166.596
2160.853
2155.110
2149.367
2143.624
2137.881
2132.138
2126.395
2120.652
2114.909
2109.166
2103.423
2097.680
2091.937
2086.194
2080.451
2074.708
2068.965
2063.222
2057.479
2051.736
2045.993
2040.250
2034.507
2028.764
2023.021
2017.278
2011.535
2005.792
2000.049
1994.306
1988.563
1982.820
1977.077
1971.334
1965.591
1959.848
1954.105
1948.362
1942.619
1936.876
1931.133
1925.390
1919.647
1913.904
1908.161
1902.418
1896.675
1890.932
1885.189
1879.446
1873.703
1867.960
1862.217
1856.474
1850.731
1844.988
1839.245
1833.502
1827.759
1822.016
1816.273
1810.530
1804.787
1799.044
1793.301
1787.558
1781.815
1776.072
1770.329
1764.586
1758.843
1753.100
1747.357
1741.614
1735.871
1730.128
1724.385
1718.642
1712.899
1707.156
1701.413
1695.670
1689.927
1684.184
1678.441
1672.698
1666.955
1661.212
1655.469
1649.726
1643.983
1638.240
1632.497
1626.754
1621.011
1615.268
1609.525
1603.782
1598.039
1592.296
1586.553
1580.810
1575.067
1569.324
1563.581
1557.838
1552.095
1546.352
1548.967
1551.582
1554.197
1556.812
1559.427
1562.042
1564.657
1567.272
1569.887
1572.502
1575.117
1577.732
1580.347
1582.962
1585.577
1588.192
1590.807
1593.422
1596.037
1598.652
1601.267
1603.882
1606.497
1609.112
1611.727
1614.342
1616.957
1619.572
1622.187
1624.802
1627.417
1630.032
1632.647
1635.262
1637.877
1640.492
1643.107
1645.722
1648.337
1650.952
1653.567
1656.182
1658.797
1661.412
1664.027
1666.642
1669.257
1671.872
1674.487
1677.102
1679.717
1682.332
1684.947
1687.562
1690.177
1692.792
1695.407
1698.022
1700.637
1703.252
1705.867
1708.482
1711.097
1713.712
1716.327
1718.942
1721.557
1724.172
1726.787
1729.402
1732.017
1734.632
1737.247
1739.862
1742.477
1745.092
1747.707
1750.322
1752.937
1755.552
1758.167
1760.782
1763.397
1766.012
1768.627
1771.242
1773.857
1776.472
1779.087
1781.702
1784.317
1786.932
1789.547
1792.162
1794.777
1797.392
1800.007
1802.622
1805.237
1807.852
1810.467
1813.082
1815.697
1818.312
1820.927
1823.542
1826.157
1828.772
1831.387
1834.002
1836.617
1839.232
1841.847
1844.462
1847.077
1849.692
1852.307
1854.922
1857.537
1860.152
1862.767
1865.382
1867.997
1870.612
1873.227
1875.842
1878.457
1881.072
1883.687
1886.302
1888.917
1891.532
1894.147
1896.762
1899.377
1901.992
1904.607
1907.222
1909.837
1912.452
1915.067
1917.682
1920.297
1922.912
1925.527
1928.142
1930.757
1933.372
1935.987
1938.602
1941.217
1943.832
1946.447
1949.062
1951.677
1954.292
1956.907
1959.522
1962.137
1964.752
1967.367
1969.982
1972.597
1975.212
1977.827
1980.442
1983.057
1985.672
1988.287
1990.902
1993.517
1996.132
1998.747
2001.362
2003.977
2006.592
2009.207
2011.822
2014.437
2017.052
2019.667
2022.282
2024.897
2027.512
2030.127
2032.742
2035.357
2037.972
2040.587
2043.202
2045.817
2048.432
2051.047
2053.662
2056.277
2058.892
2061.507
2064.122
2066.737
2069.352
2070.940
2072.529
2074.117
2075.706
2077.294
2078.883
2080.471
2082.060
2083.648
2085.237
2086.825
2088.414
2090.002
2091.591
2093.179
2094.768
2096.356
2097.945
2099.533
2101.122
2102.710
2104.299
2105.887
2107.476
2109.064
2110.653
2112.241
2113.830
2115.418
2117.007
2118.595
2120.184
2121.772
2123.361
2124.949
2126.538
2128.126
2129.715
2131.303
2132.892
2134.480
2136.069
2137.657
2139.246
2140.834
2142.423
2144.011
2145.600
2147.188
2148.777
2150.365
2151.954
2153.542
2155.131
2156.719
2158.308
2159.896
2161.485
2163.073
2164.662
2166.250
2167.839
2169.427
2171.016
2172.604
2174.193
2175.781
2177.370
2178.958
2180.547
2182.135
2183.724
2185.312
2186.901
2188.489
2190.078
2191.666
2193.255
2194.843
2196.432
2198.020
2199.609
2201.197
2202.786
2204.374
2205.963
2207.551
2209.140
2210.728
2212.317
2213.905
2215.494
2217.082
2218.671
2220.259
2221.848
2223.436
2225.025
2226.613
2228.202
2229.790
2231.379
2232.967
2234.556
2236.144
2237.733
2239.321
2240.910
2242.498
2244.087
2245.675
2247.264
2248.852
2250.441
2252.029
2253.618
2255.206
2256.795
2258.383
2259.972
2261.560
2263.149
2264.737
2266.326
2267.914
2269.503
2271.091
2272.680
2274.268
2275.857
2277.445
2279.034
2280.622
2282.211
2283.799
2285.388
2286.976
2288.565
2290.153
2291.742
2293.330
2294.919
2296.507
2298.096
2299.684
2301.273
2302.861
2304.450
2306.038
2307.627
2309.215
2310.804
2312.392
2313.981
2315.569
2317.158
2318.746
2320.335
2321.923
2323.512
2325.100
2326.689
2328.277
2329.866
2331.454
2333.043
2334.631
2336.220
2337.808
2339.397
2340.985
2342.574
2344.162
2345.751
2347.339
2348.928
2350.516
2352.105
2353.693
2355.282
2356.870
2358.459
2360.047
2361.636
2363.224
2364.813
2366.401
2367.990
2369.578
2371.167
2372.755
2374.344
2375.932
2377.521
2379.109
2380.698
2382.286
2383.875
2385.463
2387.052
2385.316
2383.581
2381.845
2380.110
2378.374
2376.639
2374.903
2373.168
2371.432
2369.697
2367.961
2366.226
2364.490
2362.755
2361.019
2359.284
2357.548
2355.813
2354.077
2352.342
2350.606
2348.871
2347.135
2345.400
2343.664
2341.929
2340.193
2338.458
2336.722
2334.987
2333.251
2331.516
2329.780
2328.045
2326.309
2324.574
2322.838
2321.103
2319.367
2317.632
2315.896
2314.161
2312.425
2310.690
2308.954
2307.219
2305.483
2303.748
2302.012
2300.277
2298.541
2296.806
2295.070
2293.335
2291.599
2289.864
2288.128
2286.393
2284.657
2282.922
2281.186
2279.451
2277.715
2275.980
2274.244
2272.509
2270.773
2269.038
2267.302
2265.567
2263.831
2262.096
2260.360
2258.625
2256.889
2255.154
2253.418
2251.683
2249.947
2248.212
2246.476
2244.741
2243.005
2241.270
2239.534
2237.799
2236.063
2234.328
2232.592
2230.857
2229.121
2227.386
2225.650
2223.915
2222.179
2220.444
2218.708
2216.973
2215.237
2213.502
2211.766
2210.031
2208.295
2206.560
2204.824
2203.089
2201.353
2199.618
2197.882
2196.147
2194.411
2192.676
2190.940
2189.205
2187.469
2185.734
2183.998
2182.263
2180.527
2178.792
2177.056
2175.321
2173.585
2171.850
2170.114
2168.379
2166.643
2164.908
2163.172
2161.437
2159.701
2157.966
2156.230
2154.495
2152.759
2151.024
2149.288
2147.553
2145.817
2144.082
2142.346
2140.611
2138.875
2137.140
2135.404
2133.669
2131.933
2130.198
2128.462
2126.727
2124.991
2123.256
2121.520
2119.785
2118.049
2116.314
2114.578
2112.843
2111.107
2109.372
2107.636
2105.901
2104.165
2102.430
2100.694
2098.959
2097.223
2095.488
2093.752
2092.017
2090.281
2088.546
2086.810
2085.075
2083.339
2081.604
2079.868
2078.133
2076.397
2074.662
2072.926
2071.191
2069.455
2067.720
2065.984
2064.249
2062.513
2060.778
2059.042
2057.307
2055.571
2053.836
2052.100
2050.365
2048.629
2046.894
2045.158
2043.423
2041.687
2039.952
2043.838
2047.724
2051.610
2055.496
2059.382
2063.268
2067.154
2071.040
2074.926
2078.812
2082.698
2086.584
2090.470
2094.356
2098.242
2102.128
2106.014
2109.900
2113.786
2117.672
2121.558
2125.444
2129.330
2133.216
2137.102
2140.988
2144.874
2148.760
2152.646
2156.532
2160.418
2164.304
2168.190
2172.076
2175.962
2179.848
2183.734
2187.620
2191.506
2195.392
2199.278
2203.164
2207.050
2210.936
2214.822
2218.708
2222.594
2226.480
2230.366
2234.252
2238.138
2242.024
2245.910
2249.796
2253.682
2257.568
2261.454
2265.340
2269.226
2273.112
2276.998
2280.884
2284.770
2288.656
2292.542
2296.428
2300.314
2304.200
2308.086
2311.972
2315.858
2319.744
2323.630
2327.516
2331.402
2335.288
2339.174
2343.060
2346.946
2350.832
2354.718
2358.604
2362.490
2366.376
2370.262
2374.148
2378.034
2381.920
2385.806
2389.692
2393.578
2397.464
2401.350
2405.236
2409.122
2413.008
2416.894
2420.780
2424.666
2428.552
2432.438
2436.324
2440.210
2444.096
2447.982
2451.868
2455.754
2459.640
2463.526
2467.412
2471.298
2475.184
2479.070
2482.956
2486.842
2490.728
2494.614
2498.500
2502.386
2506.272
2510.158
2514.044
2517.930
2521.816
2525.702
2529.588
2533.474
2537.360
2541.246
2545.132
2549.018
2552.904
2556.790
2560.676
2564.562
2568.448
2572.334
2576.220
2580.106
2583.992
2587.878
2591.764
2595.650
2599.536
2603.422
2607.308
2611.194
2615.080
2618.966
2622.852
2626.738
2630.624
2634.510
2638.396
2642.282
2646.168
2650.054
2653.940
2657.826
2661.712
2665.598
2669.484
2673.370
2677.256
2681.142
2685.028
2688.914
2692.800
2696.686
2700.572
2704.458
2708.344
2712.230
2716.116
2720.002
2723.888
2727.774
2731.660
2735.546
2739.432
2743.318
2747.204
2751.090
2754.976
2758.862
2762.748
2766.634
2770.520
2774.406
2778.292
2782.178
2786.064
2789.950
2793.836
2797.722
2801.608
2805.494
2809.380
2813.266
2817.152
2815.661
2814.170
2812.679
2811.188
2809.697
2808.206
2806.715
2805.224
2803.733
2802.242
2800.751
2799.260
2797.769
2796.278
2794.787
2793.296
2791.805
2790.314
2788.823
2787.332
2785.841
2784.350
2782.859
2781.368
2779.877
2778.386
2776.895
2775.404
2773.913
2772.422
2770.931
2769.440
2767.949
2766.458
2764.967
2763.476
2761.985
2760.494
2759.003
2757.512
2756.021
2754.530
2753.039
2751.548
2750.057
2748.566
2747.075
2745.584
2744.093
2742.602
2741.111
2739.620
2738.129
2736.638
2735.147
2733.656
2732.165
2730.674
2729.183
2727.692
2726.201
2724.710
2723.219
2721.728
2720.237
2718.746
2717.255
2715.764
2714.273
2712.782
2711.291
2709.800
2708.309
2706.818
2705.327
2703.836
2702.345
2700.854
2699.363
2697.872
2696.381
2694.890
2693.399
2691.908
2690.417
2688.926
2687.435
2685.944
2684.453
2682.962
2681.471
2679.980
2678.489
2676.998
2675.507
2674.016
2672.525
2671.034
2669.543
2668.052
2666.561
2665.070
2663.579
2662.088
2660.597
2659.106
2657.615
2656.124
2654.633
2653.142
2651.651
2650.160
2648.669
2647.178
2645.687
2644.196
2642.705
2641.214
2639.723
2638.232
2636.741
2635.250
2633.759
2632.268
2630.777
2629.286
2627.795
2626.304
2624.813
2623.322
2621.831
2620.340
2618.849
2617.358
2615.867
2614.376
2612.885
2611.394
2609.903
2608.412
2606.921
2605.430
2603.939
2602.448
2600.957
2599.466
2597.975
2596.484
2594.993
2593.502
2592.011
2590.520
2589.029
2587.538
2586.047
2584.556
2583.065
2581.574
2580.083
2578.592
2577.101
2575.610
2574.119
2572.628
2571.137
2569.646
2568.155
2566.664
2565.173
2563.682
2562.191
2560.700
2559.209
2557.718
2556.227
2554.736
2553.245
2551.754
2550.263
2548.772
2547.281
2545.790
2544.299
2542.808
2541.317
2539.826
2538.335
2536.844
2535.353
2533.862
2532.371
2530.880
2529.389
2527.898
2526.407
2524.916
2523.425
2521.934
2520.443
2518.952
2516.142
2513.332
2510.522
2507.712
2504.902
2502.092
2499.282
2496.472
2493.662
2490.852
2488.042
2485.232
2482.422
2479.612
2476.802
2473.992
2471.182
2468.372
2465.562
2462.752
2459.942
2457.132
2454.322
2451.512
2448.702
2445.892
2443.082
2440.272
2437.462
2434.652
2431.842
2429.032
2426.222
2423.412
2420.602
2417.792
2414.982
2412.172
2409.362
2406.552
2403.742
2400.932
2398.122
2395.312
2392.502
2389.692
2386.882
2384.072
2381.262
2378.452
2375.642
2372.832
2370.022
2367.212
2364.402
2361.592
2358.782
2355.972
2353.162
2350.352
2347.542
2344.732
2341.922
2339.112
2336.302
2333.492
2330.682
2327.872
2325.062
2322.252
2319.442
2316.632
2313.822
2311.012
2308.202
2305.392
2302.582
2299.772
2296.962
2294.152
2291.342
2288.532
2285.722
2282.912
2280.102
2277.292
2274.482
2271.672
2268.862
2266.052
2263.242
2260.432
2257.622
2254.812
2252.002
2249.192
2246.382
2243.572
2240.762
2237.952
2235.142
2232.332
2229.522
2226.712
2223.902
2221.092
2218.282
2215.472
2212.662
2209.852
2207.042
2204.232
2201.422
2198.612
2195.802
2192.992
2190.182
2187.372
2184.562
2181.752
2178.942
2176.132
2173.322
2170.512
2167.702
2164.892
2162.082
2159.272
2156.462
2153.652
2150.842
2148.032
2145.222
2142.412
2139.602
2136.792
2133.982
2131.172
2128.362
2125.552
2122.742
2119.932
2117.122
2114.312
2111.502
2108.692
2105.882
2103.072
2100.262
2097.452
2094.642
2091.832
2089.022
2086.212
2083.402
2080.592
2077.782
2074.972
2072.162
2069.352
2066.542
2063.732
2060.922
2058.112
2055.302
2052.492
2049.682
2046.872
2044.062
2041.252
2038.442
2035.632
2032.822
2030.012
2027.202
2024.392
2021.582
2018.772
2015.962
2013.152
2010.342
2007.532
2004.722
2001.912
1999.102
1996.292
1993.482
1990.672
1987.862
1985.052
1982.242
1979.432
1976.622
1973.812
1971.002
1968.192
1965.382
1962.572
1959.762
