758.687
763.990
769.293
774.596
779.899
785.202
790.505
795.808
801.111
806.414
811.717
817.020
822.323
827.626
832.929
838.232
843.535
848.838
854.141
859.444
864.747
870.050
875.353
880.656
885.959
891.262
896.565
901.868
907.171
912.474
917.777
923.080
928.383
933.686
938.989
944.292
949.595
954.898
960.201
965.504
970.807
976.110
981.413
986.716
992.019
997.322
1002.625
1007.928
1013.231
1018.534
1023.837
1029.140
1034.443
1039.746
1045.049
1050.352
1055.655
1060.958
1066.261
1071.564
1076.867
1082.170
1087.473
1092.776
1098.079
1103.382
1108.685
1113.988
1119.291
1124.594
1129.897
1135.200
1140.503
1145.806
1151.109
1156.412
1161.715
1167.018
1172.321
1177.624
1182.927
1188.230
1193.533
1198.836
1204.139
1209.442
1214.745
1220.048
1225.351
1230.654
1235.957
1241.260
1246.563
1251.866
1257.169
1262.472
1267.775
1273.078
1278.381
1283.684
1288.987
1294.290
1299.593
1304.896
1310.199
1315.502
1320.805
1326.108
1331.411
1336.714
1342.017
1347.320
1352.623
1357.926
1363.229
1368.532
1373.835
1379.138
1384.441
1389.744
1395.047
1400.350
1405.653
1410.956
1416.259
1421.562
1426.865
1432.168
1437.471
1442.774
1448.077
1453.380
1458.683
1463.986
1469.289
1474.592
1479.895
1485.198
1490.501
1495.804
1501.107
1506.410
1511.713
1517.016
1522.319
1527.622
1532.925
1538.228
1543.531
1548.834
1554.137
1559.440
1564.743
1570.046
1575.349
1580.652
1585.955
1591.258
1596.561
1601.864
1607.167
1612.470
1617.773
1623.076
1628.379
1633.682
1638.985
1644.288
1649.591
1654.894
1660.197
1665.500
1670.803
1676.106
1681.409
1686.712
1692.015
1697.318
1702.621
1707.924
1713.227
1718.530
1723.833
1729.136
1734.439
1739.742
1745.045
1750.348
1755.651
1760.954
1766.257
1771.560
1776.863
1782.166
1787.469
1792.772
1798.075
1803.378
1808.681
1813.984
1819.287
1819.018
1818.749
1818.480
1818.211
1817.942
1817.673
1817.404
1817.135
1816.866
1816.597
1816.328
1816.059
1815.790
1815.521
1815.252
1814.983
1814.714
1814.445
1814.176
1813.907
1813.638
1813.369
1813.100
1812.831
1812.562
1812.293
1812.024
1811.755
1811.486
1811.217
1810.948
1810.679
1810.410
1810.141
1809.872
1809.603
1809.334
1809.065
1808.796
1808.527
1808.258
1807.989
1807.720
1807.451
1807.182
1806.913
1806.644
1806.375
1806.106
1805.837
1805.568
1805.299
1805.030
1804.761
1804.492
1804.223
1803.954
1803.685
1803.416
1803.147
1802.878
1802.609
1802.340
1802.071
1801.802
1801.533
1801.264
1800.995
1800.726
1800.457
1800.188
1799.919
1799.650
1799.381
1799.112
1798.843
1798.574
1798.305
1798.036
1797.767
1797.498
1797.229
1796.960
1796.691
1796.422
1796.153
1795.884
1795.615
1795.346
1795.077
1794.808
1794.539
1794.270
1794.001
1793.732
1793.463
1793.194
1792.925
1792.656
1792.387
1792.118
1791.849
1791.580
1791.311
1791.042
1790.773
1790.504
1790.235
1789.966
1789.697
1789.428
1789.159
1788.890
1788.621
1788.352
1788.083
1787.814
1787.545
1787.276
1787.007
1786.738
1786.469
1786.200
1785.931
1785.662
1785.393
1785.124
1784.855
1784.586
1784.317
1784.048
1783.779
1783.510
1783.241
1782.972
1782.703
1782.434
1782.165
1781.896
1781.627
1781.358
1781.089
1780.820
1780.551
1780.282
1780.013
1779.744
1779.475
1779.206
1778.937
1778.668
1778.399
1778.130
1777.861
1777.592
1777.323
1777.054
1776.785
1776.516
1776.247
1775.978
1775.709
1775.440
1775.171
1774.902
1774.633
1774.364
1774.095
1773.826
1773.557
1773.288
1773.019
1772.750
1772.481
1772.212
1771.943
1771.674
1771.405
1771.136
1770.867
1770.598
1770.329
1770.060
1769.791
1769.522
1769.253
1768.984
1768.715
1768.446
1768.177
1767.908
1767.639
1767.370
1767.101
1766.832
1766.563
1766.294
1766.025
1765.756
1765.487
1765.243
1764.999
1764.755
1764.511
1764.267
1764.023
1763.779
1763.535
1763.291
1763.047
1762.803
1762.559
1762.315
1762.071
1761.827
1761.583
1761.339
1761.095
1760.851
1760.607
1760.363
1760.119
1759.875
1759.631
1759.387
1759.143
1758.899
1758.655
1758.411
1758.167
1757.923
1757.679
1757.435
1757.191
1756.947
1756.703
1756.459
1756.215
1755.971
1755.727
1755.483
1755.239
1754.995
1754.751
1754.507
1754.263
1754.019
1753.775
1753.531
1753.287
1753.043
1752.799
1752.555
1752.311
1752.067
1751.823
1751.579
1751.335
1751.091
1750.847
1750.603
1750.359
1750.115
1749.871
1749.627
1749.383
1749.139
1748.895
1748.651
1748.407
1748.163
1747.919
1747.675
1747.431
1747.187
1746.943
1746.699
1746.455
1746.211
1745.967
1745.723
1745.479
1745.235
1744.991
1744.747
1744.503
1744.259
1744.015
1743.771
1743.527
1743.283
1743.039
1742.795
1742.551
1742.307
1742.063
1741.819
1741.575
1741.331
1741.087
1740.843
1740.599
1740.355
1740.111
1739.867
1739.623
1739.379
1739.135
1738.891
1738.647
1738.403
1738.159
1737.915
1737.671
1737.427
1737.183
1736.939
1736.695
1736.451
1736.207
1735.963
1735.719
1735.475
1735.231
1734.987
1734.743
1734.499
1734.255
1734.011
1733.767
1733.523
1733.279
1733.035
1732.791
1732.547
1732.303
1732.059
1731.815
1731.571
1731.327
1731.083
1730.839
1730.595
1730.351
1730.107
1729.863
1729.619
1729.375
1729.131
1728.887
1728.643
1728.399
1728.155
1727.911
1727.667
1727.423
1727.179
1726.935
1726.691
1726.447
1726.203
1725.959
1725.715
1725.471
1725.227
1724.983
1724.739
1724.495
1724.251
1724.007
1723.763
1723.519
1723.275
1723.031
1722.787
1722.543
1722.299
1722.055
1721.811
1721.567
1721.323
1721.079
1720.835
1720.591
1720.347
1720.103
1719.859
1719.615
1719.371
1719.127
1718.883
1718.639
1718.395
1718.151
1717.907
1717.663
1717.419
1717.175
1716.931
1716.687
1718.910
1721.134
1723.357
1725.581
1727.804
1730.028
1732.251
1734.475
1736.698
1738.922
1741.145
1743.369
1745.592
1747.816
1750.039
1752.263
1754.486
1756.710
1758.933
1761.157
1763.380
1765.604
1767.827
1770.051
1772.274
1774.498
1776.721
1778.945
1781.168
1783.392
1785.615
1787.839
1790.062
1792.286
1794.509
1796.733
1798.956
1801.180
1803.403
1805.627
1807.850
1810.074
1812.297
1814.521
1816.744
1818.968
1821.191
1823.415
1825.638
1827.862
1830.085
1832.309
1834.532
1836.756
1838.979
1841.203
1843.426
1845.650
1847.873
1850.097
1852.320
1854.544
1856.767
1858.991
1861.214
1863.438
1865.661
1867.885
1870.108
1872.332
1874.555
1876.779
1879.002
1881.226
1883.449
1885.673
1887.896
1890.120
1892.343
1894.567
1896.790
1899.014
1901.237
1903.461
1905.684
1907.908
1910.131
1912.355
1914.578
1916.802
1919.025
1921.249
1923.472
1925.696
1927.919
1930.143
1932.366
1934.590
1936.813
1939.037
1941.260
1943.484
1945.707
1947.931
1950.154
1952.378
1954.601
1956.825
1959.048
1961.272
1963.495
1965.719
1967.942
1970.166
1972.389
1974.613
1976.836
1979.060
1981.283
1983.507
1985.730
1987.954
1990.177
1992.401
1994.624
1996.848
1999.071
2001.295
2003.518
2005.742
2007.965
2010.189
2012.412
2014.636
2016.859
2019.083
2021.306
2023.530
2025.753
2027.977
2030.200
2032.424
2034.647
2036.871
2039.094
2041.318
2043.541
2045.765
2047.988
2050.212
2052.435
2054.659
2056.882
2059.106
2061.329
2063.553
2065.776
2068.000
2070.223
2072.447
2074.670
2076.894
2079.117
2081.341
2083.564
2085.788
2088.011
2090.235
2092.458
2094.682
2096.905
2099.129
2101.352
2103.576
2105.799
2108.023
2110.246
2112.470
2114.693
2116.917
2119.140
2121.364
2123.587
2125.811
2128.034
2130.258
2132.481
2134.705
2136.928
2139.152
2141.375
2143.599
2145.822
2148.046
2150.269
2152.493
2154.716
2156.940
2159.163
2161.387
2160.605
2159.823
2159.041
2158.259
2157.477
2156.695
2155.913
2155.131
2154.349
2153.567
2152.785
2152.003
2151.221
2150.439
2149.657
2148.875
2148.093
2147.311
2146.529
2145.747
2144.965
2144.183
2143.401
2142.619
2141.837
2141.055
2140.273
2139.491
2138.709
2137.927
2137.145
2136.363
2135.581
2134.799
2134.017
2133.235
2132.453
2131.671
2130.889
2130.107
2129.325
2128.543
2127.761
2126.979
2126.197
2125.415
2124.633
2123.851
2123.069
2122.287
2121.505
2120.723
2119.941
2119.159
2118.377
2117.595
2116.813
2116.031
2115.249
2114.467
2113.685
2112.903
2112.121
2111.339
2110.557
2109.775
2108.993
2108.211
2107.429
2106.647
2105.865
2105.083
2104.301
2103.519
2102.737
2101.955
2101.173
2100.391
2099.609
2098.827
2098.045
2097.263
2096.481
2095.699
2094.917
2094.135
2093.353
2092.571
2091.789
2091.007
2090.225
2089.443
2088.661
2087.879
2087.097
2086.315
2085.533
2084.751
2083.969
2083.187
2082.405
2081.623
2080.841
2080.059
2079.277
2078.495
2077.713
2076.931
2076.149
2075.367
2074.585
2073.803
2073.021
2072.239
2071.457
2070.675
2069.893
2069.111
2068.329
2067.547
2066.765
2065.983
2065.201
2064.419
2063.637
2062.855
2062.073
2061.291
2060.509
2059.727
2058.945
2058.163
2057.381
2056.599
2055.817
2055.035
2054.253
2053.471
2052.689
2051.907
2051.125
2050.343
2049.561
2048.779
2047.997
2047.215
2046.433
2045.651
2044.869
2044.087
2043.305
2042.523
2041.741
2040.959
2040.177
2039.395
2038.613
2037.831
2037.049
2036.267
2035.485
2034.703
2033.921
2033.139
2032.357
2031.575
2030.793
2030.011
2029.229
2028.447
2027.665
2026.883
2026.101
2025.319
2024.537
2023.755
2022.973
2022.191
2021.409
2020.627
2019.845
2019.063
2018.281
2017.499
2016.717
2015.935
2015.153
2014.371
2013.589
2012.807
2012.025
2011.243
2010.461
2009.679
2008.897
2008.115
2007.333
2006.551
2005.769
2004.987
2003.618
2002.250
2000.881
1999.513
1998.144
1996.776
1995.407
1994.039
1992.670
1991.302
1989.933
1988.565
1987.196
1985.828
1984.459
1983.091
1981.722
1980.354
1978.985
1977.617
1976.248
1974.880
1973.511
1972.143
1970.774
1969.406
1968.037
1966.669
1965.300
1963.932
1962.563
1961.195
1959.826
1958.458
1957.089
1955.721
1954.352
1952.984
1951.615
1950.247
1948.878
1947.510
1946.141
1944.773
1943.404
1942.036
1940.667
1939.299
1937.930
1936.562
1935.193
1933.825
1932.456
1931.088
1929.719
1928.351
1926.982
1925.614
1924.245
1922.877
1921.508
1920.140
1918.771
1917.403
1916.034
1914.666
1913.297
1911.929
1910.560
1909.192
1907.823
1906.455
1905.086
1903.718
1902.349
1900.981
1899.612
1898.244
1896.875
1895.507
1894.138
1892.770
1891.401
1890.033
1888.664
1887.296
1885.927
1884.559
1883.190
1881.822
1880.453
1879.085
1877.716
1876.348
1874.979
1873.611
1872.242
1870.874
1869.505
1868.137
1866.768
1865.400
1864.031
1862.663
1861.294
1859.926
1858.557
1857.189
1855.820
1854.452
1853.083
1851.715
1850.346
1848.978
1847.609
1846.241
1844.872
1843.504
1842.135
1840.767
1839.398
1838.030
1836.661
1835.293
1833.924
1832.556
1831.187
1829.819
1828.450
1827.082
1825.713
1824.345
1822.976
1821.608
1820.239
1818.871
1817.502
1816.134
1814.765
1813.397
1812.028
1810.660
1809.291
1807.923
1806.554
1805.186
1803.817
1802.449
1801.080
1799.712
1798.343
1796.975
1795.606
1794.238
1792.869
1791.501
1790.132
1788.764
1787.395
1786.027
1784.658
1783.290
1781.921
1780.553
1779.184
1777.816
1776.447
1775.079
1773.710
1772.342
1770.973
1769.605
1768.236
1766.868
1765.499
1764.131
1762.762
1761.394
1760.025
1758.657
1757.288
1755.920
1754.551
1753.183
1751.814
1750.446
1749.077
1747.709
1746.340
1744.972
1743.603
1742.235
1740.866
1739.498
1738.129
1736.761
1735.392
1734.024
1732.655
1731.287
1733.413
1735.540
1737.666
1739.793
1741.919
1744.046
1746.172
1748.299
1750.425
1752.552
1754.678
1756.805
1758.931
1761.058
1763.184
1765.311
1767.437
1769.564
1771.690
1773.817
1775.943
1778.070
1780.196
1782.323
1784.449
1786.576
1788.702
1790.829
1792.955
1795.082
1797.208
1799.335
1801.461
1803.588
1805.714
1807.841
1809.967
1812.094
1814.220
1816.347
1818.473
1820.600
1822.726
1824.853
1826.979
1829.106
1831.232
1833.359
1835.485
1837.612
1839.738
1841.865
1843.991
1846.118
1848.244
1850.371
1852.497
1854.624
1856.750
1858.877
1861.003
1863.130
1865.256
1867.383
1869.509
1871.636
1873.762
1875.889
1878.015
1880.142
1882.268
1884.395
1886.521
1888.648
1890.774
1892.901
1895.027
1897.154
1899.280
1901.407
1903.533
1905.660
1907.786
1909.913
1912.039
1914.166
1916.292
1918.419
1920.545
1922.672
1924.798
1926.925
1929.051
1931.178
1933.304
1935.431
1937.557
1939.684
1941.810
1943.937
1946.063
1948.190
1950.316
1952.443
1954.569
1956.696
1958.822
1960.949
1963.075
1965.202
1967.328
1969.455
1971.581
1973.708
1975.834
1977.961
1980.087
1982.214
1984.340
1986.467
1988.593
1990.720
1992.846
1994.973
1997.099
1999.226
2001.352
2003.479
2005.605
2007.732
2009.858
2011.985
2014.111
2016.238
2018.364
2020.491
2022.617
2024.744
2026.870
2028.997
2031.123
2033.250
2035.376
2037.503
2039.629
2041.756
2043.882
2046.009
2048.135
2050.262
2052.388
2054.515
2056.641
2058.768
2060.894
2063.021
2065.147
2067.274
2069.400
2071.527
2073.653
2075.780
2077.906
2080.033
2082.159
2084.286
2086.412
2088.539
2090.665
2092.792
2094.918
2097.045
2099.171
2101.298
2103.424
2105.551
2107.677
2109.804
2111.930
2114.057
2116.183
2118.310
2120.436
2122.563
2124.689
2126.816
2128.942
2131.069
2133.195
2135.322
2137.448
2139.575
2141.701
2143.828
2145.954
2148.081
2150.207
2152.334
2154.460
2156.587
2152.994
2149.402
2145.809
2142.217
2138.624
2135.032
2131.439
2127.847
2124.254
2120.662
2117.069
2113.477
2109.884
2106.292
2102.699
2099.107
2095.514
2091.922
2088.329
2084.737
2081.144
2077.552
2073.959
2070.367
2066.774
2063.182
2059.589
2055.997
2052.404
2048.812
2045.219
2041.627
2038.034
2034.442
2030.849
2027.257
2023.664
2020.072
2016.479
2012.887
2009.294
2005.702
2002.109
1998.517
1994.924
1991.332
1987.739
1984.147
1980.554
1976.962
1973.369
1969.777
1966.184
1962.592
1958.999
1955.407
1951.814
1948.222
1944.629
1941.037
1937.444
1933.852
1930.259
1926.667
1923.074
1919.482
1915.889
1912.297
1908.704
1905.112
1901.519
1897.927
1894.334
1890.742
1887.149
1883.557
1879.964
1876.372
1872.779
1869.187
1865.594
1862.002
1858.409
1854.817
1851.224
1847.632
1844.039
1840.447
1836.854
1833.262
1829.669
1826.077
1822.484
1818.892
1815.299
1811.707
1808.114
1804.522
1800.929
1797.337
1793.744
1790.152
1786.559
1782.967
1779.374
1775.782
1772.189
1768.597
1765.004
1761.412
1757.819
1754.227
1750.634
1747.042
1743.449
1739.857
1736.264
1732.672
1729.079
1725.487
1721.894
1718.302
1714.709
1711.117
1707.524
1703.932
1700.339
1696.747
1693.154
1689.562
1685.969
1682.377
1678.784
1675.192
1671.599
1668.007
1664.414
1660.822
1657.229
1653.637
1650.044
1646.452
1642.859
1639.267
1635.674
1632.082
1628.489
1624.897
1621.304
1617.712
1614.119
1610.527
1606.934
1603.342
1599.749
1596.157
1592.564
1588.972
1585.379
1581.787
1578.194
1574.602
1571.009
1567.417
1563.824
1560.232
1556.639
1553.047
1549.454
1545.862
1542.269
1538.677
1535.084
1531.492
1527.899
1524.307
1520.714
1517.122
1513.529
1509.937
1506.344
1502.752
1499.159
1495.567
1491.974
1488.382
1484.789
1481.197
1477.604
1474.012
1470.419
1466.827
1463.234
1459.642
1456.049
1452.457
1448.864
1445.272
1441.679
1438.087
1438.404
1438.722
1439.039
1439.357
1439.674
1439.992
1440.309
1440.627
1440.944
1441.262
1441.579
1441.897
1442.214
1442.532
1442.849
1443.167
1443.484
1443.802
1444.119
1444.437
1444.754
1445.072
1445.389
1445.707
1446.024
1446.342
1446.659
1446.977
1447.294
1447.612
1447.929
1448.247
1448.564
1448.882
1449.199
1449.517
1449.834
1450.152
1450.469
1450.787
1451.104
1451.422
1451.739
1452.057
1452.374
1452.692
1453.009
1453.327
1453.644
1453.962
1454.279
1454.597
1454.914
1455.232
1455.549
1455.867
1456.184
1456.502
1456.819
1457.137
1457.454
1457.772
1458.089
1458.407
1458.724
1459.042
1459.359
1459.677
1459.994
1460.312
1460.629
1460.947
1461.264
1461.582
1461.899
1462.217
1462.534
1462.852
1463.169
1463.487
1463.804
1464.122
1464.439
1464.757
1465.074
1465.392
1465.709
1466.027
1466.344
1466.662
1466.979
1467.297
1467.614
1467.932
1468.249
1468.567
1468.884
1469.202
1469.519
1469.837
1470.154
1470.472
1470.789
1471.107
1471.424
1471.742
1472.059
1472.377
1472.694
1473.012
1473.329
1473.647
1473.964
1474.282
1474.599
1474.917
1475.234
1475.552
1475.869
1476.187
1476.504
1476.822
1477.139
1477.457
1477.774
1478.092
1478.409
1478.727
1479.044
1479.362
1479.679
1479.997
1480.314
1480.632
1480.949
1481.267
1481.584
1481.902
1482.219
1482.537
1482.854
1483.172
1483.489
1483.807
1484.124
1484.442
1484.759
1485.077
1485.394
1485.712
1486.029
1486.347
1486.664
1486.982
1487.299
1487.617
1487.934
1488.252
1488.569
1488.887
1489.204
1489.522
1489.839
1490.157
1490.474
1490.792
1491.109
1491.427
1491.744
1492.062
1492.379
1492.697
1493.014
1493.332
1493.649
1493.967
1494.284
1494.602
1494.919
1495.237
1495.554
1495.872
1496.189
1496.507
1496.824
1497.142
1497.459
1497.777
1498.094
1498.412
1498.729
1499.047
1499.364
1499.682
1499.999
1500.317
1500.634
1500.952
1501.269
1501.587
1496.333
1491.079
1485.825
1480.571
1475.317
1470.063
1464.809
1459.555
1454.301
1449.047
1443.793
1438.539
1433.285
1428.031
1422.777
1417.523
1412.269
1407.015
1401.761
1396.507
1391.253
1385.999
1380.745
1375.491
1370.237
1364.983
1359.729
1354.475
1349.221
1343.967
1338.713
1333.459
1328.205
1322.951
1317.697
1312.443
1307.189
1301.935
1296.681
1291.427
1286.173
1280.919
1275.665
1270.411
1265.157
1259.903
1254.649
1249.395
1244.141
1238.887
1233.633
1228.379
1223.125
1217.871
1212.617
1207.363
1202.109
1196.855
1191.601
1186.347
1181.093
1175.839
1170.585
1165.331
1160.077
1154.823
1149.569
1144.315
1139.061
1133.807
1128.553
1123.299
1118.045
1112.791
1107.537
1102.283
1097.029
1091.775
1086.521
1081.267
1076.013
1070.759
1065.505
1060.251
1054.997
1049.743
1044.489
1039.235
1033.981
1028.727
1023.473
1018.219
1012.965
1007.711
1002.457
997.203
991.949
986.695
981.441
976.187
970.933
965.679
960.425
955.171
949.917
944.663
939.409
934.155
928.901
923.647
918.393
913.139
907.885
902.631
897.377
892.123
886.869
881.615
876.361
871.107
865.853
860.599
855.345
850.091
844.837
839.583
834.329
829.075
823.821
818.567
813.313
808.059
802.805
797.551
792.297
787.043
781.789
776.535
771.281
766.027
760.773
755.519
750.265
745.011
739.757
734.503
729.249
723.995
718.741
713.487
708.233
702.979
697.725
692.471
687.217
681.963
676.709
671.455
666.201
660.947
655.693
650.439
645.185
639.931
634.677
629.423
624.169
618.915
613.661
608.407
603.153
597.899
592.645
587.391
582.137
576.883
571.629
566.375
561.121
555.867
550.613
545.359
540.105
534.851
529.597
524.343
519.089
513.835
508.581
503.327
498.073
492.819
487.565
482.311
477.057
471.803
466.549
461.295
456.041
