1522.477
1524.505
1526.533
1528.561
1530.589
1532.617
1534.645
1536.673
1538.701
1540.729
1542.757
1544.785
1546.813
1548.841
1550.869
1552.897
1554.925
1556.953
1558.981
1561.009
1563.037
1565.065
1567.093
1569.121
1571.149
1573.177
1575.205
1577.233
1579.261
1581.289
1583.317
1585.345
1587.373
1589.401
1591.429
1593.457
1595.485
1597.513
1599.541
1601.569
1603.597
1605.625
1607.653
1609.681
1611.709
1613.737
1615.765
1617.793
1619.821
1621.849
1623.877
1625.905
1627.933
1629.961
1631.989
1634.017
1636.045
1638.073
1640.101
1642.129
1644.157
1646.185
1648.213
1650.241
1652.269
1654.297
1656.325
1658.353
1660.381
1662.409
1664.437
1666.465
1668.493
1670.521
1672.549
1674.577
1676.605
1678.633
1680.661
1682.689
1684.717
1686.745
1688.773
1690.801
1692.829
1694.857
1696.885
1698.913
1700.941
1702.969
1704.997
1707.025
1709.053
1711.081
1713.109
1715.137
1717.165
1719.193
1721.221
1723.249
1725.277
1727.305
1729.333
1731.361
1733.389
1735.417
1737.445
1739.473
1741.501
1743.529
1745.557
1747.585
1749.613
1751.641
1753.669
1755.697
1757.725
1759.753
1761.781
1763.809
1765.837
1767.865
1769.893
1771.921
1773.949
1775.977
1778.005
1780.033
1782.061
1784.089
1786.117
1788.145
1790.173
1792.201
1794.229
1796.257
1798.285
1800.313
1802.341
1804.369
1806.397
1808.425
1810.453
1812.481
1814.509
1816.537
1818.565
1820.593
1822.621
1824.649
1826.677
1828.705
1830.733
1832.761
1834.789
1836.817
1838.845
1840.873
1842.901
1844.929
1846.957
1848.985
1851.013
1853.041
1855.069
1857.097
1859.125
1861.153
1863.181
1865.209
1867.237
1869.265
1871.293
1873.321
1875.349
1877.377
1879.405
1881.433
1883.461
1885.489
1887.517
1889.545
1891.573
1893.601
1895.629
1897.657
1899.685
1901.713
1903.741
1905.769
1907.797
1909.825
1911.853
1913.881
1915.909
1917.937
1919.965
1921.993
1924.021
1926.049
1928.077
1928.101
1928.126
1928.150
1928.175
1928.199
1928.224
1928.248
1928.273
1928.297
1928.322
1928.346
1928.371
1928.395
1928.420
1928.444
1928.469
1928.493
1928.518
1928.542
1928.567
1928.591
1928.616
1928.640
1928.665
1928.689
1928.714
1928.738
1928.763
1928.787
1928.812
1928.836
1928.861
1928.885
1928.910
1928.934
1928.959
1928.983
1929.008
1929.032
1929.057
1929.081
1929.106
1929.130
1929.155
1929.179
1929.204
1929.228
1929.253
1929.277
1929.302
1929.326
1929.351
1929.375
1929.400
1929.424
1929.449
1929.473
1929.498
1929.522
1929.547
1929.571
1929.596
1929.620
1929.645
1929.669
1929.694
1929.718
1929.743
1929.767
1929.792
1929.816
1929.841
1929.865
1929.890
1929.914
1929.939
1929.963
1929.988
1930.012
1930.037
1930.061
1930.086
1930.110
1930.135
1930.159
1930.184
1930.208
1930.233
1930.257
1930.282
1930.306
1930.331
1930.355
1930.380
1930.404
1930.429
1930.453
1930.478
1930.502
1930.527
1930.551
1930.576
1930.600
1930.625
1930.649
1930.674
1930.698
1930.723
1930.747
1930.772
1930.796
1930.821
1930.845
1930.870
1930.894
1930.919
1930.943
1930.968
1930.992
1931.017
1931.041
1931.066
1931.090
1931.115
1931.139
1931.164
1931.188
1931.213
1931.237
1931.262
1931.286
1931.311
1931.335
1931.360
1931.384
1931.409
1931.433
1931.458
1931.482
1931.507
1931.531
1931.556
1931.580
1931.605
1931.629
1931.654
1931.678
1931.703
1931.727
1931.752
1931.776
1931.801
1931.825
1931.850
1931.874
1931.899
1931.923
1931.948
1931.972
1931.997
1932.021
1932.046
1932.070
1932.095
1932.119
1932.144
1932.168
1932.193
1932.217
1932.242
1932.266
1932.291
1932.315
1932.340
1932.364
1932.389
1932.413
1932.438
1932.462
1932.487
1932.511
1932.536
1932.560
1932.585
1932.609
1932.634
1932.658
1932.683
1932.707
1932.732
1932.756
1932.781
1932.805
1932.830
1932.854
1932.879
1932.903
1932.928
1932.952
1932.977
1934.443
1935.910
1937.376
1938.843
1940.309
1941.776
1943.242
1944.709
1946.175
1947.642
1949.108
1950.575
1952.041
1953.508
1954.974
1956.441
1957.907
1959.374
1960.840
1962.307
1963.773
1965.240
1966.706
1968.173
1969.639
1971.106
1972.572
1974.039
1975.505
1976.972
1978.438
1979.905
1981.371
1982.838
1984.304
1985.771
1987.237
1988.704
1990.170
1991.637
1993.103
1994.570
1996.036
1997.503
1998.969
2000.436
2001.902
2003.369
2004.835
2006.302
2007.768
2009.235
2010.701
2012.168
2013.634
2015.101
2016.567
2018.034
2019.500
2020.967
2022.433
2023.900
2025.366
2026.833
2028.299
2029.766
2031.232
2032.699
2034.165
2035.632
2037.098
2038.565
2040.031
2041.498
2042.964
2044.431
2045.897
2047.364
2048.830
2050.297
2051.763
2053.230
2054.696
2056.163
2057.629
2059.096
2060.562
2062.029
2063.495
2064.962
2066.428
2067.895
2069.361
2070.828
2072.294
2073.761
2075.227
2076.694
2078.160
2079.627
2081.093
2082.560
2084.026
2085.493
2086.959
2088.426
2089.892
2091.359
2092.825
2094.292
2095.758
2097.225
2098.691
2100.158
2101.624
2103.091
2104.557
2106.024
2107.490
2108.957
2110.423
2111.890
2113.356
2114.823
2116.289
2117.756
2119.222
2120.689
2122.155
2123.622
2125.088
2126.555
2128.021
2129.488
2130.954
2132.421
2133.887
2135.354
2136.820
2138.287
2139.753
2141.220
2142.686
2144.153
2145.619
2147.086
2148.552
2150.019
2151.485
2152.952
2154.418
2155.885
2157.351
2158.818
2160.284
2161.751
2163.217
2164.684
2166.150
2167.617
2169.083
2170.550
2172.016
2173.483
2174.949
2176.416
2177.882
2179.349
2180.815
2182.282
2183.748
2185.215
2186.681
2188.148
2189.614
2191.081
2192.547
2194.014
2195.480
2196.947
2198.413
2199.880
2201.346
2202.813
2204.279
2205.746
2207.212
2208.679
2210.145
2211.612
2213.078
2214.545
2216.011
2217.478
2218.944
2220.411
2221.877
2223.344
2224.810
2226.277
2226.325
2226.374
2226.422
2226.471
2226.519
2226.568
2226.616
2226.665
2226.713
2226.762
2226.810
2226.859
2226.907
2226.956
2227.004
2227.053
2227.101
2227.150
2227.198
2227.247
2227.295
2227.344
2227.392
2227.441
2227.489
2227.538
2227.586
2227.635
2227.683
2227.732
2227.780
2227.829
2227.877
2227.926
2227.974
2228.023
2228.071
2228.120
2228.168
2228.217
2228.265
2228.314
2228.362
2228.411
2228.459
2228.508
2228.556
2228.605
2228.653
2228.702
2228.750
2228.799
2228.847
2228.896
2228.944
2228.993
2229.041
2229.090
2229.138
2229.187
2229.235
2229.284
2229.332
2229.381
2229.429
2229.478
2229.526
2229.575
2229.623
2229.672
2229.720
2229.769
2229.817
2229.866
2229.914
2229.963
2230.011
2230.060
2230.108
2230.157
2230.205
2230.254
2230.302
2230.351
2230.399
2230.448
2230.496
2230.545
2230.593
2230.642
2230.690
2230.739
2230.787
2230.836
2230.884
2230.933
2230.981
2231.030
2231.078
2231.127
2231.175
2231.224
2231.272
2231.321
2231.369
2231.418
2231.466
2231.515
2231.563
2231.612
2231.660
2231.709
2231.757
2231.806
2231.854
2231.903
2231.951
2232.000
2232.048
2232.097
2232.145
2232.194
2232.242
2232.291
2232.339
2232.388
2232.436
2232.485
2232.533
2232.582
2232.630
2232.679
2232.727
2232.776
2232.824
2232.873
2232.921
2232.970
2233.018
2233.067
2233.115
2233.164
2233.212
2233.261
2233.309
2233.358
2233.406
2233.455
2233.503
2233.552
2233.600
2233.649
2233.697
2233.746
2233.794
2233.843
2233.891
2233.940
2233.988
2234.037
2234.085
2234.134
2234.182
2234.231
2234.279
2234.328
2234.376
2234.425
2234.473
2234.522
2234.570
2234.619
2234.667
2234.716
2234.764
2234.813
2234.861
2234.910
2234.958
2235.007
2235.055
2235.104
2235.152
2235.201
2235.249
2235.298
2235.346
2235.395
2235.443
2235.492
2235.540
2235.589
2235.637
2235.686
2235.734
2235.783
2235.831
2235.880
2235.928
2235.977
2235.953
2235.929
2235.905
2235.881
2235.857
2235.833
2235.809
2235.785
2235.761
2235.737
2235.713
2235.689
2235.665
2235.641
2235.617
2235.593
2235.569
2235.545
2235.521
2235.497
2235.473
2235.449
2235.425
2235.401
2235.377
2235.353
2235.329
2235.305
2235.281
2235.257
2235.233
2235.209
2235.185
2235.161
2235.137
2235.113
2235.089
2235.065
2235.041
2235.017
2234.993
2234.969
2234.945
2234.921
2234.897
2234.873
2234.849
2234.825
2234.801
2234.777
2234.753
2234.729
2234.705
2234.681
2234.657
2234.633
2234.609
2234.585
2234.561
2234.537
2234.513
2234.489
2234.465
2234.441
2234.417
2234.393
2234.369
2234.345
2234.321
2234.297
2234.273
2234.249
2234.225
2234.201
2234.177
2234.153
2234.129
2234.105
2234.081
2234.057
2234.033
2234.009
2233.985
2233.961
2233.937
2233.913
2233.889
2233.865
2233.841
2233.817
2233.793
2233.769
2233.745
2233.721
2233.697
2233.673
2233.649
2233.625
2233.601
2233.577
2233.553
2233.529
2233.505
2233.481
2233.457
2233.433
2233.409
2233.385
2233.361
2233.337
2233.313
2233.289
2233.265
2233.241
2233.217
2233.193
2233.169
2233.145
2233.121
2233.097
2233.073
2233.049
2233.025
2233.001
2232.977
2232.953
2232.929
2232.905
2232.881
2232.857
2232.833
2232.809
2232.785
2232.761
2232.737
2232.713
2232.689
2232.665
2232.641
2232.617
2232.593
2232.569
2232.545
2232.521
2232.497
2232.473
2232.449
2232.425
2232.401
2232.377
2232.353
2232.329
2232.305
2232.281
2232.257
2232.233
2232.209
2232.185
2232.161
2232.137
2232.113
2232.089
2232.065
2232.041
2232.017
2231.993
2231.969
2231.945
2231.921
2231.897
2231.873
2231.849
2231.825
2231.801
2231.777
2231.753
2231.729
2231.705
2231.681
2231.657
2231.633
2231.609
2231.585
2231.561
2231.537
2231.513
2231.489
2231.465
2231.441
2231.417
2231.393
2231.369
2231.345
2231.321
2231.297
2231.273
2231.249
2231.225
2231.201
2231.177
2231.861
2232.545
2233.229
2233.913
2234.597
2235.281
2235.965
2236.649
2237.333
2238.017
2238.701
2239.385
2240.069
2240.753
2241.437
2242.121
2242.805
2243.489
2244.173
2244.857
2245.541
2246.225
2246.909
2247.593
2248.277
2248.961
2249.645
2250.329
2251.013
2251.697
2252.381
2253.065
2253.749
2254.433
2255.117
2255.801
2256.485
2257.169
2257.853
2258.537
2259.221
2259.905
2260.589
2261.273
2261.957
2262.641
2263.325
2264.009
2264.693
2265.377
2266.061
2266.745
2267.429
2268.113
2268.797
2269.481
2270.165
2270.849
2271.533
2272.217
2272.901
2273.585
2274.269
2274.953
2275.637
2276.321
2277.005
2277.689
2278.373
2279.057
2279.741
2280.425
2281.109
2281.793
2282.477
2283.161
2283.845
2284.529
2285.213
2285.897
2286.581
2287.265
2287.949
2288.633
2289.317
2290.001
2290.685
2291.369
2292.053
2292.737
2293.421
2294.105
2294.789
2295.473
2296.157
2296.841
2297.525
2298.209
2298.893
2299.577
2300.261
2300.945
2301.629
2302.313
2302.997
2303.681
2304.365
2305.049
2305.733
2306.417
2307.101
2307.785
2308.469
2309.153
2309.837
2310.521
2311.205
2311.889
2312.573
2313.257
2313.941
2314.625
2315.309
2315.993
2316.677
2317.361
2318.045
2318.729
2319.413
2320.097
2320.781
2321.465
2322.149
2322.833
2323.517
2324.201
2324.885
2325.569
2326.253
2326.937
2327.621
2328.305
2328.989
2329.673
2330.357
2331.041
2331.725
2332.409
2333.093
2333.777
2334.461
2335.145
2335.829
2336.513
2337.197
2337.881
2338.565
2339.249
2339.933
2340.617
2341.301
2341.985
2342.669
2343.353
2344.037
2344.721
2345.405
2346.089
2346.773
2347.457
2348.141
2348.825
2349.509
2350.193
2350.877
2351.561
2352.245
2352.929
2353.613
2354.297
2354.981
2355.665
2356.349
2357.033
2357.717
2358.401
2359.085
2359.769
2360.453
2361.137
2361.821
2362.505
2363.189
2363.873
2364.557
2365.241
2365.925
2366.609
2367.293
2367.977
2366.584
2365.191
2363.798
2362.405
2361.012
2359.619
2358.226
2356.833
2355.440
2354.047
2352.654
2351.261
2349.868
2348.475
2347.082
2345.689
2344.296
2342.903
2341.510
2340.117
2338.724
2337.331
2335.938
2334.545
2333.152
2331.759
2330.366
2328.973
2327.580
2326.187
2324.794
2323.401
2322.008
2320.615
2319.222
2317.829
2316.436
2315.043
2313.650
2312.257
2310.864
2309.471
2308.078
2306.685
2305.292
2303.899
2302.506
2301.113
2299.720
2298.327
2296.934
2295.541
2294.148
2292.755
2291.362
2289.969
2288.576
2287.183
2285.790
2284.397
2283.004
2281.611
2280.218
2278.825
2277.432
2276.039
2274.646
2273.253
2271.860
2270.467
2269.074
2267.681
2266.288
2264.895
2263.502
2262.109
2260.716
2259.323
2257.930
2256.537
2255.144
2253.751
2252.358
2250.965
2249.572
2248.179
2246.786
2245.393
2244.000
2242.607
2241.214
2239.821
2238.428
2237.035
2235.642
2234.249
2232.856
2231.463
2230.070
2228.677
2227.284
2225.891
2224.498
2223.105
2221.712
2220.319
2218.926
2217.533
2216.140
2214.747
2213.354
2211.961
2210.568
2209.175
2207.782
2206.389
2204.996
2203.603
2202.210
2200.817
2199.424
2198.031
2196.638
2195.245
2193.852
2192.459
2191.066
2189.673
2188.280
2186.887
2185.494
2184.101
2182.708
2181.315
2179.922
2178.529
2177.136
2175.743
2174.350
2172.957
2171.564
2170.171
2168.778
2167.385
2165.992
2164.599
2163.206
2161.813
2160.420
2159.027
2157.634
2156.241
2154.848
2153.455
2152.062
2150.669
2149.276
2147.883
2146.490
2145.097
2143.704
2142.311
2140.918
2139.525
2138.132
2136.739
2135.346
2133.953
2132.560
2131.167
2129.774
2128.381
2126.988
2125.595
2124.202
2122.809
2121.416
2120.023
2118.630
2117.237
2115.844
2114.451
2113.058
2111.665
2110.272
2108.879
2107.486
2106.093
2104.700
2103.307
2101.914
2100.521
2099.128
2097.735
2096.342
2094.949
2093.556
2092.163
2090.770
2089.377
2089.084
2088.791
2088.498
2088.205
2087.912
2087.619
2087.326
2087.033
2086.740
2086.447
2086.154
2085.861
2085.568
2085.275
2084.982
2084.689
2084.396
2084.103
2083.810
2083.517
2083.224
2082.931
2082.638
2082.345
2082.052
2081.759
2081.466
2081.173
2080.880
2080.587
2080.294
2080.001
2079.708
2079.415
2079.122
2078.829
2078.536
2078.243
2077.950
2077.657
2077.364
2077.071
2076.778
2076.485
2076.192
2075.899
2075.606
2075.313
2075.020
2074.727
2074.434
2074.141
2073.848
2073.555
2073.262
2072.969
2072.676
2072.383
2072.090
2071.797
2071.504
2071.211
2070.918
2070.625
2070.332
2070.039
2069.746
2069.453
2069.160
2068.867
2068.574
2068.281
2067.988
2067.695
2067.402
2067.109
2066.816
2066.523
2066.230
2065.937
2065.644
2065.351
2065.058
2064.765
2064.472
2064.179
2063.886
2063.593
2063.300
2063.007
2062.714
2062.421
2062.128
2061.835
2061.542
2061.249
2060.956
2060.663
2060.370
2060.077
2059.784
2059.491
2059.198
2058.905
2058.612
2058.319
2058.026
2057.733
2057.440
2057.147
2056.854
2056.561
2056.268
2055.975
2055.682
2055.389
2055.096
2054.803
2054.510
2054.217
2053.924
2053.631
2053.338
2053.045
2052.752
2052.459
2052.166
2051.873
2051.580
2051.287
2050.994
2050.701
2050.408
2050.115
2049.822
2049.529
2049.236
2048.943
2048.650
2048.357
2048.064
2047.771
2047.478
2047.185
2046.892
2046.599
2046.306
2046.013
2045.720
2045.427
2045.134
2044.841
2044.548
2044.255
2043.962
2043.669
2043.376
2043.083
2042.790
2042.497
2042.204
2041.911
2041.618
2041.325
2041.032
2040.739
2040.446
2040.153
2039.860
2039.567
2039.274
2038.981
2038.688
2038.395
2038.102
2037.809
2037.516
2037.223
2036.930
2036.637
2036.344
2036.051
2035.758
2035.465
2035.172
2034.879
2034.586
2034.293
2034.000
2033.707
2033.414
2033.121
2032.828
2032.535
2032.242
2031.949
2031.656
2031.363
2031.070
2030.777
2023.103
2015.430
2007.756
2000.083
1992.409
1984.736
1977.062
1969.389
1961.715
1954.042
1946.368
1938.695
1931.021
1923.348
1915.674
1908.001
1900.327
1892.654
1884.980
1877.307
1869.633
1861.960
1854.286
1846.613
1838.939
1831.266
1823.592
1815.919
1808.245
1800.572
1792.898
1785.225
1777.551
1769.878
1762.204
1754.531
1746.857
1739.184
1731.510
1723.837
1716.163
1708.490
1700.816
1693.143
1685.469
1677.796
1670.122
1662.449
1654.775
1647.102
1639.428
1631.755
1624.081
1616.408
1608.734
1601.061
1593.387
1585.714
1578.040
1570.367
1562.693
1555.020
1547.346
1539.673
1531.999
1524.326
1516.652
1508.979
1501.305
1493.632
1485.958
1478.285
1470.611
1462.938
1455.264
1447.591
1439.917
1432.244
1424.570
1416.897
1409.223
1401.550
1393.876
1386.203
1378.529
1370.856
1363.182
1355.509
1347.835
1340.162
1332.488
1324.815
1317.141
1309.468
1301.794
1294.121
1286.447
1278.774
1271.100
1263.427
1255.753
1248.080
1240.406
1232.733
1225.059
1217.386
1209.712
1202.039
1194.365
1186.692
1179.018
1171.345
1163.671
1155.998
1148.324
1140.651
1132.977
1125.304
1117.630
1109.957
1102.283
1094.610
1086.936
1079.263
1071.589
1063.916
1056.242
1048.569
1040.895
1033.222
1025.548
1017.875
1010.201
1002.528
994.854
987.181
979.507
971.834
964.160
956.487
948.813
941.140
933.466
925.793
918.119
910.446
902.772
895.099
887.425
879.752
872.078
864.405
856.731
849.058
841.384
833.711
826.037
818.364
810.690
803.017
795.343
787.670
779.996
772.323
764.649
756.976
749.302
741.629
733.955
726.282
718.608
710.935
703.261
695.588
687.914
680.241
672.567
664.894
657.220
649.547
641.873
634.200
626.526
618.853
611.179
603.506
595.832
588.159
580.485
572.812
565.138
557.465
549.791
542.118
534.444
526.771
519.097
511.424
503.750
496.077
494.928
493.779
492.630
491.481
490.332
489.183
488.034
486.885
485.736
484.587
483.438
482.289
481.140
479.991
478.842
477.693
476.544
475.395
474.246
473.097
471.948
470.799
469.650
468.501
467.352
466.203
465.054
463.905
462.756
461.607
460.458
459.309
458.160
457.011
455.862
454.713
453.564
452.415
451.266
450.117
448.968
447.819
446.670
445.521
444.372
443.223
442.074
440.925
439.776
438.627
437.478
436.329
435.180
434.031
432.882
431.733
430.584
429.435
428.286
427.137
425.988
424.839
423.690
422.541
421.392
420.243
419.094
417.945
416.796
415.647
414.498
413.349
412.200
411.051
409.902
408.753
407.604
406.455
405.306
404.157
403.008
401.859
400.710
399.561
398.412
397.263
396.114
394.965
393.816
392.667
391.518
390.369
389.220
388.071
386.922
385.773
384.624
383.475
382.326
381.177
380.028
378.879
377.730
376.581
375.432
374.283
373.134
371.985
370.836
369.687
368.538
367.389
366.240
365.091
363.942
362.793
361.644
360.495
359.346
358.197
357.048
355.899
354.750
353.601
352.452
351.303
350.154
349.005
347.856
346.707
345.558
344.409
343.260
342.111
340.962
339.813
338.664
337.515
336.366
335.217
334.068
332.919
331.770
330.621
329.472
328.323
327.174
326.025
324.876
323.727
322.578
321.429
320.280
319.131
317.982
316.833
315.684
314.535
313.386
312.237
311.088
309.939
308.790
307.641
306.492
305.343
304.194
303.045
301.896
300.747
299.598
298.449
297.300
296.151
295.002
293.853
292.704
291.555
290.406
289.257
288.108
286.959
285.810
284.661
283.512
282.363
281.214
280.065
278.916
277.767
276.618
275.469
274.320
273.171
272.022
270.873
269.724
268.575
267.426
