1742.352
1742.108
1741.864
1741.620
1741.376
1741.132
1740.888
1740.644
1740.400
1740.156
1739.912
1739.668
1739.424
1739.180
1738.936
1738.692
1738.448
1738.204
1737.960
1737.716
1737.472
1737.228
1736.984
1736.740
1736.496
1736.252
1736.008
1735.764
1735.520
1735.276
1735.032
1734.788
1734.544
1734.300
1734.056
1733.812
1733.568
1733.324
1733.080
1732.836
1732.592
1732.348
1732.104
1731.860
1731.616
1731.372
1731.128
1730.884
1730.640
1730.396
1730.152
1729.908
1729.664
1729.420
1729.176
1728.932
1728.688
1728.444
1728.200
1727.956
1727.712
1727.468
1727.224
1726.980
1726.736
1726.492
1726.248
1726.004
1725.760
1725.516
1725.272
1725.028
1724.784
1724.540
1724.296
1724.052
1723.808
1723.564
1723.320
1723.076
1722.832
1722.588
1722.344
1722.100
1721.856
1721.612
1721.368
1721.124
1720.880
1720.636
1720.392
1720.148
1719.904
1719.660
1719.416
1719.172
1718.928
1718.684
1718.440
1718.196
1717.952
1717.708
1717.464
1717.220
1716.976
1716.732
1716.488
1716.244
1716.000
1715.756
1715.512
1715.268
1715.024
1714.780
1714.536
1714.292
1714.048
1713.804
1713.560
1713.316
1713.072
1712.828
1712.584
1712.340
1712.096
1711.852
1711.608
1711.364
1711.120
1710.876
1710.632
1710.388
1710.144
1709.900
1709.656
1709.412
1709.168
1708.924
1708.680
1708.436
1708.192
1707.948
1707.704
1707.460
1707.216
1706.972
1706.728
1706.484
1706.240
1705.996
1705.752
1705.508
1705.264
1705.020
1704.776
1704.532
1704.288
1704.044
1703.800
1703.556
1703.312
1703.068
1702.824
1702.580
1702.336
1702.092
1701.848
1701.604
1701.360
1701.116
1700.872
1700.628
1700.384
1700.140
1699.896
1699.652
1699.408
1699.164
1698.920
1698.676
1698.432
1698.188
1697.944
1697.700
1697.456
1697.212
1696.968
1696.724
1696.480
1696.236
1695.992
1695.748
1695.504
1695.260
1695.016
1694.772
1694.528
1694.284
1694.040
1693.796
1693.552
1695.776
1697.999
1700.223
1702.446
1704.670
1706.893
1709.117
1711.340
1713.564
1715.787
1718.011
1720.234
1722.458
1724.681
1726.905
1729.128
1731.352
1733.575
1735.799
1738.022
1740.246
1742.469
1744.693
1746.916
1749.140
1751.363
1753.587
1755.810
1758.034
1760.257
1762.481
1764.704
1766.928
1769.151
1771.375
1773.598
1775.822
1778.045
1780.269
1782.492
1784.716
1786.939
1789.163
1791.386
1793.610
1795.833
1798.057
1800.280
1802.504
1804.727
1806.951
1809.174
1811.398
1813.621
1815.845
1818.068
1820.292
1822.515
1824.739
1826.962
1829.186
1831.409
1833.633
1835.856
1838.080
1840.303
1842.527
1844.750
1846.974
1849.197
1851.421
1853.644
1855.868
1858.091
1860.315
1862.538
1864.762
1866.985
1869.209
1871.432
1873.656
1875.879
1878.103
1880.326
1882.550
1884.773
1886.997
1889.220
1891.444
1893.667
1895.891
1898.114
1900.338
1902.561
1904.785
1907.008
1909.232
1911.455
1913.679
1915.902
1918.126
1920.349
1922.573
1924.796
1927.020
1929.243
1931.467
1933.690
1935.914
1938.137
1940.361
1942.584
1944.808
1947.031
1949.255
1951.478
1953.702
1955.925
1958.149
1960.372
1962.596
1964.819
1967.043
1969.266
1971.490
1973.713
1975.937
1978.160
1980.384
1982.607
1984.831
1987.054
1989.278
1991.501
1993.725
1995.948
1998.172
2000.395
2002.619
2004.842
2007.066
2009.289
2011.513
2013.736
2015.960
2018.183
2020.407
2022.630
2024.854
2027.077
2029.301
2031.524
2033.748
2035.971
2038.195
2040.418
2042.642
2044.865
2047.089
2049.312
2051.536
2053.759
2055.983
2058.206
2060.430
2062.653
2064.877
2067.100
2069.324
2071.547
2073.771
2075.994
2078.218
2080.441
2082.665
2084.888
2087.112
2089.335
2091.559
2093.782
2096.006
2098.229
2100.453
2102.676
2104.900
2107.123
2109.347
2111.570
2113.794
2116.017
2118.241
2120.464
2122.688
2124.911
2127.135
2129.358
2131.582
2133.805
2136.029
2138.252
2137.470
2136.688
2135.906
2135.124
2134.342
2133.560
2132.778
2131.996
2131.214
2130.432
2129.650
2128.868
2128.086
2127.304
2126.522
2125.740
2124.958
2124.176
2123.394
2122.612
2121.830
2121.048
2120.266
2119.484
2118.702
2117.920
2117.138
2116.356
2115.574
2114.792
2114.010
2113.228
2112.446
2111.664
2110.882
2110.100
2109.318
2108.536
2107.754
2106.972
2106.190
2105.408
2104.626
2103.844
2103.062
2102.280
2101.498
2100.716
2099.934
2099.152
2098.370
2097.588
2096.806
2096.024
2095.242
2094.460
2093.678
2092.896
2092.114
2091.332
2090.550
2089.768
2088.986
2088.204
2087.422
2086.640
2085.858
2085.076
2084.294
2083.512
2082.730
2081.948
2081.166
2080.384
2079.602
2078.820
2078.038
2077.256
2076.474
2075.692
2074.910
2074.128
2073.346
2072.564
2071.782
2071.000
2070.218
2069.436
2068.654
2067.872
2067.090
2066.308
2065.526
2064.744
2063.962
2063.180
2062.398
2061.616
2060.834
2060.052
2059.270
2058.488
2057.706
2056.924
2056.142
2055.360
2054.578
2053.796
2053.014
2052.232
2051.450
2050.668
2049.886
2049.104
2048.322
2047.540
2046.758
2045.976
2045.194
2044.412
2043.630
2042.848
2042.066
2041.284
2040.502
2039.720
2038.938
2038.156
2037.374
2036.592
2035.810
2035.028
2034.246
2033.464
2032.682
2031.900
2031.118
2030.336
2029.554
2028.772
2027.990
2027.208
2026.426
2025.644
2024.862
2024.080
2023.298
2022.516
2021.734
2020.952
2020.170
2019.388
2018.606
2017.824
2017.042
2016.260
2015.478
2014.696
2013.914
2013.132
2012.350
2011.568
2010.786
2010.004
2009.222
2008.440
2007.658
2006.876
2006.094
2005.312
2004.530
2003.748
2002.966
2002.184
2001.402
2000.620
1999.838
1999.056
1998.274
1997.492
1996.710
1995.928
1995.146
1994.364
1993.582
1992.800
1992.018
1991.236
1990.454
1989.672
1988.890
1988.108
1987.326
1986.544
1985.762
1984.980
1984.198
1983.416
1982.634
1981.852
1980.484
1979.115
1977.747
1976.378
1975.010
1973.641
1972.273
1970.904
1969.536
1968.167
1966.799
1965.430
1964.062
1962.693
1961.325
1959.956
1958.588
1957.219
1955.851
1954.482
1953.114
1951.745
1950.377
1949.008
1947.640
1946.271
1944.903
1943.534
1942.166
1940.797
1939.429
1938.060
1936.692
1935.323
1933.955
1932.586
1931.218
1929.849
1928.481
1927.112
1925.744
1924.375
1923.007
1921.638
1920.270
1918.901
1917.533
1916.164
1914.796
1913.427
1912.059
1910.690
1909.322
1907.953
1906.585
1905.216
1903.848
1902.479
1901.111
1899.742
1898.374
1897.005
1895.637
1894.268
1892.900
1891.531
1890.163
1888.794
1887.426
1886.057
1884.689
1883.320
1881.952
1880.583
1879.215
1877.846
1876.478
1875.109
1873.741
1872.372
1871.004
1869.635
1868.267
1866.898
1865.530
1864.161
1862.793
1861.424
1860.056
1858.687
1857.319
1855.950
1854.582
1853.213
1851.845
1850.476
1849.108
1847.739
1846.371
1845.002
1843.634
1842.265
1840.897
1839.528
1838.160
1836.791
1835.423
1834.054
1832.686
1831.317
1829.949
1828.580
1827.212
1825.843
1824.475
1823.106
1821.738
1820.369
1819.001
1817.632
1816.264
1814.895
1813.527
1812.158
1810.790
1809.421
1808.053
1806.684
1805.316
1803.947
1802.579
1801.210
1799.842
1798.473
1797.105
1795.736
1794.368
1792.999
1791.631
1790.262
1788.894
1787.525
1786.157
1784.788
1783.420
1782.051
1780.683
1779.314
1777.946
1776.577
1775.209
1773.840
1772.472
1771.103
1769.735
1768.366
1766.998
1765.629
1764.261
1762.892
1761.524
1760.155
1758.787
1757.418
1756.050
1754.681
1753.313
1751.944
1750.576
1749.207
1747.839
1746.470
1745.102
1743.733
1742.365
1740.996
1739.628
1738.259
1736.891
1735.522
1734.154
1732.785
1731.417
1730.048
1728.680
1727.311
1725.943
1724.574
1723.206
1721.837
1720.469
1719.100
1717.732
1716.363
1714.995
1713.626
1712.258
1710.889
1709.521
1708.152
1710.279
1712.405
1714.532
1716.658
1718.785
1720.911
1723.038
1725.164
1727.291
1729.417
1731.544
1733.670
1735.797
1737.923
1740.050
1742.176
1744.303
1746.429
1748.556
1750.682
1752.809
1754.935
1757.062
1759.188
1761.315
1763.441
1765.568
1767.694
1769.821
1771.947
1774.074
1776.200
1778.327
1780.453
1782.580
1784.706
1786.833
1788.959
1791.086
1793.212
1795.339
1797.465
1799.592
1801.718
1803.845
1805.971
1808.098
1810.224
1812.351
1814.477
1816.604
1818.730
1820.857
1822.983
1825.110
1827.236
1829.363
1831.489
1833.616
1835.742
1837.869
1839.995
1842.122
1844.248
1846.375
1848.501
1850.628
1852.754
1854.881
1857.007
1859.134
1861.260
1863.387
1865.513
1867.640
1869.766
1871.893
1874.019
1876.146
1878.272
1880.399
1882.525
1884.652
1886.778
1888.905
1891.031
1893.158
1895.284
1897.411
1899.537
1901.664
1903.790
1905.917
1908.043
1910.170
1912.296
1914.423
1916.549
1918.676
1920.802
1922.929
1925.055
1927.182
1929.308
1931.435
1933.561
1935.688
1937.814
1939.941
1942.067
1944.194
1946.320
1948.447
1950.573
1952.700
1954.826
1956.953
1959.079
1961.206
1963.332
1965.459
1967.585
1969.712
1971.838
1973.965
1976.091
1978.218
1980.344
1982.471
1984.597
1986.724
1988.850
1990.977
1993.103
1995.230
1997.356
1999.483
2001.609
2003.736
2005.862
2007.989
2010.115
2012.242
2014.368
2016.495
2018.621
2020.748
2022.874
2025.001
2027.127
2029.254
2031.380
2033.507
2035.633
2037.760
2039.886
2042.013
2044.139
2046.266
2048.392
2050.519
2052.645
2054.772
2056.898
2059.025
2061.151
2063.278
2065.404
2067.531
2069.657
2071.784
2073.910
2076.037
2078.163
2080.290
2082.416
2084.543
2086.669
2088.796
2090.922
2093.049
2095.175
2097.302
2099.428
2101.555
2103.681
2105.808
2107.934
2110.061
2112.187
2114.314
2116.440
2118.567
2120.693
2122.820
2124.946
2127.073
2129.199
2131.326
2133.452
2129.860
2126.267
2122.675
2119.082
2115.490
2111.897
2108.305
2104.712
2101.120
2097.527
2093.935
2090.342
2086.750
2083.157
2079.565
2075.972
2072.380
2068.787
2065.195
2061.602
2058.010
2054.417
2050.825
2047.232
2043.640
2040.047
2036.455
2032.862
2029.270
2025.677
2022.085
2018.492
2014.900
2011.307
2007.715
2004.122
2000.530
1996.937
1993.345
1989.752
1986.160
1982.567
1978.975
1975.382
1971.790
1968.197
1964.605
1961.012
1957.420
1953.827
1950.235
1946.642
1943.050
1939.457
1935.865
1932.272
1928.680
1925.087
1921.495
1917.902
1914.310
1910.717
1907.125
1903.532
1899.940
1896.347
1892.755
1889.162
1885.570
1881.977
1878.385
1874.792
1871.200
1867.607
1864.015
1860.422
1856.830
1853.237
1849.645
1846.052
1842.460
1838.867
1835.275
1831.682
1828.090
1824.497
1820.905
1817.312
1813.720
1810.127
1806.535
1802.942
1799.350
1795.757
1792.165
1788.572
1784.980
1781.387
1777.795
1774.202
1770.610
1767.017
1763.425
1759.832
1756.240
1752.647
1749.055
1745.462
1741.870
1738.277
1734.685
1731.092
1727.500
1723.907
1720.315
1716.722
1713.130
1709.537
1705.945
1702.352
1698.760
1695.167
1691.575
1687.982
1684.390
1680.797
1677.205
1673.612
1670.020
1666.427
1662.835
1659.242
1655.650
1652.057
1648.465
1644.872
1641.280
1637.687
1634.095
1630.502
1626.910
1623.317
1619.725
1616.132
1612.540
1608.947
1605.355
1601.762
1598.170
1594.577
1590.985
1587.392
1583.800
1580.207
1576.615
1573.022
1569.430
1565.837
1562.245
1558.652
1555.060
1551.467
1547.875
1544.282
1540.690
1537.097
1533.505
1529.912
1526.320
1522.727
1519.135
1515.542
1511.950
1508.357
1504.765
1501.172
1497.580
1493.987
1490.395
1486.802
1483.210
1479.617
1476.025
1472.432
1468.840
1465.247
1461.655
1458.062
1454.470
1450.877
1447.285
1443.692
1440.100
1436.507
1432.915
1429.322
1425.730
1422.137
1418.545
1414.952
1415.270
1415.587
1415.905
1416.222
1416.540
1416.857
1417.175
1417.492
1417.810
1418.127
1418.445
1418.762
1419.080
1419.397
1419.715
1420.032
1420.350
1420.667
1420.985
1421.302
1421.620
1421.937
1422.255
1422.572
1422.890
1423.207
1423.525
1423.842
1424.160
1424.477
1424.795
1425.112
1425.430
1425.747
1426.065
1426.382
1426.700
1427.017
1427.335
1427.652
1427.970
1428.287
1428.605
1428.922
1429.240
1429.557
1429.875
1430.192
1430.510
1430.827
1431.145
1431.462
1431.780
1432.097
1432.415
1432.732
1433.050
1433.367
1433.685
1434.002
1434.320
1434.637
1434.955
1435.272
1435.590
1435.907
1436.225
1436.542
1436.860
1437.177
1437.495
1437.812
1438.130
1438.447
1438.765
1439.082
1439.400
1439.717
1440.035
1440.352
1440.670
1440.987
1441.305
1441.622
1441.940
1442.257
1442.575
1442.892
1443.210
1443.527
1443.845
1444.162
1444.480
1444.797
1445.115
1445.432
1445.750
1446.067
1446.385
1446.702
1447.020
1447.337
1447.655
1447.972
1448.290
1448.607
1448.925
1449.242
1449.560
1449.877
1450.195
1450.512
1450.830
1451.147
1451.465
1451.782
1452.100
1452.417
1452.735
1453.052
1453.370
1453.687
1454.005
1454.322
1454.640
1454.957
1455.275
1455.592
1455.910
1456.227
1456.545
1456.862
1457.180
1457.497
1457.815
1458.132
1458.450
1458.767
1459.085
1459.402
1459.720
1460.037
1460.355
1460.672
1460.990
1461.307
1461.625
1461.942
1462.260
1462.577
1462.895
1463.212
1463.530
1463.847
1464.165
1464.482
1464.800
1465.117
1465.435
1465.752
1466.070
1466.387
1466.705
1467.022
1467.340
1467.657
1467.975
1468.292
1468.610
1468.927
1469.245
1469.562
1469.880
1470.197
1470.515
1470.832
1471.150
1471.467
1471.785
1472.102
1472.420
1472.737
1473.055
1473.372
1473.690
1474.007
1474.325
1474.642
1474.960
1475.277
1475.595
1475.912
1476.230
1476.547
1476.865
1477.182
1477.500
1477.817
1478.135
1478.452
1473.198
1467.944
1462.690
1457.436
1452.182
1446.928
1441.674
1436.420
1431.166
1425.912
1420.658
1415.404
1410.150
1404.896
1399.642
1394.388
1389.134
1383.880
1378.626
1373.372
1368.118
1362.864
1357.610
1352.356
1347.102
1341.848
1336.594
1331.340
1326.086
1320.832
1315.578
1310.324
1305.070
1299.816
1294.562
1289.308
1284.054
1278.800
1273.546
1268.292
1263.038
1257.784
1252.530
1247.276
1242.022
1236.768
1231.514
1226.260
1221.006
1215.752
1210.498
1205.244
1199.990
1194.736
1189.482
1184.228
1178.974
1173.720
1168.466
1163.212
1157.958
1152.704
1147.450
1142.196
1136.942
1131.688
1126.434
1121.180
1115.926
1110.672
1105.418
1100.164
1094.910
1089.656
1084.402
1079.148
1073.894
1068.640
1063.386
1058.132
1052.878
1047.624
1042.370
1037.116
1031.862
1026.608
1021.354
1016.100
1010.846
1005.592
1000.338
995.084
989.830
984.576
979.322
974.068
968.814
963.560
958.306
953.052
947.798
942.544
937.290
932.036
926.782
921.528
916.274
911.020
905.766
900.512
895.258
890.004
884.750
879.496
874.242
868.988
863.734
858.480
853.226
847.972
842.718
837.464
832.210
826.956
821.702
816.448
811.194
805.940
800.686
795.432
790.178
784.924
779.670
774.416
769.162
763.908
758.654
753.400
748.146
742.892
737.638
732.384
727.130
721.876
716.622
711.368
706.114
700.860
695.606
690.352
685.098
679.844
674.590
669.336
664.082
658.828
653.574
648.320
643.066
637.812
632.558
627.304
622.050
616.796
611.542
606.288
601.034
595.780
590.526
585.272
580.018
574.764
569.510
564.256
559.002
553.748
548.494
543.240
537.986
532.732
527.478
522.224
516.970
511.716
506.462
501.208
495.954
490.700
485.446
480.192
474.938
469.684
464.430
459.176
453.922
448.668
443.414
438.160
432.906
427.652
426.333
425.013
423.694
422.374
421.055
419.735
418.416
417.096
415.777
414.457
413.138
411.818
410.499
409.179
407.860
406.540
405.221
403.901
402.582
401.262
399.943
398.623
397.304
395.984
394.665
393.345
392.026
390.706
389.387
388.067
386.748
385.428
384.109
382.789
381.470
380.150
378.831
377.511
376.192
374.872
373.553
372.233
370.914
369.594
368.275
366.955
365.636
364.316
362.997
361.677
360.358
359.038
357.719
356.399
355.080
353.760
352.441
351.121
349.802
348.482
347.163
345.843
344.524
343.204
341.885
340.565
339.246
337.926
336.607
335.287
333.968
332.648
331.329
330.009
328.690
327.370
326.051
324.731
323.412
322.092
320.773
319.453
318.134
316.814
315.495
314.175
312.856
311.536
310.217
308.897
307.578
306.258
304.939
303.619
302.300
300.980
299.661
298.341
297.022
295.702
294.383
293.063
291.744
290.424
289.105
287.785
286.466
285.146
283.827
282.507
281.188
279.868
278.549
277.229
275.910
274.590
273.271
271.951
270.632
269.312
267.993
266.673
265.354
264.034
262.715
261.395
260.076
258.756
257.437
256.117
254.798
253.478
252.159
250.839
249.520
248.200
246.881
245.561
244.242
242.922
241.603
240.283
238.964
237.644
236.325
235.005
233.686
232.366
231.047
229.727
228.408
227.088
225.769
224.449
223.130
221.810
220.491
219.171
217.852
216.532
215.213
213.893
212.574
211.254
209.935
208.615
207.296
205.976
204.657
203.337
202.018
200.698
199.379
198.059
196.740
195.420
194.101
192.781
191.462
190.142
188.823
187.503
186.184
184.864
183.545
182.225
180.906
179.586
178.267
176.947
175.628
174.308
172.989
171.669
170.350
169.030
167.711
166.391
165.072
163.752
163.752
163.752
163.752
163.752
163.752
163.752
163.752
163.752
163.752
163.752
163.752
163.752
163.752
163.752
163.752
163.752
163.752
163.752
163.752
163.752
163.752
163.752
163.752
163.752
163.752
163.752
163.752
163.752
163.752
163.752
163.752
163.752
163.752
163.752
163.752
163.752
163.752
163.752
163.752
163.752
163.752
163.752
163.752
163.752
163.752
163.752
163.752
163.752
163.752
163.752
163.752
163.752
163.752
163.752
163.752
163.752
163.752
163.752
163.752
163.752
163.752
163.752
163.752
163.752
163.752
163.752
163.752
163.752
163.752
163.752
163.752
163.752
163.752
163.752
163.752
163.752
163.752
163.752
163.752
163.752
163.752
163.752
163.752
163.752
163.752
163.752
163.752
163.752
163.752
163.752
163.752
163.752
163.752
163.752
163.752
163.752
163.752
163.752
163.752
163.752
163.752
163.752
163.752
163.752
163.752
163.752
163.752
163.752
163.752
163.752
163.752
163.752
163.752
163.752
163.752
163.752
163.752
163.752
163.752
163.752
163.752
163.752
163.752
163.752
163.752
163.752
163.752
163.752
163.752
163.752
163.752
163.752
163.752
163.752
163.752
163.752
163.752
163.752
163.752
163.752
163.752
163.752
163.752
163.752
163.752
163.752
163.752
163.752
163.752
163.752
163.752
163.752
163.752
163.752
163.752
163.752
163.752
163.752
163.752
163.752
163.752
163.752
163.752
163.752
163.752
163.752
163.752
163.752
163.752
163.752
163.752
163.752
163.752
163.752
163.752
163.752
163.752
163.752
163.752
163.752
163.752
163.752
163.752
163.752
163.752
163.752
163.752
163.752
163.752
163.752
163.752
163.752
163.752
163.752
163.752
163.752
163.752
163.752
163.752
