1692.762
1698.603
1704.444
1710.285
1716.126
1721.967
1727.808
1733.649
1739.490
1745.331
1751.172
1757.013
1762.854
1768.695
1774.536
1780.377
1786.218
1792.059
1797.900
1803.741
1809.582
1815.423
1821.264
1827.105
1832.946
1838.787
1844.628
1850.469
1856.310
1862.151
1867.992
1873.833
1879.674
1885.515
1891.356
1897.197
1903.038
1908.879
1914.720
1920.561
1926.402
1932.243
1938.084
1943.925
1949.766
1955.607
1961.448
1967.289
1973.130
1978.971
1984.812
1990.653
1996.494
2002.335
2008.176
2014.017
2019.858
2025.699
2031.540
2037.381
2043.222
2049.063
2054.904
2060.745
2066.586
2072.427
2078.268
2084.109
2089.950
2095.791
2101.632
2107.473
2113.314
2119.155
2124.996
2130.837
2136.678
2142.519
2148.360
2154.201
2160.042
2165.883
2171.724
2177.565
2183.406
2189.247
2195.088
2200.929
2206.770
2212.611
2218.452
2224.293
2230.134
2235.975
2241.816
2247.657
2253.498
2259.339
2265.180
2271.021
2276.862
2282.703
2288.544
2294.385
2300.226
2306.067
2311.908
2317.749
2323.590
2329.431
2335.272
2341.113
2346.954
2352.795
2358.636
2364.477
2370.318
2376.159
2382.000
2387.841
2393.682
2399.523
2405.364
2411.205
2417.046
2422.887
2428.728
2434.569
2440.410
2446.251
2452.092
2457.933
2463.774
2469.615
2475.456
2481.297
2487.138
2492.979
2498.820
2504.661
2510.502
2516.343
2522.184
2528.025
2533.866
2539.707
2545.548
2551.389
2557.230
2563.071
2568.912
2574.753
2580.594
2586.435
2592.276
2598.117
2603.958
2609.799
2615.640
2621.481
2627.322
2633.163
2639.004
2644.845
2650.686
2656.527
2662.368
2668.209
2674.050
2679.891
2685.732
2691.573
2697.414
2703.255
2709.096
2714.937
2720.778
2726.619
2732.460
2738.301
2744.142
2749.983
2755.824
2761.665
2767.506
2773.347
2779.188
2785.029
2790.870
2796.711
2802.552
2808.393
2814.234
2820.075
2825.916
2831.757
2837.598
2843.439
2849.280
2855.121
2860.962
2860.131
2859.300
2858.469
2857.638
2856.807
2855.976
2855.145
2854.314
2853.483
2852.652
2851.821
2850.990
2850.159
2849.328
2848.497
2847.666
2846.835
2846.004
2845.173
2844.342
2843.511
2842.680
2841.849
2841.018
2840.187
2839.356
2838.525
2837.694
2836.863
2836.032
2835.201
2834.370
2833.539
2832.708
2831.877
2831.046
2830.215
2829.384
2828.553
2827.722
2826.891
2826.060
2825.229
2824.398
2823.567
2822.736
2821.905
2821.074
2820.243
2819.412
2818.581
2817.750
2816.919
2816.088
2815.257
2814.426
2813.595
2812.764
2811.933
2811.102
2810.271
2809.440
2808.609
2807.778
2806.947
2806.116
2805.285
2804.454
2803.623
2802.792
2801.961
2801.130
2800.299
2799.468
2798.637
2797.806
2796.975
2796.144
2795.313
2794.482
2793.651
2792.820
2791.989
2791.158
2790.327
2789.496
2788.665
2787.834
2787.003
2786.172
2785.341
2784.510
2783.679
2782.848
2782.017
2781.186
2780.355
2779.524
2778.693
2777.862
2777.031
2776.200
2775.369
2774.538
2773.707
2772.876
2772.045
2771.214
2770.383
2769.552
2768.721
2767.890
2767.059
2766.228
2765.397
2764.566
2763.735
2762.904
2762.073
2761.242
2760.411
2759.580
2758.749
2757.918
2757.087
2756.256
2755.425
2754.594
2753.763
2752.932
2752.101
2751.270
2750.439
2749.608
2748.777
2747.946
2747.115
2746.284
2745.453
2744.622
2743.791
2742.960
2742.129
2741.298
2740.467
2739.636
2738.805
2737.974
2737.143
2736.312
2735.481
2734.650
2733.819
2732.988
2732.157
2731.326
2730.495
2729.664
2728.833
2728.002
2727.171
2726.340
2725.509
2724.678
2723.847
2723.016
2722.185
2721.354
2720.523
2719.692
2718.861
2718.030
2717.199
2716.368
2715.537
2714.706
2713.875
2713.044
2712.213
2711.382
2710.551
2709.720
2708.889
2708.058
2707.227
2706.396
2705.565
2704.734
2703.903
2703.072
2702.241
2701.410
2700.579
2699.748
2698.917
2698.086
2697.255
2696.424
2695.593
2694.762
2689.019
2683.276
2677.533
2671.790
2666.047
2660.304
2654.561
2648.818
2643.075
2637.332
2631.589
2625.846
2620.103
2614.360
2608.617
2602.874
2597.131
2591.388
2585.645
2579.902
2574.159
2568.416
2562.673
2556.930
2551.187
2545.444
2539.701
2533.958
2528.215
2522.472
2516.729
2510.986
2505.243
2499.500
2493.757
2488.014
2482.271
2476.528
2470.785
2465.042
2459.299
2453.556
2447.813
2442.070
2436.327
2430.584
2424.841
2419.098
2413.355
2407.612
2401.869
2396.126
2390.383
2384.640
2378.897
2373.154
2367.411
2361.668
2355.925
2350.182
2344.439
2338.696
2332.953
2327.210
2321.467
2315.724
2309.981
2304.238
2298.495
2292.752
2287.009
2281.266
2275.523
2269.780
2264.037
2258.294
2252.551
2246.808
2241.065
2235.322
2229.579
2223.836
2218.093
2212.350
2206.607
2200.864
2195.121
2189.378
2183.635
2177.892
2172.149
2166.406
2160.663
2154.920
2149.177
2143.434
2137.691
2131.948
2126.205
2120.462
2114.719
2108.976
2103.233
2097.490
2091.747
2086.004
2080.261
2074.518
2068.775
2063.032
2057.289
2051.546
2045.803
2040.060
2034.317
2028.574
2022.831
2017.088
2011.345
2005.602
1999.859
1994.116
1988.373
1982.630
1976.887
1971.144
1965.401
1959.658
1953.915
1948.172
1942.429
1936.686
1930.943
1925.200
1919.457
1913.714
1907.971
1902.228
1896.485
1890.742
1884.999
1879.256
1873.513
1867.770
1862.027
1856.284
1850.541
1844.798
1839.055
1833.312
1827.569
1821.826
1816.083
1810.340
1804.597
1798.854
1793.111
1787.368
1781.625
1775.882
1770.139
1764.396
1758.653
1752.910
1747.167
1741.424
1735.681
1729.938
1724.195
1718.452
1712.709
1706.966
1701.223
1695.480
1689.737
1683.994
1678.251
1672.508
1666.765
1661.022
1655.279
1649.536
1643.793
1638.050
1632.307
1626.564
1620.821
1615.078
1609.335
1603.592
1597.849
1592.106
1586.363
1580.620
1574.877
1569.134
1563.391
1557.648
1551.905
1546.162
1548.777
1551.392
1554.007
1556.622
1559.237
1561.852
1564.467
1567.082
1569.697
1572.312
1574.927
1577.542
1580.157
1582.772
1585.387
1588.002
1590.617
1593.232
1595.847
1598.462
1601.077
1603.692
1606.307
1608.922
1611.537
1614.152
1616.767
1619.382
1621.997
1624.612
1627.227
1629.842
1632.457
1635.072
1637.687
1640.302
1642.917
1645.532
1648.147
1650.762
1653.377
1655.992
1658.607
1661.222
1663.837
1666.452
1669.067
1671.682
1674.297
1676.912
1679.527
1682.142
1684.757
1687.372
1689.987
1692.602
1695.217
1697.832
1700.447
1703.062
1705.677
1708.292
1710.907
1713.522
1716.137
1718.752
1721.367
1723.982
1726.597
1729.212
1731.827
1734.442
1737.057
1739.672
1742.287
1744.902
1747.517
1750.132
1752.747
1755.362
1757.977
1760.592
1763.207
1765.822
1768.437
1771.052
1773.667
1776.282
1778.897
1781.512
1784.127
1786.742
1789.357
1791.972
1794.587
1797.202
1799.817
1802.432
1805.047
1807.662
1810.277
1812.892
1815.507
1818.122
1820.737
1823.352
1825.967
1828.582
1831.197
1833.812
1836.427
1839.042
1841.657
1844.272
1846.887
1849.502
1852.117
1854.732
1857.347
1859.962
1862.577
1865.192
1867.807
1870.422
1873.037
1875.652
1878.267
1880.882
1883.497
1886.112
1888.727
1891.342
1893.957
1896.572
1899.187
1901.802
1904.417
1907.032
1909.647
1912.262
1914.877
1917.492
1920.107
1922.722
1925.337
1927.952
1930.567
1933.182
1935.797
1938.412
1941.027
1943.642
1946.257
1948.872
1951.487
1954.102
1956.717
1959.332
1961.947
1964.562
1967.177
1969.792
1972.407
1975.022
1977.637
1980.252
1982.867
1985.482
1988.097
1990.712
1993.327
1995.942
1998.557
2001.172
2003.787
2006.402
2009.017
2011.632
2014.247
2016.862
2019.477
2022.092
2024.707
2027.322
2029.937
2032.552
2035.167
2037.782
2040.397
2043.012
2045.627
2048.242
2050.857
2053.472
2056.087
2058.702
2061.317
2063.932
2066.547
2069.162
2070.750
2072.339
2073.927
2075.516
2077.104
2078.693
2080.281
2081.870
2083.458
2085.047
2086.635
2088.224
2089.812
2091.401
2092.989
2094.578
2096.166
2097.755
2099.343
2100.932
2102.520
2104.109
2105.697
2107.286
2108.874
2110.463
2112.051
2113.640
2115.228
2116.817
2118.405
2119.994
2121.582
2123.171
2124.759
2126.348
2127.936
2129.525
2131.113
2132.702
2134.290
2135.879
2137.467
2139.056
2140.644
2142.233
2143.821
2145.410
2146.998
2148.587
2150.175
2151.764
2153.352
2154.941
2156.529
2158.118
2159.706
2161.295
2162.883
2164.472
2166.060
2167.649
2169.237
2170.826
2172.414
2174.003
2175.591
2177.180
2178.768
2180.357
2181.945
2183.534
2185.122
2186.711
2188.299
2189.888
2191.476
2193.065
2194.653
2196.242
2197.830
2199.419
2201.007
2202.596
2204.184
2205.773
2207.361
2208.950
2210.538
2212.127
2213.715
2215.304
2216.892
2218.481
2220.069
2221.658
2223.246
2224.835
2226.423
2228.012
2229.600
2231.189
2232.777
2234.366
2235.954
2237.543
2239.131
2240.720
2242.308
2243.897
2245.485
2247.074
2248.662
2250.251
2251.839
2253.428
2255.016
2256.605
2258.193
2259.782
2261.370
2262.959
2264.547
2266.136
2267.724
2269.313
2270.901
2272.490
2274.078
2275.667
2277.255
2278.844
2280.432
2282.021
2283.609
2285.198
2286.786
2288.375
2289.963
2291.552
2293.140
2294.729
2296.317
2297.906
2299.494
2301.083
2302.671
2304.260
2305.848
2307.437
2309.025
2310.614
2312.202
2313.791
2315.379
2316.968
2318.556
2320.145
2321.733
2323.322
2324.910
2326.499
2328.087
2329.676
2331.264
2332.853
2334.441
2336.030
2337.618
2339.207
2340.795
2342.384
2343.972
2345.561
2347.149
2348.738
2350.326
2351.915
2353.503
2355.092
2356.680
2358.269
2359.857
2361.446
2363.034
2364.623
2366.211
2367.800
2369.388
2370.977
2372.565
2374.154
2375.742
2377.331
2378.919
2380.508
2382.096
2383.685
2385.273
2386.862
2385.126
2383.391
2381.655
2379.920
2378.184
2376.449
2374.713
2372.978
2371.242
2369.507
2367.771
2366.036
2364.300
2362.565
2360.829
2359.094
2357.358
2355.623
2353.887
2352.152
2350.416
2348.681
2346.945
2345.210
2343.474
2341.739
2340.003
2338.268
2336.532
2334.797
2333.061
2331.326
2329.590
2327.855
2326.119
2324.384
2322.648
2320.913
2319.177
2317.442
2315.706
2313.971
2312.235
2310.500
2308.764
2307.029
2305.293
2303.558
2301.822
2300.087
2298.351
2296.616
2294.880
2293.145
2291.409
2289.674
2287.938
2286.203
2284.467
2282.732
2280.996
2279.261
2277.525
2275.790
2274.054
2272.319
2270.583
2268.848
2267.112
2265.377
2263.641
2261.906
2260.170
2258.435
2256.699
2254.964
2253.228
2251.493
2249.757
2248.022
2246.286
2244.551
2242.815
2241.080
2239.344
2237.609
2235.873
2234.138
2232.402
2230.667
2228.931
2227.196
2225.460
2223.725
2221.989
2220.254
2218.518
2216.783
2215.047
2213.312
2211.576
2209.841
2208.105
2206.370
2204.634
2202.899
2201.163
2199.428
2197.692
2195.957
2194.221
2192.486
2190.750
2189.015
2187.279
2185.544
2183.808
2182.073
2180.337
2178.602
2176.866
2175.131
2173.395
2171.660
2169.924
2168.189
2166.453
2164.718
2162.982
2161.247
2159.511
2157.776
2156.040
2154.305
2152.569
2150.834
2149.098
2147.363
2145.627
2143.892
2142.156
2140.421
2138.685
2136.950
2135.214
2133.479
2131.743
2130.008
2128.272
2126.537
2124.801
2123.066
2121.330
2119.595
2117.859
2116.124
2114.388
2112.653
2110.917
2109.182
2107.446
2105.711
2103.975
2102.240
2100.504
2098.769
2097.033
2095.298
2093.562
2091.827
2090.091
2088.356
2086.620
2084.885
2083.149
2081.414
2079.678
2077.943
2076.207
2074.472
2072.736
2071.001
2069.265
2067.530
2065.794
2064.059
2062.323
2060.588
2058.852
2057.117
2055.381
2053.646
2051.910
2050.175
2048.439
2046.704
2044.968
2043.233
2041.497
2039.762
2043.648
2047.534
2051.420
2055.306
2059.192
2063.078
2066.964
2070.850
2074.736
2078.622
2082.508
2086.394
2090.280
2094.166
2098.052
2101.938
2105.824
2109.710
2113.596
2117.482
2121.368
2125.254
2129.140
2133.026
2136.912
2140.798
2144.684
2148.570
2152.456
2156.342
2160.228
2164.114
2168.000
2171.886
2175.772
2179.658
2183.544
2187.430
2191.316
2195.202
2199.088
2202.974
2206.860
2210.746
2214.632
2218.518
2222.404
2226.290
2230.176
2234.062
2237.948
2241.834
2245.720
2249.606
2253.492
2257.378
2261.264
2265.150
2269.036
2272.922
2276.808
2280.694
2284.580
2288.466
2292.352
2296.238
2300.124
2304.010
2307.896
2311.782
2315.668
2319.554
2323.440
2327.326
2331.212
2335.098
2338.984
2342.870
2346.756
2350.642
2354.528
2358.414
2362.300
2366.186
2370.072
2373.958
2377.844
2381.730
2385.616
2389.502
2393.388
2397.274
2401.160
2405.046
2408.932
2412.818
2416.704
2420.590
2424.476
2428.362
2432.248
2436.134
2440.020
2443.906
2447.792
2451.678
2455.564
2459.450
2463.336
2467.222
2471.108
2474.994
2478.880
2482.766
2486.652
2490.538
2494.424
2498.310
2502.196
2506.082
2509.968
2513.854
2517.740
2521.626
2525.512
2529.398
2533.284
2537.170
2541.056
2544.942
2548.828
2552.714
2556.600
2560.486
2564.372
2568.258
2572.144
2576.030
2579.916
2583.802
2587.688
2591.574
2595.460
2599.346
2603.232
2607.118
2611.004
2614.890
2618.776
2622.662
2626.548
2630.434
2634.320
2638.206
2642.092
2645.978
2649.864
2653.750
2657.636
2661.522
2665.408
2669.294
2673.180
2677.066
2680.952
2684.838
2688.724
2692.610
2696.496
2700.382
2704.268
2708.154
2712.040
2715.926
2719.812
2723.698
2727.584
2731.470
2735.356
2739.242
2743.128
2747.014
2750.900
2754.786
2758.672
2762.558
2766.444
2770.330
2774.216
2778.102
2781.988
2785.874
2789.760
2793.646
2797.532
2801.418
2805.304
2809.190
2813.076
2816.962
2815.471
2813.980
2812.489
2810.998
2809.507
2808.016
2806.525
2805.034
2803.543
2802.052
2800.561
2799.070
2797.579
2796.088
2794.597
2793.106
2791.615
2790.124
2788.633
2787.142
2785.651
2784.160
2782.669
2781.178
2779.687
2778.196
2776.705
2775.214
2773.723
2772.232
2770.741
2769.250
2767.759
2766.268
2764.777
2763.286
2761.795
2760.304
2758.813
2757.322
2755.831
2754.340
2752.849
2751.358
2749.867
2748.376
2746.885
2745.394
2743.903
2742.412
2740.921
2739.430
2737.939
2736.448
2734.957
2733.466
2731.975
2730.484
2728.993
2727.502
2726.011
2724.520
2723.029
2721.538
2720.047
2718.556
2717.065
2715.574
2714.083
2712.592
2711.101
2709.610
2708.119
2706.628
2705.137
2703.646
2702.155
2700.664
2699.173
2697.682
2696.191
2694.700
2693.209
2691.718
2690.227
2688.736
2687.245
2685.754
2684.263
2682.772
2681.281
2679.790
2678.299
2676.808
2675.317
2673.826
2672.335
2670.844
2669.353
2667.862
2666.371
2664.880
2663.389
2661.898
2660.407
2658.916
2657.425
2655.934
2654.443
2652.952
2651.461
2649.970
2648.479
2646.988
2645.497
2644.006
2642.515
2641.024
2639.533
2638.042
2636.551
2635.060
2633.569
2632.078
2630.587
2629.096
2627.605
2626.114
2624.623
2623.132
2621.641
2620.150
2618.659
2617.168
2615.677
2614.186
2612.695
2611.204
2609.713
2608.222
2606.731
2605.240
2603.749
2602.258
2600.767
2599.276
2597.785
2596.294
2594.803
2593.312
2591.821
2590.330
2588.839
2587.348
2585.857
2584.366
2582.875
2581.384
2579.893
2578.402
2576.911
2575.420
2573.929
2572.438
2570.947
2569.456
2567.965
2566.474
2564.983
2563.492
2562.001
2560.510
2559.019
2557.528
2556.037
2554.546
2553.055
2551.564
2550.073
2548.582
2547.091
2545.600
2544.109
2542.618
2541.127
2539.636
2538.145
2536.654
2535.163
2533.672
2532.181
2530.690
2529.199
2527.708
2526.217
2524.726
2523.235
2521.744
2520.253
2518.762
2515.952
2513.142
2510.332
2507.522
2504.712
2501.902
2499.092
2496.282
2493.472
2490.662
2487.852
2485.042
2482.232
2479.422
2476.612
2473.802
2470.992
2468.182
2465.372
2462.562
2459.752
2456.942
2454.132
2451.322
2448.512
2445.702
2442.892
2440.082
2437.272
2434.462
2431.652
2428.842
2426.032
2423.222
2420.412
2417.602
2414.792
2411.982
2409.172
2406.362
2403.552
2400.742
2397.932
2395.122
2392.312
2389.502
2386.692
2383.882
2381.072
2378.262
2375.452
2372.642
2369.832
2367.022
2364.212
2361.402
2358.592
2355.782
2352.972
2350.162
2347.352
2344.542
2341.732
2338.922
2336.112
2333.302
2330.492
2327.682
2324.872
2322.062
2319.252
2316.442
2313.632
2310.822
2308.012
2305.202
2302.392
2299.582
2296.772
2293.962
2291.152
2288.342
2285.532
2282.722
2279.912
2277.102
2274.292
2271.482
2268.672
2265.862
2263.052
2260.242
2257.432
2254.622
2251.812
2249.002
2246.192
2243.382
2240.572
2237.762
2234.952
2232.142
2229.332
2226.522
2223.712
2220.902
2218.092
2215.282
2212.472
2209.662
2206.852
2204.042
2201.232
2198.422
2195.612
2192.802
2189.992
2187.182
2184.372
2181.562
2178.752
2175.942
2173.132
2170.322
2167.512
2164.702
2161.892
2159.082
2156.272
2153.462
2150.652
2147.842
2145.032
2142.222
2139.412
2136.602
2133.792
2130.982
2128.172
2125.362
2122.552
2119.742
2116.932
2114.122
2111.312
2108.502
2105.692
2102.882
2100.072
2097.262
2094.452
2091.642
2088.832
2086.022
2083.212
2080.402
2077.592
2074.782
2071.972
2069.162
2066.352
2063.542
2060.732
2057.922
2055.112
2052.302
2049.492
2046.682
2043.872
2041.062
2038.252
2035.442
2032.632
2029.822
2027.012
2024.202
2021.392
2018.582
2015.772
2012.962
2010.152
2007.342
2004.532
2001.722
1998.912
1996.102
1993.292
1990.482
1987.672
1984.862
1982.052
1979.242
1976.432
1973.622
1970.812
1968.002
1965.192
1962.382
1959.572
1956.762
1951.263
1945.765
1940.266
1934.768
1929.269
1923.771
1918.272
1912.774
1907.275
1901.777
1896.278
1890.780
1885.281
1879.783
1874.284
1868.786
1863.287
1857.789
1852.290
1846.792
1841.293
1835.795
1830.296
1824.798
1819.299
1813.801
1808.302
1802.804
1797.305
1791.807
1786.308
1780.810
1775.311
1769.813
1764.314
1758.816
1753.317
1747.819
1742.320
1736.822
1731.323
1725.825
1720.326
1714.828
1709.329
1703.831
1698.332
1692.834
1687.335
1681.837
1676.338
1670.840
1665.341
1659.843
1654.344
1648.846
1643.347
1637.849
1632.350
1626.852
1621.353
1615.855
1610.356
1604.858
1599.359
1593.861
1588.362
1582.864
1577.365
1571.867
1566.368
1560.870
1555.371
1549.873
1544.374
1538.876
1533.377
1527.879
1522.380
1516.882
1511.383
1505.885
1500.386
1494.888
1489.389
1483.891
1478.392
1472.894
1467.395
1461.897
1456.398
1450.900
1445.401
1439.903
1434.404
1428.906
1423.407
1417.909
1412.410
1406.912
1401.413
1395.915
1390.416
1384.918
1379.419
1373.921
1368.422
1362.924
1357.425
1351.927
1346.428
1340.930
1335.431
1329.933
1324.434
1318.936
1313.437
1307.939
1302.440
1296.942
1291.443
1285.945
1280.446
1274.948
1269.449
1263.951
1258.452
1252.954
1247.455
1241.957
1236.458
1230.960
1225.461
1219.963
1214.464
1208.966
1203.467
1197.969
1192.470
1186.972
1181.473
1175.975
1170.476
1164.978
1159.479
1153.981
1148.482
1142.984
1137.485
1131.987
1126.488
1120.990
1115.491
1109.993
1104.494
1098.996
1093.497
1087.999
1082.500
1077.002
1071.503
1066.005
1060.506
1055.008
1049.509
1044.011
1038.512
1033.014
1027.515
1022.017
1016.518
1011.020
1005.521
1000.023
994.524
989.026
983.527
978.029
972.530
967.032
961.533
956.035
950.536
945.038
939.539
934.041
928.542
923.044
917.545
912.047
906.548
901.050
895.551
890.053
884.554
879.056
873.557
868.059
862.560
