489.487
492.517
495.548
498.578
501.609
504.639
507.670
510.700
513.731
516.761
519.792
522.822
525.853
528.883
531.914
534.944
537.975
541.005
544.036
547.066
550.097
553.127
556.158
559.188
562.219
565.249
568.280
571.310
574.341
577.371
580.402
583.432
586.463
589.493
592.524
595.554
598.585
601.615
604.646
607.676
610.707
613.737
616.768
619.798
622.829
625.859
628.890
631.920
634.951
637.981
641.012
644.042
647.073
650.103
653.134
656.164
659.195
662.225
665.256
668.286
671.317
674.347
677.378
680.408
683.439
686.469
689.500
692.530
695.561
698.591
701.622
704.652
707.683
710.713
713.744
716.774
719.805
722.835
725.866
728.896
731.927
734.957
737.988
741.018
744.049
747.079
750.110
753.140
756.171
759.201
762.232
765.262
768.293
771.323
774.354
777.384
780.415
783.445
786.476
789.506
792.537
795.567
798.598
801.628
804.659
807.689
810.720
813.750
816.781
819.811
822.842
825.872
828.903
831.933
834.964
837.994
841.025
844.055
847.086
850.116
853.147
856.177
859.208
862.238
865.269
868.299
871.330
874.360
877.391
880.421
883.452
886.482
889.513
892.543
895.574
898.604
901.635
904.665
907.696
910.726
913.757
916.787
919.818
922.848
925.879
928.909
931.940
934.970
938.001
941.031
944.062
947.092
950.123
953.153
956.184
959.214
962.245
965.275
968.306
971.336
974.367
977.397
980.428
983.458
986.489
989.519
992.550
995.580
998.611
1001.641
1004.672
1007.702
1010.733
1013.763
1016.794
1019.824
1022.855
1025.885
1028.916
1031.946
1034.977
1038.007
1041.038
1044.068
1047.099
1050.129
1053.160
1056.190
1059.221
1062.251
1065.282
1068.312
1071.343
1074.373
1077.404
1080.434
1083.465
1086.495
1089.526
1092.556
1095.587
1098.030
1100.474
1102.917
1105.361
1107.804
1110.248
1112.691
1115.135
1117.578
1120.022
1122.465
1124.909
1127.352
1129.796
1132.239
1134.683
1137.126
1139.570
1142.013
1144.457
1146.900
1149.344
1151.787
1154.231
1156.674
1159.118
1161.561
1164.005
1166.448
1168.892
1171.335
1173.779
1176.222
1178.666
1181.109
1183.553
1185.996
1188.440
1190.883
1193.327
1195.770
1198.214
1200.657
1203.101
1205.544
1207.988
1210.431
1212.875
1215.318
1217.762
1220.205
1222.649
1225.092
1227.536
1229.979
1232.423
1234.866
1237.310
1239.753
1242.197
1244.640
1247.084
1249.527
1251.971
1254.414
1256.858
1259.301
1261.745
1264.188
1266.632
1269.075
1271.519
1273.962
1276.406
1278.849
1281.293
1283.736
1286.180
1288.623
1291.067
1293.510
1295.954
1298.397
1300.841
1303.284
1305.728
1308.171
1310.615
1313.058
1315.502
1317.945
1320.389
1322.832
1325.276
1327.719
1330.163
1332.606
1335.050
1337.493
1339.937
1342.380
1344.824
1347.267
1349.711
1352.154
1354.598
1357.041
1359.485
1361.928
1364.372
1366.815
1369.259
1371.702
1374.146
1376.589
1379.033
1381.476
1383.920
1386.363
1388.807
1391.250
1393.694
1396.137
1398.581
1401.024
1403.468
1405.911
1408.355
1410.798
1413.242
1415.685
1418.129
1420.572
1423.016
1425.459
1427.903
1430.346
1432.790
1435.233
1437.677
1440.120
1442.564
1445.007
1447.451
1449.894
1452.338
1454.781
1457.225
1459.668
1462.112
1464.555
1466.999
1469.442
1471.886
1474.329
1476.773
1479.216
1481.660
1484.103
1486.547
1488.990
1491.434
1493.877
1496.321
1498.764
1501.208
1503.651
1506.095
1508.538
1510.982
1513.425
1515.869
1518.312
1520.756
1523.199
1525.643
1528.086
1530.530
1532.973
1535.417
1537.860
1540.304
1542.747
1545.191
1547.634
1550.078
1552.521
1554.965
1557.408
1559.852
1562.295
1564.739
1567.182
1569.626
1572.069
1574.513
1576.956
1579.400
1581.843
1584.287
1586.389
1588.491
1590.593
1592.695
1594.797
1596.899
1599.001
1601.103
1603.205
1605.307
1607.409
1609.511
1611.613
1613.715
1615.817
1617.919
1620.021
1622.123
1624.225
1626.327
1628.429
1630.531
1632.633
1634.735
1636.837
1638.939
1641.041
1643.143
1645.245
1647.347
1649.449
1651.551
1653.653
1655.755
1657.857
1659.959
1662.061
1664.163
1666.265
1668.367
1670.469
1672.571
1674.673
1676.775
1678.877
1680.979
1683.081
1685.183
1687.285
1689.387
1691.489
1693.591
1695.693
1697.795
1699.897
1701.999
1704.101
1706.203
1708.305
1710.407
1712.509
1714.611
1716.713
1718.815
1720.917
1723.019
1725.121
1727.223
1729.325
1731.427
1733.529
1735.631
1737.733
1739.835
1741.937
1744.039
1746.141
1748.243
1750.345
1752.447
1754.549
1756.651
1758.753
1760.855
1762.957
1765.059
1767.161
1769.263
1771.365
1773.467
1775.569
1777.671
1779.773
1781.875
1783.977
1786.079
1788.181
1790.283
1792.385
1794.487
1796.589
1798.691
1800.793
1802.895
1804.997
1807.099
1809.201
1811.303
1813.405
1815.507
1817.609
1819.711
1821.813
1823.915
1826.017
1828.119
1830.221
1832.323
1834.425
1836.527
1838.629
1840.731
1842.833
1844.935
1847.037
1849.139
1851.241
1853.343
1855.445
1857.547
1859.649
1861.751
1863.853
1865.955
1868.057
1870.159
1872.261
1874.363
1876.465
1878.567
1880.669
1882.771
1884.873
1886.975
1889.077
1891.179
1893.281
1895.383
1897.485
1899.587
1901.689
1903.791
1905.893
1907.995
1910.097
1912.199
1914.301
1916.403
1918.505
1920.607
1922.709
1924.811
1926.913
1929.015
1931.117
1933.219
1935.321
1937.423
1939.525
1941.627
1943.729
1945.831
1947.933
1950.035
1952.137
1954.239
1956.341
1958.443
1960.545
1962.647
1964.749
1966.851
1968.953
1971.055
1973.157
1975.259
1977.361
1979.463
1981.565
1983.667
1985.769
1987.871
1989.973
1992.075
1994.177
1996.279
1998.381
2000.483
2002.585
2004.687
2005.200
2005.713
2006.226
2006.739
2007.252
2007.765
2008.278
2008.791
2009.304
2009.817
2010.330
2010.843
2011.356
2011.869
2012.382
2012.895
2013.408
2013.921
2014.434
2014.947
2015.460
2015.973
2016.486
2016.999
2017.512
2018.025
2018.538
2019.051
2019.564
2020.077
2020.590
2021.103
2021.616
2022.129
2022.642
2023.155
2023.668
2024.181
2024.694
2025.207
2025.720
2026.233
2026.746
2027.259
2027.772
2028.285
2028.798
2029.311
2029.824
2030.337
2030.850
2031.363
2031.876
2032.389
2032.902
2033.415
2033.928
2034.441
2034.954
2035.467
2035.980
2036.493
2037.006
2037.519
2038.032
2038.545
2039.058
2039.571
2040.084
2040.597
2041.110
2041.623
2042.136
2042.649
2043.162
2043.675
2044.188
2044.701
2045.214
2045.727
2046.240
2046.753
2047.266
2047.779
2048.292
2048.805
2049.318
2049.831
2050.344
2050.857
2051.370
2051.883
2052.396
2052.909
2053.422
2053.935
2054.448
2054.961
2055.474
2055.987
2056.500
2057.013
2057.526
2058.039
2058.552
2059.065
2059.578
2060.091
2060.604
2061.117
2061.630
2062.143
2062.656
2063.169
2063.682
2064.195
2064.708
2065.221
2065.734
2066.247
2066.760
2067.273
2067.786
2068.299
2068.812
2069.325
2069.838
2070.351
2070.864
2071.377
2071.890
2072.403
2072.916
2073.429
2073.942
2074.455
2074.968
2075.481
2075.994
2076.507
2077.020
2077.533
2078.046
2078.559
2079.072
2079.585
2080.098
2080.611
2081.124
2081.637
2082.150
2082.663
2083.176
2083.689
2084.202
2084.715
2085.228
2085.741
2086.254
2086.767
2087.280
2087.793
2088.306
2088.819
2089.332
2089.845
2090.358
2090.871
2091.384
2091.897
2092.410
2092.923
2093.436
2093.949
2094.462
2094.975
2095.488
2096.001
2096.514
2097.027
2097.540
2098.053
2098.566
2099.079
2099.592
2100.105
2100.618
2101.131
2101.644
2102.157
2102.670
2103.183
2103.696
2104.209
2104.722
2105.235
2105.748
2106.261
2106.774
2107.287
2105.845
2104.403
2102.961
2101.519
2100.077
2098.635
2097.193
2095.751
2094.309
2092.867
2091.425
2089.983
2088.541
2087.099
2085.657
2084.215
2082.773
2081.331
2079.889
2078.447
2077.005
2075.563
2074.121
2072.679
2071.237
2069.795
2068.353
2066.911
2065.469
2064.027
2062.585
2061.143
2059.701
2058.259
2056.817
2055.375
2053.933
2052.491
2051.049
2049.607
2048.165
2046.723
2045.281
2043.839
2042.397
2040.955
2039.513
2038.071
2036.629
2035.187
2033.745
2032.303
2030.861
2029.419
2027.977
2026.535
2025.093
2023.651
2022.209
2020.767
2019.325
2017.883
2016.441
2014.999
2013.557
2012.115
2010.673
2009.231
2007.789
2006.347
2004.905
2003.463
2002.021
2000.579
1999.137
1997.695
1996.253
1994.811
1993.369
1991.927
1990.485
1989.043
1987.601
1986.159
1984.717
1983.275
1981.833
1980.391
1978.949
1977.507
1976.065
1974.623
1973.181
1971.739
1970.297
1968.855
1967.413
1965.971
1964.529
1963.087
1961.645
1960.203
1958.761
1957.319
1955.877
1954.435
1952.993
1951.551
1950.109
1948.667
1947.225
1945.783
1944.341
1942.899
1941.457
1940.015
1938.573
1937.131
1935.689
1934.247
1932.805
1931.363
1929.921
1928.479
1927.037
1925.595
1924.153
1922.711
1921.269
1919.827
1918.385
1916.943
1915.501
1914.059
1912.617
1911.175
1909.733
1908.291
1906.849
1905.407
1903.965
1902.523
1901.081
1899.639
1898.197
1896.755
1895.313
1893.871
1892.429
1890.987
1889.545
1888.103
1886.661
1885.219
1883.777
1882.335
1880.893
1879.451
1878.009
1876.567
1875.125
1873.683
1872.241
1870.799
1869.357
1867.915
1866.473
1865.031
1863.589
1862.147
1860.705
1859.263
1857.821
1856.379
1854.937
1853.495
1852.053
1850.611
1849.169
1847.727
1846.285
1844.843
1843.401
1841.959
1840.517
1839.075
1837.633
1836.191
1834.749
1833.307
1831.865
1830.423
1828.981
1827.539
1826.097
1824.655
1823.213
1821.771
1820.329
1818.887
1821.257
1823.628
1825.998
1828.369
1830.739
1833.110
1835.480
1837.851
1840.221
1842.592
1844.962
1847.333
1849.703
1852.074
1854.444
1856.815
1859.185
1861.556
1863.926
1866.297
1868.667
1871.038
1873.408
1875.779
1878.149
1880.520
1882.890
1885.261
1887.631
1890.002
1892.372
1894.743
1897.113
1899.484
1901.854
1904.225
1906.595
1908.966
1911.336
1913.707
1916.077
1918.448
1920.818
1923.189
1925.559
1927.930
1930.300
1932.671
1935.041
1937.412
1939.782
1942.153
1944.523
1946.894
1949.264
1951.635
1954.005
1956.376
1958.746
1961.117
1963.487
1965.858
1968.228
1970.599
1972.969
1975.340
1977.710
1980.081
1982.451
1984.822
1987.192
1989.563
1991.933
1994.304
1996.674
1999.045
2001.415
2003.786
2006.156
2008.527
2010.897
2013.268
2015.638
2018.009
2020.379
2022.750
2025.120
2027.491
2029.861
2032.232
2034.602
2036.973
2039.343
2041.714
2044.084
2046.455
2048.825
2051.196
2053.566
2055.937
2058.307
2060.678
2063.048
2065.419
2067.789
2070.160
2072.530
2074.901
2077.271
2079.642
2082.012
2084.383
2086.753
2089.124
2091.494
2093.865
2096.235
2098.606
2100.976
2103.347
2105.717
2108.088
2110.458
2112.829
2115.199
2117.570
2119.940
2122.311
2124.681
2127.052
2129.422
2131.793
2134.163
2136.534
2138.904
2141.275
2143.645
2146.016
2148.386
2150.757
2153.127
2155.498
2157.868
2160.239
2162.609
2164.980
2167.350
2169.721
2172.091
2174.462
2176.832
2179.203
2181.573
2183.944
2186.314
2188.685
2191.055
2193.426
2195.796
2198.167
2200.537
2202.908
2205.278
2207.649
2210.019
2212.390
2214.760
2217.131
2219.501
2221.872
2224.242
2226.613
2228.983
2231.354
2233.724
2236.095
2238.465
2240.836
2243.206
2245.577
2247.947
2250.318
2252.688
2255.059
2257.429
2259.800
2262.170
2264.541
2266.911
2269.282
2271.652
2274.023
2276.393
2278.764
2281.134
2283.505
2285.875
2288.246
2290.616
2292.987
2292.132
2291.277
2290.422
2289.567
2288.712
2287.857
2287.002
2286.147
2285.292
2284.437
2283.582
2282.727
2281.872
2281.017
2280.162
2279.307
2278.452
2277.597
2276.742
2275.887
2275.032
2274.177
2273.322
2272.467
2271.612
2270.757
2269.902
2269.047
2268.192
2267.337
2266.482
2265.627
2264.772
2263.917
2263.062
2262.207
2261.352
2260.497
2259.642
2258.787
2257.932
2257.077
2256.222
2255.367
2254.512
2253.657
2252.802
2251.947
2251.092
2250.237
2249.382
2248.527
2247.672
2246.817
2245.962
2245.107
2244.252
2243.397
2242.542
2241.687
2240.832
2239.977
2239.122
2238.267
2237.412
2236.557
2235.702
2234.847
2233.992
2233.137
2232.282
2231.427
2230.572
2229.717
2228.862
2228.007
2227.152
2226.297
2225.442
2224.587
2223.732
2222.877
2222.022
2221.167
2220.312
2219.457
2218.602
2217.747
2216.892
2216.037
2215.182
2214.327
2213.472
2212.617
2211.762
2210.907
2210.052
2209.197
2208.342
2207.487
2206.632
2205.777
2204.922
2204.067
2203.212
2202.357
2201.502
2200.647
2199.792
2198.937
2198.082
2197.227
2196.372
2195.517
2194.662
2193.807
2192.952
2192.097
2191.242
2190.387
2189.532
2188.677
2187.822
2186.967
2186.112
2185.257
2184.402
2183.547
2182.692
2181.837
2180.982
2180.127
2179.272
2178.417
2177.562
2176.707
2175.852
2174.997
2174.142
2173.287
2172.432
2171.577
2170.722
2169.867
2169.012
2168.157
2167.302
2166.447
2165.592
2164.737
2163.882
2163.027
2162.172
2161.317
2160.462
2159.607
2158.752
2157.897
2157.042
2156.187
2155.332
2154.477
2153.622
2152.767
2151.912
2151.057
2150.202
2149.347
2148.492
2147.637
2146.782
2145.927
2145.072
2144.217
2143.362
2142.507
2141.652
2140.797
2139.942
2139.087
2138.232
2137.377
2136.522
2135.667
2134.812
2133.957
2133.102
2132.247
2131.392
2130.537
2129.682
2128.827
2127.972
2127.117
2126.262
2125.407
2124.552
2123.697
2122.842
2121.987
2119.763
2117.539
2115.315
2113.091
2110.867
2108.643
2106.419
2104.195
2101.971
2099.747
2097.523
2095.299
2093.075
2090.851
2088.627
2086.403
2084.179
2081.955
2079.731
2077.507
2075.283
2073.059
2070.835
2068.611
2066.387
2064.163
2061.939
2059.715
2057.491
2055.267
2053.043
2050.819
2048.595
2046.371
2044.147
2041.923
2039.699
2037.475
2035.251
2033.027
2030.803
2028.579
2026.355
2024.131
2021.907
2019.683
2017.459
2015.235
2013.011
2010.787
2008.563
2006.339
2004.115
2001.891
1999.667
1997.443
1995.219
1992.995
1990.771
1988.547
1986.323
1984.099
1981.875
1979.651
1977.427
1975.203
1972.979
1970.755
1968.531
1966.307
1964.083
1961.859
1959.635
1957.411
1955.187
1952.963
1950.739
1948.515
1946.291
1944.067
1941.843
1939.619
1937.395
1935.171
1932.947
1930.723
1928.499
1926.275
1924.051
1921.827
1919.603
1917.379
1915.155
1912.931
1910.707
1908.483
1906.259
1904.035
1901.811
1899.587
1897.363
1895.139
1892.915
1890.691
1888.467
1886.243
1884.019
1881.795
1879.571
1877.347
1875.123
1872.899
1870.675
1868.451
1866.227
1864.003
1861.779
1859.555
1857.331
1855.107
1852.883
1850.659
1848.435
1846.211
1843.987
1841.763
1839.539
1837.315
1835.091
1832.867
1830.643
1828.419
1826.195
1823.971
1821.747
1819.523
1817.299
1815.075
1812.851
1810.627
1808.403
1806.179
1803.955
1801.731
1799.507
1797.283
1795.059
1792.835
1790.611
1788.387
1786.163
1783.939
1781.715
1779.491
1777.267
1775.043
1772.819
1770.595
1768.371
1766.147
1763.923
1761.699
1759.475
1757.251
1755.027
1752.803
1750.579
1748.355
1746.131
1743.907
1741.683
1739.459
1737.235
1735.011
1732.787
1730.563
1728.339
1726.115
1723.891
1721.667
1719.443
1717.219
1714.995
1712.771
1710.547
1708.323
1706.099
1703.875
1701.651
1699.427
1697.203
1694.979
1692.755
1690.531
1688.307
1686.083
1683.859
1681.635
1679.411
1677.187
1679.508
1681.830
1684.151
1686.473
1688.794
1691.116
1693.437
1695.759
1698.080
1700.402
1702.723
1705.045
1707.366
1709.688
1712.009
1714.331
1716.652
1718.974
1721.295
1723.617
1725.938
1728.260
1730.581
1732.903
1735.224
1737.546
1739.867
1742.189
1744.510
1746.832
1749.153
1751.475
1753.796
1756.118
1758.439
1760.761
1763.082
1765.404
1767.725
1770.047
1772.368
1774.690
1777.011
1779.333
1781.654
1783.976
1786.297
1788.619
1790.940
1793.262
1795.583
1797.905
1800.226
1802.548
1804.869
1807.191
1809.512
1811.834
1814.155
1816.477
1818.798
1821.120
1823.441
1825.763
1828.084
1830.406
1832.727
1835.049
1837.370
1839.692
1842.013
1844.335
1846.656
1848.978
1851.299
1853.621
1855.942
1858.264
1860.585
1862.907
1865.228
1867.550
1869.871
1872.193
1874.514
1876.836
1879.157
1881.479
1883.800
1886.122
1888.443
1890.765
1893.086
1895.408
1897.729
1900.051
1902.372
1904.694
1907.015
1909.337
1911.658
1913.980
1916.301
1918.623
1920.944
1923.266
1925.587
1927.909
1930.230
1932.552
1934.873
1937.195
1939.516
1941.838
1944.159
1946.481
1948.802
1951.124
1953.445
1955.767
1958.088
1960.410
1962.731
1965.053
1967.374
1969.696
1972.017
1974.339
1976.660
1978.982
1981.303
1983.625
1985.946
1988.268
1990.589
1992.911
1995.232
1997.554
1999.875
2002.197
2004.518
2006.840
2009.161
2011.483
2013.804
2016.126
2018.447
2020.769
2023.090
2025.412
2027.733
2030.055
2032.376
2034.698
2037.019
2039.341
2041.662
2043.984
2046.305
2048.627
2050.948
2053.270
2055.591
2057.913
2060.234
2062.556
2064.877
2067.199
2069.520
2071.842
2074.163
2076.485
2078.806
2081.128
2083.449
2085.771
2088.092
2090.414
2092.735
2095.057
2097.378
2099.700
2102.021
2104.343
2106.664
2108.986
2111.307
2113.629
2115.950
2118.272
2120.593
2122.915
2125.236
2127.558
2129.879
2132.201
2134.522
2136.844
2139.165
2141.487
2144.908
2148.330
2151.751
2155.173
2158.594
2162.016
2165.437
2168.859
2172.280
2175.702
2179.123
2182.545
2185.966
2189.388
2192.809
2196.231
2199.652
2203.074
2206.495
2209.917
2213.338
2216.760
2220.181
2223.603
2227.024
2230.446
2233.867
2237.289
2240.710
2244.132
2247.553
2250.975
2254.396
2257.818
2261.239
2264.661
2268.082
2271.504
2274.925
2278.347
2281.768
2285.190
2288.611
2292.033
2295.454
2298.876
2302.297
2305.719
2309.140
2312.562
2315.983
2319.405
2322.826
2326.248
2329.669
2333.091
2336.512
2339.934
2343.355
2346.777
2350.198
2353.620
2357.041
2360.463
2363.884
2367.306
2370.727
2374.149
2377.570
2380.992
2384.413
2387.835
2391.256
2394.678
2398.099
2401.521
2404.942
2408.364
2411.785
2415.207
2418.628
2422.050
2425.471
2428.893
2432.314
2435.736
2439.157
2442.579
2446.000
2449.422
2452.843
2456.265
2459.686
2463.108
2466.529
2469.951
2473.372
2476.794
2480.215
2483.637
2487.058
2490.480
2493.901
2497.323
2500.744
2504.166
2507.587
2511.009
2514.430
2517.852
2521.273
2524.695
2528.116
2531.538
2534.959
2538.381
2541.802
2545.224
2548.645
2552.067
2555.488
2558.910
2562.331
2565.753
2569.174
2572.596
2576.017
2579.439
2582.860
2586.282
2589.703
2593.125
2596.546
2599.968
2603.389
2606.811
2610.232
2613.654
2617.075
2620.497
2623.918
2627.340
2630.761
2634.183
2637.604
2641.026
2644.447
2647.869
2651.290
2654.712
2658.133
2661.555
2664.976
2668.398
2671.819
2675.241
2678.662
2682.084
2685.505
2688.927
2692.348
2695.770
2699.191
2702.613
2706.034
2709.456
2712.877
2716.299
2719.720
2723.142
2726.563
2729.985
2733.406
2736.828
2740.249
2743.671
2747.092
2750.514
2753.935
2757.357
2760.778
2764.200
2767.621
2771.043
2774.464
2777.886
2781.307
2784.729
2788.150
2791.572
2794.993
2798.415
2801.836
2805.258
2808.679
2812.101
2815.522
2818.944
2822.365
