267.333
270.021
272.709
275.397
278.085
280.773
283.461
286.149
288.837
291.525
294.213
296.901
299.589
302.277
304.965
307.653
310.341
313.029
315.717
318.405
321.093
323.781
326.469
329.157
331.845
334.533
337.221
339.909
342.597
345.285
347.973
350.661
353.349
356.037
358.725
361.413
364.101
366.789
369.477
372.165
374.853
377.541
380.229
382.917
385.605
388.293
390.981
393.669
396.357
399.045
401.733
404.421
407.109
409.797
412.485
415.173
417.861
420.549
423.237
425.925
428.613
431.301
433.989
436.677
439.365
442.053
444.741
447.429
450.117
452.805
455.493
458.181
460.869
463.557
466.245
468.933
471.621
474.309
476.997
479.685
482.373
485.061
487.749
490.437
493.125
495.813
498.501
501.189
503.877
506.565
509.253
511.941
514.629
517.317
520.005
522.693
525.381
528.069
530.757
533.445
536.133
538.821
541.509
544.197
546.885
549.573
552.261
554.949
557.637
560.325
563.013
565.701
568.389
571.077
573.765
576.453
579.141
581.829
584.517
587.205
589.893
592.581
595.269
597.957
600.645
603.333
606.021
608.709
611.397
614.085
616.773
619.461
622.149
624.837
627.525
630.213
632.901
635.589
638.277
640.965
643.653
646.341
649.029
651.717
654.405
657.093
659.781
662.469
665.157
667.845
670.533
673.221
675.909
678.597
681.285
683.973
686.661
689.349
692.037
694.725
697.413
700.101
702.789
705.477
708.165
710.853
713.541
716.229
718.917
721.605
724.293
726.981
729.669
732.357
735.045
737.733
740.421
743.109
745.797
748.485
751.173
753.861
756.549
759.237
761.925
764.613
767.301
769.989
772.677
775.365
778.053
780.741
783.429
786.117
788.805
791.493
794.181
796.869
799.557
802.245
804.933
807.499
810.065
812.631
815.197
817.763
820.329
822.895
825.461
828.027
830.593
833.159
835.725
838.291
840.857
843.423
845.989
848.555
851.121
853.687
856.253
858.819
861.385
863.951
866.517
869.083
871.649
874.215
876.781
879.347
881.913
884.479
887.045
889.611
892.177
894.743
897.309
899.875
902.441
905.007
907.573
910.139
912.705
915.271
917.837
920.403
922.969
925.535
928.101
930.667
933.233
935.799
938.365
940.931
943.497
946.063
948.629
951.195
953.761
956.327
958.893
961.459
964.025
966.591
969.157
971.723
974.289
976.855
979.421
981.987
984.553
987.119
989.685
992.251
994.817
997.383
999.949
1002.515
1005.081
1007.647
1010.213
1012.779
1015.345
1017.911
1020.477
1023.043
1025.609
1028.175
1030.741
1033.307
1035.873
1038.439
1041.005
1043.571
1046.137
1048.703
1051.269
1053.835
1056.401
1058.967
1061.533
1064.099
1066.665
1069.231
1071.797
1074.363
1076.929
1079.495
1082.061
1084.627
1087.193
1089.759
1092.325
1094.891
1097.457
1100.023
1102.589
1105.155
1107.721
1110.287
1112.853
1115.419
1117.985
1120.551
1123.117
1125.683
1128.249
1130.815
1133.381
1135.947
1138.513
1141.079
1143.645
1146.211
1148.777
1151.343
1153.909
1156.475
1159.041
1161.607
1164.173
1166.739
1169.305
1171.871
1174.437
1177.003
1179.569
1182.135
1184.701
1187.267
1189.833
1192.399
1194.965
1197.531
1200.097
1202.663
1205.229
1207.795
1210.361
1212.927
1215.493
1218.059
1220.625
1223.191
1225.757
1228.323
1230.889
1233.455
1236.021
1238.587
1241.153
1243.719
1246.285
1248.851
1251.417
1253.983
1256.549
1259.115
1261.681
1264.247
1266.813
1269.379
1271.945
1274.511
1277.077
1279.643
1282.209
1284.775
1287.341
1289.907
1292.473
1295.039
1297.605
1300.171
1302.737
1305.303
1307.869
1310.435
1313.001
1315.567
1318.133
1320.553
1322.972
1325.392
1327.811
1330.231
1332.650
1335.070
1337.489
1339.909
1342.328
1344.748
1347.167
1349.587
1352.006
1354.426
1356.845
1359.265
1361.684
1364.104
1366.523
1368.943
1371.362
1373.782
1376.201
1378.621
1381.040
1383.460
1385.879
1388.299
1390.718
1393.138
1395.557
1397.977
1400.396
1402.816
1405.235
1407.655
1410.074
1412.494
1414.913
1417.333
1419.752
1422.172
1424.591
1427.011
1429.430
1431.850
1434.269
1436.689
1439.108
1441.528
1443.947
1446.367
1448.786
1451.206
1453.625
1456.045
1458.464
1460.884
1463.303
1465.723
1468.142
1470.562
1472.981
1475.401
1477.820
1480.240
1482.659
1485.079
1487.498
1489.918
1492.337
1494.757
1497.176
1499.596
1502.015
1504.435
1506.854
1509.274
1511.693
1514.113
1516.532
1518.952
1521.371
1523.791
1526.210
1528.630
1531.049
1533.469
1535.888
1538.308
1540.727
1543.147
1545.566
1547.986
1550.405
1552.825
1555.244
1557.664
1560.083
1562.503
1564.922
1567.342
1569.761
1572.181
1574.600
1577.020
1579.439
1581.859
1584.278
1586.698
1589.117
1591.537
1593.956
1596.376
1598.795
1601.215
1603.634
1606.054
1608.473
1610.893
1613.312
1615.732
1618.151
1620.571
1622.990
1625.410
1627.829
1630.249
1632.668
1635.088
1637.507
1639.927
1642.346
1644.766
1647.185
1649.605
1652.024
1654.444
1656.863
1659.283
1661.702
1664.122
1666.541
1668.961
1671.380
1673.800
1676.219
1678.639
1681.058
1683.478
1685.897
1688.317
1690.736
1693.156
1695.575
1697.995
1700.414
1702.834
1705.253
1707.673
1710.092
1712.512
1714.931
1717.351
1719.770
1722.190
1724.609
1727.029
1729.448
1731.868
1734.287
1736.707
1739.126
1741.546
1743.965
1746.385
1748.804
1751.224
1753.643
1756.063
1758.482
1760.902
1763.321
1765.741
1768.160
1770.580
1772.999
1775.419
1777.838
1780.258
1782.677
1785.097
1787.516
1789.936
1792.355
1794.775
1797.194
1799.614
1802.033
1802.840
1803.646
1804.453
1805.259
1806.066
1806.872
1807.679
1808.485
1809.292
1810.098
1810.905
1811.711
1812.518
1813.324
1814.131
1814.937
1815.744
1816.550
1817.357
1818.163
1818.970
1819.776
1820.583
1821.389
1822.196
1823.002
1823.809
1824.615
1825.422
1826.228
1827.035
1827.841
1828.648
1829.454
1830.261
1831.067
1831.874
1832.680
1833.487
1834.293
1835.100
1835.906
1836.713
1837.519
1838.326
1839.132
1839.939
1840.745
1841.552
1842.358
1843.165
1843.971
1844.778
1845.584
1846.391
1847.197
1848.004
1848.810
1849.617
1850.423
1851.230
1852.036
1852.843
1853.649
1854.456
1855.262
1856.069
1856.875
1857.682
1858.488
1859.295
1860.101
1860.908
1861.714
1862.521
1863.327
1864.134
1864.940
1865.747
1866.553
1867.360
1868.166
1868.973
1869.779
1870.586
1871.392
1872.199
1873.005
1873.812
1874.618
1875.425
1876.231
1877.038
1877.844
1878.651
1879.457
1880.264
1881.070
1881.877
1882.683
1883.490
1884.296
1885.103
1885.909
1886.716
1887.522
1888.329
1889.135
1889.942
1890.748
1891.555
1892.361
1893.168
1893.974
1894.781
1895.587
1896.394
1897.200
1898.007
1898.813
1899.620
1900.426
1901.233
1902.039
1902.846
1903.652
1904.459
1905.265
1906.072
1906.878
1907.685
1908.491
1909.298
1910.104
1910.911
1911.717
1912.524
1913.330
1914.137
1914.943
1915.750
1916.556
1917.363
1918.169
1918.976
1919.782
1920.589
1921.395
1922.202
1923.008
1923.815
1924.621
1925.428
1926.234
1927.041
1927.847
1928.654
1929.460
1930.267
1931.073
1931.880
1932.686
1933.493
1934.299
1935.106
1935.912
1936.719
1937.525
1938.332
1939.138
1939.945
1940.751
1941.558
1942.364
1943.171
1943.977
1944.784
1945.590
1946.397
1947.203
1948.010
1948.816
1949.623
1950.429
1951.236
1952.042
1952.849
1953.655
1954.462
1955.268
1956.075
1956.881
1957.688
1958.494
1959.301
1960.107
1960.914
1961.720
1962.527
1963.333
1964.408
1965.483
1966.558
1967.633
1968.708
1969.783
1970.858
1971.933
1973.008
1974.083
1975.158
1976.233
1977.308
1978.383
1979.458
1980.533
1981.608
1982.683
1983.758
1984.833
1985.908
1986.983
1988.058
1989.133
1990.208
1991.283
1992.358
1993.433
1994.508
1995.583
1996.658
1997.733
1998.808
1999.883
2000.958
2002.033
2003.108
2004.183
2005.258
2006.333
2007.408
2008.483
2009.558
2010.633
2011.708
2012.783
2013.858
2014.933
2016.008
2017.083
2018.158
2019.233
2020.308
2021.383
2022.458
2023.533
2024.608
2025.683
2026.758
2027.833
2028.908
2029.983
2031.058
2032.133
2033.208
2034.283
2035.358
2036.433
2037.508
2038.583
2039.658
2040.733
2041.808
2042.883
2043.958
2045.033
2046.108
2047.183
2048.258
2049.333
2050.408
2051.483
2052.558
2053.633
2054.708
2055.783
2056.858
2057.933
2059.008
2060.083
2061.158
2062.233
2063.308
2064.383
2065.458
2066.533
2067.608
2068.683
2069.758
2070.833
2071.908
2072.983
2074.058
2075.133
2076.208
2077.283
2078.358
2079.433
2080.508
2081.583
2082.658
2083.733
2084.808
2085.883
2086.958
2088.033
2089.108
2090.183
2091.258
2092.333
2093.408
2094.483
2095.558
2096.633
2097.708
2098.783
2099.858
2100.933
2102.008
2103.083
2104.158
2105.233
2106.308
2107.383
2108.458
2109.533
2110.608
2111.683
2112.758
2113.833
2114.908
2115.983
2117.058
2118.133
2119.208
2120.283
2121.358
2122.433
2123.508
2124.583
2125.658
2126.733
2127.808
2128.883
2129.958
2131.033
2132.108
2133.183
2134.258
2135.333
2136.408
2137.483
2138.558
2139.633
2140.708
2141.783
2142.858
2143.933
2145.008
2146.083
2147.158
2148.233
2149.308
2150.383
2151.458
2152.533
2153.608
2154.683
2155.758
2156.833
2157.908
2158.983
2160.058
2161.133
2162.208
2163.283
2164.358
2165.433
2166.508
2167.583
2168.658
2169.733
2170.808
2171.883
2172.958
2174.033
2175.108
2176.183
2177.258
2178.333
2177.942
2177.551
2177.160
2176.769
2176.378
2175.987
2175.596
2175.205
2174.814
2174.423
2174.032
2173.641
2173.250
2172.859
2172.468
2172.077
2171.686
2171.295
2170.904
2170.513
2170.122
2169.731
2169.340
2168.949
2168.558
2168.167
2167.776
2167.385
2166.994
2166.603
2166.212
2165.821
2165.430
2165.039
2164.648
2164.257
2163.866
2163.475
2163.084
2162.693
2162.302
2161.911
2161.520
2161.129
2160.738
2160.347
2159.956
2159.565
2159.174
2158.783
2158.392
2158.001
2157.610
2157.219
2156.828
2156.437
2156.046
2155.655
2155.264
2154.873
2154.482
2154.091
2153.700
2153.309
2152.918
2152.527
2152.136
2151.745
2151.354
2150.963
2150.572
2150.181
2149.790
2149.399
2149.008
2148.617
2148.226
2147.835
2147.444
2147.053
2146.662
2146.271
2145.880
2145.489
2145.098
2144.707
2144.316
2143.925
2143.534
2143.143
2142.752
2142.361
2141.970
2141.579
2141.188
2140.797
2140.406
2140.015
2139.624
2139.233
2138.842
2138.451
2138.060
2137.669
2137.278
2136.887
2136.496
2136.105
2135.714
2135.323
2134.932
2134.541
2134.150
2133.759
2133.368
2132.977
2132.586
2132.195
2131.804
2131.413
2131.022
2130.631
2130.240
2129.849
2129.458
2129.067
2128.676
2128.285
2127.894
2127.503
2127.112
2126.721
2126.330
2125.939
2125.548
2125.157
2124.766
2124.375
2123.984
2123.593
2123.202
2122.811
2122.420
2122.029
2121.638
2121.247
2120.856
2120.465
2120.074
2119.683
2119.292
2118.901
2118.510
2118.119
2117.728
2117.337
2116.946
2116.555
2116.164
2115.773
2115.382
2114.991
2114.600
2114.209
2113.818
2113.427
2113.036
2112.645
2112.254
2111.863
2111.472
2111.081
2110.690
2110.299
2109.908
2109.517
2109.126
2108.735
2108.344
2107.953
2107.562
2107.171
2106.780
2106.389
2105.998
2105.607
2105.216
2104.825
2104.434
2104.043
2103.652
2103.261
2102.870
2102.479
2102.088
2101.697
2101.306
2100.915
2100.524
2100.133
2099.400
2098.667
2097.934
2097.201
2096.468
2095.735
2095.002
2094.269
2093.536
2092.803
2092.070
2091.337
2090.604
2089.871
2089.138
2088.405
2087.672
2086.939
2086.206
2085.473
2084.740
2084.007
2083.274
2082.541
2081.808
2081.075
2080.342
2079.609
2078.876
2078.143
2077.410
2076.677
2075.944
2075.211
2074.478
2073.745
2073.012
2072.279
2071.546
2070.813
2070.080
2069.347
2068.614
2067.881
2067.148
2066.415
2065.682
2064.949
2064.216
2063.483
2062.750
2062.017
2061.284
2060.551
2059.818
2059.085
2058.352
2057.619
2056.886
2056.153
2055.420
2054.687
2053.954
2053.221
2052.488
2051.755
2051.022
2050.289
2049.556
2048.823
2048.090
2047.357
2046.624
2045.891
2045.158
2044.425
2043.692
2042.959
2042.226
2041.493
2040.760
2040.027
2039.294
2038.561
2037.828
2037.095
2036.362
2035.629
2034.896
2034.163
2033.430
2032.697
2031.964
2031.231
2030.498
2029.765
2029.032
2028.299
2027.566
2026.833
2026.100
2025.367
2024.634
2023.901
2023.168
2022.435
2021.702
2020.969
2020.236
2019.503
2018.770
2018.037
2017.304
2016.571
2015.838
2015.105
2014.372
2013.639
2012.906
2012.173
2011.440
2010.707
2009.974
2009.241
2008.508
2007.775
2007.042
2006.309
2005.576
2004.843
2004.110
2003.377
2002.644
2001.911
2001.178
2000.445
1999.712
1998.979
1998.246
1997.513
1996.780
1996.047
1995.314
1994.581
1993.848
1993.115
1992.382
1991.649
1990.916
1990.183
1989.450
1988.717
1987.984
1987.251
1986.518
1985.785
1985.052
1984.319
1983.586
1982.853
1982.120
1981.387
1980.654
1979.921
1979.188
1978.455
1977.722
1976.989
1976.256
1975.523
1974.790
1974.057
1973.324
1972.591
1971.858
1971.125
1970.392
1969.659
1968.926
1968.193
1967.460
1966.727
1965.994
1965.261
1964.528
1963.795
1963.062
1962.329
1961.596
1960.863
1960.130
1959.397
1958.664
1957.931
1957.198
1956.465
1955.732
1954.999
1954.266
1953.533
1951.627
1949.721
1947.815
1945.909
1944.003
1942.097
1940.191
1938.285
1936.379
1934.473
1932.567
1930.661
1928.755
1926.849
1924.943
1923.037
1921.131
1919.225
1917.319
1915.413
1913.507
1911.601
1909.695
1907.789
1905.883
1903.977
1902.071
1900.165
1898.259
1896.353
1894.447
1892.541
1890.635
1888.729
1886.823
1884.917
1883.011
1881.105
1879.199
1877.293
1875.387
1873.481
1871.575
1869.669
1867.763
1865.857
1863.951
1862.045
1860.139
1858.233
1856.327
1854.421
1852.515
1850.609
1848.703
1846.797
1844.891
1842.985
1841.079
1839.173
1837.267
1835.361
1833.455
1831.549
1829.643
1827.737
1825.831
1823.925
1822.019
1820.113
1818.207
1816.301
1814.395
1812.489
1810.583
1808.677
1806.771
1804.865
1802.959
1801.053
1799.147
1797.241
1795.335
1793.429
1791.523
1789.617
1787.711
1785.805
1783.899
1781.993
1780.087
1778.181
1776.275
1774.369
1772.463
1770.557
1768.651
1766.745
1764.839
1762.933
1761.027
1759.121
1757.215
1755.309
1753.403
1751.497
1749.591
1747.685
1745.779
1743.873
1741.967
1740.061
1738.155
1736.249
1734.343
1732.437
1730.531
1728.625
1726.719
1724.813
1722.907
1721.001
1719.095
1717.189
1715.283
1713.377
1711.471
1709.565
1707.659
1705.753
1703.847
1701.941
1700.035
1698.129
1696.223
1694.317
1692.411
1690.505
1688.599
1686.693
1684.787
1682.881
1680.975
1679.069
1677.163
1675.257
1673.351
1671.445
1669.539
1667.633
1665.727
1663.821
1661.915
1660.009
1658.103
1656.197
1654.291
1652.385
1650.479
1648.573
1646.667
1644.761
1642.855
1640.949
1639.043
1637.137
1635.231
1633.325
1631.419
1629.513
1627.607
1625.701
1623.795
1621.889
1619.983
1618.077
1616.171
1614.265
1612.359
1610.453
1608.547
1606.641
1604.735
1602.829
1600.923
1599.017
1597.111
1595.205
1593.299
1591.393
1589.487
1587.581
1585.675
1583.769
1581.863
1579.957
1578.051
1576.145
1574.239
1572.333
1572.113
1571.893
1571.673
1571.453
1571.233
1571.013
1570.793
1570.573
1570.353
1570.133
1569.913
1569.693
1569.473
1569.253
1569.033
1568.813
1568.593
1568.373
1568.153
1567.933
1567.713
1567.493
1567.273
1567.053
1566.833
1566.613
1566.393
1566.173
1565.953
1565.733
1565.513
1565.293
1565.073
1564.853
1564.633
1564.413
1564.193
1563.973
1563.753
1563.533
1563.313
1563.093
1562.873
1562.653
1562.433
1562.213
1561.993
1561.773
1561.553
1561.333
1561.113
1560.893
1560.673
1560.453
1560.233
1560.013
1559.793
1559.573
1559.353
1559.133
1558.913
1558.693
1558.473
1558.253
1558.033
1557.813
1557.593
1557.373
1557.153
1556.933
1556.713
1556.493
1556.273
1556.053
1555.833
1555.613
1555.393
1555.173
1554.953
1554.733
1554.513
1554.293
1554.073
1553.853
1553.633
1553.413
1553.193
1552.973
1552.753
1552.533
1552.313
1552.093
1551.873
1551.653
1551.433
1551.213
1550.993
1550.773
1550.553
1550.333
1550.113
1549.893
1549.673
1549.453
1549.233
1549.013
1548.793
1548.573
1548.353
1548.133
1547.913
1547.693
1547.473
1547.253
1547.033
1546.813
1546.593
1546.373
1546.153
1545.933
1545.713
1545.493
1545.273
1545.053
1544.833
1544.613
1544.393
1544.173
1543.953
1543.733
1543.513
1543.293
1543.073
1542.853
1542.633
1542.413
1542.193
1541.973
1541.753
1541.533
1541.313
1541.093
1540.873
1540.653
1540.433
1540.213
1539.993
1539.773
1539.553
1539.333
1539.113
1538.893
1538.673
1538.453
1538.233
1538.013
1537.793
1537.573
1537.353
1537.133
1536.913
1536.693
1536.473
1536.253
1536.033
1535.813
1535.593
1535.373
1535.153
1534.933
1534.713
1534.493
1534.273
1534.053
1533.833
1533.613
1533.393
1533.173
1532.953
1532.733
1532.513
1532.293
1532.073
1531.853
1531.633
1531.413
1531.193
1530.973
1530.753
1530.533
1530.313
1530.093
1529.873
1529.653
1529.433
1529.213
1528.993
1528.773
1528.553
1528.333
1531.608
1534.882
1538.157
1541.431
1544.706
1547.980
1551.255
1554.529
1557.804
1561.078
1564.353
1567.627
1570.902
1574.176
1577.451
1580.725
1584.000
1587.274
1590.549
1593.823
1597.098
1600.372
1603.647
1606.921
1610.196
1613.470
1616.745
1620.019
1623.294
1626.568
1629.843
1633.117
1636.392
1639.666
1642.941
1646.215
1649.490
1652.764
1656.039
1659.313
1662.588
1665.862
1669.137
1672.411
1675.686
1678.960
1682.235
1685.509
1688.784
1692.058
1695.333
1698.607
1701.882
1705.156
1708.431
1711.705
1714.980
1718.254
1721.529
1724.803
1728.078
1731.352
1734.627
1737.901
1741.176
1744.450
1747.725
1750.999
1754.274
1757.548
1760.823
1764.097
1767.372
1770.646
1773.921
1777.195
1780.470
1783.744
1787.019
1790.293
1793.568
1796.842
1800.117
1803.391
1806.666
1809.940
1813.215
1816.489
1819.764
1823.038
1826.313
1829.587
1832.862
1836.136
1839.411
1842.685
1845.960
1849.234
1852.509
1855.783
1859.058
1862.332
1865.607
1868.881
1872.156
1875.430
1878.705
1881.979
1885.254
1888.528
1891.803
1895.077
1898.352
1901.626
1904.901
1908.175
1911.450
1914.724
1917.999
1921.273
1924.548
1927.822
1931.097
1934.371
1937.646
1940.920
1944.195
1947.469
1950.744
1954.018
1957.293
1960.567
1963.842
1967.116
1970.391
1973.665
1976.940
1980.214
1983.489
1986.763
1990.038
1993.312
1996.587
1999.861
2003.136
2006.410
2009.685
2012.959
2016.234
2019.508
2022.783
2026.057
2029.332
2032.606
2035.881
2039.155
2042.430
2045.704
2048.979
2052.253
2055.528
2058.802
2062.077
2065.351
2068.626
2071.900
2075.175
2078.449
2081.724
2084.998
2088.273
2091.547
2094.822
2098.096
2101.371
2104.645
2107.920
2111.194
2114.469
2117.743
2121.018
2124.292
2127.567
2130.841
2134.116
2137.390
2140.665
2143.939
2147.214
2150.488
2153.763
2157.037
2160.312
2163.586
2166.861
2170.135
2173.410
2176.684
2179.959
