559.281
562.726
566.172
569.617
573.063
576.508
579.954
583.399
586.845
590.290
593.736
597.181
600.627
604.072
607.518
610.963
614.409
617.854
621.300
624.745
628.191
631.636
635.082
638.527
641.973
645.418
648.864
652.309
655.755
659.200
662.646
666.091
669.537
672.982
676.428
679.873
683.319
686.764
690.210
693.655
697.101
700.546
703.992
707.437
710.883
714.328
717.774
721.219
724.665
728.110
731.556
735.001
738.447
741.892
745.338
748.783
752.229
755.674
759.120
762.565
766.011
769.456
772.902
776.347
779.793
783.238
786.684
790.129
793.575
797.020
800.466
803.911
807.357
810.802
814.248
817.693
821.139
824.584
828.030
831.475
834.921
838.366
841.812
845.257
848.703
852.148
855.594
859.039
862.485
865.930
869.376
872.821
876.267
879.712
883.158
886.603
890.049
893.494
896.940
900.385
903.831
907.276
910.722
914.167
917.613
921.058
924.504
927.949
931.395
934.840
938.286
941.731
945.177
948.622
952.068
955.513
958.959
962.404
965.850
969.295
972.741
976.186
979.632
983.077
986.523
989.968
993.414
996.859
1000.305
1003.750
1007.196
1010.641
1014.087
1017.532
1020.978
1024.423
1027.869
1031.314
1034.760
1038.205
1041.651
1045.096
1048.542
1051.987
1055.433
1058.878
1062.324
1065.769
1069.215
1072.660
1076.106
1079.551
1082.997
1086.442
1089.888
1093.333
1096.779
1100.224
1103.670
1107.115
1110.561
1114.006
1117.452
1120.897
1124.343
1127.788
1131.234
1134.679
1138.125
1141.570
1145.016
1148.461
1151.907
1155.352
1158.798
1162.243
1165.689
1169.134
1172.580
1176.025
1179.471
1182.916
1186.362
1189.807
1193.253
1196.698
1200.144
1203.589
1207.035
1210.480
1213.926
1217.371
1220.817
1224.262
1227.708
1231.153
1234.599
1238.044
1241.490
1244.935
1248.381
1253.049
1257.717
1262.385
1267.053
1271.721
1276.389
1281.057
1285.725
1290.393
1295.061
1299.729
1304.397
1309.065
1313.733
1318.401
1323.069
1327.737
1332.405
1337.073
1341.741
1346.409
1351.077
1355.745
1360.413
1365.081
1369.749
1374.417
1379.085
1383.753
1388.421
1393.089
1397.757
1402.425
1407.093
1411.761
1416.429
1421.097
1425.765
1430.433
1435.101
1439.769
1444.437
1449.105
1453.773
1458.441
1463.109
1467.777
1472.445
1477.113
1481.781
1486.449
1491.117
1495.785
1500.453
1505.121
1509.789
1514.457
1519.125
1523.793
1528.461
1533.129
1537.797
1542.465
1547.133
1551.801
1556.469
1561.137
1565.805
1570.473
1575.141
1579.809
1584.477
1589.145
1593.813
1598.481
1603.149
1607.817
1612.485
1617.153
1621.821
1626.489
1631.157
1635.825
1640.493
1645.161
1649.829
1654.497
1659.165
1663.833
1668.501
1673.169
1677.837
1682.505
1687.173
1691.841
1696.509
1701.177
1705.845
1710.513
1715.181
1719.849
1724.517
1729.185
1733.853
1738.521
1743.189
1747.857
1752.525
1757.193
1761.861
1766.529
1771.197
1775.865
1780.533
1785.201
1789.869
1794.537
1799.205
1803.873
1808.541
1813.209
1817.877
1822.545
1827.213
1831.881
1836.549
1841.217
1845.885
1850.553
1855.221
1859.889
1864.557
1869.225
1873.893
1878.561
1883.229
1887.897
1892.565
1897.233
1901.901
1906.569
1911.237
1915.905
1920.573
1925.241
1929.909
1934.577
1939.245
1943.913
1948.581
1953.249
1957.917
1962.585
1967.253
1971.921
1976.589
1981.257
1985.925
1990.593
1995.261
1999.929
2004.597
2009.265
2013.933
2018.601
2023.269
2027.937
2032.605
2037.273
2041.941
2046.609
2051.277
2055.945
2060.613
2065.281
2069.949
2074.617
2079.285
2083.953
2088.621
2093.289
2097.957
2102.625
2107.293
2111.961
2116.629
2121.297
2125.965
2130.633
2135.301
2139.969
2144.637
2149.305
2153.973
2158.641
2163.309
2167.977
2172.645
2177.313
2181.981
2182.323
2182.665
2183.007
2183.349
2183.691
2184.033
2184.375
2184.717
2185.059
2185.401
2185.743
2186.085
2186.427
2186.769
2187.111
2187.453
2187.795
2188.137
2188.479
2188.821
2189.163
2189.505
2189.847
2190.189
2190.531
2190.873
2191.215
2191.557
2191.899
2192.241
2192.583
2192.925
2193.267
2193.609
2193.951
2194.293
2194.635
2194.977
2195.319
2195.661
2196.003
2196.345
2196.687
2197.029
2197.371
2197.713
2198.055
2198.397
2198.739
2199.081
2199.423
2199.765
2200.107
2200.449
2200.791
2201.133
2201.475
2201.817
2202.159
2202.501
2202.843
2203.185
2203.527
2203.869
2204.211
2204.553
2204.895
2205.237
2205.579
2205.921
2206.263
2206.605
2206.947
2207.289
2207.631
2207.973
2208.315
2208.657
2208.999
2209.341
2209.683
2210.025
2210.367
2210.709
2211.051
2211.393
2211.735
2212.077
2212.419
2212.761
2213.103
2213.445
2213.787
2214.129
2214.471
2214.813
2215.155
2215.497
2215.839
2216.181
2216.523
2216.865
2217.207
2217.549
2217.891
2218.233
2218.575
2218.917
2219.259
2219.601
2219.943
2220.285
2220.627
2220.969
2221.311
2221.653
2221.995
2222.337
2222.679
2223.021
2223.363
2223.705
2224.047
2224.389
2224.731
2225.073
2225.415
2225.757
2226.099
2226.441
2226.783
2227.125
2227.467
2227.809
2228.151
2228.493
2228.835
2229.177
2229.519
2229.861
2230.203
2230.545
2230.887
2231.229
2231.571
2231.913
2232.255
2232.597
2232.939
2233.281
2233.623
2233.965
2234.307
2234.649
2234.991
2235.333
2235.675
2236.017
2236.359
2236.701
2237.043
2237.385
2237.727
2238.069
2238.411
2238.753
2239.095
2239.437
2239.779
2240.121
2240.463
2240.805
2241.147
2241.489
2241.831
2242.173
2242.515
2242.857
2243.199
2243.541
2243.883
2244.225
2244.567
2244.909
2245.251
2245.593
2245.935
2246.277
2246.619
2246.961
2247.303
2247.645
2247.987
2248.329
2248.671
2249.013
2249.355
2249.697
2250.039
2250.381
2247.253
2244.125
2240.997
2237.869
2234.741
2231.613
2228.485
2225.357
2222.229
2219.101
2215.973
2212.845
2209.717
2206.589
2203.461
2200.333
2197.205
2194.077
2190.949
2187.821
2184.693
2181.565
2178.437
2175.309
2172.181
2169.053
2165.925
2162.797
2159.669
2156.541
2153.413
2150.285
2147.157
2144.029
2140.901
2137.773
2134.645
2131.517
2128.389
2125.261
2122.133
2119.005
2115.877
2112.749
2109.621
2106.493
2103.365
2100.237
2097.109
2093.981
2090.853
2087.725
2084.597
2081.469
2078.341
2075.213
2072.085
2068.957
2065.829
2062.701
2059.573
2056.445
2053.317
2050.189
2047.061
2043.933
2040.805
2037.677
2034.549
2031.421
2028.293
2025.165
2022.037
2018.909
2015.781
2012.653
2009.525
2006.397
2003.269
2000.141
1997.013
1993.885
1990.757
1987.629
1984.501
1981.373
1978.245
1975.117
1971.989
1968.861
1965.733
1962.605
1959.477
1956.349
1953.221
1950.093
1946.965
1943.837
1940.709
1937.581
1934.453
1931.325
1928.197
1925.069
1921.941
1918.813
1915.685
1912.557
1909.429
1906.301
1903.173
1900.045
1896.917
1893.789
1890.661
1887.533
1884.405
1881.277
1878.149
1875.021
1871.893
1868.765
1865.637
1862.509
1859.381
1856.253
1853.125
1849.997
1846.869
1843.741
1840.613
1837.485
1834.357
1831.229
1828.101
1824.973
1821.845
1818.717
1815.589
1812.461
1809.333
1806.205
1803.077
1799.949
1796.821
1793.693
1790.565
1787.437
1784.309
1781.181
1778.053
1774.925
1771.797
1768.669
1765.541
1762.413
1759.285
1756.157
1753.029
1749.901
1746.773
1743.645
1740.517
1737.389
1734.261
1731.133
1728.005
1724.877
1721.749
1718.621
1715.493
1712.365
1709.237
1706.109
1702.981
1699.853
1696.725
1693.597
1690.469
1687.341
1684.213
1681.085
1677.957
1674.829
1671.701
1668.573
1665.445
1662.317
1659.189
1656.061
1652.933
1649.805
1646.677
1643.549
1640.421
1637.293
1634.165
1631.037
1627.909
1624.781
1628.789
1632.797
1636.805
1640.813
1644.821
1648.829
1652.837
1656.845
1660.853
1664.861
1668.869
1672.877
1676.885
1680.893
1684.901
1688.909
1692.917
1696.925
1700.933
1704.941
1708.949
1712.957
1716.965
1720.973
1724.981
1728.989
1732.997
1737.005
1741.013
1745.021
1749.029
1753.037
1757.045
1761.053
1765.061
1769.069
1773.077
1777.085
1781.093
1785.101
1789.109
1793.117
1797.125
1801.133
1805.141
1809.149
1813.157
1817.165
1821.173
1825.181
1829.189
1833.197
1837.205
1841.213
1845.221
1849.229
1853.237
1857.245
1861.253
1865.261
1869.269
1873.277
1877.285
1881.293
1885.301
1889.309
1893.317
1897.325
1901.333
1905.341
1909.349
1913.357
1917.365
1921.373
1925.381
1929.389
1933.397
1937.405
1941.413
1945.421
1949.429
1953.437
1957.445
1961.453
1965.461
1969.469
1973.477
1977.485
1981.493
1985.501
1989.509
1993.517
1997.525
2001.533
2005.541
2009.549
2013.557
2017.565
2021.573
2025.581
2029.589
2033.597
2037.605
2041.613
2045.621
2049.629
2053.637
2057.645
2061.653
2065.661
2069.669
2073.677
2077.685
2081.693
2085.701
2089.709
2093.717
2097.725
2101.733
2105.741
2109.749
2113.757
2117.765
2121.773
2125.781
2129.789
2133.797
2137.805
2141.813
2145.821
2149.829
2153.837
2157.845
2161.853
2165.861
2169.869
2173.877
2177.885
2181.893
2185.901
2189.909
2193.917
2197.925
2201.933
2205.941
2209.949
2213.957
2217.965
2221.973
2225.981
2229.989
2233.997
2238.005
2242.013
2246.021
2250.029
2254.037
2258.045
2262.053
2266.061
2270.069
2274.077
2278.085
2282.093
2286.101
2290.109
2294.117
2298.125
2302.133
2306.141
2310.149
2314.157
2318.165
2322.173
2326.181
2330.189
2334.197
2338.205
2342.213
2346.221
2350.229
2354.237
2358.245
2362.253
2366.261
2370.269
2374.277
2378.285
2382.293
2386.301
2390.309
2394.317
2398.325
2402.333
2406.341
2410.349
2414.357
2418.365
2422.373
2426.381
2423.912
2421.444
2418.975
2416.507
2414.038
2411.570
2409.101
2406.633
2404.164
2401.696
2399.227
2396.759
2394.290
2391.822
2389.353
2386.885
2384.416
2381.948
2379.479
2377.011
2374.542
2372.074
2369.605
2367.137
2364.668
2362.200
2359.731
2357.263
2354.794
2352.326
2349.857
2347.389
2344.920
2342.452
2339.983
2337.515
2335.046
2332.578
2330.109
2327.641
2325.172
2322.704
2320.235
2317.767
2315.298
2312.830
2310.361
2307.893
2305.424
2302.956
2300.487
2298.019
2295.550
2293.082
2290.613
2288.145
2285.676
2283.208
2280.739
2278.271
2275.802
2273.334
2270.865
2268.397
2265.928
2263.460
2260.991
2258.523
2256.054
2253.586
2251.117
2248.649
2246.180
2243.712
2241.243
2238.775
2236.306
2233.838
2231.369
2228.901
2226.432
2223.964
2221.495
2219.027
2216.558
2214.090
2211.621
2209.153
2206.684
2204.216
2201.747
2199.279
2196.810
2194.342
2191.873
2189.405
2186.936
2184.468
2181.999
2179.531
2177.062
2174.594
2172.125
2169.657
2167.188
2164.720
2162.251
2159.783
2157.314
2154.846
2152.377
2149.909
2147.440
2144.972
2142.503
2140.035
2137.566
2135.098
2132.629
2130.161
2127.692
2125.224
2122.755
2120.287
2117.818
2115.350
2112.881
2110.413
2107.944
2105.476
2103.007
2100.539
2098.070
2095.602
2093.133
2090.665
2088.196
2085.728
2083.259
2080.791
2078.322
2075.854
2073.385
2070.917
2068.448
2065.980
2063.511
2061.043
2058.574
2056.106
2053.637
2051.169
2048.700
2046.232
2043.763
2041.295
2038.826
2036.358
2033.889
2031.421
2028.952
2026.484
2024.015
2021.547
2019.078
2016.610
2014.141
2011.673
2009.204
2006.736
2004.267
2001.799
1999.330
1996.862
1994.393
1991.925
1989.456
1986.988
1984.519
1982.051
1979.582
1977.114
1974.645
1972.177
1969.708
1967.240
1964.771
1962.303
1959.834
1957.366
1954.897
1952.429
1949.960
1947.492
1945.023
1942.555
1940.086
1937.618
1935.149
1932.681
1931.508
1930.335
1929.162
1927.989
1926.816
1925.643
1924.470
1923.297
1922.124
1920.951
1919.778
1918.605
1917.432
1916.259
1915.086
1913.913
1912.740
1911.567
1910.394
1909.221
1908.048
1906.875
1905.702
1904.529
1903.356
1902.183
1901.010
1899.837
1898.664
1897.491
1896.318
1895.145
1893.972
1892.799
1891.626
1890.453
1889.280
1888.107
1886.934
1885.761
1884.588
1883.415
1882.242
1881.069
1879.896
1878.723
1877.550
1876.377
1875.204
1874.031
1872.858
1871.685
1870.512
1869.339
1868.166
1866.993
1865.820
1864.647
1863.474
1862.301
1861.128
1859.955
1858.782
1857.609
1856.436
1855.263
1854.090
1852.917
1851.744
1850.571
1849.398
1848.225
1847.052
1845.879
1844.706
1843.533
1842.360
1841.187
1840.014
1838.841
1837.668
1836.495
1835.322
1834.149
1832.976
1831.803
1830.630
1829.457
1828.284
1827.111
1825.938
1824.765
1823.592
1822.419
1821.246
1820.073
1818.900
1817.727
1816.554
1815.381
1814.208
1813.035
1811.862
1810.689
1809.516
1808.343
1807.170
1805.997
1804.824
1803.651
1802.478
1801.305
1800.132
1798.959
1797.786
1796.613
1795.440
1794.267
1793.094
1791.921
1790.748
1789.575
1788.402
1787.229
1786.056
1784.883
1783.710
1782.537
1781.364
1780.191
1779.018
1777.845
1776.672
1775.499
1774.326
1773.153
1771.980
1770.807
1769.634
1768.461
1767.288
1766.115
1764.942
1763.769
1762.596
1761.423
1760.250
1759.077
1757.904
1756.731
1755.558
1754.385
1753.212
1752.039
1750.866
1749.693
1748.520
1747.347
1746.174
1745.001
1743.828
1742.655
1741.482
1740.309
1739.136
1737.963
1736.790
1735.617
1734.444
1733.271
1732.098
1730.925
1729.752
1728.579
1727.406
1726.233
1725.060
1723.887
1722.714
1721.541
1720.368
1719.195
1718.022
1716.849
1715.676
1714.503
1713.330
1712.157
1710.984
1709.811
1708.638
1707.465
1706.292
1705.119
1703.946
1702.773
1701.600
1700.427
1699.254
1698.081
1695.026
1691.972
1688.917
1685.863
1682.808
1679.754
1676.699
1673.645
1670.590
1667.536
1664.481
1661.427
1658.372
1655.318
1652.263
1649.209
1646.154
1643.100
1640.045
1636.991
1633.936
1630.882
1627.827
1624.773
1621.718
1618.664
1615.609
1612.555
1609.500
1606.446
1603.391
1600.337
1597.282
1594.228
1591.173
1588.119
1585.064
1582.010
1578.955
1575.901
1572.846
1569.792
1566.737
1563.683
1560.628
1557.574
1554.519
1551.465
1548.410
1545.356
1542.301
1539.247
1536.192
1533.138
1530.083
1527.029
1523.974
1520.920
1517.865
1514.811
1511.756
1508.702
1505.647
1502.593
1499.538
1496.484
1493.429
1490.375
1487.320
1484.266
1481.211
1478.157
1475.102
1472.048
1468.993
1465.939
1462.884
1459.830
1456.775
1453.721
1450.666
1447.612
1444.557
1441.503
1438.448
1435.394
1432.339
1429.285
1426.230
1423.176
1420.121
1417.067
1414.012
1410.958
1407.903
1404.849
1401.794
1398.740
1395.685
1392.631
1389.576
1386.522
1383.467
1380.413
1377.358
1374.304
1371.249
1368.195
1365.140
1362.086
1359.031
1355.977
1352.922
1349.868
1346.813
1343.759
1340.704
1337.650
1334.595
1331.541
1328.486
1325.432
1322.377
1319.323
1316.268
1313.214
1310.159
1307.105
1304.050
1300.996
1297.941
1294.887
1291.832
1288.778
1285.723
1282.669
1279.614
1276.560
1273.505
1270.451
1267.396
1264.342
1261.287
1258.233
1255.178
1252.124
1249.069
1246.015
1242.960
1239.906
1236.851
1233.797
1230.742
1227.688
1224.633
1221.579
1218.524
1215.470
1212.415
1209.361
1206.306
1203.252
1200.197
1197.143
1194.088
1191.034
1187.979
1184.925
1181.870
1178.816
1175.761
1172.707
1169.652
1166.598
1163.543
1160.489
1157.434
1154.380
1151.325
1148.271
1145.216
1142.162
1139.107
1136.053
1132.998
1129.944
1126.889
1123.835
1120.780
1117.726
1114.671
1111.617
1108.562
1105.508
1102.453
1099.399
1096.344
1093.290
1090.235
1087.181
1090.651
1094.121
1097.591
1101.061
1104.531
1108.001
1111.471
1114.941
1118.411
1121.881
1125.351
1128.821
1132.291
1135.761
1139.231
1142.701
1146.171
1149.641
1153.111
1156.581
1160.051
1163.521
1166.991
1170.461
1173.931
1177.401
1180.871
1184.341
1187.811
1191.281
1194.751
1198.221
1201.691
1205.161
1208.631
1212.101
1215.571
1219.041
1222.511
1225.981
1229.451
1232.921
1236.391
1239.861
1243.331
1246.801
1250.271
1253.741
1257.211
1260.681
1264.151
1267.621
1271.091
1274.561
1278.031
1281.501
1284.971
1288.441
1291.911
1295.381
1298.851
1302.321
1305.791
1309.261
1312.731
1316.201
1319.671
1323.141
1326.611
1330.081
1333.551
1337.021
1340.491
1343.961
1347.431
1350.901
1354.371
1357.841
1361.311
1364.781
1368.251
1371.721
1375.191
1378.661
1382.131
1385.601
1389.071
1392.541
1396.011
1399.481
1402.951
1406.421
1409.891
1413.361
1416.831
1420.301
1423.771
1427.241
1430.711
1434.181
1437.651
1441.121
1444.591
1448.061
1451.531
1455.001
1458.471
1461.941
1465.411
1468.881
1472.351
1475.821
1479.291
1482.761
1486.231
1489.701
1493.171
1496.641
1500.111
1503.581
1507.051
1510.521
1513.991
1517.461
1520.931
1524.401
1527.871
1531.341
1534.811
1538.281
1541.751
1545.221
1548.691
1552.161
1555.631
1559.101
1562.571
1566.041
1569.511
1572.981
1576.451
1579.921
1583.391
1586.861
1590.331
1593.801
1597.271
1600.741
1604.211
1607.681
1611.151
1614.621
1618.091
1621.561
1625.031
1628.501
1631.971
1635.441
1638.911
1642.381
1645.851
1649.321
1652.791
1656.261
1659.731
1663.201
1666.671
1670.141
1673.611
1677.081
1680.551
1684.021
1687.491
1690.961
1694.431
1697.901
1701.371
1704.841
1708.311
1711.781
1715.251
1718.721
1722.191
1725.661
1729.131
1732.601
1736.071
1739.541
1743.011
1746.481
1749.951
1753.421
1756.891
1760.361
1763.831
1767.301
1770.771
1774.241
1777.711
1781.181
1774.289
1767.398
1760.506
1753.615
1746.723
1739.832
1732.940
1726.049
1719.157
1712.266
1705.374
1698.483
1691.591
1684.700
1677.808
1670.917
1664.025
1657.134
1650.242
1643.351
1636.459
1629.568
1622.676
1615.785
1608.893
1602.002
1595.110
1588.219
1581.327
1574.436
1567.544
1560.653
1553.761
1546.870
1539.978
1533.087
1526.195
1519.304
1512.412
1505.521
1498.629
1491.738
1484.846
1477.955
1471.063
1464.172
1457.280
1450.389
1443.497
1436.606
1429.714
1422.823
1415.931
1409.040
1402.148
1395.257
1388.365
1381.474
1374.582
1367.691
1360.799
1353.908
1347.016
1340.125
1333.233
1326.342
1319.450
1312.559
1305.667
1298.776
1291.884
1284.993
1278.101
1271.210
1264.318
1257.427
1250.535
1243.644
1236.752
1229.861
1222.969
1216.078
1209.186
1202.295
1195.403
1188.512
1181.620
1174.729
1167.837
1160.946
1154.054
1147.163
1140.271
1133.380
1126.488
1119.597
1112.705
1105.814
1098.922
1092.031
1085.139
1078.248
1071.356
1064.465
1057.573
1050.682
1043.790
1036.899
1030.007
1023.116
1016.224
1009.333
1002.441
995.550
988.658
981.767
974.875
967.984
961.092
954.201
947.309
940.418
933.526
926.635
919.743
912.852
905.960
899.069
892.177
885.286
878.394
871.503
864.611
857.720
850.828
843.937
837.045
830.154
823.262
816.371
809.479
802.588
795.696
788.805
781.913
775.022
768.130
761.239
754.347
747.456
740.564
733.673
726.781
719.890
712.998
706.107
699.215
692.324
685.432
678.541
671.649
664.758
657.866
650.975
644.083
637.192
630.300
623.409
616.517
609.626
602.734
595.843
588.951
582.060
575.168
568.277
561.385
554.494
547.602
540.711
533.819
526.928
520.036
513.145
506.253
499.362
492.470
485.579
478.687
471.796
464.904
458.013
451.121
444.230
437.338
430.447
423.555
416.664
409.772
