891.354
893.187
895.020
896.853
898.686
900.519
902.352
904.185
906.018
907.851
909.684
911.517
913.350
915.183
917.016
918.849
920.682
922.515
924.348
926.181
928.014
929.847
931.680
933.513
935.346
937.179
939.012
940.845
942.678
944.511
946.344
948.177
950.010
951.843
953.676
955.509
957.342
959.175
961.008
962.841
964.674
966.507
968.340
970.173
972.006
973.839
975.672
977.505
979.338
981.171
983.004
984.837
986.670
988.503
990.336
992.169
994.002
995.835
997.668
999.501
1001.334
1003.167
1005.000
1006.833
1008.666
1010.499
1012.332
1014.165
1015.998
1017.831
1019.664
1021.497
1023.330
1025.163
1026.996
1028.829
1030.662
1032.495
1034.328
1036.161
1037.994
1039.827
1041.660
1043.493
1045.326
1047.159
1048.992
1050.825
1052.658
1054.491
1056.324
1058.157
1059.990
1061.823
1063.656
1065.489
1067.322
1069.155
1070.988
1072.821
1074.654
1076.487
1078.320
1080.153
1081.986
1083.819
1085.652
1087.485
1089.318
1091.151
1092.984
1094.817
1096.650
1098.483
1100.316
1102.149
1103.982
1105.815
1107.648
1109.481
1111.314
1113.147
1114.980
1116.813
1118.646
1120.479
1122.312
1124.145
1125.978
1127.811
1129.644
1131.477
1133.310
1135.143
1136.976
1138.809
1140.642
1142.475
1144.308
1146.141
1147.974
1149.807
1151.640
1153.473
1155.306
1157.139
1158.972
1160.805
1162.638
1164.471
1166.304
1168.137
1169.970
1171.803
1173.636
1175.469
1177.302
1179.135
1180.968
1182.801
1184.634
1186.467
1188.300
1190.133
1191.966
1193.799
1195.632
1197.465
1199.298
1201.131
1202.964
1204.797
1206.630
1208.463
1210.296
1212.129
1213.962
1215.795
1217.628
1219.461
1221.294
1223.127
1224.960
1226.793
1228.626
1230.459
1232.292
1234.125
1235.958
1237.791
1239.624
1241.457
1243.290
1245.123
1246.956
1248.789
1250.622
1252.455
1254.288
1256.121
1257.954
1263.672
1269.391
1275.109
1280.828
1286.546
1292.265
1297.983
1303.702
1309.420
1315.139
1320.857
1326.576
1332.294
1338.013
1343.731
1349.450
1355.168
1360.887
1366.605
1372.324
1378.042
1383.761
1389.479
1395.198
1400.916
1406.635
1412.353
1418.072
1423.790
1429.509
1435.227
1440.946
1446.664
1452.383
1458.101
1463.820
1469.538
1475.257
1480.975
1486.694
1492.412
1498.131
1503.849
1509.568
1515.286
1521.005
1526.723
1532.442
1538.160
1543.879
1549.597
1555.316
1561.034
1566.753
1572.471
1578.190
1583.908
1589.627
1595.345
1601.064
1606.782
1612.501
1618.219
1623.938
1629.656
1635.375
1641.093
1646.812
1652.530
1658.249
1663.967
1669.686
1675.404
1681.123
1686.841
1692.560
1698.278
1703.997
1709.715
1715.434
1721.152
1726.871
1732.589
1738.308
1744.026
1749.745
1755.463
1761.182
1766.900
1772.619
1778.337
1784.056
1789.774
1795.493
1801.211
1806.930
1812.648
1818.367
1824.085
1829.804
1835.522
1841.241
1846.959
1852.678
1858.396
1864.115
1869.833
1875.552
1881.270
1886.989
1892.707
1898.426
1904.144
1909.863
1915.581
1921.300
1927.018
1932.737
1938.455
1944.174
1949.892
1955.611
1961.329
1967.048
1972.766
1978.485
1984.203
1989.922
1995.640
2001.359
2007.077
2012.796
2018.514
2024.233
2029.951
2035.670
2041.388
2047.107
2052.825
2058.544
2064.262
2069.981
2075.699
2081.418
2087.136
2092.855
2098.573
2104.292
2110.010
2115.729
2121.447
2127.166
2132.884
2138.603
2144.321
2150.040
2155.758
2161.477
2167.195
2172.914
2178.632
2184.351
2190.069
2195.788
2201.506
2207.225
2212.943
2218.662
2224.380
2230.099
2235.817
2241.536
2247.254
2252.973
2258.691
2264.410
2270.128
2275.847
2281.565
2287.284
2293.002
2298.721
2304.439
2310.158
2315.876
2321.595
2327.313
2333.032
2338.750
2344.469
2350.187
2355.906
2361.624
2367.343
2373.061
2378.780
2384.498
2390.217
2395.935
2401.654
2397.988
2394.322
2390.656
2386.990
2383.324
2379.658
2375.992
2372.326
2368.660
2364.994
2361.328
2357.662
2353.996
2350.330
2346.664
2342.998
2339.332
2335.666
2332.000
2328.334
2324.668
2321.002
2317.336
2313.670
2310.004
2306.338
2302.672
2299.006
2295.340
2291.674
2288.008
2284.342
2280.676
2277.010
2273.344
2269.678
2266.012
2262.346
2258.680
2255.014
2251.348
2247.682
2244.016
2240.350
2236.684
2233.018
2229.352
2225.686
2222.020
2218.354
2214.688
2211.022
2207.356
2203.690
2200.024
2196.358
2192.692
2189.026
2185.360
2181.694
2178.028
2174.362
2170.696
2167.030
2163.364
2159.698
2156.032
2152.366
2148.700
2145.034
2141.368
2137.702
2134.036
2130.370
2126.704
2123.038
2119.372
2115.706
2112.040
2108.374
2104.708
2101.042
2097.376
2093.710
2090.044
2086.378
2082.712
2079.046
2075.380
2071.714
2068.048
2064.382
2060.716
2057.050
2053.384
2049.718
2046.052
2042.386
2038.720
2035.054
2031.388
2027.722
2024.056
2020.390
2016.724
2013.058
2009.392
2005.726
2002.060
1998.394
1994.728
1991.062
1987.396
1983.730
1980.064
1976.398
1972.732
1969.066
1965.400
1961.734
1958.068
1954.402
1950.736
1947.070
1943.404
1939.738
1936.072
1932.406
1928.740
1925.074
1921.408
1917.742
1914.076
1910.410
1906.744
1903.078
1899.412
1895.746
1892.080
1888.414
1884.748
1881.082
1877.416
1873.750
1870.084
1866.418
1862.752
1859.086
1855.420
1851.754
1848.088
1844.422
1840.756
1837.090
1833.424
1829.758
1826.092
1822.426
1818.760
1815.094
1811.428
1807.762
1804.096
1800.430
1796.764
1793.098
1789.432
1785.766
1782.100
1778.434
1774.768
1771.102
1767.436
1763.770
1760.104
1756.438
1752.772
1749.106
1745.440
1741.774
1738.108
1734.442
1730.776
1727.110
1723.444
1719.778
1716.112
1712.446
1708.780
1705.114
1701.448
1697.782
1694.116
1690.450
1686.784
1683.118
1679.452
1675.786
1672.120
1668.454
1670.482
1672.511
1674.539
1676.568
1678.596
1680.625
1682.653
1684.682
1686.710
1688.739
1690.767
1692.796
1694.824
1696.853
1698.881
1700.910
1702.938
1704.967
1706.995
1709.024
1711.052
1713.081
1715.109
1717.138
1719.166
1721.195
1723.223
1725.252
1727.280
1729.309
1731.337
1733.366
1735.394
1737.423
1739.451
1741.480
1743.508
1745.537
1747.565
1749.594
1751.622
1753.651
1755.679
1757.708
1759.736
1761.765
1763.793
1765.822
1767.850
1769.879
1771.907
1773.936
1775.964
1777.993
1780.021
1782.050
1784.078
1786.107
1788.135
1790.164
1792.192
1794.221
1796.249
1798.278
1800.306
1802.335
1804.363
1806.392
1808.420
1810.449
1812.477
1814.506
1816.534
1818.563
1820.591
1822.620
1824.648
1826.677
1828.705
1830.734
1832.762
1834.791
1836.819
1838.848
1840.876
1842.905
1844.933
1846.962
1848.990
1851.019
1853.047
1855.076
1857.104
1859.133
1861.161
1863.190
1865.218
1867.247
1869.275
1871.304
1873.332
1875.361
1877.389
1879.418
1881.446
1883.475
1885.503
1887.532
1889.560
1891.589
1893.617
1895.646
1897.674
1899.703
1901.731
1903.760
1905.788
1907.817
1909.845
1911.874
1913.902
1915.931
1917.959
1919.988
1922.016
1924.045
1926.073
1928.102
1930.130
1932.159
1934.187
1936.216
1938.244
1940.273
1942.301
1944.330
1946.358
1948.387
1950.415
1952.444
1954.472
1956.501
1958.529
1960.558
1962.586
1964.615
1966.643
1968.672
1970.700
1972.729
1974.757
1976.786
1978.814
1980.843
1982.871
1984.900
1986.928
1988.957
1990.985
1993.014
1995.042
1997.071
1999.099
2001.128
2003.156
2005.185
2007.213
2009.242
2011.270
2013.299
2015.327
2017.356
2019.384
2021.413
2023.441
2025.470
2027.498
2029.527
2031.555
2033.584
2035.612
2037.641
2039.669
2041.698
2043.726
2045.755
2047.783
2049.812
2051.840
2053.869
2055.897
2057.926
2059.954
2061.983
2064.011
2066.040
2068.068
2070.097
2072.125
2074.154
2075.229
2076.304
2077.379
2078.454
2079.529
2080.604
2081.679
2082.754
2083.829
2084.904
2085.979
2087.054
2088.129
2089.204
2090.279
2091.354
2092.429
2093.504
2094.579
2095.654
2096.729
2097.804
2098.879
2099.954
2101.029
2102.104
2103.179
2104.254
2105.329
2106.404
2107.479
2108.554
2109.629
2110.704
2111.779
2112.854
2113.929
2115.004
2116.079
2117.154
2118.229
2119.304
2120.379
2121.454
2122.529
2123.604
2124.679
2125.754
2126.829
2127.904
2128.979
2130.054
2131.129
2132.204
2133.279
2134.354
2135.429
2136.504
2137.579
2138.654
2139.729
2140.804
2141.879
2142.954
2144.029
2145.104
2146.179
2147.254
2148.329
2149.404
2150.479
2151.554
2152.629
2153.704
2154.779
2155.854
2156.929
2158.004
2159.079
2160.154
2161.229
2162.304
2163.379
2164.454
2165.529
2166.604
2167.679
2168.754
2169.829
2170.904
2171.979
2173.054
2174.129
2175.204
2176.279
2177.354
2178.429
2179.504
2180.579
2181.654
2182.729
2183.804
2184.879
2185.954
2187.029
2188.104
2189.179
2190.254
2191.329
2192.404
2193.479
2194.554
2195.629
2196.704
2197.779
2198.854
2199.929
2201.004
2202.079
2203.154
2204.229
2205.304
2206.379
2207.454
2208.529
2209.604
2210.679
2211.754
2212.829
2213.904
2214.979
2216.054
2217.129
2218.204
2219.279
2220.354
2221.429
2222.504
2223.579
2224.654
2225.729
2226.804
2227.879
2228.954
2230.029
2231.104
2232.179
2233.254
2234.329
2235.404
2236.479
2237.554
2238.629
2239.704
2240.779
2241.854
2242.929
2244.004
2245.079
2246.154
2247.229
2248.304
2249.379
2250.454
2251.529
2252.604
2253.679
2254.754
2255.829
2256.904
2257.979
2259.054
2260.129
2261.204
2262.279
2263.354
2264.429
2265.504
2266.579
2267.654
2268.729
2269.804
2270.879
2271.954
2273.029
2274.104
2275.179
2276.254
2277.329
2278.404
2279.479
2280.554
2281.629
2282.704
2283.779
2284.854
2285.929
2287.004
2288.079
2289.154
2290.913
2292.673
2294.432
2296.192
2297.951
2299.711
2301.470
2303.230
2304.989
2306.749
2308.508
2310.268
2312.027
2313.787
2315.546
2317.306
2319.065
2320.825
2322.584
2324.344
2326.103
2327.863
2329.622
2331.382
2333.141
2334.901
2336.660
2338.420
2340.179
2341.939
2343.698
2345.458
2347.217
2348.977
2350.736
2352.496
2354.255
2356.015
2357.774
2359.534
2361.293
2363.053
2364.812
2366.572
2368.331
2370.091
2371.850
2373.610
2375.369
2377.129
2378.888
2380.648
2382.407
2384.167
2385.926
2387.686
2389.445
2391.205
2392.964
2394.724
2396.483
2398.243
2400.002
2401.762
2403.521
2405.281
2407.040
2408.800
2410.559
2412.319
2414.078
2415.838
2417.597
2419.357
2421.116
2422.876
2424.635
2426.395
2428.154
2429.914
2431.673
2433.433
2435.192
2436.952
2438.711
2440.471
2442.230
2443.990
2445.749
2447.509
2449.268
2451.028
2452.787
2454.547
2456.306
2458.066
2459.825
2461.585
2463.344
2465.104
2466.863
2468.623
2470.382
2472.142
2473.901
2475.661
2477.420
2479.180
2480.939
2482.699
2484.458
2486.218
2487.977
2489.737
2491.496
2493.256
2495.015
2496.775
2498.534
2500.294
2502.053
2503.813
2505.572
2507.332
2509.091
2510.851
2512.610
2514.370
2516.129
2517.889
2519.648
2521.408
2523.167
2524.927
2526.686
2528.446
2530.205
2531.965
2533.724
2535.484
2537.243
2539.003
2540.762
2542.522
2544.281
2546.041
2547.800
2549.560
2551.319
2553.079
2554.838
2556.598
2558.357
2560.117
2561.876
2563.636
2565.395
2567.155
2568.914
2570.674
2572.433
2574.193
2575.952
2577.712
2579.471
2581.231
2582.990
2584.750
2586.509
2588.269
2590.028
2591.788
2593.547
2595.307
2597.066
2598.826
2600.585
2602.345
2604.104
2605.864
2607.623
2609.383
2611.142
2612.902
2614.661
2616.421
2618.180
2619.940
2621.699
2623.459
2625.218
2626.978
2628.737
2630.497
2632.256
2634.016
2635.775
2637.535
2639.294
2641.054
2637.291
2633.528
2629.765
2626.002
2622.239
2618.476
2614.713
2610.950
2607.187
2603.424
2599.661
2595.898
2592.135
2588.372
2584.609
2580.846
2577.083
2573.320
2569.557
2565.794
2562.031
2558.268
2554.505
2550.742
2546.979
2543.216
2539.453
2535.690
2531.927
2528.164
2524.401
2520.638
2516.875
2513.112
2509.349
2505.586
2501.823
2498.060
2494.297
2490.534
2486.771
2483.008
2479.245
2475.482
2471.719
2467.956
2464.193
2460.430
2456.667
2452.904
2449.141
2445.378
2441.615
2437.852
2434.089
2430.326
2426.563
2422.800
2419.037
2415.274
2411.511
2407.748
2403.985
2400.222
2396.459
2392.696
2388.933
2385.170
2381.407
2377.644
2373.881
2370.118
2366.355
2362.592
2358.829
2355.066
2351.303
2347.540
2343.777
2340.014
2336.251
2332.488
2328.725
2324.962
2321.199
2317.436
2313.673
2309.910
2306.147
2302.384
2298.621
2294.858
2291.095
2287.332
2283.569
2279.806
2276.043
2272.280
2268.517
2264.754
2260.991
2257.228
2253.465
2249.702
2245.939
2242.176
2238.413
2234.650
2230.887
2227.124
2223.361
2219.598
2215.835
2212.072
2208.309
2204.546
2200.783
2197.020
2193.257
2189.494
2185.731
2181.968
2178.205
2174.442
2170.679
2166.916
2163.153
2159.390
2155.627
2151.864
2148.101
2144.338
2140.575
2136.812
2133.049
2129.286
2125.523
2121.760
2117.997
2114.234
2110.471
2106.708
2102.945
2099.182
2095.419
2091.656
2087.893
2084.130
2080.367
2076.604
2072.841
2069.078
2065.315
2061.552
2057.789
2054.026
2050.263
2046.500
2042.737
2038.974
2035.211
2031.448
2027.685
2023.922
2020.159
2016.396
2012.633
2008.870
2005.107
2001.344
1997.581
1993.818
1990.055
1986.292
1982.529
1978.766
1975.003
1971.240
1967.477
1963.714
1959.951
1956.188
1952.425
1948.662
1944.899
1941.136
1937.373
1933.610
1929.847
1926.084
1922.321
1918.558
1914.795
1911.032
1907.269
1903.506
1899.743
1895.980
1892.217
1888.454
1886.718
1884.983
1883.247
1881.512
1879.776
1878.041
1876.305
1874.570
1872.834
1871.099
1869.363
1867.628
1865.892
1864.157
1862.421
1860.686
1858.950
1857.215
1855.479
1853.744
1852.008
1850.273
1848.537
1846.802
1845.066
1843.331
1841.595
1839.860
1838.124
1836.389
1834.653
1832.918
1831.182
1829.447
1827.711
1825.976
1824.240
1822.505
1820.769
1819.034
1817.298
1815.563
1813.827
1812.092
1810.356
1808.621
1806.885
1805.150
1803.414
1801.679
1799.943
1798.208
1796.472
1794.737
1793.001
1791.266
1789.530
1787.795
1786.059
1784.324
1782.588
1780.853
1779.117
1777.382
1775.646
1773.911
1772.175
1770.440
1768.704
1766.969
1765.233
1763.498
1761.762
1760.027
1758.291
1756.556
1754.820
1753.085
1751.349
1749.614
1747.878
1746.143
1744.407
1742.672
1740.936
1739.201
1737.465
1735.730
1733.994
1732.259
1730.523
1728.788
1727.052
1725.317
1723.581
1721.846
1720.110
1718.375
1716.639
1714.904
1713.168
1711.433
1709.697
1707.962
1706.226
1704.491
1702.755
1701.020
1699.284
1697.549
1695.813
1694.078
1692.342
1690.607
1688.871
1687.136
1685.400
1683.665
1681.929
1680.194
1678.458
1676.723
1674.987
1673.252
1671.516
1669.781
1668.045
1666.310
1664.574
1662.839
1661.103
1659.368
1657.632
1655.897
1654.161
1652.426
1650.690
1648.955
1647.219
1645.484
1643.748
1642.013
1640.277
1638.542
1636.806
1635.071
1633.335
1631.600
1629.864
1628.129
1626.393
1624.658
1622.922
1621.187
1619.451
1617.716
1615.980
1614.245
1612.509
1610.774
1609.038
1607.303
1605.567
1603.832
1602.096
1600.361
1598.625
1596.890
1595.154
1593.419
1591.683
1589.948
1588.212
1586.477
1584.741
1583.006
1581.270
1579.535
1577.799
1576.064
1574.328
1572.593
1570.857
1569.122
1567.386
1565.651
1563.915
1562.180
1560.444
1558.709
1556.973
1555.238
1553.502
1551.767
1550.031
1548.296
1546.560
1544.825
1543.089
1541.354
1544.091
1546.828
1549.565
1552.302
1555.039
1557.776
1560.513
1563.250
1565.987
1568.724
1571.461
1574.198
1576.935
1579.672
1582.409
1585.146
1587.883
1590.620
1593.357
1596.094
1598.831
1601.568
1604.305
1607.042
1609.779
1612.516
1615.253
1617.990
1620.727
1623.464
1626.201
1628.938
1631.675
1634.412
1637.149
1639.886
1642.623
1645.360
1648.097
1650.834
1653.571
1656.308
1659.045
1661.782
1664.519
1667.256
1669.993
1672.730
1675.467
1678.204
1680.941
1683.678
1686.415
1689.152
1691.889
1694.626
1697.363
1700.100
1702.837
1705.574
1708.311
1711.048
1713.785
1716.522
1719.259
1721.996
1724.733
1727.470
1730.207
1732.944
1735.681
1738.418
1741.155
1743.892
1746.629
1749.366
1752.103
1754.840
1757.577
1760.314
1763.051
1765.788
1768.525
1771.262
1773.999
1776.736
1779.473
1782.210
1784.947
1787.684
1790.421
1793.158
1795.895
1798.632
1801.369
1804.106
1806.843
1809.580
1812.317
1815.054
1817.791
1820.528
1823.265
1826.002
1828.739
1831.476
1834.213
1836.950
1839.687
1842.424
1845.161
1847.898
1850.635
1853.372
1856.109
1858.846
1861.583
1864.320
1867.057
1869.794
1872.531
1875.268
1878.005
1880.742
1883.479
1886.216
1888.953
1891.690
1894.427
1897.164
1899.901
1902.638
1905.375
1908.112
1910.849
1913.586
1916.323
1919.060
1921.797
1924.534
1927.271
1930.008
1932.745
1935.482
1938.219
1940.956
1943.693
1946.430
1949.167
1951.904
1954.641
1957.378
1960.115
1962.852
1965.589
1968.326
1971.063
1973.800
1976.537
1979.274
1982.011
1984.748
1987.485
1990.222
1992.959
1995.696
1998.433
2001.170
2003.907
2006.644
2009.381
2012.118
2014.855
2017.592
2020.329
2023.066
2025.803
2028.540
2031.277
2034.014
2036.751
2039.488
2042.225
2044.962
2047.699
2050.436
2053.173
2055.910
2058.647
2061.384
2064.121
2066.858
2069.595
2072.332
2075.069
2077.806
2080.543
2083.280
2086.017
2088.754
2091.369
2093.984
2096.599
2099.214
2101.829
2104.444
2107.059
2109.674
2112.289
2114.904
2117.519
2120.134
2122.749
2125.364
2127.979
2130.594
2133.209
2135.824
2138.439
2141.054
2143.669
2146.284
2148.899
2151.514
2154.129
2156.744
2159.359
2161.974
2164.589
2167.204
2169.819
2172.434
2175.049
2177.664
2180.279
2182.894
2185.509
2188.124
2190.739
2193.354
2195.969
2198.584
2201.199
2203.814
2206.429
2209.044
2211.659
2214.274
2216.889
2219.504
2222.119
2224.734
2227.349
2229.964
2232.579
2235.194
2237.809
2240.424
2243.039
2245.654
2248.269
2250.884
2253.499
2256.114
2258.729
2261.344
2263.959
2266.574
2269.189
2271.804
2274.419
2277.034
2279.649
2282.264
2284.879
2287.494
2290.109
2292.724
2295.339
2297.954
2300.569
2303.184
2305.799
2308.414
2311.029
2313.644
2316.259
2318.874
2321.489
2324.104
2326.719
2329.334
2331.949
2334.564
2337.179
2339.794
2342.409
2345.024
2347.639
2350.254
2352.869
2355.484
2358.099
2360.714
2363.329
2365.944
2368.559
2371.174
2373.789
2376.404
2379.019
2381.634
2384.249
2386.864
2389.479
2392.094
2394.709
2397.324
2399.939
2402.554
2405.169
2407.784
2410.399
2413.014
2415.629
2418.244
2420.859
2423.474
2426.089
2428.704
2431.319
2433.934
2436.549
2439.164
2441.779
2444.394
2447.009
2449.624
2452.239
2454.854
2457.469
2460.084
2462.699
2465.314
2467.929
2470.544
2473.159
2475.774
2478.389
2481.004
2483.619
2486.234
2488.849
2491.464
2494.079
2496.694
2499.309
2501.924
2504.539
2507.154
2509.769
2512.384
2514.999
2517.614
2520.229
2522.844
2525.459
2528.074
2530.689
2533.304
2535.919
2538.534
2541.149
2543.764
2546.379
2548.994
2551.609
2554.224
2556.839
2559.454
2562.069
2564.684
2567.299
2569.914
2572.529
2575.144
2577.759
2580.374
2582.989
2585.604
2588.219
2590.834
2593.449
2596.064
2598.679
2601.294
2603.909
2606.524
2609.139
