2855.538
2854.707
2853.876
2853.045
2852.214
2851.383
2850.552
2849.721
2848.890
2848.059
2847.228
2846.397
2845.566
2844.735
2843.904
2843.073
2842.242
2841.411
2840.580
2839.749
2838.918
2838.087
2837.256
2836.425
2835.594
2834.763
2833.932
2833.101
2832.270
2831.439
2830.608
2829.777
2828.946
2828.115
2827.284
2826.453
2825.622
2824.791
2823.960
2823.129
2822.298
2821.467
2820.636
2819.805
2818.974
2818.143
2817.312
2816.481
2815.650
2814.819
2813.988
2813.157
2812.326
2811.495
2810.664
2809.833
2809.002
2808.171
2807.340
2806.509
2805.678
2804.847
2804.016
2803.185
2802.354
2801.523
2800.692
2799.861
2799.030
2798.199
2797.368
2796.537
2795.706
2794.875
2794.044
2793.213
2792.382
2791.551
2790.720
2789.889
2789.058
2788.227
2787.396
2786.565
2785.734
2784.903
2784.072
2783.241
2782.410
2781.579
2780.748
2779.917
2779.086
2778.255
2777.424
2776.593
2775.762
2774.931
2774.100
2773.269
2772.438
2771.607
2770.776
2769.945
2769.114
2768.283
2767.452
2766.621
2765.790
2764.959
2764.128
2763.297
2762.466
2761.635
2760.804
2759.973
2759.142
2758.311
2757.480
2756.649
2755.818
2754.987
2754.156
2753.325
2752.494
2751.663
2750.832
2750.001
2749.170
2748.339
2747.508
2746.677
2745.846
2745.015
2744.184
2743.353
2742.522
2741.691
2740.860
2740.029
2739.198
2738.367
2737.536
2736.705
2735.874
2735.043
2734.212
2733.381
2732.550
2731.719
2730.888
2730.057
2729.226
2728.395
2727.564
2726.733
2725.902
2725.071
2724.240
2723.409
2722.578
2721.747
2720.916
2720.085
2719.254
2718.423
2717.592
2716.761
2715.930
2715.099
2714.268
2713.437
2712.606
2711.775
2710.944
2710.113
2709.282
2708.451
2707.620
2706.789
2705.958
2705.127
2704.296
2703.465
2702.634
2701.803
2700.972
2700.141
2699.310
2698.479
2697.648
2696.817
2695.986
2695.155
2694.324
2693.493
2692.662
2691.831
2691.000
2690.169
2689.338
2683.595
2677.852
2672.109
2666.366
2660.623
2654.880
2649.137
2643.394
2637.651
2631.908
2626.165
2620.422
2614.679
2608.936
2603.193
2597.450
2591.707
2585.964
2580.221
2574.478
2568.735
2562.992
2557.249
2551.506
2545.763
2540.020
2534.277
2528.534
2522.791
2517.048
2511.305
2505.562
2499.819
2494.076
2488.333
2482.590
2476.847
2471.104
2465.361
2459.618
2453.875
2448.132
2442.389
2436.646
2430.903
2425.160
2419.417
2413.674
2407.931
2402.188
2396.445
2390.702
2384.959
2379.216
2373.473
2367.730
2361.987
2356.244
2350.501
2344.758
2339.015
2333.272
2327.529
2321.786
2316.043
2310.300
2304.557
2298.814
2293.071
2287.328
2281.585
2275.842
2270.099
2264.356
2258.613
2252.870
2247.127
2241.384
2235.641
2229.898
2224.155
2218.412
2212.669
2206.926
2201.183
2195.440
2189.697
2183.954
2178.211
2172.468
2166.725
2160.982
2155.239
2149.496
2143.753
2138.010
2132.267
2126.524
2120.781
2115.038
2109.295
2103.552
2097.809
2092.066
2086.323
2080.580
2074.837
2069.094
2063.351
2057.608
2051.865
2046.122
2040.379
2034.636
2028.893
2023.150
2017.407
2011.664
2005.921
2000.178
1994.435
1988.692
1982.949
1977.206
1971.463
1965.720
1959.977
1954.234
1948.491
1942.748
1937.005
1931.262
1925.519
1919.776
1914.033
1908.290
1902.547
1896.804
1891.061
1885.318
1879.575
1873.832
1868.089
1862.346
1856.603
1850.860
1845.117
1839.374
1833.631
1827.888
1822.145
1816.402
1810.659
1804.916
1799.173
1793.430
1787.687
1781.944
1776.201
1770.458
1764.715
1758.972
1753.229
1747.486
1741.743
1736.000
1730.257
1724.514
1718.771
1713.028
1707.285
1701.542
1695.799
1690.056
1684.313
1678.570
1672.827
1667.084
1661.341
1655.598
1649.855
1644.112
1638.369
1632.626
1626.883
1621.140
1615.397
1609.654
1603.911
1598.168
1592.425
1586.682
1580.939
1575.196
1569.453
1563.710
1557.967
1552.224
1546.481
1540.738
1543.353
1545.968
1548.583
1551.198
1553.813
1556.428
1559.043
1561.658
1564.273
1566.888
1569.503
1572.118
1574.733
1577.348
1579.963
1582.578
1585.193
1587.808
1590.423
1593.038
1595.653
1598.268
1600.883
1603.498
1606.113
1608.728
1611.343
1613.958
1616.573
1619.188
1621.803
1624.418
1627.033
1629.648
1632.263
1634.878
1637.493
1640.108
1642.723
1645.338
1647.953
1650.568
1653.183
1655.798
1658.413
1661.028
1663.643
1666.258
1668.873
1671.488
1674.103
1676.718
1679.333
1681.948
1684.563
1687.178
1689.793
1692.408
1695.023
1697.638
1700.253
1702.868
1705.483
1708.098
1710.713
1713.328
1715.943
1718.558
1721.173
1723.788
1726.403
1729.018
1731.633
1734.248
1736.863
1739.478
1742.093
1744.708
1747.323
1749.938
1752.553
1755.168
1757.783
1760.398
1763.013
1765.628
1768.243
1770.858
1773.473
1776.088
1778.703
1781.318
1783.933
1786.548
1789.163
1791.778
1794.393
1797.008
1799.623
1802.238
1804.853
1807.468
1810.083
1812.698
1815.313
1817.928
1820.543
1823.158
1825.773
1828.388
1831.003
1833.618
1836.233
1838.848
1841.463
1844.078
1846.693
1849.308
1851.923
1854.538
1857.153
1859.768
1862.383
1864.998
1867.613
1870.228
1872.843
1875.458
1878.073
1880.688
1883.303
1885.918
1888.533
1891.148
1893.763
1896.378
1898.993
1901.608
1904.223
1906.838
1909.453
1912.068
1914.683
1917.298
1919.913
1922.528
1925.143
1927.758
1930.373
1932.988
1935.603
1938.218
1940.833
1943.448
1946.063
1948.678
1951.293
1953.908
1956.523
1959.138
1961.753
1964.368
1966.983
1969.598
1972.213
1974.828
1977.443
1980.058
1982.673
1985.288
1987.903
1990.518
1993.133
1995.748
1998.363
2000.978
2003.593
2006.208
2008.823
2011.438
2014.053
2016.668
2019.283
2021.898
2024.513
2027.128
2029.743
2032.358
2034.973
2037.588
2040.203
2042.818
2045.433
2048.048
2050.663
2053.278
2055.893
2058.508
2061.123
2063.738
2065.326
2066.915
2068.503
2070.092
2071.680
2073.269
2074.857
2076.446
2078.034
2079.623
2081.211
2082.800
2084.388
2085.977
2087.565
2089.154
2090.742
2092.331
2093.919
2095.508
2097.096
2098.685
2100.273
2101.862
2103.450
2105.039
2106.627
2108.216
2109.804
2111.393
2112.981
2114.570
2116.158
2117.747
2119.335
2120.924
2122.512
2124.101
2125.689
2127.278
2128.866
2130.455
2132.043
2133.632
2135.220
2136.809
2138.397
2139.986
2141.574
2143.163
2144.751
2146.340
2147.928
2149.517
2151.105
2152.694
2154.282
2155.871
2157.459
2159.048
2160.636
2162.225
2163.813
2165.402
2166.990
2168.579
2170.167
2171.756
2173.344
2174.933
2176.521
2178.110
2179.698
2181.287
2182.875
2184.464
2186.052
2187.641
2189.229
2190.818
2192.406
2193.995
2195.583
2197.172
2198.760
2200.349
2201.937
2203.526
2205.114
2206.703
2208.291
2209.880
2211.468
2213.057
2214.645
2216.234
2217.822
2219.411
2220.999
2222.588
2224.176
2225.765
2227.353
2228.942
2230.530
2232.119
2233.707
2235.296
2236.884
2238.473
2240.061
2241.650
2243.238
2244.827
2246.415
2248.004
2249.592
2251.181
2252.769
2254.358
2255.946
2257.535
2259.123
2260.712
2262.300
2263.889
2265.477
2267.066
2268.654
2270.243
2271.831
2273.420
2275.008
2276.597
2278.185
2279.774
2281.362
2282.951
2284.539
2286.128
2287.716
2289.305
2290.893
2292.482
2294.070
2295.659
2297.247
2298.836
2300.424
2302.013
2303.601
2305.190
2306.778
2308.367
2309.955
2311.544
2313.132
2314.721
2316.309
2317.898
2319.486
2321.075
2322.663
2324.252
2325.840
2327.429
2329.017
2330.606
2332.194
2333.783
2335.371
2336.960
2338.548
2340.137
2341.725
2343.314
2344.902
2346.491
2348.079
2349.668
2351.256
2352.845
2354.433
2356.022
2357.610
2359.199
2360.787
2362.376
2363.964
2365.553
2367.141
2368.730
2370.318
2371.907
2373.495
2375.084
2376.672
2378.261
2379.849
2381.438
2379.702
2377.967
2376.231
2374.496
2372.760
2371.025
2369.289
2367.554
2365.818
2364.083
2362.347
2360.612
2358.876
2357.141
2355.405
2353.670
2351.934
2350.199
2348.463
2346.728
2344.992
2343.257
2341.521
2339.786
2338.050
2336.315
2334.579
2332.844
2331.108
2329.373
2327.637
2325.902
2324.166
2322.431
2320.695
2318.960
2317.224
2315.489
2313.753
2312.018
2310.282
2308.547
2306.811
2305.076
2303.340
2301.605
2299.869
2298.134
2296.398
2294.663
2292.927
2291.192
2289.456
2287.721
2285.985
2284.250
2282.514
2280.779
2279.043
2277.308
2275.572
2273.837
2272.101
2270.366
2268.630
2266.895
2265.159
2263.424
2261.688
2259.953
2258.217
2256.482
2254.746
2253.011
2251.275
2249.540
2247.804
2246.069
2244.333
2242.598
2240.862
2239.127
2237.391
2235.656
2233.920
2232.185
2230.449
2228.714
2226.978
2225.243
2223.507
2221.772
2220.036
2218.301
2216.565
2214.830
2213.094
2211.359
2209.623
2207.888
2206.152
2204.417
2202.681
2200.946
2199.210
2197.475
2195.739
2194.004
2192.268
2190.533
2188.797
2187.062
2185.326
2183.591
2181.855
2180.120
2178.384
2176.649
2174.913
2173.178
2171.442
2169.707
2167.971
2166.236
2164.500
2162.765
2161.029
2159.294
2157.558
2155.823
2154.087
2152.352
2150.616
2148.881
2147.145
2145.410
2143.674
2141.939
2140.203
2138.468
2136.732
2134.997
2133.261
2131.526
2129.790
2128.055
2126.319
2124.584
2122.848
2121.113
2119.377
2117.642
2115.906
2114.171
2112.435
2110.700
2108.964
2107.229
2105.493
2103.758
2102.022
2100.287
2098.551
2096.816
2095.080
2093.345
2091.609
2089.874
2088.138
2086.403
2084.667
2082.932
2081.196
2079.461
2077.725
2075.990
2074.254
2072.519
2070.783
2069.048
2067.312
2065.577
2063.841
2062.106
2060.370
2058.635
2056.899
2055.164
2053.428
2051.693
2049.957
2048.222
2046.486
2044.751
2043.015
2041.280
2039.544
2037.809
2036.073
2034.338
2038.224
2042.110
2045.996
2049.882
2053.768
2057.654
2061.540
2065.426
2069.312
2073.198
2077.084
2080.970
2084.856
2088.742
2092.628
2096.514
2100.400
2104.286
2108.172
2112.058
2115.944
2119.830
2123.716
2127.602
2131.488
2135.374
2139.260
2143.146
2147.032
2150.918
2154.804
2158.690
2162.576
2166.462
2170.348
2174.234
2178.120
2182.006
2185.892
2189.778
2193.664
2197.550
2201.436
2205.322
2209.208
2213.094
2216.980
2220.866
2224.752
2228.638
2232.524
2236.410
2240.296
2244.182
2248.068
2251.954
2255.840
2259.726
2263.612
2267.498
2271.384
2275.270
2279.156
2283.042
2286.928
2290.814
2294.700
2298.586
2302.472
2306.358
2310.244
2314.130
2318.016
2321.902
2325.788
2329.674
2333.560
2337.446
2341.332
2345.218
2349.104
2352.990
2356.876
2360.762
2364.648
2368.534
2372.420
2376.306
2380.192
2384.078
2387.964
2391.850
2395.736
2399.622
2403.508
2407.394
2411.280
2415.166
2419.052
2422.938
2426.824
2430.710
2434.596
2438.482
2442.368
2446.254
2450.140
2454.026
2457.912
2461.798
2465.684
2469.570
2473.456
2477.342
2481.228
2485.114
2489.000
2492.886
2496.772
2500.658
2504.544
2508.430
2512.316
2516.202
2520.088
2523.974
2527.860
2531.746
2535.632
2539.518
2543.404
2547.290
2551.176
2555.062
2558.948
2562.834
2566.720
2570.606
2574.492
2578.378
2582.264
2586.150
2590.036
2593.922
2597.808
2601.694
2605.580
2609.466
2613.352
2617.238
2621.124
2625.010
2628.896
2632.782
2636.668
2640.554
2644.440
2648.326
2652.212
2656.098
2659.984
2663.870
2667.756
2671.642
2675.528
2679.414
2683.300
2687.186
2691.072
2694.958
2698.844
2702.730
2706.616
2710.502
2714.388
2718.274
2722.160
2726.046
2729.932
2733.818
2737.704
2741.590
2745.476
2749.362
2753.248
2757.134
2761.020
2764.906
2768.792
2772.678
2776.564
2780.450
2784.336
2788.222
2792.108
2795.994
2799.880
2803.766
2807.652
2811.538
2810.047
2808.556
2807.065
2805.574
2804.083
2802.592
2801.101
2799.610
2798.119
2796.628
2795.137
2793.646
2792.155
2790.664
2789.173
2787.682
2786.191
2784.700
2783.209
2781.718
2780.227
2778.736
2777.245
2775.754
2774.263
2772.772
2771.281
2769.790
2768.299
2766.808
2765.317
2763.826
2762.335
2760.844
2759.353
2757.862
2756.371
2754.880
2753.389
2751.898
2750.407
2748.916
2747.425
2745.934
2744.443
2742.952
2741.461
2739.970
2738.479
2736.988
2735.497
2734.006
2732.515
2731.024
2729.533
2728.042
2726.551
2725.060
2723.569
2722.078
2720.587
2719.096
2717.605
2716.114
2714.623
2713.132
2711.641
2710.150
2708.659
2707.168
2705.677
2704.186
2702.695
2701.204
2699.713
2698.222
2696.731
2695.240
2693.749
2692.258
2690.767
2689.276
2687.785
2686.294
2684.803
2683.312
2681.821
2680.330
2678.839
2677.348
2675.857
2674.366
2672.875
2671.384
2669.893
2668.402
2666.911
2665.420
2663.929
2662.438
2660.947
2659.456
2657.965
2656.474
2654.983
2653.492
2652.001
2650.510
2649.019
2647.528
2646.037
2644.546
2643.055
2641.564
2640.073
2638.582
2637.091
2635.600
2634.109
2632.618
2631.127
2629.636
2628.145
2626.654
2625.163
2623.672
2622.181
2620.690
2619.199
2617.708
2616.217
2614.726
2613.235
2611.744
2610.253
2608.762
2607.271
2605.780
2604.289
2602.798
2601.307
2599.816
2598.325
2596.834
2595.343
2593.852
2592.361
2590.870
2589.379
2587.888
2586.397
2584.906
2583.415
2581.924
2580.433
2578.942
2577.451
2575.960
2574.469
2572.978
2571.487
2569.996
2568.505
2567.014
2565.523
2564.032
2562.541
2561.050
2559.559
2558.068
2556.577
2555.086
2553.595
2552.104
2550.613
2549.122
2547.631
2546.140
2544.649
2543.158
2541.667
2540.176
2538.685
2537.194
2535.703
2534.212
2532.721
2531.230
2529.739
2528.248
2526.757
2525.266
2523.775
2522.284
2520.793
2519.302
2517.811
2516.320
2514.829
2513.338
2510.528
2507.718
2504.908
2502.098
2499.288
2496.478
2493.668
2490.858
2488.048
2485.238
2482.428
2479.618
2476.808
2473.998
2471.188
2468.378
2465.568
2462.758
2459.948
2457.138
2454.328
2451.518
2448.708
2445.898
2443.088
2440.278
2437.468
2434.658
2431.848
2429.038
2426.228
2423.418
2420.608
2417.798
2414.988
2412.178
2409.368
2406.558
2403.748
2400.938
2398.128
2395.318
2392.508
2389.698
2386.888
2384.078
2381.268
2378.458
2375.648
2372.838
2370.028
2367.218
2364.408
2361.598
2358.788
2355.978
2353.168
2350.358
2347.548
2344.738
2341.928
2339.118
2336.308
2333.498
2330.688
2327.878
2325.068
2322.258
2319.448
2316.638
2313.828
2311.018
2308.208
2305.398
2302.588
2299.778
2296.968
2294.158
2291.348
2288.538
2285.728
2282.918
2280.108
2277.298
2274.488
2271.678
2268.868
2266.058
2263.248
2260.438
2257.628
2254.818
2252.008
2249.198
2246.388
2243.578
2240.768
2237.958
2235.148
2232.338
2229.528
2226.718
2223.908
2221.098
2218.288
2215.478
2212.668
2209.858
2207.048
2204.238
2201.428
2198.618
2195.808
2192.998
2190.188
2187.378
2184.568
2181.758
2178.948
2176.138
2173.328
2170.518
2167.708
2164.898
2162.088
2159.278
2156.468
2153.658
2150.848
2148.038
2145.228
2142.418
2139.608
2136.798
2133.988
2131.178
2128.368
2125.558
2122.748
2119.938
2117.128
2114.318
2111.508
2108.698
2105.888
2103.078
2100.268
2097.458
2094.648
2091.838
2089.028
2086.218
2083.408
2080.598
2077.788
2074.978
2072.168
2069.358
2066.548
2063.738
2060.928
2058.118
2055.308
2052.498
2049.688
2046.878
2044.068
2041.258
2038.448
2035.638
2032.828
2030.018
2027.208
2024.398
2021.588
2018.778
2015.968
2013.158
2010.348
2007.538
2004.728
2001.918
1999.108
1996.298
1993.488
1990.678
1987.868
1985.058
1982.248
1979.438
1976.628
1973.818
1971.008
1968.198
1965.388
1962.578
1959.768
1956.958
1954.148
1951.338
1945.839
1940.341
1934.842
1929.344
1923.845
1918.347
1912.848
1907.350
1901.851
1896.353
1890.854
1885.356
1879.857
1874.359
1868.860
1863.362
1857.863
1852.365
1846.866
1841.368
1835.869
1830.371
1824.872
1819.374
1813.875
1808.377
1802.878
1797.380
1791.881
1786.383
1780.884
1775.386
1769.887
1764.389
1758.890
1753.392
1747.893
1742.395
1736.896
1731.398
1725.899
1720.401
1714.902
1709.404
1703.905
1698.407
1692.908
1687.410
1681.911
1676.413
1670.914
1665.416
1659.917
1654.419
1648.920
1643.422
1637.923
1632.425
1626.926
1621.428
1615.929
1610.431
1604.932
1599.434
1593.935
1588.437
1582.938
1577.440
1571.941
1566.443
1560.944
1555.446
1549.947
1544.449
1538.950
1533.452
1527.953
1522.455
1516.956
1511.458
1505.959
1500.461
1494.962
1489.464
1483.965
1478.467
1472.968
1467.470
1461.971
1456.473
1450.974
1445.476
1439.977
1434.479
1428.980
1423.482
1417.983
1412.485
1406.986
1401.488
1395.989
1390.491
1384.992
1379.494
1373.995
1368.497
1362.998
1357.500
1352.001
1346.503
1341.004
1335.506
1330.007
1324.509
1319.010
1313.512
1308.013
1302.515
1297.016
1291.518
1286.019
1280.521
1275.022
1269.524
1264.025
1258.527
1253.028
1247.530
1242.031
1236.533
1231.034
1225.536
1220.037
1214.539
1209.040
1203.542
1198.043
1192.545
1187.046
1181.548
1176.049
1170.551
1165.052
1159.554
1154.055
1148.557
1143.058
1137.560
1132.061
1126.563
1121.064
1115.566
1110.067
1104.569
1099.070
1093.572
1088.073
1082.575
1077.076
1071.578
1066.079
1060.581
1055.082
1049.584
1044.085
1038.587
1033.088
1027.590
1022.091
1016.593
1011.094
1005.596
1000.097
994.599
989.100
983.602
978.103
972.605
967.106
961.608
956.109
950.611
945.112
939.614
934.115
928.617
923.118
917.620
912.121
906.623
901.124
895.626
890.127
884.629
879.130
873.632
868.133
862.635
857.136
851.638
848.338
845.039
841.739
838.440
835.140
831.841
828.541
825.242
821.942
818.643
815.343
812.044
808.744
805.445
802.145
798.846
795.546
792.247
788.947
785.648
782.348
779.049
775.749
772.450
769.150
765.851
762.551
759.252
755.952
752.653
749.353
746.054
742.754
739.455
736.155
732.856
729.556
726.257
722.957
719.658
716.358
713.059
709.759
706.460
703.160
699.861
696.561
693.262
689.962
686.663
683.363
680.064
676.764
673.465
670.165
666.866
663.566
660.267
656.967
653.668
650.368
647.069
643.769
640.470
637.170
633.871
630.571
627.272
623.972
620.673
617.373
614.074
610.774
607.475
604.175
600.876
597.576
594.277
590.977
587.678
584.378
581.079
577.779
574.480
571.180
567.881
564.581
561.282
557.982
554.683
551.383
548.084
544.784
541.485
538.185
534.886
531.586
528.287
524.987
521.688
518.388
515.089
511.789
508.490
505.190
501.891
498.591
495.292
491.992
488.693
485.393
482.094
478.794
475.495
472.195
468.896
465.596
462.297
458.997
455.698
452.398
449.099
445.799
442.500
439.200
435.901
432.601
429.302
426.002
422.703
419.403
416.104
412.804
409.505
406.205
402.906
399.606
396.307
393.007
389.708
386.408
383.109
379.809
376.510
373.210
369.911
366.611
363.312
360.012
356.713
353.413
350.114
346.814
343.515
340.215
336.916
333.616
330.317
327.017
323.718
320.418
317.119
313.819
310.520
307.220
303.921
300.621
297.322
294.022
290.723
287.423
284.124
280.824
277.525
274.225
270.926
267.626
264.327
261.027
257.728
254.428
251.129
247.829
244.530
241.230
237.931
234.631
231.332
228.032
224.733
221.433
218.134
214.834
211.535
208.235
204.936
201.636
198.337
195.037
