1973.436
1973.020
1972.605
1972.189
1971.774
1971.358
1970.943
1970.527
1970.112
1969.696
1969.281
1968.865
1968.450
1968.034
1967.619
1967.203
1966.788
1966.372
1965.957
1965.541
1965.126
1964.710
1964.295
1963.879
1963.464
1963.048
1962.633
1962.217
1961.802
1961.386
1960.971
1960.555
1960.140
1959.724
1959.309
1958.893
1958.478
1958.062
1957.647
1957.231
1956.816
1956.400
1955.985
1955.569
1955.154
1954.738
1954.323
1953.907
1953.492
1953.076
1952.661
1952.245
1951.830
1951.414
1950.999
1950.583
1950.168
1949.752
1949.337
1948.921
1948.506
1948.090
1947.675
1947.259
1946.844
1946.428
1946.013
1945.597
1945.182
1944.766
1944.351
1943.935
1943.520
1943.104
1942.689
1942.273
1941.858
1941.442
1941.027
1940.611
1940.196
1939.780
1939.365
1938.949
1938.534
1938.118
1937.703
1937.287
1936.872
1936.456
1936.041
1935.625
1935.210
1934.794
1934.379
1933.963
1933.548
1933.132
1932.717
1932.301
1931.886
1931.470
1931.055
1930.639
1930.224
1929.808
1929.393
1928.977
1928.562
1928.146
1927.731
1927.315
1926.900
1926.484
1926.069
1925.653
1925.238
1924.822
1924.407
1923.991
1923.576
1923.160
1922.745
1922.329
1921.914
1921.498
1921.083
1920.667
1920.252
1919.836
1919.421
1919.005
1918.590
1918.174
1917.759
1917.343
1916.928
1916.512
1916.097
1915.681
1915.266
1914.850
1914.435
1914.019
1913.604
1913.188
1912.773
1912.357
1911.942
1911.526
1911.111
1910.695
1910.280
1909.864
1909.449
1909.033
1908.618
1908.202
1907.787
1907.371
1906.956
1906.540
1906.125
1905.709
1905.294
1904.878
1904.463
1904.047
1903.632
1903.216
1902.801
1902.385
1901.970
1901.554
1901.139
1900.723
1900.308
1899.892
1899.477
1899.061
1898.646
1898.230
1897.815
1897.399
1896.984
1896.568
1896.153
1895.737
1895.322
1894.906
1894.491
1894.075
1893.660
1893.244
1892.829
1892.413
1891.998
1891.582
1891.167
1890.751
1890.336
1894.832
1899.329
1903.825
1908.322
1912.818
1917.315
1921.811
1926.308
1930.804
1935.301
1939.797
1944.294
1948.790
1953.287
1957.783
1962.280
1966.776
1971.273
1975.769
1980.266
1984.762
1989.259
1993.755
1998.252
2002.748
2007.245
2011.741
2016.238
2020.734
2025.231
2029.727
2034.224
2038.720
2043.217
2047.713
2052.210
2056.706
2061.203
2065.699
2070.196
2074.692
2079.189
2083.685
2088.182
2092.678
2097.175
2101.671
2106.168
2110.664
2115.161
2119.657
2124.154
2128.650
2133.147
2137.643
2142.140
2146.636
2151.133
2155.629
2160.126
2164.622
2169.119
2173.615
2178.112
2182.608
2187.105
2191.601
2196.098
2200.594
2205.091
2209.587
2214.084
2218.580
2223.077
2227.573
2232.070
2236.566
2241.063
2245.559
2250.056
2254.552
2259.049
2263.545
2268.042
2272.538
2277.035
2281.531
2286.028
2290.524
2295.021
2299.517
2304.014
2308.510
2313.007
2317.503
2322.000
2326.496
2330.993
2335.489
2339.986
2344.482
2348.979
2353.475
2357.972
2362.468
2366.965
2371.461
2375.958
2380.454
2384.951
2389.447
2393.944
2398.440
2402.937
2407.433
2411.930
2416.426
2420.923
2425.419
2429.916
2434.412
2438.909
2443.405
2447.902
2452.398
2456.895
2461.391
2465.888
2470.384
2474.881
2479.377
2483.874
2488.370
2492.867
2497.363
2501.860
2506.356
2510.853
2515.349
2519.846
2524.342
2528.839
2533.335
2537.832
2542.328
2546.825
2551.321
2555.818
2560.314
2564.811
2569.307
2573.804
2578.300
2582.797
2587.293
2591.790
2596.286
2600.783
2605.279
2609.776
2614.272
2618.769
2623.265
2627.762
2632.258
2636.755
2641.251
2645.748
2650.244
2654.741
2659.237
2663.734
2668.230
2672.727
2677.223
2681.720
2686.216
2690.713
2695.209
2699.706
2704.202
2708.699
2713.195
2717.692
2722.188
2726.685
2731.181
2735.678
2740.174
2744.671
2749.167
2753.664
2758.160
2762.657
2767.153
2771.650
2776.146
2780.643
2785.139
2789.636
2784.993
2780.350
2775.707
2771.064
2766.421
2761.778
2757.135
2752.492
2747.849
2743.206
2738.563
2733.920
2729.277
2724.634
2719.991
2715.348
2710.705
2706.062
2701.419
2696.776
2692.133
2687.490
2682.847
2678.204
2673.561
2668.918
2664.275
2659.632
2654.989
2650.346
2645.703
2641.060
2636.417
2631.774
2627.131
2622.488
2617.845
2613.202
2608.559
2603.916
2599.273
2594.630
2589.987
2585.344
2580.701
2576.058
2571.415
2566.772
2562.129
2557.486
2552.843
2548.200
2543.557
2538.914
2534.271
2529.628
2524.985
2520.342
2515.699
2511.056
2506.413
2501.770
2497.127
2492.484
2487.841
2483.198
2478.555
2473.912
2469.269
2464.626
2459.983
2455.340
2450.697
2446.054
2441.411
2436.768
2432.125
2427.482
2422.839
2418.196
2413.553
2408.910
2404.267
2399.624
2394.981
2390.338
2385.695
2381.052
2376.409
2371.766
2367.123
2362.480
2357.837
2353.194
2348.551
2343.908
2339.265
2334.622
2329.979
2325.336
2320.693
2316.050
2311.407
2306.764
2302.121
2297.478
2292.835
2288.192
2283.549
2278.906
2274.263
2269.620
2264.977
2260.334
2255.691
2251.048
2246.405
2241.762
2237.119
2232.476
2227.833
2223.190
2218.547
2213.904
2209.261
2204.618
2199.975
2195.332
2190.689
2186.046
2181.403
2176.760
2172.117
2167.474
2162.831
2158.188
2153.545
2148.902
2144.259
2139.616
2134.973
2130.330
2125.687
2121.044
2116.401
2111.758
2107.115
2102.472
2097.829
2093.186
2088.543
2083.900
2079.257
2074.614
2069.971
2065.328
2060.685
2056.042
2051.399
2046.756
2042.113
2037.470
2032.827
2028.184
2023.541
2018.898
2014.255
2009.612
2004.969
2000.326
1995.683
1991.040
1986.397
1981.754
1977.111
1972.468
1967.825
1963.182
1958.539
1953.896
1949.253
1944.610
1939.967
1935.324
1930.681
1926.038
1921.395
1916.752
1912.109
1907.466
1902.823
1898.180
1893.537
1888.894
1884.251
1879.608
1874.965
1870.322
1865.679
1861.036
1863.357
1865.679
1868.000
1870.322
1872.643
1874.965
1877.286
1879.608
1881.929
1884.251
1886.572
1888.894
1891.215
1893.537
1895.858
1898.180
1900.501
1902.823
1905.144
1907.466
1909.787
1912.109
1914.430
1916.752
1919.073
1921.395
1923.716
1926.038
1928.359
1930.681
1933.002
1935.324
1937.645
1939.967
1942.288
1944.610
1946.931
1949.253
1951.574
1953.896
1956.217
1958.539
1960.860
1963.182
1965.503
1967.825
1970.146
1972.468
1974.789
1977.111
1979.432
1981.754
1984.075
1986.397
1988.718
1991.040
1993.361
1995.683
1998.004
2000.326
2002.647
2004.969
2007.290
2009.612
2011.933
2014.255
2016.576
2018.898
2021.219
2023.541
2025.862
2028.184
2030.505
2032.827
2035.148
2037.470
2039.791
2042.113
2044.434
2046.756
2049.077
2051.399
2053.720
2056.042
2058.363
2060.685
2063.006
2065.328
2067.649
2069.971
2072.292
2074.614
2076.935
2079.257
2081.578
2083.900
2086.221
2088.543
2090.864
2093.186
2095.507
2097.829
2100.150
2102.472
2104.793
2107.115
2109.436
2111.758
2114.079
2116.401
2118.722
2121.044
2123.365
2125.687
2128.008
2130.330
2132.651
2134.973
2137.294
2139.616
2141.937
2144.259
2146.580
2148.902
2151.223
2153.545
2155.866
2158.188
2160.509
2162.831
2165.152
2167.474
2169.795
2172.117
2174.438
2176.760
2179.081
2181.403
2183.724
2186.046
2188.367
2190.689
2193.010
2195.332
2197.653
2199.975
2202.296
2204.618
2206.939
2209.261
2211.582
2213.904
2216.225
2218.547
2220.868
2223.190
2225.511
2227.833
2230.154
2232.476
2234.797
2237.119
2239.440
2241.762
2244.083
2246.405
2248.726
2251.048
2253.369
2255.691
2258.012
2260.334
2262.655
2264.977
2267.298
2269.620
2271.941
2274.263
2276.584
2278.906
2281.227
2283.549
2285.870
2288.192
2290.513
2292.835
2295.156
2297.478
2299.799
2302.121
2304.442
2306.764
2309.085
2311.407
2313.728
2316.050
2318.371
2320.693
2323.014
2325.336
2325.238
2325.141
2325.043
2324.946
2324.848
2324.751
2324.653
2324.556
2324.458
2324.361
2324.263
2324.166
2324.068
2323.971
2323.873
2323.776
2323.678
2323.581
2323.483
2323.386
2323.288
2323.191
2323.093
2322.996
2322.898
2322.801
2322.703
2322.606
2322.508
2322.411
2322.313
2322.216
2322.118
2322.021
2321.923
2321.826
2321.728
2321.631
2321.533
2321.436
2321.338
2321.241
2321.143
2321.046
2320.948
2320.851
2320.753
2320.656
2320.558
2320.461
2320.363
2320.266
2320.168
2320.071
2319.973
2319.876
2319.778
2319.681
2319.583
2319.486
2319.388
2319.291
2319.193
2319.096
2318.998
2318.901
2318.803
2318.706
2318.608
2318.511
2318.413
2318.316
2318.218
2318.121
2318.023
2317.926
2317.828
2317.731
2317.633
2317.536
2317.438
2317.341
2317.243
2317.146
2317.048
2316.951
2316.853
2316.756
2316.658
2316.561
2316.463
2316.366
2316.268
2316.171
2316.073
2315.976
2315.878
2315.781
2315.683
2315.586
2315.488
2315.391
2315.293
2315.196
2315.098
2315.001
2314.903
2314.806
2314.708
2314.611
2314.513
2314.416
2314.318
2314.221
2314.123
2314.026
2313.928
2313.831
2313.733
2313.636
2313.538
2313.441
2313.343
2313.246
2313.148
2313.051
2312.953
2312.856
2312.758
2312.661
2312.563
2312.466
2312.368
2312.271
2312.173
2312.076
2311.978
2311.881
2311.783
2311.686
2311.588
2311.491
2311.393
2311.296
2311.198
2311.101
2311.003
2310.906
2310.808
2310.711
2310.613
2310.516
2310.418
2310.321
2310.223
2310.126
2310.028
2309.931
2309.833
2309.736
2309.638
2309.541
2309.443
2309.346
2309.248
2309.151
2309.053
2308.956
2308.858
2308.761
2308.663
2308.566
2308.468
2308.371
2308.273
2308.176
2308.078
2307.981
2307.883
2307.786
2307.688
2307.591
2307.493
2307.396
2307.298
2307.201
2307.103
2307.006
2306.908
2306.811
2306.713
2306.616
2306.518
2306.421
2306.323
2306.226
2306.128
2306.031
2305.933
2305.836
2302.243
2298.651
2295.058
2291.466
2287.873
2284.281
2280.688
2277.096
2273.503
2269.911
2266.318
2262.726
2259.133
2255.541
2251.948
2248.356
2244.763
2241.171
2237.578
2233.986
2230.393
2226.801
2223.208
2219.616
2216.023
2212.431
2208.838
2205.246
2201.653
2198.061
2194.468
2190.876
2187.283
2183.691
2180.098
2176.506
2172.913
2169.321
2165.728
2162.136
2158.543
2154.951
2151.358
2147.766
2144.173
2140.581
2136.988
2133.396
2129.803
2126.211
2122.618
2119.026
2115.433
2111.841
2108.248
2104.656
2101.063
2097.471
2093.878
2090.286
2086.693
2083.101
2079.508
2075.916
2072.323
2068.731
2065.138
2061.546
2057.953
2054.361
2050.768
2047.176
2043.583
2039.991
2036.398
2032.806
2029.213
2025.621
2022.028
2018.436
2014.843
2011.251
2007.658
2004.066
2000.473
1996.881
1993.288
1989.696
1986.103
1982.511
1978.918
1975.326
1971.733
1968.141
1964.548
1960.956
1957.363
1953.771
1950.178
1946.586
1942.993
1939.401
1935.808
1932.216
1928.623
1925.031
1921.438
1917.846
1914.253
1910.661
1907.068
1903.476
1899.883
1896.291
1892.698
1889.106
1885.513
1881.921
1878.328
1874.736
1871.143
1867.551
1863.958
1860.366
1856.773
1853.181
1849.588
1845.996
1842.403
1838.811
1835.218
1831.626
1828.033
1824.441
1820.848
1817.256
1813.663
1810.071
1806.478
1802.886
1799.293
1795.701
1792.108
1788.516
1784.923
1781.331
1777.738
1774.146
1770.553
1766.961
1763.368
1759.776
1756.183
1752.591
1748.998
1745.406
1741.813
1738.221
1734.628
1731.036
1727.443
1723.851
1720.258
1716.666
1713.073
1709.481
1705.888
1702.296
1698.703
1695.111
1691.518
1687.926
1684.333
1680.741
1677.148
1673.556
1669.963
1666.371
1662.778
1659.186
1655.593
1652.001
1648.408
1644.816
1641.223
1637.631
1634.038
1630.446
1626.853
1623.261
1619.668
1616.076
1612.483
1608.891
1605.298
1601.706
1598.113
1594.521
1590.928
1587.336
1589.095
1590.855
1592.614
1594.374
1596.133
1597.893
1599.652
1601.412
1603.171
1604.931
1606.690
1608.450
1610.209
1611.969
1613.728
1615.488
1617.247
1619.007
1620.766
1622.526
1624.285
1626.045
1627.804
1629.564
1631.323
1633.083
1634.842
1636.602
1638.361
1640.121
1641.880
1643.640
1645.399
1647.159
1648.918
1650.678
1652.437
1654.197
1655.956
1657.716
1659.475
1661.235
1662.994
1664.754
1666.513
1668.273
1670.032
1671.792
1673.551
1675.311
1677.070
1678.830
1680.589
1682.349
1684.108
1685.868
1687.627
1689.387
1691.146
1692.906
1694.665
1696.425
1698.184
1699.944
1701.703
1703.463
1705.222
1706.982
1708.741
1710.501
1712.260
1714.020
1715.779
1717.539
1719.298
1721.058
1722.817
1724.577
1726.336
1728.096
1729.855
1731.615
1733.374
1735.134
1736.893
1738.653
1740.412
1742.172
1743.931
1745.691
1747.450
1749.210
1750.969
1752.729
1754.488
1756.248
1758.007
1759.767
1761.526
1763.286
1765.045
1766.805
1768.564
1770.324
1772.083
1773.843
1775.602
1777.362
1779.121
1780.881
1782.640
1784.400
1786.159
1787.919
1789.678
1791.438
1793.197
1794.957
1796.716
1798.476
1800.235
1801.995
1803.754
1805.514
1807.273
1809.033
1810.792
1812.552
1814.311
1816.071
1817.830
1819.590
1821.349
1823.109
1824.868
1826.628
1828.387
1830.147
1831.906
1833.666
1835.425
1837.185
1838.944
1840.704
1842.463
1844.223
1845.982
1847.742
1849.501
1851.261
1853.020
1854.780
1856.539
1858.299
1860.058
1861.818
1863.577
1865.337
1867.096
1868.856
1870.615
1872.375
1874.134
1875.894
1877.653
1879.413
1881.172
1882.932
1884.691
1886.451
1888.210
1889.970
1891.729
1893.489
1895.248
1897.008
1898.767
1900.527
1902.286
1904.046
1905.805
1907.565
1909.324
1911.084
1912.843
1914.603
1916.362
1918.122
1919.881
1921.641
1923.400
1925.160
1926.919
1928.679
1930.438
1932.198
1933.957
1935.717
1937.476
1939.236
1935.717
1932.198
1928.679
1925.160
1921.641
1918.122
1914.603
1911.084
1907.565
1904.046
1900.527
1897.008
1893.489
1889.970
1886.451
1882.932
1879.413
1875.894
1872.375
1868.856
1865.337
1861.818
1858.299
1854.780
1851.261
1847.742
1844.223
1840.704
1837.185
1833.666
1830.147
1826.628
1823.109
1819.590
1816.071
1812.552
1809.033
1805.514
1801.995
1798.476
1794.957
1791.438
1787.919
1784.400
1780.881
1777.362
1773.843
1770.324
1766.805
1763.286
1759.767
1756.248
1752.729
1749.210
1745.691
1742.172
1738.653
1735.134
1731.615
1728.096
1724.577
1721.058
1717.539
1714.020
1710.501
1706.982
1703.463
1699.944
1696.425
1692.906
1689.387
1685.868
1682.349
1678.830
1675.311
1671.792
1668.273
1664.754
1661.235
1657.716
1654.197
1650.678
1647.159
1643.640
1640.121
1636.602
1633.083
1629.564
1626.045
1622.526
1619.007
1615.488
1611.969
1608.450
1604.931
1601.412
1597.893
1594.374
1590.855
1587.336
1583.817
1580.298
1576.779
1573.260
1569.741
1566.222
1562.703
1559.184
1555.665
1552.146
1548.627
1545.108
1541.589
1538.070
1534.551
1531.032
1527.513
1523.994
1520.475
1516.956
1513.437
1509.918
1506.399
1502.880
1499.361
1495.842
1492.323
1488.804
1485.285
1481.766
1478.247
1474.728
1471.209
1467.690
1464.171
1460.652
1457.133
1453.614
1450.095
1446.576
1443.057
1439.538
1436.019
1432.500
1428.981
1425.462
1421.943
1418.424
1414.905
1411.386
1407.867
1404.348
1400.829
1397.310
1393.791
1390.272
1386.753
1383.234
1379.715
1376.196
1372.677
1369.158
1365.639
1362.120
1358.601
1355.082
1351.563
1348.044
1344.525
1341.006
1337.487
1333.968
1330.449
1326.930
1323.411
1319.892
1316.373
1312.854
1309.335
1305.816
1302.297
1298.778
1295.259
1291.740
1288.221
1284.702
1281.183
1277.664
1274.145
1270.626
1267.107
1263.588
1260.069
1256.550
1253.031
1249.512
1245.993
1242.474
1238.955
1235.436
1230.597
1225.758
1220.919
1216.080
1211.241
1206.402
1201.563
1196.724
1191.885
1187.046
1182.207
1177.368
1172.529
1167.690
1162.851
1158.012
1153.173
1148.334
1143.495
1138.656
1133.817
1128.978
1124.139
1119.300
1114.461
1109.622
1104.783
1099.944
1095.105
1090.266
1085.427
1080.588
1075.749
1070.910
1066.071
1061.232
1056.393
1051.554
1046.715
1041.876
1037.037
1032.198
1027.359
1022.520
1017.681
1012.842
1008.003
1003.164
998.325
993.486
988.647
983.808
978.969
974.130
969.291
964.452
959.613
954.774
949.935
945.096
940.257
935.418
930.579
925.740
920.901
916.062
911.223
906.384
901.545
896.706
891.867
887.028
882.189
877.350
872.511
867.672
862.833
857.994
853.155
848.316
843.477
838.638
833.799
828.960
824.121
819.282
814.443
809.604
804.765
799.926
795.087
790.248
785.409
780.570
775.731
770.892
766.053
761.214
756.375
751.536
746.697
741.858
737.019
732.180
727.341
722.502
717.663
712.824
707.985
703.146
698.307
693.468
688.629
683.790
678.951
674.112
669.273
664.434
659.595
654.756
649.917
645.078
640.239
635.400
630.561
625.722
620.883
616.044
611.205
606.366
601.527
596.688
591.849
587.010
582.171
577.332
572.493
567.654
562.815
557.976
553.137
548.298
543.459
538.620
533.781
528.942
524.103
519.264
514.425
509.586
504.747
499.908
495.069
490.230
485.391
480.552
475.713
470.874
466.035
461.196
456.357
451.518
446.679
441.840
437.001
432.162
427.323
422.484
417.645
412.806
407.967
403.128
398.289
393.450
388.611
383.772
378.933
374.094
369.255
364.416
359.577
354.738
349.899
345.060
340.221
335.382
330.543
325.704
320.865
316.026
311.187
306.348
301.509
296.670
291.831
286.992
282.153
277.314
272.475
267.636
267.269
266.903
266.536
266.170
265.803
265.437
265.070
264.704
264.337
263.971
263.604
263.238
262.871
262.505
262.138
261.772
261.405
261.039
260.672
260.306
259.939
259.573
259.206
258.840
258.473
258.107
257.740
257.374
257.007
256.641
256.274
255.908
255.541
255.175
254.808
254.442
254.075
253.709
253.342
252.976
252.609
252.243
251.876
251.510
251.143
250.777
250.410
250.044
249.677
249.311
248.944
248.578
248.211
247.845
247.478
247.112
246.745
246.379
246.012
245.646
245.279
244.913
244.546
244.180
243.813
243.447
243.080
242.714
242.347
241.981
241.614
241.248
240.881
240.515
240.148
239.782
239.415
239.049
238.682
238.316
237.949
237.583
237.216
236.850
236.483
236.117
235.750
235.384
235.017
234.651
234.284
233.918
233.551
233.185
232.818
232.452
232.085
231.719
231.352
230.986
230.619
230.253
229.886
229.520
229.153
228.787
228.420
228.054
227.687
227.321
226.954
226.588
226.221
225.855
225.488
225.122
224.755
224.389
224.022
223.656
223.289
222.923
222.556
222.190
221.823
221.457
221.090
220.724
220.357
219.991
219.624
219.258
218.891
218.525
218.158
217.792
217.425
217.059
216.692
216.326
215.959
215.593
215.226
214.860
214.493
214.127
213.760
213.394
213.027
212.661
212.294
211.928
211.561
211.195
210.828
210.462
210.095
209.729
209.362
208.996
208.629
208.263
207.896
207.530
207.163
206.797
206.430
206.064
205.697
205.331
204.964
204.598
204.231
203.865
203.498
203.132
202.765
202.399
202.032
201.666
201.299
200.933
200.566
200.200
199.833
199.467
199.100
198.734
198.367
198.001
197.634
197.268
196.901
196.535
196.168
195.802
195.435
195.069
194.702
