1529.116
1531.144
1533.172
1535.200
1537.228
1539.256
1541.284
1543.312
1545.340
1547.368
1549.396
1551.424
1553.452
1555.480
1557.508
1559.536
1561.564
1563.592
1565.620
1567.648
1569.676
1571.704
1573.732
1575.760
1577.788
1579.816
1581.844
1583.872
1585.900
1587.928
1589.956
1591.984
1594.012
1596.040
1598.068
1600.096
1602.124
1604.152
1606.180
1608.208
1610.236
1612.264
1614.292
1616.320
1618.348
1620.376
1622.404
1624.432
1626.460
1628.488
1630.516
1632.544
1634.572
1636.600
1638.628
1640.656
1642.684
1644.712
1646.740
1648.768
1650.796
1652.824
1654.852
1656.880
1658.908
1660.936
1662.964
1664.992
1667.020
1669.048
1671.076
1673.104
1675.132
1677.160
1679.188
1681.216
1683.244
1685.272
1687.300
1689.328
1691.356
1693.384
1695.412
1697.440
1699.468
1701.496
1703.524
1705.552
1707.580
1709.608
1711.636
1713.664
1715.692
1717.720
1719.748
1721.776
1723.804
1725.832
1727.860
1729.888
1731.916
1733.944
1735.972
1738.000
1740.028
1742.056
1744.084
1746.112
1748.140
1750.168
1752.196
1754.224
1756.252
1758.280
1760.308
1762.336
1764.364
1766.392
1768.420
1770.448
1772.476
1774.504
1776.532
1778.560
1780.588
1782.616
1784.644
1786.672
1788.700
1790.728
1792.756
1794.784
1796.812
1798.840
1800.868
1802.896
1804.924
1806.952
1808.980
1811.008
1813.036
1815.064
1817.092
1819.120
1821.148
1823.176
1825.204
1827.232
1829.260
1831.288
1833.316
1835.344
1837.372
1839.400
1841.428
1843.456
1845.484
1847.512
1849.540
1851.568
1853.596
1855.624
1857.652
1859.680
1861.708
1863.736
1865.764
1867.792
1869.820
1871.848
1873.876
1875.904
1877.932
1879.960
1881.988
1884.016
1886.044
1888.072
1890.100
1892.128
1894.156
1896.184
1898.212
1900.240
1902.268
1904.296
1906.324
1908.352
1910.380
1912.408
1914.436
1916.464
1918.492
1920.520
1922.548
1924.576
1926.604
1928.632
1930.660
1932.688
1934.716
1934.741
1934.765
1934.790
1934.814
1934.839
1934.863
1934.888
1934.912
1934.937
1934.961
1934.986
1935.010
1935.035
1935.059
1935.084
1935.108
1935.133
1935.157
1935.182
1935.206
1935.231
1935.255
1935.280
1935.304
1935.329
1935.353
1935.378
1935.402
1935.427
1935.451
1935.476
1935.500
1935.525
1935.549
1935.574
1935.598
1935.623
1935.647
1935.672
1935.696
1935.721
1935.745
1935.770
1935.794
1935.819
1935.843
1935.868
1935.892
1935.917
1935.941
1935.966
1935.990
1936.015
1936.039
1936.064
1936.088
1936.113
1936.137
1936.162
1936.186
1936.211
1936.235
1936.260
1936.284
1936.309
1936.333
1936.358
1936.382
1936.407
1936.431
1936.456
1936.480
1936.505
1936.529
1936.554
1936.578
1936.603
1936.627
1936.652
1936.676
1936.701
1936.725
1936.750
1936.774
1936.799
1936.823
1936.848
1936.872
1936.897
1936.921
1936.946
1936.970
1936.995
1937.019
1937.044
1937.068
1937.093
1937.117
1937.142
1937.166
1937.191
1937.215
1937.240
1937.264
1937.289
1937.313
1937.338
1937.362
1937.387
1937.411
1937.436
1937.460
1937.485
1937.509
1937.534
1937.558
1937.583
1937.607
1937.632
1937.656
1937.681
1937.705
1937.730
1937.754
1937.779
1937.803
1937.828
1937.852
1937.877
1937.901
1937.926
1937.950
1937.975
1937.999
1938.024
1938.048
1938.073
1938.097
1938.122
1938.146
1938.171
1938.195
1938.220
1938.244
1938.269
1938.293
1938.318
1938.342
1938.367
1938.391
1938.416
1938.440
1938.465
1938.489
1938.514
1938.538
1938.563
1938.587
1938.612
1938.636
1938.661
1938.685
1938.710
1938.734
1938.759
1938.783
1938.808
1938.832
1938.857
1938.881
1938.906
1938.930
1938.955
1938.979
1939.004
1939.028
1939.053
1939.077
1939.102
1939.126
1939.151
1939.175
1939.200
1939.224
1939.249
1939.273
1939.298
1939.322
1939.347
1939.371
1939.396
1939.420
1939.445
1939.469
1939.494
1939.518
1939.543
1939.567
1939.592
1939.616
1941.083
1942.549
1944.016
1945.482
1946.949
1948.415
1949.882
1951.348
1952.815
1954.281
1955.748
1957.214
1958.681
1960.147
1961.614
1963.080
1964.547
1966.013
1967.480
1968.946
1970.413
1971.879
1973.346
1974.812
1976.279
1977.745
1979.212
1980.678
1982.145
1983.611
1985.078
1986.544
1988.011
1989.477
1990.944
1992.410
1993.877
1995.343
1996.810
1998.276
1999.743
2001.209
2002.676
2004.142
2005.609
2007.075
2008.542
2010.008
2011.475
2012.941
2014.408
2015.874
2017.341
2018.807
2020.274
2021.740
2023.207
2024.673
2026.140
2027.606
2029.073
2030.539
2032.006
2033.472
2034.939
2036.405
2037.872
2039.338
2040.805
2042.271
2043.738
2045.204
2046.671
2048.137
2049.604
2051.070
2052.537
2054.003
2055.470
2056.936
2058.403
2059.869
2061.336
2062.802
2064.269
2065.735
2067.202
2068.668
2070.135
2071.601
2073.068
2074.534
2076.001
2077.467
2078.934
2080.400
2081.867
2083.333
2084.800
2086.266
2087.733
2089.199
2090.666
2092.132
2093.599
2095.065
2096.532
2097.998
2099.465
2100.931
2102.398
2103.864
2105.331
2106.797
2108.264
2109.730
2111.197
2112.663
2114.130
2115.596
2117.063
2118.529
2119.996
2121.462
2122.929
2124.395
2125.862
2127.328
2128.795
2130.261
2131.728
2133.194
2134.661
2136.127
2137.594
2139.060
2140.527
2141.993
2143.460
2144.926
2146.393
2147.859
2149.326
2150.792
2152.259
2153.725
2155.192
2156.658
2158.125
2159.591
2161.058
2162.524
2163.991
2165.457
2166.924
2168.390
2169.857
2171.323
2172.790
2174.256
2175.723
2177.189
2178.656
2180.122
2181.589
2183.055
2184.522
2185.988
2187.455
2188.921
2190.388
2191.854
2193.321
2194.787
2196.254
2197.720
2199.187
2200.653
2202.120
2203.586
2205.053
2206.519
2207.986
2209.452
2210.919
2212.385
2213.852
2215.318
2216.785
2218.251
2219.718
2221.184
2222.651
2224.117
2225.584
2227.050
2228.517
2229.983
2231.450
2232.916
2232.965
2233.013
2233.062
2233.110
2233.159
2233.207
2233.256
2233.304
2233.353
2233.401
2233.450
2233.498
2233.547
2233.595
2233.644
2233.692
2233.741
2233.789
2233.838
2233.886
2233.935
2233.983
2234.032
2234.080
2234.129
2234.177
2234.226
2234.274
2234.323
2234.371
2234.420
2234.468
2234.517
2234.565
2234.614
2234.662
2234.711
2234.759
2234.808
2234.856
2234.905
2234.953
2235.002
2235.050
2235.099
2235.147
2235.196
2235.244
2235.293
2235.341
2235.390
2235.438
2235.487
2235.535
2235.584
2235.632
2235.681
2235.729
2235.778
2235.826
2235.875
2235.923
2235.972
2236.020
2236.069
2236.117
2236.166
2236.214
2236.263
2236.311
2236.360
2236.408
2236.457
2236.505
2236.554
2236.602
2236.651
2236.699
2236.748
2236.796
2236.845
2236.893
2236.942
2236.990
2237.039
2237.087
2237.136
2237.184
2237.233
2237.281
2237.330
2237.378
2237.427
2237.475
2237.524
2237.572
2237.621
2237.669
2237.718
2237.766
2237.815
2237.863
2237.912
2237.960
2238.009
2238.057
2238.106
2238.154
2238.203
2238.251
2238.300
2238.348
2238.397
2238.445
2238.494
2238.542
2238.591
2238.639
2238.688
2238.736
2238.785
2238.833
2238.882
2238.930
2238.979
2239.027
2239.076
2239.124
2239.173
2239.221
2239.270
2239.318
2239.367
2239.415
2239.464
2239.512
2239.561
2239.609
2239.658
2239.706
2239.755
2239.803
2239.852
2239.900
2239.949
2239.997
2240.046
2240.094
2240.143
2240.191
2240.240
2240.288
2240.337
2240.385
2240.434
2240.482
2240.531
2240.579
2240.628
2240.676
2240.725
2240.773
2240.822
2240.870
2240.919
2240.967
2241.016
2241.064
2241.113
2241.161
2241.210
2241.258
2241.307
2241.355
2241.404
2241.452
2241.501
2241.549
2241.598
2241.646
2241.695
2241.743
2241.792
2241.840
2241.889
2241.937
2241.986
2242.034
2242.083
2242.131
2242.180
2242.228
2242.277
2242.325
2242.374
2242.422
2242.471
2242.519
2242.568
2242.616
2242.592
2242.568
2242.544
2242.520
2242.496
2242.472
2242.448
2242.424
2242.400
2242.376
2242.352
2242.328
2242.304
2242.280
2242.256
2242.232
2242.208
2242.184
2242.160
2242.136
2242.112
2242.088
2242.064
2242.040
2242.016
2241.992
2241.968
2241.944
2241.920
2241.896
2241.872
2241.848
2241.824
2241.800
2241.776
2241.752
2241.728
2241.704
2241.680
2241.656
2241.632
2241.608
2241.584
2241.560
2241.536
2241.512
2241.488
2241.464
2241.440
2241.416
2241.392
2241.368
2241.344
2241.320
2241.296
2241.272
2241.248
2241.224
2241.200
2241.176
2241.152
2241.128
2241.104
2241.080
2241.056
2241.032
2241.008
2240.984
2240.960
2240.936
2240.912
2240.888
2240.864
2240.840
2240.816
2240.792
2240.768
2240.744
2240.720
2240.696
2240.672
2240.648
2240.624
2240.600
2240.576
2240.552
2240.528
2240.504
2240.480
2240.456
2240.432
2240.408
2240.384
2240.360
2240.336
2240.312
2240.288
2240.264
2240.240
2240.216
2240.192
2240.168
2240.144
2240.120
2240.096
2240.072
2240.048
2240.024
2240.000
2239.976
2239.952
2239.928
2239.904
2239.880
2239.856
2239.832
2239.808
2239.784
2239.760
2239.736
2239.712
2239.688
2239.664
2239.640
2239.616
2239.592
2239.568
2239.544
2239.520
2239.496
2239.472
2239.448
2239.424
2239.400
2239.376
2239.352
2239.328
2239.304
2239.280
2239.256
2239.232
2239.208
2239.184
2239.160
2239.136
2239.112
2239.088
2239.064
2239.040
2239.016
2238.992
2238.968
2238.944
2238.920
2238.896
2238.872
2238.848
2238.824
2238.800
2238.776
2238.752
2238.728
2238.704
2238.680
2238.656
2238.632
2238.608
2238.584
2238.560
2238.536
2238.512
2238.488
2238.464
2238.440
2238.416
2238.392
2238.368
2238.344
2238.320
2238.296
2238.272
2238.248
2238.224
2238.200
2238.176
2238.152
2238.128
2238.104
2238.080
2238.056
2238.032
2238.008
2237.984
2237.960
2237.936
2237.912
2237.888
2237.864
2237.840
2237.816
2238.500
2239.184
2239.868
2240.552
2241.236
2241.920
2242.604
2243.288
2243.972
2244.656
2245.340
2246.024
2246.708
2247.392
2248.076
2248.760
2249.444
2250.128
2250.812
2251.496
2252.180
2252.864
2253.548
2254.232
2254.916
2255.600
2256.284
2256.968
2257.652
2258.336
2259.020
2259.704
2260.388
2261.072
2261.756
2262.440
2263.124
2263.808
2264.492
2265.176
2265.860
2266.544
2267.228
2267.912
2268.596
2269.280
2269.964
2270.648
2271.332
2272.016
2272.700
2273.384
2274.068
2274.752
2275.436
2276.120
2276.804
2277.488
2278.172
2278.856
2279.540
2280.224
2280.908
2281.592
2282.276
2282.960
2283.644
2284.328
2285.012
2285.696
2286.380
2287.064
2287.748
2288.432
2289.116
2289.800
2290.484
2291.168
2291.852
2292.536
2293.220
2293.904
2294.588
2295.272
2295.956
2296.640
2297.324
2298.008
2298.692
2299.376
2300.060
2300.744
2301.428
2302.112
2302.796
2303.480
2304.164
2304.848
2305.532
2306.216
2306.900
2307.584
2308.268
2308.952
2309.636
2310.320
2311.004
2311.688
2312.372
2313.056
2313.740
2314.424
2315.108
2315.792
2316.476
2317.160
2317.844
2318.528
2319.212
2319.896
2320.580
2321.264
2321.948
2322.632
2323.316
2324.000
2324.684
2325.368
2326.052
2326.736
2327.420
2328.104
2328.788
2329.472
2330.156
2330.840
2331.524
2332.208
2332.892
2333.576
2334.260
2334.944
2335.628
2336.312
2336.996
2337.680
2338.364
2339.048
2339.732
2340.416
2341.100
2341.784
2342.468
2343.152
2343.836
2344.520
2345.204
2345.888
2346.572
2347.256
2347.940
2348.624
2349.308
2349.992
2350.676
2351.360
2352.044
2352.728
2353.412
2354.096
2354.780
2355.464
2356.148
2356.832
2357.516
2358.200
2358.884
2359.568
2360.252
2360.936
2361.620
2362.304
2362.988
2363.672
2364.356
2365.040
2365.724
2366.408
2367.092
2367.776
2368.460
2369.144
2369.828
2370.512
2371.196
2371.880
2372.564
2373.248
2373.932
2374.616
2373.223
2371.830
2370.437
2369.044
2367.651
2366.258
2364.865
2363.472
2362.079
2360.686
2359.293
2357.900
2356.507
2355.114
2353.721
2352.328
2350.935
2349.542
2348.149
2346.756
2345.363
2343.970
2342.577
2341.184
2339.791
2338.398
2337.005
2335.612
2334.219
2332.826
2331.433
2330.040
2328.647
2327.254
2325.861
2324.468
2323.075
2321.682
2320.289
2318.896
2317.503
2316.110
2314.717
2313.324
2311.931
2310.538
2309.145
2307.752
2306.359
2304.966
2303.573
2302.180
2300.787
2299.394
2298.001
2296.608
2295.215
2293.822
2292.429
2291.036
2289.643
2288.250
2286.857
2285.464
2284.071
2282.678
2281.285
2279.892
2278.499
2277.106
2275.713
2274.320
2272.927
2271.534
2270.141
2268.748
2267.355
2265.962
2264.569
2263.176
2261.783
2260.390
2258.997
2257.604
2256.211
2254.818
2253.425
2252.032
2250.639
2249.246
2247.853
2246.460
2245.067
2243.674
2242.281
2240.888
2239.495
2238.102
2236.709
2235.316
2233.923
2232.530
2231.137
2229.744
2228.351
2226.958
2225.565
2224.172
2222.779
2221.386
2219.993
2218.600
2217.207
2215.814
2214.421
2213.028
2211.635
2210.242
2208.849
2207.456
2206.063
2204.670
2203.277
2201.884
2200.491
2199.098
2197.705
2196.312
2194.919
2193.526
2192.133
2190.740
2189.347
2187.954
2186.561
2185.168
2183.775
2182.382
2180.989
2179.596
2178.203
2176.810
2175.417
2174.024
2172.631
2171.238
2169.845
2168.452
2167.059
2165.666
2164.273
2162.880
2161.487
2160.094
2158.701
2157.308
2155.915
2154.522
2153.129
2151.736
2150.343
2148.950
2147.557
2146.164
2144.771
2143.378
2141.985
2140.592
2139.199
2137.806
2136.413
2135.020
2133.627
2132.234
2130.841
2129.448
2128.055
2126.662
2125.269
2123.876
2122.483
2121.090
2119.697
2118.304
2116.911
2115.518
2114.125
2112.732
2111.339
2109.946
2108.553
2107.160
2105.767
2104.374
2102.981
2101.588
2100.195
2098.802
2097.409
2096.016
2095.723
2095.430
2095.137
2094.844
2094.551
2094.258
2093.965
2093.672
2093.379
2093.086
2092.793
2092.500
2092.207
2091.914
2091.621
2091.328
2091.035
2090.742
2090.449
2090.156
2089.863
2089.570
2089.277
2088.984
2088.691
2088.398
2088.105
2087.812
2087.519
2087.226
2086.933
2086.640
2086.347
2086.054
2085.761
2085.468
2085.175
2084.882
2084.589
2084.296
2084.003
2083.710
2083.417
2083.124
2082.831
2082.538
2082.245
2081.952
2081.659
2081.366
2081.073
2080.780
2080.487
2080.194
2079.901
2079.608
2079.315
2079.022
2078.729
2078.436
2078.143
2077.850
2077.557
2077.264
2076.971
2076.678
2076.385
2076.092
2075.799
2075.506
2075.213
2074.920
2074.627
2074.334
2074.041
2073.748
2073.455
2073.162
2072.869
2072.576
2072.283
2071.990
2071.697
2071.404
2071.111
2070.818
2070.525
2070.232
2069.939
2069.646
2069.353
2069.060
2068.767
2068.474
2068.181
2067.888
2067.595
2067.302
2067.009
2066.716
2066.423
2066.130
2065.837
2065.544
2065.251
2064.958
2064.665
2064.372
2064.079
2063.786
2063.493
2063.200
2062.907
2062.614
2062.321
2062.028
2061.735
2061.442
2061.149
2060.856
2060.563
2060.270
2059.977
2059.684
2059.391
2059.098
2058.805
2058.512
2058.219
2057.926
2057.633
2057.340
2057.047
2056.754
2056.461
2056.168
2055.875
2055.582
2055.289
2054.996
2054.703
2054.410
2054.117
2053.824
2053.531
2053.238
2052.945
2052.652
2052.359
2052.066
2051.773
2051.480
2051.187
2050.894
2050.601
2050.308
2050.015
2049.722
2049.429
2049.136
2048.843
2048.550
2048.257
2047.964
2047.671
2047.378
2047.085
2046.792
2046.499
2046.206
2045.913
2045.620
2045.327
2045.034
2044.741
2044.448
2044.155
2043.862
2043.569
2043.276
2042.983
2042.690
2042.397
2042.104
2041.811
2041.518
2041.225
2040.932
2040.639
2040.346
2040.053
2039.760
2039.467
2039.174
2038.881
2038.588
2038.295
2038.002
2037.709
2037.416
2029.743
2022.069
2014.396
2006.722
1999.049
1991.375
1983.702
1976.028
1968.355
1960.681
1953.008
1945.334
1937.661
1929.987
1922.314
1914.640
1906.967
1899.293
1891.620
1883.946
1876.273
1868.599
1860.926
1853.252
1845.579
1837.905
1830.232
1822.558
1814.885
1807.211
1799.538
1791.864
1784.191
1776.517
1768.844
1761.170
1753.497
1745.823
1738.150
1730.476
1722.803
1715.129
1707.456
1699.782
1692.109
1684.435
1676.762
1669.088
1661.415
1653.741
1646.068
1638.394
1630.721
1623.047
1615.374
1607.700
1600.027
1592.353
1584.680
1577.006
1569.333
1561.659
1553.986
1546.312
1538.639
1530.965
1523.292
1515.618
1507.945
1500.271
1492.598
1484.924
1477.251
1469.577
1461.904
1454.230
1446.557
1438.883
1431.210
1423.536
1415.863
1408.189
1400.516
1392.842
1385.169
1377.495
1369.822
1362.148
1354.475
1346.801
1339.128
1331.454
1323.781
1316.107
1308.434
1300.760
1293.087
1285.413
1277.740
1270.066
1262.393
1254.719
1247.046
1239.372
1231.699
1224.025
1216.352
1208.678
1201.005
1193.331
1185.658
1177.984
1170.311
1162.637
1154.964
1147.290
1139.617
1131.943
1124.270
1116.596
1108.923
1101.249
1093.576
1085.902
1078.229
1070.555
1062.882
1055.208
1047.535
1039.861
1032.188
1024.514
1016.841
1009.167
1001.494
993.820
986.147
978.473
970.800
963.126
955.453
947.779
940.106
932.432
924.759
917.085
909.412
901.738
894.065
886.391
878.718
871.044
863.371
855.697
848.024
840.350
832.677
825.003
817.330
809.656
801.983
794.309
786.636
778.962
771.289
763.615
755.942
748.268
740.595
732.921
725.248
717.574
709.901
702.227
694.554
686.880
679.207
671.533
663.860
656.186
648.513
640.839
633.166
625.492
617.819
610.145
602.472
594.798
587.125
579.451
571.778
564.104
556.431
548.757
541.084
533.410
525.737
518.063
510.390
502.716
501.567
500.418
499.269
498.120
496.971
495.822
494.673
493.524
492.375
491.226
490.077
488.928
487.779
486.630
485.481
484.332
483.183
482.034
480.885
479.736
478.587
477.438
476.289
475.140
473.991
472.842
471.693
470.544
469.395
468.246
467.097
465.948
464.799
463.650
462.501
461.352
460.203
459.054
457.905
456.756
455.607
454.458
453.309
452.160
451.011
449.862
448.713
447.564
446.415
445.266
444.117
442.968
441.819
440.670
439.521
438.372
437.223
436.074
434.925
433.776
432.627
431.478
430.329
429.180
428.031
426.882
425.733
424.584
423.435
422.286
421.137
419.988
418.839
417.690
416.541
415.392
414.243
413.094
411.945
410.796
409.647
408.498
407.349
406.200
405.051
403.902
402.753
401.604
400.455
399.306
398.157
397.008
395.859
394.710
393.561
392.412
391.263
390.114
388.965
387.816
386.667
385.518
384.369
383.220
382.071
380.922
379.773
378.624
377.475
376.326
375.177
374.028
372.879
371.730
370.581
369.432
368.283
367.134
365.985
364.836
363.687
362.538
361.389
360.240
359.091
357.942
356.793
355.644
354.495
353.346
352.197
351.048
349.899
348.750
347.601
346.452
345.303
344.154
343.005
341.856
340.707
339.558
338.409
337.260
336.111
334.962
333.813
332.664
331.515
330.366
329.217
328.068
326.919
325.770
324.621
323.472
322.323
321.174
320.025
318.876
317.727
316.578
315.429
314.280
313.131
311.982
310.833
309.684
308.535
307.386
306.237
305.088
303.939
302.790
301.641
300.492
299.343
298.194
297.045
295.896
294.747
293.598
292.449
291.300
290.151
289.002
287.853
286.704
285.555
284.406
283.257
282.108
280.959
279.810
278.661
277.512
276.363
275.214
274.065
