1456.919
1459.387
1461.855
1464.323
1466.791
1469.259
1471.727
1474.195
1476.663
1479.131
1481.599
1484.067
1486.535
1489.003
1491.471
1493.939
1496.407
1498.875
1501.343
1503.811
1506.279
1508.747
1511.215
1513.683
1516.151
1518.619
1521.087
1523.555
1526.023
1528.491
1530.959
1533.427
1535.895
1538.363
1540.831
1543.299
1545.767
1548.235
1550.703
1553.171
1555.639
1558.107
1560.575
1563.043
1565.511
1567.979
1570.447
1572.915
1575.383
1577.851
1580.319
1582.787
1585.255
1587.723
1590.191
1592.659
1595.127
1597.595
1600.063
1602.531
1604.999
1607.467
1609.935
1612.403
1614.871
1617.339
1619.807
1622.275
1624.743
1627.211
1629.679
1632.147
1634.615
1637.083
1639.551
1642.019
1644.487
1646.955
1649.423
1651.891
1654.359
1656.827
1659.295
1661.763
1664.231
1666.699
1669.167
1671.635
1674.103
1676.571
1679.039
1681.507
1683.975
1686.443
1688.911
1691.379
1693.847
1696.315
1698.783
1701.251
1703.719
1706.187
1708.655
1711.123
1713.591
1716.059
1718.527
1720.995
1723.463
1725.931
1728.399
1730.867
1733.335
1735.803
1738.271
1740.739
1743.207
1745.675
1748.143
1750.611
1753.079
1755.547
1758.015
1760.483
1762.951
1765.419
1767.887
1770.355
1772.823
1775.291
1777.759
1780.227
1782.695
1785.163
1787.631
1790.099
1792.567
1795.035
1797.503
1799.971
1802.439
1804.907
1807.375
1809.843
1812.311
1814.779
1817.247
1819.715
1822.183
1824.651
1827.119
1829.587
1832.055
1834.523
1836.991
1839.459
1841.927
1844.395
1846.863
1849.331
1851.799
1854.267
1856.735
1859.203
1861.671
1864.139
1866.607
1869.075
1871.543
1874.011
1876.479
1878.947
1881.415
1883.883
1886.351
1888.819
1891.287
1893.755
1896.223
1898.691
1901.159
1903.627
1906.095
1908.563
1911.031
1913.499
1915.967
1918.435
1920.903
1923.371
1925.839
1928.307
1930.775
1933.243
1935.711
1938.179
1940.647
1943.115
1945.583
1948.051
1950.519
1950.104
1949.688
1949.273
1948.857
1948.442
1948.026
1947.611
1947.195
1946.780
1946.364
1945.949
1945.533
1945.118
1944.702
1944.287
1943.871
1943.456
1943.040
1942.625
1942.209
1941.794
1941.378
1940.963
1940.547
1940.132
1939.716
1939.301
1938.885
1938.470
1938.054
1937.639
1937.223
1936.808
1936.392
1935.977
1935.561
1935.146
1934.730
1934.315
1933.899
1933.484
1933.068
1932.653
1932.237
1931.822
1931.406
1930.991
1930.575
1930.160
1929.744
1929.329
1928.913
1928.498
1928.082
1927.667
1927.251
1926.836
1926.420
1926.005
1925.589
1925.174
1924.758
1924.343
1923.927
1923.512
1923.096
1922.681
1922.265
1921.850
1921.434
1921.019
1920.603
1920.188
1919.772
1919.357
1918.941
1918.526
1918.110
1917.695
1917.279
1916.864
1916.448
1916.033
1915.617
1915.202
1914.786
1914.371
1913.955
1913.540
1913.124
1912.709
1912.293
1911.878
1911.462
1911.047
1910.631
1910.216
1909.800
1909.385
1908.969
1908.554
1908.138
1907.723
1907.307
1906.892
1906.476
1906.061
1905.645
1905.230
1904.814
1904.399
1903.983
1903.568
1903.152
1902.737
1902.321
1901.906
1901.490
1901.075
1900.659
1900.244
1899.828
1899.413
1898.997
1898.582
1898.166
1897.751
1897.335
1896.920
1896.504
1896.089
1895.673
1895.258
1894.842
1894.427
1894.011
1893.596
1893.180
1892.765
1892.349
1891.934
1891.518
1891.103
1890.687
1890.272
1889.856
1889.441
1889.025
1888.610
1888.194
1887.779
1887.363
1886.948
1886.532
1886.117
1885.701
1885.286
1884.870
1884.455
1884.039
1883.624
1883.208
1882.793
1882.377
1881.962
1881.546
1881.131
1880.715
1880.300
1879.884
1879.469
1879.053
1878.638
1878.222
1877.807
1877.391
1876.976
1876.560
1876.145
1875.729
1875.314
1874.898
1874.483
1874.067
1873.652
1873.236
1872.821
1872.405
1871.990
1871.574
1871.159
1870.743
1870.328
1869.912
1869.497
1869.081
1868.666
1868.250
1867.835
1867.419
1871.916
1876.412
1880.909
1885.405
1889.902
1894.398
1898.895
1903.391
1907.888
1912.384
1916.881
1921.377
1925.874
1930.370
1934.867
1939.363
1943.860
1948.356
1952.853
1957.349
1961.846
1966.342
1970.839
1975.335
1979.832
1984.328
1988.825
1993.321
1997.818
2002.314
2006.811
2011.307
2015.804
2020.300
2024.797
2029.293
2033.790
2038.286
2042.783
2047.279
2051.776
2056.272
2060.769
2065.265
2069.762
2074.258
2078.755
2083.251
2087.748
2092.244
2096.741
2101.237
2105.734
2110.230
2114.727
2119.223
2123.720
2128.216
2132.713
2137.209
2141.706
2146.202
2150.699
2155.195
2159.692
2164.188
2168.685
2173.181
2177.678
2182.174
2186.671
2191.167
2195.664
2200.160
2204.657
2209.153
2213.650
2218.146
2222.643
2227.139
2231.636
2236.132
2240.629
2245.125
2249.622
2254.118
2258.615
2263.111
2267.608
2272.104
2276.601
2281.097
2285.594
2290.090
2294.587
2299.083
2303.580
2308.076
2312.573
2317.069
2321.566
2326.062
2330.559
2335.055
2339.552
2344.048
2348.545
2353.041
2357.538
2362.034
2366.531
2371.027
2375.524
2380.020
2384.517
2389.013
2393.510
2398.006
2402.503
2406.999
2411.496
2415.992
2420.489
2424.985
2429.482
2433.978
2438.475
2442.971
2447.468
2451.964
2456.461
2460.957
2465.454
2469.950
2474.447
2478.943
2483.440
2487.936
2492.433
2496.929
2501.426
2505.922
2510.419
2514.915
2519.412
2523.908
2528.405
2532.901
2537.398
2541.894
2546.391
2550.887
2555.384
2559.880
2564.377
2568.873
2573.370
2577.866
2582.363
2586.859
2591.356
2595.852
2600.349
2604.845
2609.342
2613.838
2618.335
2622.831
2627.328
2631.824
2636.321
2640.817
2645.314
2649.810
2654.307
2658.803
2663.300
2667.796
2672.293
2676.789
2681.286
2685.782
2690.279
2694.775
2699.272
2703.768
2708.265
2712.761
2717.258
2721.754
2726.251
2730.747
2735.244
2739.740
2744.237
2748.733
2753.230
2757.726
2762.223
2766.719
2762.076
2757.433
2752.790
2748.147
2743.504
2738.861
2734.218
2729.575
2724.932
2720.289
2715.646
2711.003
2706.360
2701.717
2697.074
2692.431
2687.788
2683.145
2678.502
2673.859
2669.216
2664.573
2659.930
2655.287
2650.644
2646.001
2641.358
2636.715
2632.072
2627.429
2622.786
2618.143
2613.500
2608.857
2604.214
2599.571
2594.928
2590.285
2585.642
2580.999
2576.356
2571.713
2567.070
2562.427
2557.784
2553.141
2548.498
2543.855
2539.212
2534.569
2529.926
2525.283
2520.640
2515.997
2511.354
2506.711
2502.068
2497.425
2492.782
2488.139
2483.496
2478.853
2474.210
2469.567
2464.924
2460.281
2455.638
2450.995
2446.352
2441.709
2437.066
2432.423
2427.780
2423.137
2418.494
2413.851
2409.208
2404.565
2399.922
2395.279
2390.636
2385.993
2381.350
2376.707
2372.064
2367.421
2362.778
2358.135
2353.492
2348.849
2344.206
2339.563
2334.920
2330.277
2325.634
2320.991
2316.348
2311.705
2307.062
2302.419
2297.776
2293.133
2288.490
2283.847
2279.204
2274.561
2269.918
2265.275
2260.632
2255.989
2251.346
2246.703
2242.060
2237.417
2232.774
2228.131
2223.488
2218.845
2214.202
2209.559
2204.916
2200.273
2195.630
2190.987
2186.344
2181.701
2177.058
2172.415
2167.772
2163.129
2158.486
2153.843
2149.200
2144.557
2139.914
2135.271
2130.628
2125.985
2121.342
2116.699
2112.056
2107.413
2102.770
2098.127
2093.484
2088.841
2084.198
2079.555
2074.912
2070.269
2065.626
2060.983
2056.340
2051.697
2047.054
2042.411
2037.768
2033.125
2028.482
2023.839
2019.196
2014.553
2009.910
2005.267
2000.624
1995.981
1991.338
1986.695
1982.052
1977.409
1972.766
1968.123
1963.480
1958.837
1954.194
1949.551
1944.908
1940.265
1935.622
1930.979
1926.336
1921.693
1917.050
1912.407
1907.764
1903.121
1898.478
1893.835
1889.192
1884.549
1879.906
1875.263
1870.620
1865.977
1861.334
1856.691
1852.048
1847.405
1842.762
1838.119
1840.441
1842.762
1845.084
1847.405
1849.727
1852.048
1854.370
1856.691
1859.013
1861.334
1863.656
1865.977
1868.299
1870.620
1872.942
1875.263
1877.585
1879.906
1882.228
1884.549
1886.871
1889.192
1891.514
1893.835
1896.157
1898.478
1900.800
1903.121
1905.443
1907.764
1910.086
1912.407
1914.729
1917.050
1919.372
1921.693
1924.015
1926.336
1928.658
1930.979
1933.301
1935.622
1937.944
1940.265
1942.587
1944.908
1947.230
1949.551
1951.873
1954.194
1956.516
1958.837
1961.159
1963.480
1965.802
1968.123
1970.445
1972.766
1975.088
1977.409
1979.731
1982.052
1984.374
1986.695
1989.017
1991.338
1993.660
1995.981
1998.303
2000.624
2002.946
2005.267
2007.589
2009.910
2012.232
2014.553
2016.875
2019.196
2021.518
2023.839
2026.161
2028.482
2030.804
2033.125
2035.447
2037.768
2040.090
2042.411
2044.733
2047.054
2049.376
2051.697
2054.019
2056.340
2058.662
2060.983
2063.305
2065.626
2067.948
2070.269
2072.591
2074.912
2077.234
2079.555
2081.877
2084.198
2086.520
2088.841
2091.163
2093.484
2095.806
2098.127
2100.449
2102.770
2105.092
2107.413
2109.735
2112.056
2114.378
2116.699
2119.021
2121.342
2123.664
2125.985
2128.307
2130.628
2132.950
2135.271
2137.593
2139.914
2142.236
2144.557
2146.879
2149.200
2151.522
2153.843
2156.165
2158.486
2160.808
2163.129
2165.451
2167.772
2170.094
2172.415
2174.737
2177.058
2179.380
2181.701
2184.023
2186.344
2188.666
2190.987
2193.309
2195.630
2197.952
2200.273
2202.595
2204.916
2207.238
2209.559
2211.881
2214.202
2216.524
2218.845
2221.167
2223.488
2225.810
2228.131
2230.453
2232.774
2235.096
2237.417
2239.739
2242.060
2244.382
2246.703
2249.025
2251.346
2253.668
2255.989
2258.311
2260.632
2262.954
2265.275
2267.597
2269.918
2272.240
2274.561
2276.883
2279.204
2281.526
2283.847
2286.169
2288.490
2290.812
2293.133
2295.455
2297.776
2300.098
2302.419
2302.322
2302.224
2302.127
2302.029
2301.932
2301.834
2301.737
2301.639
2301.542
2301.444
2301.347
2301.249
2301.152
2301.054
2300.957
2300.859
2300.762
2300.664
2300.567
2300.469
2300.372
2300.274
2300.177
2300.079
2299.982
2299.884
2299.787
2299.689
2299.592
2299.494
2299.397
2299.299
2299.202
2299.104
2299.007
2298.909
2298.812
2298.714
2298.617
2298.519
2298.422
2298.324
2298.227
2298.129
2298.032
2297.934
2297.837
2297.739
2297.642
2297.544
2297.447
2297.349
2297.252
2297.154
2297.057
2296.959
2296.862
2296.764
2296.667
2296.569
2296.472
2296.374
2296.277
2296.179
2296.082
2295.984
2295.887
2295.789
2295.692
2295.594
2295.497
2295.399
2295.302
2295.204
2295.107
2295.009
2294.912
2294.814
2294.717
2294.619
2294.522
2294.424
2294.327
2294.229
2294.132
2294.034
2293.937
2293.839
2293.742
2293.644
2293.547
2293.449
2293.352
2293.254
2293.157
2293.059
2292.962
2292.864
2292.767
2292.669
2292.572
2292.474
2292.377
2292.279
2292.182
2292.084
2291.987
2291.889
2291.792
2291.694
2291.597
2291.499
2291.402
2291.304
2291.207
2291.109
2291.012
2290.914
2290.817
2290.719
2290.622
2290.524
2290.427
2290.329
2290.232
2290.134
2290.037
2289.939
2289.842
2289.744
2289.647
2289.549
2289.452
2289.354
2289.257
2289.159
2289.062
2288.964
2288.867
2288.769
2288.672
2288.574
2288.477
2288.379
2288.282
2288.184
2288.087
2287.989
2287.892
2287.794
2287.697
2287.599
2287.502
2287.404
2287.307
2287.209
2287.112
2287.014
2286.917
2286.819
2286.722
2286.624
2286.527
2286.429
2286.332
2286.234
2286.137
2286.039
2285.942
2285.844
2285.747
2285.649
2285.552
2285.454
2285.357
2285.259
2285.162
2285.064
2284.967
2284.869
2284.772
2284.674
2284.577
2284.479
2284.382
2284.284
2284.187
2284.089
2283.992
2283.894
2283.797
2283.699
2283.602
2283.504
2283.407
2283.309
2283.212
2283.114
2283.017
2282.919
2279.327
2275.734
2272.142
2268.549
2264.957
2261.364
2257.772
2254.179
2250.587
2246.994
2243.402
2239.809
2236.217
2232.624
2229.032
2225.439
2221.847
2218.254
2214.662
2211.069
2207.477
2203.884
2200.292
2196.699
2193.107
2189.514
2185.922
2182.329
2178.737
2175.144
2171.552
2167.959
2164.367
2160.774
2157.182
2153.589
2149.997
2146.404
2142.812
2139.219
2135.627
2132.034
2128.442
2124.849
2121.257
2117.664
2114.072
2110.479
2106.887
2103.294
2099.702
2096.109
2092.517
2088.924
2085.332
2081.739
2078.147
2074.554
2070.962
2067.369
2063.777
2060.184
2056.592
2052.999
2049.407
2045.814
2042.222
2038.629
2035.037
2031.444
2027.852
2024.259
2020.667
2017.074
2013.482
2009.889
2006.297
2002.704
1999.112
1995.519
1991.927
1988.334
1984.742
1981.149
1977.557
1973.964
1970.372
1966.779
1963.187
1959.594
1956.002
1952.409
1948.817
1945.224
1941.632
1938.039
1934.447
1930.854
1927.262
1923.669
1920.077
1916.484
1912.892
1909.299
1905.707
1902.114
1898.522
1894.929
1891.337
1887.744
1884.152
1880.559
1876.967
1873.374
1869.782
1866.189
1862.597
1859.004
1855.412
1851.819
1848.227
1844.634
1841.042
1837.449
1833.857
1830.264
1826.672
1823.079
1819.487
1815.894
1812.302
1808.709
1805.117
1801.524
1797.932
1794.339
1790.747
1787.154
1783.562
1779.969
1776.377
1772.784
1769.192
1765.599
1762.007
1758.414
1754.822
1751.229
1747.637
1744.044
1740.452
1736.859
1733.267
1729.674
1726.082
1722.489
1718.897
1715.304
1711.712
1708.119
1704.527
1700.934
1697.342
1693.749
1690.157
1686.564
1682.972
1679.379
1675.787
1672.194
1668.602
1665.009
1661.417
1657.824
1654.232
1650.639
1647.047
1643.454
1639.862
1636.269
1632.677
1629.084
1625.492
1621.899
1618.307
1614.714
1611.122
1607.529
1603.937
1600.344
1596.752
1593.159
1589.567
1585.974
1582.382
1578.789
1575.197
1571.604
1568.012
1564.419
1566.179
1567.938
1569.698
1571.457
1573.217
1574.976
1576.736
1578.495
1580.255
1582.014
1583.774
1585.533
1587.293
1589.052
1590.812
1592.571
1594.331
1596.090
1597.850
1599.609
1601.369
1603.128
1604.888
1606.647
1608.407
1610.166
1611.926
1613.685
1615.445
1617.204
1618.964
1620.723
1622.483
1624.242
1626.002
1627.761
1629.521
1631.280
1633.040
1634.799
1636.559
1638.318
1640.078
1641.837
1643.597
1645.356
1647.116
1648.875
1650.635
1652.394
1654.154
1655.913
1657.673
1659.432
1661.192
1662.951
1664.711
1666.470
1668.230
1669.989
1671.749
1673.508
1675.268
1677.027
1678.787
1680.546
1682.306
1684.065
1685.825
1687.584
1689.344
1691.103
1692.863
1694.622
1696.382
1698.141
1699.901
1701.660
1703.420
1705.179
1706.939
1708.698
1710.458
1712.217
1713.977
1715.736
1717.496
1719.255
1721.015
1722.774
1724.534
1726.293
1728.053
1729.812
1731.572
1733.331
1735.091
1736.850
1738.610
1740.369
1742.129
1743.888
1745.648
1747.407
1749.167
1750.926
1752.686
1754.445
1756.205
1757.964
1759.724
1761.483
1763.243
1765.002
1766.762
1768.521
1770.281
1772.040
1773.800
1775.559
1777.319
1779.078
1780.838
1782.597
1784.357
1786.116
1787.876
1789.635
1791.395
1793.154
1794.914
1796.673
1798.433
1800.192
1801.952
1803.711
1805.471
1807.230
1808.990
1810.749
1812.509
1814.268
1816.028
1817.787
1819.547
1821.306
1823.066
1824.825
1826.585
1828.344
1830.104
1831.863
1833.623
1835.382
1837.142
1838.901
1840.661
1842.420
1844.180
1845.939
1847.699
1849.458
1851.218
1852.977
1854.737
1856.496
1858.256
1860.015
1861.775
1863.534
1865.294
1867.053
1868.813
1870.572
1872.332
1874.091
1875.851
1877.610
1879.370
1881.129
1882.889
1884.648
1886.408
1888.167
1889.927
1891.686
1893.446
1895.205
1896.965
1898.724
1900.484
1902.243
1904.003
1905.762
1907.522
1909.281
1911.041
1912.800
1914.560
1916.319
1912.800
1909.281
1905.762
1902.243
1898.724
1895.205
1891.686
1888.167
1884.648
1881.129
1877.610
1874.091
1870.572
1867.053
1863.534
1860.015
1856.496
1852.977
1849.458
1845.939
1842.420
1838.901
1835.382
1831.863
1828.344
1824.825
1821.306
1817.787
1814.268
1810.749
1807.230
1803.711
1800.192
1796.673
1793.154
1789.635
1786.116
1782.597
1779.078
1775.559
1772.040
1768.521
1765.002
1761.483
1757.964
1754.445
1750.926
1747.407
1743.888
1740.369
1736.850
1733.331
1729.812
1726.293
1722.774
1719.255
1715.736
1712.217
1708.698
1705.179
1701.660
1698.141
1694.622
1691.103
1687.584
1684.065
1680.546
1677.027
1673.508
1669.989
1666.470
1662.951
1659.432
1655.913
1652.394
1648.875
1645.356
1641.837
1638.318
1634.799
1631.280
1627.761
1624.242
1620.723
1617.204
1613.685
1610.166
1606.647
1603.128
1599.609
1596.090
1592.571
1589.052
1585.533
1582.014
1578.495
1574.976
1571.457
1567.938
1564.419
1560.900
1557.381
1553.862
1550.343
1546.824
1543.305
1539.786
1536.267
1532.748
1529.229
1525.710
1522.191
1518.672
1515.153
1511.634
1508.115
1504.596
1501.077
1497.558
1494.039
1490.520
1487.001
1483.482
1479.963
1476.444
1472.925
1469.406
1465.887
1462.368
1458.849
1455.330
1451.811
1448.292
1444.773
1441.254
1437.735
1434.216
1430.697
1427.178
1423.659
1420.140
1416.621
1413.102
1409.583
1406.064
1402.545
1399.026
1395.507
1391.988
1388.469
1384.950
1381.431
1377.912
1374.393
1370.874
1367.355
1363.836
1360.317
1356.798
1353.279
1349.760
1346.241
1342.722
1339.203
1335.684
1332.165
1328.646
1325.127
1321.608
1318.089
1314.570
1311.051
1307.532
1304.013
1300.494
1296.975
1293.456
1289.937
1286.418
1282.899
1279.380
1275.861
1272.342
1268.823
1265.304
1261.785
1258.266
1254.747
1251.228
1247.709
1244.190
1240.671
1237.152
1233.633
1230.114
1226.595
1223.076
1219.557
1216.038
1212.519
1207.680
1202.841
1198.002
1193.163
1188.324
1183.485
1178.646
1173.807
1168.968
1164.129
1159.290
1154.451
1149.612
1144.773
1139.934
1135.095
1130.256
1125.417
1120.578
1115.739
1110.900
1106.061
1101.222
1096.383
1091.544
1086.705
1081.866
1077.027
1072.188
1067.349
1062.510
1057.671
1052.832
1047.993
1043.154
1038.315
1033.476
1028.637
1023.798
1018.959
1014.120
1009.281
1004.442
999.603
994.764
989.925
985.086
980.247
975.408
970.569
965.730
960.891
956.052
951.213
946.374
941.535
936.696
931.857
927.018
922.179
917.340
912.501
907.662
902.823
897.984
893.145
888.306
883.467
878.628
873.789
868.950
864.111
859.272
854.433
849.594
844.755
839.916
835.077
830.238
825.399
820.560
815.721
810.882
806.043
801.204
796.365
791.526
786.687
781.848
777.009
772.170
767.331
762.492
757.653
752.814
747.975
743.136
738.297
733.458
728.619
723.780
718.941
714.102
709.263
704.424
699.585
694.746
689.907
685.068
680.229
675.390
670.551
665.712
660.873
656.034
651.195
646.356
641.517
636.678
631.839
627.000
622.161
617.322
612.483
607.644
602.805
597.966
593.127
588.288
583.449
578.610
573.771
568.932
564.093
559.254
554.415
549.576
544.737
539.898
535.059
530.220
525.381
520.542
515.703
510.864
506.025
501.186
496.347
491.508
486.669
481.830
476.991
472.152
467.313
462.474
457.635
452.796
447.957
443.118
438.279
433.440
428.601
423.762
418.923
414.084
409.245
404.406
399.567
394.728
389.889
385.050
380.211
375.372
370.533
365.694
360.855
356.016
351.177
346.338
341.499
336.660
331.821
326.982
322.143
317.304
312.465
307.626
302.787
297.948
293.109
288.270
283.431
278.592
273.753
268.914
264.075
259.236
254.397
249.558
