571.458
574.904
578.349
581.795
585.240
588.686
592.131
595.577
599.022
602.468
605.913
609.359
612.804
616.250
619.695
623.141
626.586
630.032
633.477
636.923
640.368
643.814
647.259
650.705
654.150
657.596
661.041
664.487
667.932
671.378
674.823
678.269
681.714
685.160
688.605
692.051
695.496
698.942
702.387
705.833
709.278
712.724
716.169
719.615
723.060
726.506
729.951
733.397
736.842
740.288
743.733
747.179
750.624
754.070
757.515
760.961
764.406
767.852
771.297
774.743
778.188
781.634
785.079
788.525
791.970
795.416
798.861
802.307
805.752
809.198
812.643
816.089
819.534
822.980
826.425
829.871
833.316
836.762
840.207
843.653
847.098
850.544
853.989
857.435
860.880
864.326
867.771
871.217
874.662
878.108
881.553
884.999
888.444
891.890
895.335
898.781
902.226
905.672
909.117
912.563
916.008
919.454
922.899
926.345
929.790
933.236
936.681
940.127
943.572
947.018
950.463
953.909
957.354
960.800
964.245
967.691
971.136
974.582
978.027
981.473
984.918
988.364
991.809
995.255
998.700
1002.146
1005.591
1009.037
1012.482
1015.928
1019.373
1022.819
1026.264
1029.710
1033.155
1036.601
1040.046
1043.492
1046.937
1050.383
1053.828
1057.274
1060.719
1064.165
1067.610
1071.056
1074.501
1077.947
1081.392
1084.838
1088.283
1091.729
1095.174
1098.620
1102.065
1105.511
1108.956
1112.402
1115.847
1119.293
1122.738
1126.184
1129.629
1133.075
1136.520
1139.966
1143.411
1146.857
1150.302
1153.748
1157.193
1160.639
1164.084
1167.530
1170.975
1174.421
1177.866
1181.312
1184.757
1188.203
1191.648
1195.094
1198.539
1201.985
1205.430
1208.876
1212.321
1215.767
1219.212
1222.658
1226.103
1229.549
1232.994
1236.440
1239.885
1243.331
1246.776
1250.222
1253.667
1257.113
1260.558
1265.226
1269.894
1274.562
1279.230
1283.898
1288.566
1293.234
1297.902
1302.570
1307.238
1311.906
1316.574
1321.242
1325.910
1330.578
1335.246
1339.914
1344.582
1349.250
1353.918
1358.586
1363.254
1367.922
1372.590
1377.258
1381.926
1386.594
1391.262
1395.930
1400.598
1405.266
1409.934
1414.602
1419.270
1423.938
1428.606
1433.274
1437.942
1442.610
1447.278
1451.946
1456.614
1461.282
1465.950
1470.618
1475.286
1479.954
1484.622
1489.290
1493.958
1498.626
1503.294
1507.962
1512.630
1517.298
1521.966
1526.634
1531.302
1535.970
1540.638
1545.306
1549.974
1554.642
1559.310
1563.978
1568.646
1573.314
1577.982
1582.650
1587.318
1591.986
1596.654
1601.322
1605.990
1610.658
1615.326
1619.994
1624.662
1629.330
1633.998
1638.666
1643.334
1648.002
1652.670
1657.338
1662.006
1666.674
1671.342
1676.010
1680.678
1685.346
1690.014
1694.682
1699.350
1704.018
1708.686
1713.354
1718.022
1722.690
1727.358
1732.026
1736.694
1741.362
1746.030
1750.698
1755.366
1760.034
1764.702
1769.370
1774.038
1778.706
1783.374
1788.042
1792.710
1797.378
1802.046
1806.714
1811.382
1816.050
1820.718
1825.386
1830.054
1834.722
1839.390
1844.058
1848.726
1853.394
1858.062
1862.730
1867.398
1872.066
1876.734
1881.402
1886.070
1890.738
1895.406
1900.074
1904.742
1909.410
1914.078
1918.746
1923.414
1928.082
1932.750
1937.418
1942.086
1946.754
1951.422
1956.090
1960.758
1965.426
1970.094
1974.762
1979.430
1984.098
1988.766
1993.434
1998.102
2002.770
2007.438
2012.106
2016.774
2021.442
2026.110
2030.778
2035.446
2040.114
2044.782
2049.450
2054.118
2058.786
2063.454
2068.122
2072.790
2077.458
2082.126
2086.794
2091.462
2096.130
2100.798
2105.466
2110.134
2114.802
2119.470
2124.138
2128.806
2133.474
2138.142
2142.810
2147.478
2152.146
2156.814
2161.482
2166.150
2170.818
2175.486
2180.154
2184.822
2189.490
2194.158
2194.500
2194.842
2195.184
2195.526
2195.868
2196.210
2196.552
2196.894
2197.236
2197.578
2197.920
2198.262
2198.604
2198.946
2199.288
2199.630
2199.972
2200.314
2200.656
2200.998
2201.340
2201.682
2202.024
2202.366
2202.708
2203.050
2203.392
2203.734
2204.076
2204.418
2204.760
2205.102
2205.444
2205.786
2206.128
2206.470
2206.812
2207.154
2207.496
2207.838
2208.180
2208.522
2208.864
2209.206
2209.548
2209.890
2210.232
2210.574
2210.916
2211.258
2211.600
2211.942
2212.284
2212.626
2212.968
2213.310
2213.652
2213.994
2214.336
2214.678
2215.020
2215.362
2215.704
2216.046
2216.388
2216.730
2217.072
2217.414
2217.756
2218.098
2218.440
2218.782
2219.124
2219.466
2219.808
2220.150
2220.492
2220.834
2221.176
2221.518
2221.860
2222.202
2222.544
2222.886
2223.228
2223.570
2223.912
2224.254
2224.596
2224.938
2225.280
2225.622
2225.964
2226.306
2226.648
2226.990
2227.332
2227.674
2228.016
2228.358
2228.700
2229.042
2229.384
2229.726
2230.068
2230.410
2230.752
2231.094
2231.436
2231.778
2232.120
2232.462
2232.804
2233.146
2233.488
2233.830
2234.172
2234.514
2234.856
2235.198
2235.540
2235.882
2236.224
2236.566
2236.908
2237.250
2237.592
2237.934
2238.276
2238.618
2238.960
2239.302
2239.644
2239.986
2240.328
2240.670
2241.012
2241.354
2241.696
2242.038
2242.380
2242.722
2243.064
2243.406
2243.748
2244.090
2244.432
2244.774
2245.116
2245.458
2245.800
2246.142
2246.484
2246.826
2247.168
2247.510
2247.852
2248.194
2248.536
2248.878
2249.220
2249.562
2249.904
2250.246
2250.588
2250.930
2251.272
2251.614
2251.956
2252.298
2252.640
2252.982
2253.324
2253.666
2254.008
2254.350
2254.692
2255.034
2255.376
2255.718
2256.060
2256.402
2256.744
2257.086
2257.428
2257.770
2258.112
2258.454
2258.796
2259.138
2259.480
2259.822
2260.164
2260.506
2260.848
2261.190
2261.532
2261.874
2262.216
2262.558
2259.430
2256.302
2253.174
2250.046
2246.918
2243.790
2240.662
2237.534
2234.406
2231.278
2228.150
2225.022
2221.894
2218.766
2215.638
2212.510
2209.382
2206.254
2203.126
2199.998
2196.870
2193.742
2190.614
2187.486
2184.358
2181.230
2178.102
2174.974
2171.846
2168.718
2165.590
2162.462
2159.334
2156.206
2153.078
2149.950
2146.822
2143.694
2140.566
2137.438
2134.310
2131.182
2128.054
2124.926
2121.798
2118.670
2115.542
2112.414
2109.286
2106.158
2103.030
2099.902
2096.774
2093.646
2090.518
2087.390
2084.262
2081.134
2078.006
2074.878
2071.750
2068.622
2065.494
2062.366
2059.238
2056.110
2052.982
2049.854
2046.726
2043.598
2040.470
2037.342
2034.214
2031.086
2027.958
2024.830
2021.702
2018.574
2015.446
2012.318
2009.190
2006.062
2002.934
1999.806
1996.678
1993.550
1990.422
1987.294
1984.166
1981.038
1977.910
1974.782
1971.654
1968.526
1965.398
1962.270
1959.142
1956.014
1952.886
1949.758
1946.630
1943.502
1940.374
1937.246
1934.118
1930.990
1927.862
1924.734
1921.606
1918.478
1915.350
1912.222
1909.094
1905.966
1902.838
1899.710
1896.582
1893.454
1890.326
1887.198
1884.070
1880.942
1877.814
1874.686
1871.558
1868.430
1865.302
1862.174
1859.046
1855.918
1852.790
1849.662
1846.534
1843.406
1840.278
1837.150
1834.022
1830.894
1827.766
1824.638
1821.510
1818.382
1815.254
1812.126
1808.998
1805.870
1802.742
1799.614
1796.486
1793.358
1790.230
1787.102
1783.974
1780.846
1777.718
1774.590
1771.462
1768.334
1765.206
1762.078
1758.950
1755.822
1752.694
1749.566
1746.438
1743.310
1740.182
1737.054
1733.926
1730.798
1727.670
1724.542
1721.414
1718.286
1715.158
1712.030
1708.902
1705.774
1702.646
1699.518
1696.390
1693.262
1690.134
1687.006
1683.878
1680.750
1677.622
1674.494
1671.366
1668.238
1665.110
1661.982
1658.854
1655.726
1652.598
1649.470
1646.342
1643.214
1640.086
1636.958
1640.966
1644.974
1648.982
1652.990
1656.998
1661.006
1665.014
1669.022
1673.030
1677.038
1681.046
1685.054
1689.062
1693.070
1697.078
1701.086
1705.094
1709.102
1713.110
1717.118
1721.126
1725.134
1729.142
1733.150
1737.158
1741.166
1745.174
1749.182
1753.190
1757.198
1761.206
1765.214
1769.222
1773.230
1777.238
1781.246
1785.254
1789.262
1793.270
1797.278
1801.286
1805.294
1809.302
1813.310
1817.318
1821.326
1825.334
1829.342
1833.350
1837.358
1841.366
1845.374
1849.382
1853.390
1857.398
1861.406
1865.414
1869.422
1873.430
1877.438
1881.446
1885.454
1889.462
1893.470
1897.478
1901.486
1905.494
1909.502
1913.510
1917.518
1921.526
1925.534
1929.542
1933.550
1937.558
1941.566
1945.574
1949.582
1953.590
1957.598
1961.606
1965.614
1969.622
1973.630
1977.638
1981.646
1985.654
1989.662
1993.670
1997.678
2001.686
2005.694
2009.702
2013.710
2017.718
2021.726
2025.734
2029.742
2033.750
2037.758
2041.766
2045.774
2049.782
2053.790
2057.798
2061.806
2065.814
2069.822
2073.830
2077.838
2081.846
2085.854
2089.862
2093.870
2097.878
2101.886
2105.894
2109.902
2113.910
2117.918
2121.926
2125.934
2129.942
2133.950
2137.958
2141.966
2145.974
2149.982
2153.990
2157.998
2162.006
2166.014
2170.022
2174.030
2178.038
2182.046
2186.054
2190.062
2194.070
2198.078
2202.086
2206.094
2210.102
2214.110
2218.118
2222.126
2226.134
2230.142
2234.150
2238.158
2242.166
2246.174
2250.182
2254.190
2258.198
2262.206
2266.214
2270.222
2274.230
2278.238
2282.246
2286.254
2290.262
2294.270
2298.278
2302.286
2306.294
2310.302
2314.310
2318.318
2322.326
2326.334
2330.342
2334.350
2338.358
2342.366
2346.374
2350.382
2354.390
2358.398
2362.406
2366.414
2370.422
2374.430
2378.438
2382.446
2386.454
2390.462
2394.470
2398.478
2402.486
2406.494
2410.502
2414.510
2418.518
2422.526
2426.534
2430.542
2434.550
2438.558
2436.090
2433.621
2431.153
2428.684
2426.216
2423.747
2421.279
2418.810
2416.342
2413.873
2411.405
2408.936
2406.468
2403.999
2401.531
2399.062
2396.594
2394.125
2391.657
2389.188
2386.720
2384.251
2381.783
2379.314
2376.846
2374.377
2371.909
2369.440
2366.972
2364.503
2362.035
2359.566
2357.098
2354.629
2352.161
2349.692
2347.224
2344.755
2342.287
2339.818
2337.350
2334.881
2332.413
2329.944
2327.476
2325.007
2322.539
2320.070
2317.602
2315.133
2312.665
2310.196
2307.728
2305.259
2302.791
2300.322
2297.854
2295.385
2292.917
2290.448
2287.980
2285.511
2283.043
2280.574
2278.106
2275.637
2273.169
2270.700
2268.232
2265.763
2263.295
2260.826
2258.358
2255.889
2253.421
2250.952
2248.484
2246.015
2243.547
2241.078
2238.610
2236.141
2233.673
2231.204
2228.736
2226.267
2223.799
2221.330
2218.862
2216.393
2213.925
2211.456
2208.988
2206.519
2204.051
2201.582
2199.114
2196.645
2194.177
2191.708
2189.240
2186.771
2184.303
2181.834
2179.366
2176.897
2174.429
2171.960
2169.492
2167.023
2164.555
2162.086
2159.618
2157.149
2154.681
2152.212
2149.744
2147.275
2144.807
2142.338
2139.870
2137.401
2134.933
2132.464
2129.996
2127.527
2125.059
2122.590
2120.122
2117.653
2115.185
2112.716
2110.248
2107.779
2105.311
2102.842
2100.374
2097.905
2095.437
2092.968
2090.500
2088.031
2085.563
2083.094
2080.626
2078.157
2075.689
2073.220
2070.752
2068.283
2065.815
2063.346
2060.878
2058.409
2055.941
2053.472
2051.004
2048.535
2046.067
2043.598
2041.130
2038.661
2036.193
2033.724
2031.256
2028.787
2026.319
2023.850
2021.382
2018.913
2016.445
2013.976
2011.508
2009.039
2006.571
2004.102
2001.634
1999.165
1996.697
1994.228
1991.760
1989.291
1986.823
1984.354
1981.886
1979.417
1976.949
1974.480
1972.012
1969.543
1967.075
1964.606
1962.138
1959.669
1957.201
1954.732
1952.264
1949.795
1947.327
1944.858
1943.685
1942.512
1941.339
1940.166
1938.993
1937.820
1936.647
1935.474
1934.301
1933.128
1931.955
1930.782
1929.609
1928.436
1927.263
1926.090
1924.917
1923.744
1922.571
1921.398
1920.225
1919.052
1917.879
1916.706
1915.533
1914.360
1913.187
1912.014
1910.841
1909.668
1908.495
1907.322
1906.149
1904.976
1903.803
1902.630
1901.457
1900.284
1899.111
1897.938
1896.765
1895.592
1894.419
1893.246
1892.073
1890.900
1889.727
1888.554
1887.381
1886.208
1885.035
1883.862
1882.689
1881.516
1880.343
1879.170
1877.997
1876.824
1875.651
1874.478
1873.305
1872.132
1870.959
1869.786
1868.613
1867.440
1866.267
1865.094
1863.921
1862.748
1861.575
1860.402
1859.229
1858.056
1856.883
1855.710
1854.537
1853.364
1852.191
1851.018
1849.845
1848.672
1847.499
1846.326
1845.153
1843.980
1842.807
1841.634
1840.461
1839.288
1838.115
1836.942
1835.769
1834.596
1833.423
1832.250
1831.077
1829.904
1828.731
1827.558
1826.385
1825.212
1824.039
1822.866
1821.693
1820.520
1819.347
1818.174
1817.001
1815.828
1814.655
1813.482
1812.309
1811.136
1809.963
1808.790
1807.617
1806.444
1805.271
1804.098
1802.925
1801.752
1800.579
1799.406
1798.233
1797.060
1795.887
1794.714
1793.541
1792.368
1791.195
1790.022
1788.849
1787.676
1786.503
1785.330
1784.157
1782.984
1781.811
1780.638
1779.465
1778.292
1777.119
1775.946
1774.773
1773.600
1772.427
1771.254
1770.081
1768.908
1767.735
1766.562
1765.389
1764.216
1763.043
1761.870
1760.697
1759.524
1758.351
1757.178
1756.005
1754.832
1753.659
1752.486
1751.313
1750.140
1748.967
1747.794
1746.621
1745.448
1744.275
1743.102
1741.929
1740.756
1739.583
1738.410
1737.237
1736.064
1734.891
1733.718
1732.545
1731.372
1730.199
1729.026
1727.853
1726.680
1725.507
1724.334
1723.161
1721.988
1720.815
1719.642
1718.469
1717.296
1716.123
1714.950
1713.777
1712.604
1711.431
1710.258
1707.204
1704.149
1701.095
1698.040
1694.986
1691.931
1688.877
1685.822
1682.768
1679.713
1676.659
1673.604
1670.550
1667.495
1664.441
1661.386
1658.332
1655.277
1652.223
1649.168
1646.114
1643.059
1640.005
1636.950
1633.896
1630.841
1627.787
1624.732
1621.678
1618.623
1615.569
1612.514
1609.460
1606.405
1603.351
1600.296
1597.242
1594.187
1591.133
1588.078
1585.024
1581.969
1578.915
1575.860
1572.806
1569.751
1566.697
1563.642
1560.588
1557.533
1554.479
1551.424
1548.370
1545.315
1542.261
1539.206
1536.152
1533.097
1530.043
1526.988
1523.934
1520.879
1517.825
1514.770
1511.716
1508.661
1505.607
1502.552
1499.498
1496.443
1493.389
1490.334
1487.280
1484.225
1481.171
1478.116
1475.062
1472.007
1468.953
1465.898
1462.844
1459.789
1456.735
1453.680
1450.626
1447.571
1444.517
1441.462
1438.408
1435.353
1432.299
1429.244
1426.190
1423.135
1420.081
1417.026
1413.972
1410.917
1407.863
1404.808
1401.754
1398.699
1395.645
1392.590
1389.536
1386.481
1383.427
1380.372
1377.318
1374.263
1371.209
1368.154
1365.100
1362.045
1358.991
1355.936
1352.882
1349.827
1346.773
1343.718
1340.664
1337.609
1334.555
1331.500
1328.446
1325.391
1322.337
1319.282
1316.228
1313.173
1310.119
1307.064
1304.010
1300.955
1297.901
1294.846
1291.792
1288.737
1285.683
1282.628
1279.574
1276.519
1273.465
1270.410
1267.356
1264.301
1261.247
1258.192
1255.138
1252.083
1249.029
1245.974
1242.920
1239.865
1236.811
1233.756
1230.702
1227.647
1224.593
1221.538
1218.484
1215.429
1212.375
1209.320
1206.266
1203.211
1200.157
1197.102
1194.048
1190.993
1187.939
1184.884
1181.830
1178.775
1175.721
1172.666
1169.612
1166.557
1163.503
1160.448
1157.394
1154.339
1151.285
1148.230
1145.176
1142.121
1139.067
1136.012
1132.958
1129.903
1126.849
1123.794
1120.740
1117.685
1114.631
1111.576
1108.522
1105.467
1102.413
1099.358
1102.828
1106.298
1109.768
1113.238
1116.708
1120.178
1123.648
1127.118
1130.588
1134.058
1137.528
1140.998
1144.468
1147.938
1151.408
1154.878
1158.348
1161.818
1165.288
1168.758
1172.228
1175.698
1179.168
1182.638
1186.108
1189.578
1193.048
1196.518
1199.988
1203.458
1206.928
1210.398
1213.868
1217.338
1220.808
1224.278
1227.748
1231.218
1234.688
1238.158
1241.628
1245.098
1248.568
1252.038
1255.508
1258.978
1262.448
1265.918
1269.388
1272.858
1276.328
1279.798
1283.268
1286.738
1290.208
1293.678
1297.148
1300.618
1304.088
1307.558
1311.028
1314.498
1317.968
1321.438
1324.908
1328.378
1331.848
1335.318
1338.788
1342.258
1345.728
1349.198
1352.668
1356.138
1359.608
1363.078
1366.548
1370.018
1373.488
1376.958
1380.428
1383.898
1387.368
1390.838
1394.308
1397.778
1401.248
1404.718
1408.188
1411.658
1415.128
1418.598
1422.068
1425.538
1429.008
1432.478
1435.948
1439.418
1442.888
1446.358
1449.828
1453.298
1456.768
1460.238
1463.708
1467.178
1470.648
1474.118
1477.588
1481.058
1484.528
1487.998
1491.468
1494.938
1498.408
1501.878
1505.348
1508.818
1512.288
1515.758
1519.228
1522.698
1526.168
1529.638
1533.108
1536.578
1540.048
1543.518
1546.988
1550.458
1553.928
1557.398
1560.868
1564.338
1567.808
1571.278
1574.748
1578.218
1581.688
1585.158
1588.628
1592.098
1595.568
1599.038
1602.508
1605.978
1609.448
1612.918
1616.388
1619.858
1623.328
1626.798
1630.268
1633.738
1637.208
1640.678
1644.148
1647.618
1651.088
1654.558
1658.028
1661.498
1664.968
1668.438
1671.908
1675.378
1678.848
1682.318
1685.788
1689.258
1692.728
1696.198
1699.668
1703.138
1706.608
1710.078
1713.548
1717.018
1720.488
1723.958
1727.428
1730.898
1734.368
1737.838
1741.308
1744.778
1748.248
1751.718
1755.188
1758.658
1762.128
1765.598
1769.068
1772.538
1776.008
1779.478
1782.948
1786.418
1789.888
1793.358
1786.467
1779.575
1772.684
1765.792
1758.901
1752.009
1745.118
1738.226
1731.335
1724.443
1717.552
1710.660
1703.769
1696.877
1689.986
1683.094
1676.203
1669.311
1662.420
1655.528
1648.637
1641.745
1634.854
1627.962
1621.071
1614.179
1607.288
1600.396
1593.505
1586.613
1579.722
1572.830
1565.939
1559.047
1552.156
1545.264
1538.373
1531.481
1524.590
1517.698
1510.807
1503.915
1497.024
1490.132
1483.241
1476.349
1469.458
1462.566
1455.675
1448.783
1441.892
1435.000
1428.109
1421.217
1414.326
1407.434
1400.543
1393.651
1386.760
1379.868
1372.977
1366.085
1359.194
1352.302
1345.411
1338.519
1331.628
1324.736
1317.845
1310.953
1304.062
1297.170
1290.279
1283.387
1276.496
1269.604
1262.713
1255.821
1248.930
1242.038
1235.147
1228.255
1221.364
1214.472
1207.581
1200.689
1193.798
1186.906
1180.015
1173.123
1166.232
1159.340
1152.449
1145.557
1138.666
1131.774
1124.883
1117.991
1111.100
1104.208
1097.317
1090.425
1083.534
1076.642
1069.751
1062.859
1055.968
1049.076
1042.185
1035.293
1028.402
1021.510
1014.619
1007.727
1000.836
993.944
987.053
980.161
973.270
966.378
959.487
952.595
945.704
938.812
931.921
925.029
918.138
911.246
904.355
897.463
890.572
883.680
876.789
869.897
863.006
856.114
849.223
842.331
835.440
828.548
821.657
814.765
807.874
800.982
794.091
787.199
780.308
773.416
766.525
759.633
752.742
745.850
738.959
732.067
725.176
718.284
711.393
704.501
697.610
690.718
683.827
676.935
670.044
663.152
656.261
649.369
642.478
635.586
628.695
621.803
614.912
608.020
601.129
594.237
587.346
580.454
573.563
566.671
559.780
552.888
545.997
539.105
532.214
525.322
518.431
511.539
504.648
497.756
490.865
483.973
477.082
470.190
463.299
456.407
449.516
442.624
435.733
428.841
421.950
