1231.864
1236.532
1241.200
1245.868
1250.536
1255.204
1259.872
1264.540
1269.208
1273.876
1278.544
1283.212
1287.880
1292.548
1297.216
1301.884
1306.552
1311.220
1315.888
1320.556
1325.224
1329.892
1334.560
1339.228
1343.896
1348.564
1353.232
1357.900
1362.568
1367.236
1371.904
1376.572
1381.240
1385.908
1390.576
1395.244
1399.912
1404.580
1409.248
1413.916
1418.584
1423.252
1427.920
1432.588
1437.256
1441.924
1446.592
1451.260
1455.928
1460.596
1465.264
1469.932
1474.600
1479.268
1483.936
1488.604
1493.272
1497.940
1502.608
1507.276
1511.944
1516.612
1521.280
1525.948
1530.616
1535.284
1539.952
1544.620
1549.288
1553.956
1558.624
1563.292
1567.960
1572.628
1577.296
1581.964
1586.632
1591.300
1595.968
1600.636
1605.304
1609.972
1614.640
1619.308
1623.976
1628.644
1633.312
1637.980
1642.648
1647.316
1651.984
1656.652
1661.320
1665.988
1670.656
1675.324
1679.992
1684.660
1689.328
1693.996
1698.664
1703.332
1708.000
1712.668
1717.336
1722.004
1726.672
1731.340
1736.008
1740.676
1745.344
1750.012
1754.680
1759.348
1764.016
1768.684
1773.352
1778.020
1782.688
1787.356
1792.024
1796.692
1801.360
1806.028
1810.696
1815.364
1820.032
1824.700
1829.368
1834.036
1838.704
1843.372
1848.040
1852.708
1857.376
1862.044
1866.712
1871.380
1876.048
1880.716
1885.384
1890.052
1894.720
1899.388
1904.056
1908.724
1913.392
1918.060
1922.728
1927.396
1932.064
1936.732
1941.400
1946.068
1950.736
1955.404
1960.072
1964.740
1969.408
1974.076
1978.744
1983.412
1988.080
1992.748
1997.416
2002.084
2006.752
2011.420
2016.088
2020.756
2025.424
2030.092
2034.760
2039.428
2044.096
2048.764
2053.432
2058.100
2062.768
2067.436
2072.104
2076.772
2081.440
2086.108
2090.776
2095.444
2100.112
2104.780
2109.448
2114.116
2118.784
2123.452
2128.120
2132.788
2137.456
2142.124
2146.792
2151.460
2156.128
2160.796
2165.464
2165.806
2166.148
2166.490
2166.832
2167.174
2167.516
2167.858
2168.200
2168.542
2168.884
2169.226
2169.568
2169.910
2170.252
2170.594
2170.936
2171.278
2171.620
2171.962
2172.304
2172.646
2172.988
2173.330
2173.672
2174.014
2174.356
2174.698
2175.040
2175.382
2175.724
2176.066
2176.408
2176.750
2177.092
2177.434
2177.776
2178.118
2178.460
2178.802
2179.144
2179.486
2179.828
2180.170
2180.512
2180.854
2181.196
2181.538
2181.880
2182.222
2182.564
2182.906
2183.248
2183.590
2183.932
2184.274
2184.616
2184.958
2185.300
2185.642
2185.984
2186.326
2186.668
2187.010
2187.352
2187.694
2188.036
2188.378
2188.720
2189.062
2189.404
2189.746
2190.088
2190.430
2190.772
2191.114
2191.456
2191.798
2192.140
2192.482
2192.824
2193.166
2193.508
2193.850
2194.192
2194.534
2194.876
2195.218
2195.560
2195.902
2196.244
2196.586
2196.928
2197.270
2197.612
2197.954
2198.296
2198.638
2198.980
2199.322
2199.664
2200.006
2200.348
2200.690
2201.032
2201.374
2201.716
2202.058
2202.400
2202.742
2203.084
2203.426
2203.768
2204.110
2204.452
2204.794
2205.136
2205.478
2205.820
2206.162
2206.504
2206.846
2207.188
2207.530
2207.872
2208.214
2208.556
2208.898
2209.240
2209.582
2209.924
2210.266
2210.608
2210.950
2211.292
2211.634
2211.976
2212.318
2212.660
2213.002
2213.344
2213.686
2214.028
2214.370
2214.712
2215.054
2215.396
2215.738
2216.080
2216.422
2216.764
2217.106
2217.448
2217.790
2218.132
2218.474
2218.816
2219.158
2219.500
2219.842
2220.184
2220.526
2220.868
2221.210
2221.552
2221.894
2222.236
2222.578
2222.920
2223.262
2223.604
2223.946
2224.288
2224.630
2224.972
2225.314
2225.656
2225.998
2226.340
2226.682
2227.024
2227.366
2227.708
2228.050
2228.392
2228.734
2229.076
2229.418
2229.760
2230.102
2230.444
2230.786
2231.128
2231.470
2231.812
2232.154
2232.496
2232.838
2233.180
2233.522
2233.864
2230.736
2227.608
2224.480
2221.352
2218.224
2215.096
2211.968
2208.840
2205.712
2202.584
2199.456
2196.328
2193.200
2190.072
2186.944
2183.816
2180.688
2177.560
2174.432
2171.304
2168.176
2165.048
2161.920
2158.792
2155.664
2152.536
2149.408
2146.280
2143.152
2140.024
2136.896
2133.768
2130.640
2127.512
2124.384
2121.256
2118.128
2115.000
2111.872
2108.744
2105.616
2102.488
2099.360
2096.232
2093.104
2089.976
2086.848
2083.720
2080.592
2077.464
2074.336
2071.208
2068.080
2064.952
2061.824
2058.696
2055.568
2052.440
2049.312
2046.184
2043.056
2039.928
2036.800
2033.672
2030.544
2027.416
2024.288
2021.160
2018.032
2014.904
2011.776
2008.648
2005.520
2002.392
1999.264
1996.136
1993.008
1989.880
1986.752
1983.624
1980.496
1977.368
1974.240
1971.112
1967.984
1964.856
1961.728
1958.600
1955.472
1952.344
1949.216
1946.088
1942.960
1939.832
1936.704
1933.576
1930.448
1927.320
1924.192
1921.064
1917.936
1914.808
1911.680
1908.552
1905.424
1902.296
1899.168
1896.040
1892.912
1889.784
1886.656
1883.528
1880.400
1877.272
1874.144
1871.016
1867.888
1864.760
1861.632
1858.504
1855.376
1852.248
1849.120
1845.992
1842.864
1839.736
1836.608
1833.480
1830.352
1827.224
1824.096
1820.968
1817.840
1814.712
1811.584
1808.456
1805.328
1802.200
1799.072
1795.944
1792.816
1789.688
1786.560
1783.432
1780.304
1777.176
1774.048
1770.920
1767.792
1764.664
1761.536
1758.408
1755.280
1752.152
1749.024
1745.896
1742.768
1739.640
1736.512
1733.384
1730.256
1727.128
1724.000
1720.872
1717.744
1714.616
1711.488
1708.360
1705.232
1702.104
1698.976
1695.848
1692.720
1689.592
1686.464
1683.336
1680.208
1677.080
1673.952
1670.824
1667.696
1664.568
1661.440
1658.312
1655.184
1652.056
1648.928
1645.800
1642.672
1639.544
1636.416
1633.288
1630.160
1627.032
1623.904
1620.776
1617.648
1614.520
1611.392
1608.264
1612.272
1616.280
1620.288
1624.296
1628.304
1632.312
1636.320
1640.328
1644.336
1648.344
1652.352
1656.360
1660.368
1664.376
1668.384
1672.392
1676.400
1680.408
1684.416
1688.424
1692.432
1696.440
1700.448
1704.456
1708.464
1712.472
1716.480
1720.488
1724.496
1728.504
1732.512
1736.520
1740.528
1744.536
1748.544
1752.552
1756.560
1760.568
1764.576
1768.584
1772.592
1776.600
1780.608
1784.616
1788.624
1792.632
1796.640
1800.648
1804.656
1808.664
1812.672
1816.680
1820.688
1824.696
1828.704
1832.712
1836.720
1840.728
1844.736
1848.744
1852.752
1856.760
1860.768
1864.776
1868.784
1872.792
1876.800
1880.808
1884.816
1888.824
1892.832
1896.840
1900.848
1904.856
1908.864
1912.872
1916.880
1920.888
1924.896
1928.904
1932.912
1936.920
1940.928
1944.936
1948.944
1952.952
1956.960
1960.968
1964.976
1968.984
1972.992
1977.000
1981.008
1985.016
1989.024
1993.032
1997.040
2001.048
2005.056
2009.064
2013.072
2017.080
2021.088
2025.096
2029.104
2033.112
2037.120
2041.128
2045.136
2049.144
2053.152
2057.160
2061.168
2065.176
2069.184
2073.192
2077.200
2081.208
2085.216
2089.224
2093.232
2097.240
2101.248
2105.256
2109.264
2113.272
2117.280
2121.288
2125.296
2129.304
2133.312
2137.320
2141.328
2145.336
2149.344
2153.352
2157.360
2161.368
2165.376
2169.384
2173.392
2177.400
2181.408
2185.416
2189.424
2193.432
2197.440
2201.448
2205.456
2209.464
2213.472
2217.480
2221.488
2225.496
2229.504
2233.512
2237.520
2241.528
2245.536
2249.544
2253.552
2257.560
2261.568
2265.576
2269.584
2273.592
2277.600
2281.608
2285.616
2289.624
2293.632
2297.640
2301.648
2305.656
2309.664
2313.672
2317.680
2321.688
2325.696
2329.704
2333.712
2337.720
2341.728
2345.736
2349.744
2353.752
2357.760
2361.768
2365.776
2369.784
2373.792
2377.800
2381.808
2385.816
2389.824
2393.832
2397.840
2401.848
2405.856
2409.864
2407.395
2404.927
2402.458
2399.990
2397.521
2395.053
2392.584
2390.116
2387.647
2385.179
2382.710
2380.242
2377.773
2375.305
2372.836
2370.368
2367.899
2365.431
2362.962
2360.494
2358.025
2355.557
2353.088
2350.620
2348.151
2345.683
2343.214
2340.746
2338.277
2335.809
2333.340
2330.872
2328.403
2325.935
2323.466
2320.998
2318.529
2316.061
2313.592
2311.124
2308.655
2306.187
2303.718
2301.250
2298.781
2296.313
2293.844
2291.376
2288.907
2286.439
2283.970
2281.502
2279.033
2276.565
2274.096
2271.628
2269.159
2266.691
2264.222
2261.754
2259.285
2256.817
2254.348
2251.880
2249.411
2246.943
2244.474
2242.006
2239.537
2237.069
2234.600
2232.132
2229.663
2227.195
2224.726
2222.258
2219.789
2217.321
2214.852
2212.384
2209.915
2207.447
2204.978
2202.510
2200.041
2197.573
2195.104
2192.636
2190.167
2187.699
2185.230
2182.762
2180.293
2177.825
2175.356
2172.888
2170.419
2167.951
2165.482
2163.014
2160.545
2158.077
2155.608
2153.140
2150.671
2148.203
2145.734
2143.266
2140.797
2138.329
2135.860
2133.392
2130.923
2128.455
2125.986
2123.518
2121.049
2118.581
2116.112
2113.644
2111.175
2108.707
2106.238
2103.770
2101.301
2098.833
2096.364
2093.896
2091.427
2088.959
2086.490
2084.022
2081.553
2079.085
2076.616
2074.148
2071.679
2069.211
2066.742
2064.274
2061.805
2059.337
2056.868
2054.400
2051.931
2049.463
2046.994
2044.526
2042.057
2039.589
2037.120
2034.652
2032.183
2029.715
2027.246
2024.778
2022.309
2019.841
2017.372
2014.904
2012.435
2009.967
2007.498
2005.030
2002.561
2000.093
1997.624
1995.156
1992.687
1990.219
1987.750
1985.282
1982.813
1980.345
1977.876
1975.408
1972.939
1970.471
1968.002
1965.534
1963.065
1960.597
1958.128
1955.660
1953.191
1950.723
1948.254
1945.786
1943.317
1940.849
1938.380
1935.912
1933.443
1930.975
1928.506
1926.038
1923.569
1921.101
1918.632
1916.164
1914.991
1913.818
1912.645
1911.472
1910.299
1909.126
1907.953
1906.780
1905.607
1904.434
1903.261
1902.088
1900.915
1899.742
1898.569
1897.396
1896.223
1895.050
1893.877
1892.704
1891.531
1890.358
1889.185
1888.012
1886.839
1885.666
1884.493
1883.320
1882.147
1880.974
1879.801
1878.628
1877.455
1876.282
1875.109
1873.936
1872.763
1871.590
1870.417
1869.244
1868.071
1866.898
1865.725
1864.552
1863.379
1862.206
1861.033
1859.860
1858.687
1857.514
1856.341
1855.168
1853.995
1852.822
1851.649
1850.476
1849.303
1848.130
1846.957
1845.784
1844.611
1843.438
1842.265
1841.092
1839.919
1838.746
1837.573
1836.400
1835.227
1834.054
1832.881
1831.708
1830.535
1829.362
1828.189
1827.016
1825.843
1824.670
1823.497
1822.324
1821.151
1819.978
1818.805
1817.632
1816.459
1815.286
1814.113
1812.940
1811.767
1810.594
1809.421
1808.248
1807.075
1805.902
1804.729
1803.556
1802.383
1801.210
1800.037
1798.864
1797.691
1796.518
1795.345
1794.172
1792.999
1791.826
1790.653
1789.480
1788.307
1787.134
1785.961
1784.788
1783.615
1782.442
1781.269
1780.096
1778.923
1777.750
1776.577
1775.404
1774.231
1773.058
1771.885
1770.712
1769.539
1768.366
1767.193
1766.020
1764.847
1763.674
1762.501
1761.328
1760.155
1758.982
1757.809
1756.636
1755.463
1754.290
1753.117
1751.944
1750.771
1749.598
1748.425
1747.252
1746.079
1744.906
1743.733
1742.560
1741.387
1740.214
1739.041
1737.868
1736.695
1735.522
1734.349
1733.176
1732.003
1730.830
1729.657
1728.484
1727.311
1726.138
1724.965
1723.792
1722.619
1721.446
1720.273
1719.100
1717.927
1716.754
1715.581
1714.408
1713.235
1712.062
1710.889
1709.716
1708.543
1707.370
1706.197
1705.024
1703.851
1702.678
1701.505
1700.332
1699.159
1697.986
1696.813
1695.640
1694.467
1693.294
1692.121
1690.948
1689.775
1688.602
1687.429
1686.256
1685.083
1683.910
1682.737
1681.564
1678.509
1675.455
1672.400
1669.346
1666.291
1663.237
1660.182
1657.128
1654.073
1651.019
1647.964
1644.910
1641.855
1638.801
1635.746
1632.692
1629.637
1626.583
1623.528
1620.474
1617.419
1614.365
1611.310
1608.256
1605.201
1602.147
1599.092
1596.038
1592.983
1589.929
1586.874
1583.820
1580.765
1577.711
1574.656
1571.602
1568.547
1565.493
1562.438
1559.384
1556.329
1553.275
1550.220
1547.166
1544.111
1541.057
1538.002
1534.948
1531.893
1528.839
1525.784
1522.730
1519.675
1516.621
1513.566
1510.512
1507.457
1504.403
1501.348
1498.294
1495.239
1492.185
1489.130
1486.076
1483.021
1479.967
1476.912
1473.858
1470.803
1467.749
1464.694
1461.640
1458.585
1455.531
1452.476
1449.422
1446.367
1443.313
1440.258
1437.204
1434.149
1431.095
1428.040
1424.986
1421.931
1418.877
1415.822
1412.768
1409.713
1406.659
1403.604
1400.550
1397.495
1394.441
1391.386
1388.332
1385.277
1382.223
1379.168
1376.114
1373.059
1370.005
1366.950
1363.896
1360.841
1357.787
1354.732
1351.678
1348.623
1345.569
1342.514
1339.460
1336.405
1333.351
1330.296
1327.242
1324.187
1321.133
1318.078
1315.024
1311.969
1308.915
1305.860
1302.806
1299.751
1296.697
1293.642
1290.588
1287.533
1284.479
1281.424
1278.370
1275.315
1272.261
1269.206
1266.152
1263.097
1260.043
1256.988
1253.934
1250.879
1247.825
1244.770
1241.716
1238.661
1235.607
1232.552
1229.498
1226.443
1223.389
1220.334
1217.280
1214.225
1211.171
1208.116
1205.062
1202.007
1198.953
1195.898
1192.844
1189.789
1186.735
1183.680
1180.626
1177.571
1174.517
1171.462
1168.408
1165.353
1162.299
1159.244
1156.190
1153.135
1150.081
1147.026
1143.972
1140.917
1137.863
1134.808
1131.754
1128.699
1125.645
1122.590
1119.536
1116.481
1113.427
1110.372
1107.318
1104.263
1101.209
1098.154
1095.100
1092.045
1088.991
1085.936
1082.882
1079.827
1076.773
1073.718
1070.664
1074.134
1077.604
1081.074
1084.544
1088.014
1091.484
1094.954
1098.424
1101.894
1105.364
1108.834
1112.304
1115.774
1119.244
1122.714
1126.184
1129.654
1133.124
1136.594
1140.064
1143.534
1147.004
1150.474
1153.944
1157.414
1160.884
1164.354
1167.824
1171.294
1174.764
1178.234
1181.704
1185.174
1188.644
1192.114
1195.584
1199.054
1202.524
1205.994
1209.464
1212.934
1216.404
1219.874
1223.344
1226.814
1230.284
1233.754
1237.224
1240.694
1244.164
1247.634
1251.104
1254.574
1258.044
1261.514
1264.984
1268.454
1271.924
1275.394
1278.864
1282.334
1285.804
1289.274
1292.744
1296.214
1299.684
1303.154
1306.624
1310.094
1313.564
1317.034
1320.504
1323.974
1327.444
1330.914
1334.384
1337.854
1341.324
1344.794
1348.264
1351.734
1355.204
1358.674
1362.144
1365.614
1369.084
1372.554
1376.024
1379.494
1382.964
1386.434
1389.904
1393.374
1396.844
1400.314
1403.784
1407.254
1410.724
1414.194
1417.664
1421.134
1424.604
1428.074
1431.544
1435.014
1438.484
1441.954
1445.424
1448.894
1452.364
1455.834
1459.304
1462.774
1466.244
1469.714
1473.184
1476.654
1480.124
1483.594
1487.064
1490.534
1494.004
1497.474
1500.944
1504.414
1507.884
1511.354
1514.824
1518.294
1521.764
1525.234
1528.704
1532.174
1535.644
1539.114
1542.584
1546.054
1549.524
1552.994
1556.464
1559.934
1563.404
1566.874
1570.344
1573.814
1577.284
1580.754
1584.224
1587.694
1591.164
1594.634
1598.104
1601.574
1605.044
1608.514
1611.984
1615.454
1618.924
1622.394
1625.864
1629.334
1632.804
1636.274
1639.744
1643.214
1646.684
1650.154
1653.624
1657.094
1660.564
1664.034
1667.504
1670.974
1674.444
1677.914
1681.384
1684.854
1688.324
1691.794
1695.264
1698.734
1702.204
1705.674
1709.144
1712.614
1716.084
1719.554
1723.024
1726.494
1729.964
1733.434
1736.904
1740.374
1743.844
1747.314
1750.784
1754.254
1757.724
1761.194
1764.664
1757.772
1750.881
1743.989
1737.098
1730.206
1723.315
1716.423
1709.532
1702.640
1695.749
1688.857
1681.966
1675.074
1668.183
1661.291
1654.400
1647.508
1640.617
1633.725
1626.834
1619.942
1613.051
1606.159
1599.268
1592.376
1585.485
1578.593
1571.702
1564.810
1557.919
1551.027
1544.136
1537.244
1530.353
1523.461
1516.570
1509.678
1502.787
1495.895
1489.004
1482.112
1475.221
1468.329
1461.438
1454.546
1447.655
1440.763
1433.872
1426.980
1420.089
1413.197
1406.306
1399.414
1392.523
1385.631
1378.740
1371.848
1364.957
1358.065
1351.174
1344.282
1337.391
1330.499
1323.608
1316.716
1309.825
1302.933
1296.042
1289.150
1282.259
1275.367
1268.476
1261.584
1254.693
1247.801
1240.910
1234.018
1227.127
1220.235
1213.344
1206.452
1199.561
1192.669
1185.778
1178.886
1171.995
1165.103
1158.212
1151.320
1144.429
1137.537
1130.646
1123.754
1116.863
1109.971
1103.080
1096.188
1089.297
1082.405
1075.514
1068.622
1061.731
1054.839
1047.948
1041.056
1034.165
1027.273
1020.382
1013.490
1006.599
999.707
992.816
985.924
979.033
972.141
965.250
958.358
951.467
944.575
937.684
930.792
923.901
917.009
910.118
903.226
896.335
889.443
882.552
875.660
868.769
861.877
854.986
848.094
841.203
834.311
827.420
820.528
813.637
806.745
799.854
792.962
786.071
779.179
772.288
765.396
758.505
751.613
744.722
737.830
730.939
724.047
717.156
710.264
703.373
696.481
689.590
682.698
675.807
668.915
662.024
655.132
648.241
641.349
634.458
627.566
620.675
613.783
606.892
600.000
593.109
586.217
579.326
572.434
565.543
558.651
551.760
544.868
537.977
531.085
524.194
517.302
510.411
503.519
496.628
489.736
482.845
475.953
469.062
462.170
455.279
448.387
441.496
434.604
427.713
420.821
413.930
407.038
400.147
393.255
386.364
385.215
384.067
382.918
381.770
380.621
379.473
378.324
377.176
376.027
374.879
373.730
372.582
371.433
370.285
369.136
367.988
366.839
365.691
364.542
363.394
362.245
361.097
359.948
358.800
357.651
356.503
355.354
354.206
353.057
351.909
350.760
349.612
348.463
347.315
346.166
345.018
343.869
342.721
341.572
340.424
339.275
338.127
336.978
335.830
334.681
333.533
332.384
331.236
330.087
328.939
327.790
326.642
325.493
324.345
323.196
322.048
320.899
319.751
318.602
317.454
316.305
315.157
314.008
312.860
311.711
310.563
309.414
308.266
307.117
305.969
304.820
303.672
302.523
301.375
300.226
299.078
297.929
296.781
295.632
294.484
293.335
292.187
291.038
289.890
288.741
287.593
286.444
285.296
284.147
282.999
281.850
280.702
279.553
278.405
277.256
276.108
274.959
273.811
272.662
271.514
270.365
269.217
268.068
266.920
265.771
264.623
263.474
262.326
261.177
260.029
258.880
257.732
256.583
255.435
254.286
253.138
251.989
250.841
249.692
248.544
247.395
246.247
245.098
243.950
242.801
241.653
240.504
239.356
238.207
237.059
235.910
234.762
233.613
232.465
231.316
230.168
229.019
227.871
226.722
225.574
224.425
223.277
222.128
220.980
219.831
218.683
217.534
216.386
215.237
214.089
212.940
211.792
210.643
209.495
208.346
207.198
206.049
204.901
203.752
202.604
201.455
200.307
199.158
198.010
196.861
195.713
194.564
193.416
192.267
191.119
189.970
188.822
187.673
186.525
185.376
184.228
183.079
181.931
180.782
179.634
178.485
177.337
176.188
175.040
173.891
172.743
171.594
170.446
169.297
168.149
167.000
165.852
164.703
163.555
162.406
161.258
160.109
158.961
157.812
