2161.935
2162.277
2162.619
2162.961
2163.303
2163.645
2163.987
2164.329
2164.671
2165.013
2165.355
2165.697
2166.039
2166.381
2166.723
2167.065
2167.407
2167.749
2168.091
2168.433
2168.775
2169.117
2169.459
2169.801
2170.143
2170.485
2170.827
2171.169
2171.511
2171.853
2172.195
2172.537
2172.879
2173.221
2173.563
2173.905
2174.247
2174.589
2174.931
2175.273
2175.615
2175.957
2176.299
2176.641
2176.983
2177.325
2177.667
2178.009
2178.351
2178.693
2179.035
2179.377
2179.719
2180.061
2180.403
2180.745
2181.087
2181.429
2181.771
2182.113
2182.455
2182.797
2183.139
2183.481
2183.823
2184.165
2184.507
2184.849
2185.191
2185.533
2185.875
2186.217
2186.559
2186.901
2187.243
2187.585
2187.927
2188.269
2188.611
2188.953
2189.295
2189.637
2189.979
2190.321
2190.663
2191.005
2191.347
2191.689
2192.031
2192.373
2192.715
2193.057
2193.399
2193.741
2194.083
2194.425
2194.767
2195.109
2195.451
2195.793
2196.135
2196.477
2196.819
2197.161
2197.503
2197.845
2198.187
2198.529
2198.871
2199.213
2199.555
2199.897
2200.239
2200.581
2200.923
2201.265
2201.607
2201.949
2202.291
2202.633
2202.975
2203.317
2203.659
2204.001
2204.343
2204.685
2205.027
2205.369
2205.711
2206.053
2206.395
2206.737
2207.079
2207.421
2207.763
2208.105
2208.447
2208.789
2209.131
2209.473
2209.815
2210.157
2210.499
2210.841
2211.183
2211.525
2211.867
2212.209
2212.551
2212.893
2213.235
2213.577
2213.919
2214.261
2214.603
2214.945
2215.287
2215.629
2215.971
2216.313
2216.655
2216.997
2217.339
2217.681
2218.023
2218.365
2218.707
2219.049
2219.391
2219.733
2220.075
2220.417
2220.759
2221.101
2221.443
2221.785
2222.127
2222.469
2222.811
2223.153
2223.495
2223.837
2224.179
2224.521
2224.863
2225.205
2225.547
2225.889
2226.231
2226.573
2226.915
2227.257
2227.599
2227.941
2228.283
2228.625
2228.967
2229.309
2229.651
2229.993
2230.335
2227.207
2224.079
2220.951
2217.823
2214.695
2211.567
2208.439
2205.311
2202.183
2199.055
2195.927
2192.799
2189.671
2186.543
2183.415
2180.287
2177.159
2174.031
2170.903
2167.775
2164.647
2161.519
2158.391
2155.263
2152.135
2149.007
2145.879
2142.751
2139.623
2136.495
2133.367
2130.239
2127.111
2123.983
2120.855
2117.727
2114.599
2111.471
2108.343
2105.215
2102.087
2098.959
2095.831
2092.703
2089.575
2086.447
2083.319
2080.191
2077.063
2073.935
2070.807
2067.679
2064.551
2061.423
2058.295
2055.167
2052.039
2048.911
2045.783
2042.655
2039.527
2036.399
2033.271
2030.143
2027.015
2023.887
2020.759
2017.631
2014.503
2011.375
2008.247
2005.119
2001.991
1998.863
1995.735
1992.607
1989.479
1986.351
1983.223
1980.095
1976.967
1973.839
1970.711
1967.583
1964.455
1961.327
1958.199
1955.071
1951.943
1948.815
1945.687
1942.559
1939.431
1936.303
1933.175
1930.047
1926.919
1923.791
1920.663
1917.535
1914.407
1911.279
1908.151
1905.023
1901.895
1898.767
1895.639
1892.511
1889.383
1886.255
1883.127
1879.999
1876.871
1873.743
1870.615
1867.487
1864.359
1861.231
1858.103
1854.975
1851.847
1848.719
1845.591
1842.463
1839.335
1836.207
1833.079
1829.951
1826.823
1823.695
1820.567
1817.439
1814.311
1811.183
1808.055
1804.927
1801.799
1798.671
1795.543
1792.415
1789.287
1786.159
1783.031
1779.903
1776.775
1773.647
1770.519
1767.391
1764.263
1761.135
1758.007
1754.879
1751.751
1748.623
1745.495
1742.367
1739.239
1736.111
1732.983
1729.855
1726.727
1723.599
1720.471
1717.343
1714.215
1711.087
1707.959
1704.831
1701.703
1698.575
1695.447
1692.319
1689.191
1686.063
1682.935
1679.807
1676.679
1673.551
1670.423
1667.295
1664.167
1661.039
1657.911
1654.783
1651.655
1648.527
1645.399
1642.271
1639.143
1636.015
1632.887
1629.759
1626.631
1623.503
1620.375
1617.247
1614.119
1610.991
1607.863
1604.735
1608.743
1612.751
1616.759
1620.767
1624.775
1628.783
1632.791
1636.799
1640.807
1644.815
1648.823
1652.831
1656.839
1660.847
1664.855
1668.863
1672.871
1676.879
1680.887
1684.895
1688.903
1692.911
1696.919
1700.927
1704.935
1708.943
1712.951
1716.959
1720.967
1724.975
1728.983
1732.991
1736.999
1741.007
1745.015
1749.023
1753.031
1757.039
1761.047
1765.055
1769.063
1773.071
1777.079
1781.087
1785.095
1789.103
1793.111
1797.119
1801.127
1805.135
1809.143
1813.151
1817.159
1821.167
1825.175
1829.183
1833.191
1837.199
1841.207
1845.215
1849.223
1853.231
1857.239
1861.247
1865.255
1869.263
1873.271
1877.279
1881.287
1885.295
1889.303
1893.311
1897.319
1901.327
1905.335
1909.343
1913.351
1917.359
1921.367
1925.375
1929.383
1933.391
1937.399
1941.407
1945.415
1949.423
1953.431
1957.439
1961.447
1965.455
1969.463
1973.471
1977.479
1981.487
1985.495
1989.503
1993.511
1997.519
2001.527
2005.535
2009.543
2013.551
2017.559
2021.567
2025.575
2029.583
2033.591
2037.599
2041.607
2045.615
2049.623
2053.631
2057.639
2061.647
2065.655
2069.663
2073.671
2077.679
2081.687
2085.695
2089.703
2093.711
2097.719
2101.727
2105.735
2109.743
2113.751
2117.759
2121.767
2125.775
2129.783
2133.791
2137.799
2141.807
2145.815
2149.823
2153.831
2157.839
2161.847
2165.855
2169.863
2173.871
2177.879
2181.887
2185.895
2189.903
2193.911
2197.919
2201.927
2205.935
2209.943
2213.951
2217.959
2221.967
2225.975
2229.983
2233.991
2237.999
2242.007
2246.015
2250.023
2254.031
2258.039
2262.047
2266.055
2270.063
2274.071
2278.079
2282.087
2286.095
2290.103
2294.111
2298.119
2302.127
2306.135
2310.143
2314.151
2318.159
2322.167
2326.175
2330.183
2334.191
2338.199
2342.207
2346.215
2350.223
2354.231
2358.239
2362.247
2366.255
2370.263
2374.271
2378.279
2382.287
2386.295
2390.303
2394.311
2398.319
2402.327
2406.335
2403.866
2401.398
2398.929
2396.461
2393.992
2391.524
2389.055
2386.587
2384.118
2381.650
2379.181
2376.713
2374.244
2371.776
2369.307
2366.839
2364.370
2361.902
2359.433
2356.965
2354.496
2352.028
2349.559
2347.091
2344.622
2342.154
2339.685
2337.217
2334.748
2332.280
2329.811
2327.343
2324.874
2322.406
2319.937
2317.469
2315.000
2312.532
2310.063
2307.595
2305.126
2302.658
2300.189
2297.721
2295.252
2292.784
2290.315
2287.847
2285.378
2282.910
2280.441
2277.973
2275.504
2273.036
2270.567
2268.099
2265.630
2263.162
2260.693
2258.225
2255.756
2253.288
2250.819
2248.351
2245.882
2243.414
2240.945
2238.477
2236.008
2233.540
2231.071
2228.603
2226.134
2223.666
2221.197
2218.729
2216.260
2213.792
2211.323
2208.855
2206.386
2203.918
2201.449
2198.981
2196.512
2194.044
2191.575
2189.107
2186.638
2184.170
2181.701
2179.233
2176.764
2174.296
2171.827
2169.359
2166.890
2164.422
2161.953
2159.485
2157.016
2154.548
2152.079
2149.611
2147.142
2144.674
2142.205
2139.737
2137.268
2134.800
2132.331
2129.863
2127.394
2124.926
2122.457
2119.989
2117.520
2115.052
2112.583
2110.115
2107.646
2105.178
2102.709
2100.241
2097.772
2095.304
2092.835
2090.367
2087.898
2085.430
2082.961
2080.493
2078.024
2075.556
2073.087
2070.619
2068.150
2065.682
2063.213
2060.745
2058.276
2055.808
2053.339
2050.871
2048.402
2045.934
2043.465
2040.997
2038.528
2036.060
2033.591
2031.123
2028.654
2026.186
2023.717
2021.249
2018.780
2016.312
2013.843
2011.375
2008.906
2006.438
2003.969
2001.501
1999.032
1996.564
1994.095
1991.627
1989.158
1986.690
1984.221
1981.753
1979.284
1976.816
1974.347
1971.879
1969.410
1966.942
1964.473
1962.005
1959.536
1957.068
1954.599
1952.131
1949.662
1947.194
1944.725
1942.257
1939.788
1937.320
1934.851
1932.383
1929.914
1927.446
1924.977
1922.509
1920.040
1917.572
1915.103
1912.635
1911.462
1910.289
1909.116
1907.943
1906.770
1905.597
1904.424
1903.251
1902.078
1900.905
1899.732
1898.559
1897.386
1896.213
1895.040
1893.867
1892.694
1891.521
1890.348
1889.175
1888.002
1886.829
1885.656
1884.483
1883.310
1882.137
1880.964
1879.791
1878.618
1877.445
1876.272
1875.099
1873.926
1872.753
1871.580
1870.407
1869.234
1868.061
1866.888
1865.715
1864.542
1863.369
1862.196
1861.023
1859.850
1858.677
1857.504
1856.331
1855.158
1853.985
1852.812
1851.639
1850.466
1849.293
1848.120
1846.947
1845.774
1844.601
1843.428
1842.255
1841.082
1839.909
1838.736
1837.563
1836.390
1835.217
1834.044
1832.871
1831.698
1830.525
1829.352
1828.179
1827.006
1825.833
1824.660
1823.487
1822.314
1821.141
1819.968
1818.795
1817.622
1816.449
1815.276
1814.103
1812.930
1811.757
1810.584
1809.411
1808.238
1807.065
1805.892
1804.719
1803.546
1802.373
1801.200
1800.027
1798.854
1797.681
1796.508
1795.335
1794.162
1792.989
1791.816
1790.643
1789.470
1788.297
1787.124
1785.951
1784.778
1783.605
1782.432
1781.259
1780.086
1778.913
1777.740
1776.567
1775.394
1774.221
1773.048
1771.875
1770.702
1769.529
1768.356
1767.183
1766.010
1764.837
1763.664
1762.491
1761.318
1760.145
1758.972
1757.799
1756.626
1755.453
1754.280
1753.107
1751.934
1750.761
1749.588
1748.415
1747.242
1746.069
1744.896
1743.723
1742.550
1741.377
1740.204
1739.031
1737.858
1736.685
1735.512
1734.339
1733.166
1731.993
1730.820
1729.647
1728.474
1727.301
1726.128
1724.955
1723.782
1722.609
1721.436
1720.263
1719.090
1717.917
1716.744
1715.571
1714.398
1713.225
1712.052
1710.879
1709.706
1708.533
1707.360
1706.187
1705.014
1703.841
1702.668
1701.495
1700.322
1699.149
1697.976
1696.803
1695.630
1694.457
1693.284
1692.111
1690.938
1689.765
1688.592
1687.419
1686.246
1685.073
1683.900
1682.727
1681.554
1680.381
1679.208
1678.035
1674.980
1671.926
1668.871
1665.817
1662.762
1659.708
1656.653
1653.599
1650.544
1647.490
1644.435
1641.381
1638.326
1635.272
1632.217
1629.163
1626.108
1623.054
1619.999
1616.945
1613.890
1610.836
1607.781
1604.727
1601.672
1598.618
1595.563
1592.509
1589.454
1586.400
1583.345
1580.291
1577.236
1574.182
1571.127
1568.073
1565.018
1561.964
1558.909
1555.855
1552.800
1549.746
1546.691
1543.637
1540.582
1537.528
1534.473
1531.419
1528.364
1525.310
1522.255
1519.201
1516.146
1513.092
1510.037
1506.983
1503.928
1500.874
1497.819
1494.765
1491.710
1488.656
1485.601
1482.547
1479.492
1476.438
1473.383
1470.329
1467.274
1464.220
1461.165
1458.111
1455.056
1452.002
1448.947
1445.893
1442.838
1439.784
1436.729
1433.675
1430.620
1427.566
1424.511
1421.457
1418.402
1415.348
1412.293
1409.239
1406.184
1403.130
1400.075
1397.021
1393.966
1390.912
1387.857
1384.803
1381.748
1378.694
1375.639
1372.585
1369.530
1366.476
1363.421
1360.367
1357.312
1354.258
1351.203
1348.149
1345.094
1342.040
1338.985
1335.931
1332.876
1329.822
1326.767
1323.713
1320.658
1317.604
1314.549
1311.495
1308.440
1305.386
1302.331
1299.277
1296.222
1293.168
1290.113
1287.059
1284.004
1280.950
1277.895
1274.841
1271.786
1268.732
1265.677
1262.623
1259.568
1256.514
1253.459
1250.405
1247.350
1244.296
1241.241
1238.187
1235.132
1232.078
1229.023
1225.969
1222.914
1219.860
1216.805
1213.751
1210.696
1207.642
1204.587
1201.533
1198.478
1195.424
1192.369
1189.315
1186.260
1183.206
1180.151
1177.097
1174.042
1170.988
1167.933
1164.879
1161.824
1158.770
1155.715
1152.661
1149.606
1146.552
1143.497
1140.443
1137.388
1134.334
1131.279
1128.225
1125.170
1122.116
1119.061
1116.007
1112.952
1109.898
1106.843
1103.789
1100.734
1097.680
1094.625
1091.571
1088.516
1085.462
1082.407
1079.353
1076.298
1073.244
1070.189
1067.135
1070.605
1074.075
1077.545
1081.015
1084.485
1087.955
1091.425
1094.895
1098.365
1101.835
1105.305
1108.775
1112.245
1115.715
1119.185
1122.655
1126.125
1129.595
1133.065
1136.535
1140.005
1143.475
1146.945
1150.415
1153.885
1157.355
1160.825
1164.295
1167.765
1171.235
1174.705
1178.175
1181.645
1185.115
1188.585
1192.055
1195.525
1198.995
1202.465
1205.935
1209.405
1212.875
1216.345
1219.815
1223.285
1226.755
1230.225
1233.695
1237.165
1240.635
1244.105
1247.575
1251.045
1254.515
1257.985
1261.455
1264.925
1268.395
1271.865
1275.335
1278.805
1282.275
1285.745
1289.215
1292.685
1296.155
1299.625
1303.095
1306.565
1310.035
1313.505
1316.975
1320.445
1323.915
1327.385
1330.855
1334.325
1337.795
1341.265
1344.735
1348.205
1351.675
1355.145
1358.615
1362.085
1365.555
1369.025
1372.495
1375.965
1379.435
1382.905
1386.375
1389.845
1393.315
1396.785
1400.255
1403.725
1407.195
1410.665
1414.135
1417.605
1421.075
1424.545
1428.015
1431.485
1434.955
1438.425
1441.895
1445.365
1448.835
1452.305
1455.775
1459.245
1462.715
1466.185
1469.655
1473.125
1476.595
1480.065
1483.535
1487.005
1490.475
1493.945
1497.415
1500.885
1504.355
1507.825
1511.295
1514.765
1518.235
1521.705
1525.175
1528.645
1532.115
1535.585
1539.055
1542.525
1545.995
1549.465
1552.935
1556.405
1559.875
1563.345
1566.815
1570.285
1573.755
1577.225
1580.695
1584.165
1587.635
1591.105
1594.575
1598.045
1601.515
1604.985
1608.455
1611.925
1615.395
1618.865
1622.335
1625.805
1629.275
1632.745
1636.215
1639.685
1643.155
1646.625
1650.095
1653.565
1657.035
1660.505
1663.975
1667.445
1670.915
1674.385
1677.855
1681.325
1684.795
1688.265
1691.735
1695.205
1698.675
1702.145
1705.615
1709.085
1712.555
1716.025
1719.495
1722.965
1726.435
1729.905
1733.375
1736.845
1740.315
1743.785
1747.255
1750.725
1754.195
1757.665
1761.135
1754.243
1747.352
1740.460
1733.569
1726.677
1719.786
1712.894
1706.003
1699.111
1692.220
1685.328
1678.437
1671.545
1664.654
1657.762
1650.871
1643.979
1637.088
1630.196
1623.305
1616.413
1609.522
1602.630
1595.739
1588.847
1581.956
1575.064
1568.173
1561.281
1554.390
1547.498
1540.607
1533.715
1526.824
1519.932
1513.041
1506.149
1499.258
1492.366
1485.475
1478.583
1471.692
1464.800
1457.909
1451.017
1444.126
1437.234
1430.343
1423.451
1416.560
1409.668
1402.777
1395.885
1388.994
1382.102
1375.211
1368.319
1361.428
1354.536
1347.645
1340.753
1333.862
1326.970
1320.079
1313.187
1306.296
1299.404
1292.513
1285.621
1278.730
1271.838
1264.947
1258.055
1251.164
1244.272
1237.381
1230.489
1223.598
1216.706
1209.815
1202.923
1196.032
1189.140
1182.249
1175.357
1168.466
1161.574
1154.683
1147.791
1140.900
1134.008
1127.117
1120.225
1113.334
1106.442
1099.551
1092.659
1085.768
1078.876
1071.985
1065.093
1058.202
1051.310
1044.419
1037.527
1030.636
1023.744
1016.853
1009.961
1003.070
996.178
989.287
982.395
975.504
968.612
961.721
954.829
947.938
941.046
934.155
927.263
920.372
913.480
906.589
899.697
892.806
885.914
879.023
872.131
865.240
858.348
851.457
844.565
837.674
830.782
823.891
816.999
810.108
803.216
796.325
789.433
782.542
775.650
768.759
761.867
754.976
748.084
741.193
734.301
727.410
720.518
713.627
706.735
699.844
692.952
686.061
679.169
672.278
665.386
658.495
651.603
644.712
637.820
630.929
624.037
617.146
610.254
603.363
596.471
589.580
582.688
575.797
568.905
562.014
555.122
548.231
541.339
534.448
527.556
520.665
513.773
506.882
499.990
493.099
486.207
479.316
472.424
465.533
458.641
451.750
444.858
437.967
431.075
424.184
417.292
410.401
403.509
396.618
389.726
382.835
381.686
380.538
379.389
378.241
377.092
375.944
374.795
373.647
372.498
371.350
370.201
369.053
367.904
366.756
365.607
364.459
363.310
362.162
361.013
359.865
358.716
357.568
356.419
355.271
354.122
352.974
351.825
350.677
349.528
348.380
347.231
346.083
344.934
343.786
342.637
341.489
340.340
339.192
338.043
336.895
335.746
334.598
333.449
332.301
331.152
330.004
328.855
327.707
326.558
325.410
324.261
323.113
321.964
320.816
319.667
318.519
317.370
316.222
315.073
313.925
312.776
311.628
310.479
309.331
308.182
307.034
305.885
304.737
303.588
302.440
301.291
300.143
298.994
297.846
296.697
295.549
294.400
293.252
292.103
290.955
289.806
288.658
287.509
286.361
285.212
284.064
282.915
281.767
280.618
279.470
278.321
277.173
276.024
274.876
273.727
272.579
271.430
270.282
269.133
267.985
266.836
265.688
264.539
263.391
262.242
261.094
259.945
258.797
257.648
256.500
255.351
254.203
253.054
251.906
250.757
249.609
248.460
247.312
246.163
245.015
243.866
242.718
241.569
240.421
239.272
238.124
236.975
235.827
234.678
233.530
232.381
231.233
230.084
228.936
227.787
226.639
225.490
224.342
223.193
222.045
220.896
219.748
218.599
217.451
216.302
215.154
214.005
212.857
211.708
210.560
209.411
208.263
207.114
205.966
204.817
203.669
202.520
201.372
200.223
199.075
197.926
196.778
195.629
194.481
193.332
192.184
191.035
189.887
188.738
187.590
186.441
185.293
184.144
182.996
181.847
180.699
179.550
178.402
177.253
176.105
174.956
173.808
172.659
171.511
170.362
169.214
168.065
166.917
165.768
164.620
163.471
162.323
161.174
160.026
158.877
157.729
156.580
155.432
154.283
153.135
153.135
153.135
153.135
153.135
153.135
153.135
153.135
153.135
153.135
153.135
153.135
153.135
153.135
153.135
153.135
153.135
153.135
153.135
153.135
153.135
153.135
153.135
153.135
153.135
153.135
153.135
153.135
153.135
153.135
153.135
153.135
153.135
153.135
153.135
153.135
153.135
153.135
153.135
153.135
153.135
153.135
153.135
153.135
153.135
153.135
153.135
153.135
153.135
153.135
153.135
153.135
153.135
153.135
153.135
153.135
153.135
153.135
153.135
153.135
153.135
153.135
153.135
153.135
153.135
153.135
153.135
153.135
153.135
153.135
153.135
153.135
153.135
153.135
153.135
153.135
153.135
153.135
153.135
153.135
153.135
153.135
153.135
153.135
153.135
153.135
153.135
153.135
153.135
153.135
153.135
153.135
153.135
153.135
153.135
153.135
153.135
153.135
153.135
153.135
153.135
153.135
153.135
153.135
153.135
153.135
153.135
153.135
153.135
153.135
153.135
153.135
153.135
153.135
153.135
153.135
153.135
153.135
153.135
153.135
153.135
153.135
153.135
153.135
153.135
153.135
153.135
153.135
153.135
153.135
153.135
153.135
153.135
153.135
153.135
153.135
153.135
153.135
153.135
153.135
153.135
153.135
153.135
153.135
153.135
153.135
153.135
153.135
153.135
153.135
153.135
153.135
153.135
153.135
153.135
153.135
153.135
153.135
153.135
153.135
153.135
153.135
153.135
153.135
153.135
153.135
153.135
153.135
153.135
153.135
153.135
153.135
153.135
153.135
153.135
153.135
153.135
153.135
153.135
153.135
153.135
153.135
153.135
153.135
153.135
153.135
153.135
153.135
153.135
153.135
153.135
153.135
153.135
153.135
153.135
153.135
153.135
153.135
153.135
153.135
