1115.530
1117.974
1120.417
1122.861
1125.304
1127.748
1130.191
1132.635
1135.078
1137.522
1139.965
1142.409
1144.852
1147.296
1149.739
1152.183
1154.626
1157.070
1159.513
1161.957
1164.400
1166.844
1169.287
1171.731
1174.174
1176.618
1179.061
1181.505
1183.948
1186.392
1188.835
1191.279
1193.722
1196.166
1198.609
1201.053
1203.496
1205.940
1208.383
1210.827
1213.270
1215.714
1218.157
1220.601
1223.044
1225.488
1227.931
1230.375
1232.818
1235.262
1237.705
1240.149
1242.592
1245.036
1247.479
1249.923
1252.366
1254.810
1257.253
1259.697
1262.140
1264.584
1267.027
1269.471
1271.914
1274.358
1276.801
1279.245
1281.688
1284.132
1286.575
1289.019
1291.462
1293.906
1296.349
1298.793
1301.236
1303.680
1306.123
1308.567
1311.010
1313.454
1315.897
1318.341
1320.784
1323.228
1325.671
1328.115
1330.558
1333.002
1335.445
1337.889
1340.332
1342.776
1345.219
1347.663
1350.106
1352.550
1354.993
1357.437
1359.880
1362.324
1364.767
1367.211
1369.654
1372.098
1374.541
1376.985
1379.428
1381.872
1384.315
1386.759
1389.202
1391.646
1394.089
1396.533
1398.976
1401.420
1403.863
1406.307
1408.750
1411.194
1413.637
1416.081
1418.524
1420.968
1423.411
1425.855
1428.298
1430.742
1433.185
1435.629
1438.072
1440.516
1442.959
1445.403
1447.846
1450.290
1452.733
1455.177
1457.620
1460.064
1462.507
1464.951
1467.394
1469.838
1472.281
1474.725
1477.168
1479.612
1482.055
1484.499
1486.942
1489.386
1491.829
1494.273
1496.716
1499.160
1501.603
1504.047
1506.490
1508.934
1511.377
1513.821
1516.264
1518.708
1521.151
1523.595
1526.038
1528.482
1530.925
1533.369
1535.812
1538.256
1540.699
1543.143
1545.586
1548.030
1550.473
1552.917
1555.360
1557.804
1560.247
1562.691
1565.134
1567.578
1570.021
1572.465
1574.908
1577.352
1579.795
1582.239
1584.682
1587.126
1589.569
1592.013
1594.456
1596.900
1599.343
1601.787
1604.230
1606.332
1608.434
1610.536
1612.638
1614.740
1616.842
1618.944
1621.046
1623.148
1625.250
1627.352
1629.454
1631.556
1633.658
1635.760
1637.862
1639.964
1642.066
1644.168
1646.270
1648.372
1650.474
1652.576
1654.678
1656.780
1658.882
1660.984
1663.086
1665.188
1667.290
1669.392
1671.494
1673.596
1675.698
1677.800
1679.902
1682.004
1684.106
1686.208
1688.310
1690.412
1692.514
1694.616
1696.718
1698.820
1700.922
1703.024
1705.126
1707.228
1709.330
1711.432
1713.534
1715.636
1717.738
1719.840
1721.942
1724.044
1726.146
1728.248
1730.350
1732.452
1734.554
1736.656
1738.758
1740.860
1742.962
1745.064
1747.166
1749.268
1751.370
1753.472
1755.574
1757.676
1759.778
1761.880
1763.982
1766.084
1768.186
1770.288
1772.390
1774.492
1776.594
1778.696
1780.798
1782.900
1785.002
1787.104
1789.206
1791.308
1793.410
1795.512
1797.614
1799.716
1801.818
1803.920
1806.022
1808.124
1810.226
1812.328
1814.430
1816.532
1818.634
1820.736
1822.838
1824.940
1827.042
1829.144
1831.246
1833.348
1835.450
1837.552
1839.654
1841.756
1843.858
1845.960
1848.062
1850.164
1852.266
1854.368
1856.470
1858.572
1860.674
1862.776
1864.878
1866.980
1869.082
1871.184
1873.286
1875.388
1877.490
1879.592
1881.694
1883.796
1885.898
1888.000
1890.102
1892.204
1894.306
1896.408
1898.510
1900.612
1902.714
1904.816
1906.918
1909.020
1911.122
1913.224
1915.326
1917.428
1919.530
1921.632
1923.734
1925.836
1927.938
1930.040
1932.142
1934.244
1936.346
1938.448
1940.550
1942.652
1944.754
1946.856
1948.958
1951.060
1953.162
1955.264
1957.366
1959.468
1961.570
1963.672
1965.774
1967.876
1969.978
1972.080
1974.182
1976.284
1978.386
1980.488
1982.590
1984.692
1986.794
1988.896
1990.998
1993.100
1995.202
1997.304
1999.406
2001.508
2003.610
2005.712
2007.814
2009.916
2012.018
2014.120
2016.222
2018.324
2020.426
2022.528
2024.630
2025.143
2025.656
2026.169
2026.682
2027.195
2027.708
2028.221
2028.734
2029.247
2029.760
2030.273
2030.786
2031.299
2031.812
2032.325
2032.838
2033.351
2033.864
2034.377
2034.890
2035.403
2035.916
2036.429
2036.942
2037.455
2037.968
2038.481
2038.994
2039.507
2040.020
2040.533
2041.046
2041.559
2042.072
2042.585
2043.098
2043.611
2044.124
2044.637
2045.150
2045.663
2046.176
2046.689
2047.202
2047.715
2048.228
2048.741
2049.254
2049.767
2050.280
2050.793
2051.306
2051.819
2052.332
2052.845
2053.358
2053.871
2054.384
2054.897
2055.410
2055.923
2056.436
2056.949
2057.462
2057.975
2058.488
2059.001
2059.514
2060.027
2060.540
2061.053
2061.566
2062.079
2062.592
2063.105
2063.618
2064.131
2064.644
2065.157
2065.670
2066.183
2066.696
2067.209
2067.722
2068.235
2068.748
2069.261
2069.774
2070.287
2070.800
2071.313
2071.826
2072.339
2072.852
2073.365
2073.878
2074.391
2074.904
2075.417
2075.930
2076.443
2076.956
2077.469
2077.982
2078.495
2079.008
2079.521
2080.034
2080.547
2081.060
2081.573
2082.086
2082.599
2083.112
2083.625
2084.138
2084.651
2085.164
2085.677
2086.190
2086.703
2087.216
2087.729
2088.242
2088.755
2089.268
2089.781
2090.294
2090.807
2091.320
2091.833
2092.346
2092.859
2093.372
2093.885
2094.398
2094.911
2095.424
2095.937
2096.450
2096.963
2097.476
2097.989
2098.502
2099.015
2099.528
2100.041
2100.554
2101.067
2101.580
2102.093
2102.606
2103.119
2103.632
2104.145
2104.658
2105.171
2105.684
2106.197
2106.710
2107.223
2107.736
2108.249
2108.762
2109.275
2109.788
2110.301
2110.814
2111.327
2111.840
2112.353
2112.866
2113.379
2113.892
2114.405
2114.918
2115.431
2115.944
2116.457
2116.970
2117.483
2117.996
2118.509
2119.022
2119.535
2120.048
2120.561
2121.074
2121.587
2122.100
2122.613
2123.126
2123.639
2124.152
2124.665
2125.178
2125.691
2126.204
2126.717
2127.230
2125.788
2124.346
2122.904
2121.462
2120.020
2118.578
2117.136
2115.694
2114.252
2112.810
2111.368
2109.926
2108.484
2107.042
2105.600
2104.158
2102.716
2101.274
2099.832
2098.390
2096.948
2095.506
2094.064
2092.622
2091.180
2089.738
2088.296
2086.854
2085.412
2083.970
2082.528
2081.086
2079.644
2078.202
2076.760
2075.318
2073.876
2072.434
2070.992
2069.550
2068.108
2066.666
2065.224
2063.782
2062.340
2060.898
2059.456
2058.014
2056.572
2055.130
2053.688
2052.246
2050.804
2049.362
2047.920
2046.478
2045.036
2043.594
2042.152
2040.710
2039.268
2037.826
2036.384
2034.942
2033.500
2032.058
2030.616
2029.174
2027.732
2026.290
2024.848
2023.406
2021.964
2020.522
2019.080
2017.638
2016.196
2014.754
2013.312
2011.870
2010.428
2008.986
2007.544
2006.102
2004.660
2003.218
2001.776
2000.334
1998.892
1997.450
1996.008
1994.566
1993.124
1991.682
1990.240
1988.798
1987.356
1985.914
1984.472
1983.030
1981.588
1980.146
1978.704
1977.262
1975.820
1974.378
1972.936
1971.494
1970.052
1968.610
1967.168
1965.726
1964.284
1962.842
1961.400
1959.958
1958.516
1957.074
1955.632
1954.190
1952.748
1951.306
1949.864
1948.422
1946.980
1945.538
1944.096
1942.654
1941.212
1939.770
1938.328
1936.886
1935.444
1934.002
1932.560
1931.118
1929.676
1928.234
1926.792
1925.350
1923.908
1922.466
1921.024
1919.582
1918.140
1916.698
1915.256
1913.814
1912.372
1910.930
1909.488
1908.046
1906.604
1905.162
1903.720
1902.278
1900.836
1899.394
1897.952
1896.510
1895.068
1893.626
1892.184
1890.742
1889.300
1887.858
1886.416
1884.974
1883.532
1882.090
1880.648
1879.206
1877.764
1876.322
1874.880
1873.438
1871.996
1870.554
1869.112
1867.670
1866.228
1864.786
1863.344
1861.902
1860.460
1859.018
1857.576
1856.134
1854.692
1853.250
1851.808
1850.366
1848.924
1847.482
1846.040
1844.598
1843.156
1841.714
1840.272
1838.830
1841.201
1843.571
1845.942
1848.312
1850.683
1853.053
1855.424
1857.794
1860.165
1862.535
1864.906
1867.276
1869.647
1872.017
1874.388
1876.758
1879.129
1881.499
1883.870
1886.240
1888.611
1890.981
1893.352
1895.722
1898.093
1900.463
1902.834
1905.204
1907.575
1909.945
1912.316
1914.686
1917.057
1919.427
1921.798
1924.168
1926.539
1928.909
1931.280
1933.650
1936.021
1938.391
1940.762
1943.132
1945.503
1947.873
1950.244
1952.614
1954.985
1957.355
1959.726
1962.096
1964.467
1966.837
1969.208
1971.578
1973.949
1976.319
1978.690
1981.060
1983.431
1985.801
1988.172
1990.542
1992.913
1995.283
1997.654
2000.024
2002.395
2004.765
2007.136
2009.506
2011.877
2014.247
2016.618
2018.988
2021.359
2023.729
2026.100
2028.470
2030.841
2033.211
2035.582
2037.952
2040.323
2042.693
2045.064
2047.434
2049.805
2052.175
2054.546
2056.916
2059.287
2061.657
2064.028
2066.398
2068.769
2071.139
2073.510
2075.880
2078.251
2080.621
2082.992
2085.362
2087.733
2090.103
2092.474
2094.844
2097.215
2099.585
2101.956
2104.326
2106.697
2109.067
2111.438
2113.808
2116.179
2118.549
2120.920
2123.290
2125.661
2128.031
2130.402
2132.772
2135.143
2137.513
2139.884
2142.254
2144.625
2146.995
2149.366
2151.736
2154.107
2156.477
2158.848
2161.218
2163.589
2165.959
2168.330
2170.700
2173.071
2175.441
2177.812
2180.182
2182.553
2184.923
2187.294
2189.664
2192.035
2194.405
2196.776
2199.146
2201.517
2203.887
2206.258
2208.628
2210.999
2213.369
2215.740
2218.110
2220.481
2222.851
2225.222
2227.592
2229.963
2232.333
2234.704
2237.074
2239.445
2241.815
2244.186
2246.556
2248.927
2251.297
2253.668
2256.038
2258.409
2260.779
2263.150
2265.520
2267.891
2270.261
2272.632
2275.002
2277.373
2279.743
2282.114
2284.484
2286.855
2289.225
2291.596
2293.966
2296.337
2298.707
2301.078
2303.448
2305.819
2308.189
2310.560
2312.930
2312.075
2311.220
2310.365
2309.510
2308.655
2307.800
2306.945
2306.090
2305.235
2304.380
2303.525
2302.670
2301.815
2300.960
2300.105
2299.250
2298.395
2297.540
2296.685
2295.830
2294.975
2294.120
2293.265
2292.410
2291.555
2290.700
2289.845
2288.990
2288.135
2287.280
2286.425
2285.570
2284.715
2283.860
2283.005
2282.150
2281.295
2280.440
2279.585
2278.730
2277.875
2277.020
2276.165
2275.310
2274.455
2273.600
2272.745
2271.890
2271.035
2270.180
2269.325
2268.470
2267.615
2266.760
2265.905
2265.050
2264.195
2263.340
2262.485
2261.630
2260.775
2259.920
2259.065
2258.210
2257.355
2256.500
2255.645
2254.790
2253.935
2253.080
2252.225
2251.370
2250.515
2249.660
2248.805
2247.950
2247.095
2246.240
2245.385
2244.530
2243.675
2242.820
2241.965
2241.110
2240.255
2239.400
2238.545
2237.690
2236.835
2235.980
2235.125
2234.270
2233.415
2232.560
2231.705
2230.850
2229.995
2229.140
2228.285
2227.430
2226.575
2225.720
2224.865
2224.010
2223.155
2222.300
2221.445
2220.590
2219.735
2218.880
2218.025
2217.170
2216.315
2215.460
2214.605
2213.750
2212.895
2212.040
2211.185
2210.330
2209.475
2208.620
2207.765
2206.910
2206.055
2205.200
2204.345
2203.490
2202.635
2201.780
2200.925
2200.070
2199.215
2198.360
2197.505
2196.650
2195.795
2194.940
2194.085
2193.230
2192.375
2191.520
2190.665
2189.810
2188.955
2188.100
2187.245
2186.390
2185.535
2184.680
2183.825
2182.970
2182.115
2181.260
2180.405
2179.550
2178.695
2177.840
2176.985
2176.130
2175.275
2174.420
2173.565
2172.710
2171.855
2171.000
2170.145
2169.290
2168.435
2167.580
2166.725
2165.870
2165.015
2164.160
2163.305
2162.450
2161.595
2160.740
2159.885
2159.030
2158.175
2157.320
2156.465
2155.610
2154.755
2153.900
2153.045
2152.190
2151.335
2150.480
2149.625
2148.770
2147.915
2147.060
2146.205
2145.350
2144.495
2143.640
2142.785
2141.930
2139.706
2137.482
2135.258
2133.034
2130.810
2128.586
2126.362
2124.138
2121.914
2119.690
2117.466
2115.242
2113.018
2110.794
2108.570
2106.346
2104.122
2101.898
2099.674
2097.450
2095.226
2093.002
2090.778
2088.554
2086.330
2084.106
2081.882
2079.658
2077.434
2075.210
2072.986
2070.762
2068.538
2066.314
2064.090
2061.866
2059.642
2057.418
2055.194
2052.970
2050.746
2048.522
2046.298
2044.074
2041.850
2039.626
2037.402
2035.178
2032.954
2030.730
2028.506
2026.282
2024.058
2021.834
2019.610
2017.386
2015.162
2012.938
2010.714
2008.490
2006.266
2004.042
2001.818
1999.594
1997.370
1995.146
1992.922
1990.698
1988.474
1986.250
1984.026
1981.802
1979.578
1977.354
1975.130
1972.906
1970.682
1968.458
1966.234
1964.010
1961.786
1959.562
1957.338
1955.114
1952.890
1950.666
1948.442
1946.218
1943.994
1941.770
1939.546
1937.322
1935.098
1932.874
1930.650
1928.426
1926.202
1923.978
1921.754
1919.530
1917.306
1915.082
1912.858
1910.634
1908.410
1906.186
1903.962
1901.738
1899.514
1897.290
1895.066
1892.842
1890.618
1888.394
1886.170
1883.946
1881.722
1879.498
1877.274
1875.050
1872.826
1870.602
1868.378
1866.154
1863.930
1861.706
1859.482
1857.258
1855.034
1852.810
1850.586
1848.362
1846.138
1843.914
1841.690
1839.466
1837.242
1835.018
1832.794
1830.570
1828.346
1826.122
1823.898
1821.674
1819.450
1817.226
1815.002
1812.778
1810.554
1808.330
1806.106
1803.882
1801.658
1799.434
1797.210
1794.986
1792.762
1790.538
1788.314
1786.090
1783.866
1781.642
1779.418
1777.194
1774.970
1772.746
1770.522
1768.298
1766.074
1763.850
1761.626
1759.402
1757.178
1754.954
1752.730
1750.506
1748.282
1746.058
1743.834
1741.610
1739.386
1737.162
1734.938
1732.714
1730.490
1728.266
1726.042
1723.818
1721.594
1719.370
1717.146
1714.922
1712.698
1710.474
1708.250
1706.026
1703.802
1701.578
1699.354
1697.130
1699.452
1701.773
1704.095
1706.416
1708.738
1711.059
1713.381
1715.702
1718.024
1720.345
1722.667
1724.988
1727.310
1729.631
1731.953
1734.274
1736.596
1738.917
1741.239
1743.560
1745.882
1748.203
1750.525
1752.846
1755.168
1757.489
1759.811
1762.132
1764.454
1766.775
1769.097
1771.418
1773.740
1776.061
1778.383
1780.704
1783.026
1785.347
1787.669
1789.990
1792.312
1794.633
1796.955
1799.276
1801.598
1803.919
1806.241
1808.562
1810.884
1813.205
1815.527
1817.848
1820.170
1822.491
1824.813
1827.134
1829.456
1831.777
1834.099
1836.420
1838.742
1841.063
1843.385
1845.706
1848.028
1850.349
1852.671
1854.992
1857.314
1859.635
1861.957
1864.278
1866.600
1868.921
1871.243
1873.564
1875.886
1878.207
1880.529
1882.850
1885.172
1887.493
1889.815
1892.136
1894.458
1896.779
1899.101
1901.422
1903.744
1906.065
1908.387
1910.708
1913.030
1915.351
1917.673
1919.994
1922.316
1924.637
1926.959
1929.280
1931.602
1933.923
1936.245
1938.566
1940.888
1943.209
1945.531
1947.852
1950.174
1952.495
1954.817
1957.138
1959.460
1961.781
1964.103
1966.424
1968.746
1971.067
1973.389
1975.710
1978.032
1980.353
1982.675
1984.996
1987.318
1989.639
1991.961
1994.282
1996.604
1998.925
2001.247
2003.568
2005.890
2008.211
2010.533
2012.854
2015.176
2017.497
2019.819
2022.140
2024.462
2026.783
2029.105
2031.426
2033.748
2036.069
2038.391
2040.712
2043.034
2045.355
2047.677
2049.998
2052.320
2054.641
2056.963
2059.284
2061.606
2063.927
2066.249
2068.570
2070.892
2073.213
2075.535
2077.856
2080.178
2082.499
2084.821
2087.142
2089.464
2091.785
2094.107
2096.428
2098.750
2101.071
2103.393
2105.714
2108.036
2110.357
2112.679
2115.000
2117.322
2119.643
2121.965
2124.286
2126.608
2128.929
2131.251
2133.572
2135.894
2138.215
2140.537
2142.858
2145.180
2147.501
2149.823
2152.144
2154.466
2156.787
2159.109
2161.430
2164.852
2168.273
2171.695
2175.116
2178.538
2181.959
2185.381
2188.802
2192.224
2195.645
2199.067
2202.488
2205.910
2209.331
2212.753
2216.174
2219.596
2223.017
2226.439
2229.860
2233.282
2236.703
2240.125
2243.546
2246.968
2250.389
2253.811
2257.232
2260.654
2264.075
2267.497
2270.918
2274.340
2277.761
2281.183
2284.604
2288.026
2291.447
2294.869
2298.290
2301.712
2305.133
2308.555
2311.976
2315.398
2318.819
2322.241
2325.662
2329.084
2332.505
2335.927
2339.348
2342.770
2346.191
2349.613
2353.034
2356.456
2359.877
2363.299
2366.720
2370.142
2373.563
2376.985
2380.406
2383.828
2387.249
2390.671
2394.092
2397.514
2400.935
2404.357
2407.778
2411.200
2414.621
2418.043
2421.464
2424.886
2428.307
2431.729
2435.150
2438.572
2441.993
2445.415
2448.836
2452.258
2455.679
2459.101
2462.522
2465.944
2469.365
2472.787
2476.208
2479.630
2483.051
2486.473
2489.894
2493.316
2496.737
2500.159
2503.580
2507.002
2510.423
2513.845
2517.266
2520.688
2524.109
2527.531
2530.952
2534.374
2537.795
2541.217
2544.638
2548.060
2551.481
2554.903
2558.324
2561.746
2565.167
2568.589
2572.010
2575.432
2578.853
2582.275
2585.696
2589.118
2592.539
2595.961
2599.382
2602.804
2606.225
2609.647
2613.068
2616.490
2619.911
2623.333
2626.754
2630.176
2633.597
2637.019
2640.440
2643.862
2647.283
2650.705
2654.126
2657.548
2660.969
2664.391
2667.812
2671.234
2674.655
2678.077
2681.498
2684.920
2688.341
2691.763
2695.184
2698.606
2702.027
2705.449
2708.870
2712.292
2715.713
2719.135
2722.556
2725.978
2729.399
2732.821
2736.242
2739.664
2743.085
2746.507
2749.928
2753.350
2756.771
2760.193
2763.614
2767.036
2770.457
2773.879
2777.300
2780.722
2784.143
2787.565
2790.986
2794.408
2797.829
2801.251
2804.672
2808.094
2811.515
2814.937
2818.358
2821.780
2825.201
2828.623
2832.044
2835.466
2838.887
2842.309
2845.730
2843.018
2840.305
2837.593
2834.880
2832.168
2829.455
2826.743
2824.030
2821.318
2818.605
2815.893
2813.180
2810.468
2807.755
2805.043
2802.330
2799.618
2796.905
2794.193
2791.480
2788.768
2786.055
2783.343
2780.630
2777.918
2775.205
2772.493
2769.780
2767.068
2764.355
2761.643
2758.930
2756.218
2753.505
2750.793
2748.080
2745.368
2742.655
2739.943
2737.230
2734.518
2731.805
2729.093
2726.380
2723.668
2720.955
2718.243
2715.530
2712.818
2710.105
2707.393
2704.680
2701.968
2699.255
2696.543
2693.830
2691.118
2688.405
2685.693
2682.980
2680.268
2677.555
2674.843
2672.130
2669.418
2666.705
2663.993
2661.280
2658.568
2655.855
2653.143
2650.430
2647.718
2645.005
2642.293
2639.580
2636.868
2634.155
2631.443
2628.730
2626.018
2623.305
2620.593
2617.880
2615.168
2612.455
2609.743
2607.030
2604.318
2601.605
2598.893
2596.180
2593.468
2590.755
2588.043
2585.330
2582.618
2579.905
2577.193
2574.480
2571.768
2569.055
2566.343
2563.630
2560.918
2558.205
2555.493
2552.780
2550.068
2547.355
2544.643
2541.930
2539.218
2536.505
2533.793
2531.080
2528.368
2525.655
2522.943
2520.230
2517.518
2514.805
2512.093
2509.380
2506.668
2503.955
2501.243
2498.530
2495.818
2493.105
2490.393
2487.680
2484.968
2482.255
2479.543
2476.830
2474.118
2471.405
2468.693
2465.980
2463.268
2460.555
2457.843
2455.130
2452.418
2449.705
2446.993
2444.280
2441.568
2438.855
2436.143
2433.430
2430.718
2428.005
2425.293
2422.580
2419.868
2417.155
2414.443
2411.730
2409.018
2406.305
2403.593
2400.880
2398.168
2395.455
2392.743
2390.030
2387.318
2384.605
2381.893
2379.180
2376.468
2373.755
2371.043
2368.330
2365.618
2362.905
2360.193
2357.480
2354.768
2352.055
2349.343
2346.630
2343.918
2341.205
2338.493
2335.780
2333.068
2330.355
2327.643
2324.930
2322.218
2319.505
2316.793
2314.080
2311.368
2308.655
2305.943
