354.357
359.758
365.159
370.560
375.961
381.362
386.763
392.164
397.565
402.966
408.367
413.768
419.169
424.570
429.971
435.372
440.773
446.174
451.575
456.976
462.377
467.778
473.179
478.580
483.981
489.382
494.783
500.184
505.585
510.986
516.387
521.788
527.189
532.590
537.991
543.392
548.793
554.194
559.595
564.996
570.397
575.798
581.199
586.600
592.001
597.402
602.803
608.204
613.605
619.006
624.407
629.808
635.209
640.610
646.011
651.412
656.813
662.214
667.615
673.016
678.417
683.818
689.219
694.620
700.021
705.422
710.823
716.224
721.625
727.026
732.427
737.828
743.229
748.630
754.031
759.432
764.833
770.234
775.635
781.036
786.437
791.838
797.239
802.640
808.041
813.442
818.843
824.244
829.645
835.046
840.447
845.848
851.249
856.650
862.051
867.452
872.853
878.254
883.655
889.056
894.457
899.858
905.259
910.660
916.061
921.462
926.863
932.264
937.665
943.066
948.467
953.868
959.269
964.670
970.071
975.472
980.873
986.274
991.675
997.076
1002.477
1007.878
1013.279
1018.680
1024.081
1029.482
1034.883
1040.284
1045.685
1051.086
1056.487
1061.888
1067.289
1072.690
1078.091
1083.492
1088.893
1094.294
1099.695
1105.096
1110.497
1115.898
1121.299
1126.700
1132.101
1137.502
1142.903
1148.304
1153.705
1159.106
1164.507
1169.908
1175.309
1180.710
1186.111
1191.512
1196.913
1202.314
1207.715
1213.116
1218.517
1223.918
1229.319
1234.720
1240.121
1245.522
1250.923
1256.324
1261.725
1267.126
1272.527
1277.928
1283.329
1288.730
1294.131
1299.532
1304.933
1310.334
1315.735
1321.136
1326.537
1331.938
1337.339
1342.740
1348.141
1353.542
1358.943
1364.344
1369.745
1375.146
1380.547
1385.948
1391.349
1396.750
1402.151
1407.552
1412.953
1418.354
1423.755
1429.156
1434.557
1436.659
1438.760
1440.862
1442.963
1445.065
1447.166
1449.268
1451.369
1453.471
1455.572
1457.674
1459.775
1461.877
1463.978
1466.080
1468.181
1470.283
1472.384
1474.486
1476.587
1478.689
1480.790
1482.892
1484.993
1487.095
1489.196
1491.298
1493.399
1495.501
1497.602
1499.704
1501.805
1503.907
1506.008
1508.110
1510.211
1512.313
1514.414
1516.516
1518.617
1520.719
1522.820
1524.922
1527.023
1529.125
1531.226
1533.328
1535.429
1537.531
1539.632
1541.734
1543.835
1545.937
1548.038
1550.140
1552.241
1554.343
1556.444
1558.546
1560.647
1562.749
1564.850
1566.952
1569.053
1571.155
1573.256
1575.358
1577.459
1579.561
1581.662
1583.764
1585.865
1587.967
1590.068
1592.170
1594.271
1596.373
1598.474
1600.576
1602.677
1604.779
1606.880
1608.982
1611.083
1613.185
1615.286
1617.388
1619.489
1621.591
1623.692
1625.794
1627.895
1629.997
1632.098
1634.200
1636.301
1638.403
1640.504
1642.606
1644.707
1646.809
1648.910
1651.012
1653.113
1655.215
1657.316
1659.418
1661.519
1663.621
1665.722
1667.824
1669.925
1672.027
1674.128
1676.230
1678.331
1680.433
1682.534
1684.636
1686.737
1688.839
1690.940
1693.042
1695.143
1697.245
1699.346
1701.448
1703.549
1705.651
1707.752
1709.854
1711.955
1714.057
1716.158
1718.260
1720.361
1722.463
1724.564
1726.666
1728.767
1730.869
1732.970
1735.072
1737.173
1739.275
1741.376
1743.478
1745.579
1747.681
1749.782
1751.884
1753.985
1756.087
1758.188
1760.290
1762.391
1764.493
1766.594
1768.696
1770.797
1772.899
1775.000
1777.102
1779.203
1781.305
1783.406
1785.508
1787.609
1789.711
1791.812
1793.914
1796.015
1798.117
1800.218
1802.320
1804.421
1806.523
1808.624
1810.726
1812.827
1814.929
1817.030
1819.132
1821.233
1823.335
1825.436
1827.538
1829.639
1831.741
1833.842
1835.944
1838.045
1840.147
1842.248
1844.350
1846.451
1848.553
1850.654
1852.756
1854.857
1858.816
1862.775
1866.734
1870.693
1874.652
1878.611
1882.570
1886.529
1890.488
1894.447
1898.406
1902.365
1906.324
1910.283
1914.242
1918.201
1922.160
1926.119
1930.078
1934.037
1937.996
1941.955
1945.914
1949.873
1953.832
1957.791
1961.750
1965.709
1969.668
1973.627
1977.586
1981.545
1985.504
1989.463
1993.422
1997.381
2001.340
2005.299
2009.258
2013.217
2017.176
2021.135
2025.094
2029.053
2033.012
2036.971
2040.930
2044.889
2048.848
2052.807
2056.766
2060.725
2064.684
2068.643
2072.602
2076.561
2080.520
2084.479
2088.438
2092.397
2096.356
2100.315
2104.274
2108.233
2112.192
2116.151
2120.110
2124.069
2128.028
2131.987
2135.946
2139.905
2143.864
2147.823
2151.782
2155.741
2159.700
2163.659
2167.618
2171.577
2175.536
2179.495
2183.454
2187.413
2191.372
2195.331
2199.290
2203.249
2207.208
2211.167
2215.126
2219.085
2223.044
2227.003
2230.962
2234.921
2238.880
2242.839
2246.798
2250.757
2254.716
2258.675
2262.634
2266.593
2270.552
2274.511
2278.470
2282.429
2286.388
2290.347
2294.306
2298.265
2302.224
2306.183
2310.142
2314.101
2318.060
2322.019
2325.978
2329.937
2333.896
2337.855
2341.814
2345.773
2349.732
2353.691
2357.650
2361.609
2365.568
2369.527
2373.486
2377.445
2381.404
2385.363
2389.322
2393.281
2397.240
2401.199
2405.158
2409.117
2413.076
2417.035
2420.994
2424.953
2428.912
2432.871
2436.830
2440.789
2444.748
2448.707
2452.666
2456.625
2460.584
2464.543
2468.502
2472.461
2476.420
2480.379
2484.338
2488.297
2492.256
2496.215
2500.174
2504.133
2508.092
2512.051
2516.010
2519.969
2523.928
2527.887
2531.846
2535.805
2539.764
2543.723
2547.682
2551.641
2555.600
2559.559
2563.518
2567.477
2571.436
2575.395
2579.354
2583.313
2587.272
2591.231
2595.190
2599.149
2603.108
2607.067
2611.026
2614.985
2618.944
2622.903
2626.862
2630.821
2634.780
2638.739
2642.698
2646.657
2646.804
2646.950
2647.097
2647.243
2647.390
2647.536
2647.683
2647.829
2647.976
2648.122
2648.269
2648.415
2648.562
2648.708
2648.855
2649.001
2649.148
2649.294
2649.441
2649.587
2649.734
2649.880
2650.027
2650.173
2650.320
2650.466
2650.613
2650.759
2650.906
2651.052
2651.199
2651.345
2651.492
2651.638
2651.785
2651.931
2652.078
2652.224
2652.371
2652.517
2652.664
2652.810
2652.957
2653.103
2653.250
2653.396
2653.543
2653.689
2653.836
2653.982
2654.129
2654.275
2654.422
2654.568
2654.715
2654.861
2655.008
2655.154
2655.301
2655.447
2655.594
2655.740
2655.887
2656.033
2656.180
2656.326
2656.473
2656.619
2656.766
2656.912
2657.059
2657.205
2657.352
2657.498
2657.645
2657.791
2657.938
2658.084
2658.231
2658.377
2658.524
2658.670
2658.817
2658.963
2659.110
2659.256
2659.403
2659.549
2659.696
2659.842
2659.989
2660.135
2660.282
2660.428
2660.575
2660.721
2660.868
2661.014
2661.161
2661.307
2661.454
2661.600
2661.747
2661.893
2662.040
2662.186
2662.333
2662.479
2662.626
2662.772
2662.919
2663.065
2663.212
2663.358
2663.505
2663.651
2663.798
2663.944
2664.091
2664.237
2664.384
2664.530
2664.677
2664.823
2664.970
2665.116
2665.263
2665.409
2665.556
2665.702
2665.849
2665.995
2666.142
2666.288
2666.435
2666.581
2666.728
2666.874
2667.021
2667.167
2667.314
2667.460
2667.607
2667.753
2667.900
2668.046
2668.193
2668.339
2668.486
2668.632
2668.779
2668.925
2669.072
2669.218
2669.365
2669.511
2669.658
2669.804
2669.951
2670.097
2670.244
2670.390
2670.537
2670.683
2670.830
2670.976
2671.123
2671.269
2671.416
2671.562
2671.709
2671.855
2672.002
2672.148
2672.295
2672.441
2672.588
2672.734
2672.881
2673.027
2673.174
2673.320
2673.467
2673.613
2673.760
2673.906
2674.053
2674.199
2674.346
2674.492
2674.639
2674.785
2674.932
2675.078
2675.225
2675.371
2675.518
2675.664
2675.811
2675.957
2673.245
2670.532
2667.820
2665.107
2662.395
2659.682
2656.970
2654.257
2651.545
2648.832
2646.120
2643.407
2640.695
2637.982
2635.270
2632.557
2629.845
2627.132
2624.420
2621.707
2618.995
2616.282
2613.570
2610.857
2608.145
2605.432
2602.720
2600.007
2597.295
2594.582
2591.870
2589.157
2586.445
2583.732
2581.020
2578.307
2575.595
2572.882
2570.170
2567.457
2564.745
2562.032
2559.320
2556.607
2553.895
2551.182
2548.470
2545.757
2543.045
2540.332
2537.620
2534.907
2532.195
2529.482
2526.770
2524.057
2521.345
2518.632
2515.920
2513.207
2510.495
2507.782
2505.070
2502.357
2499.645
2496.932
2494.220
2491.507
2488.795
2486.082
2483.370
2480.657
2477.945
2475.232
2472.520
2469.807
2467.095
2464.382
2461.670
2458.957
2456.245
2453.532
2450.820
2448.107
2445.395
2442.682
2439.970
2437.257
2434.545
2431.832
2429.120
2426.407
2423.695
2420.982
2418.270
2415.557
2412.845
2410.132
2407.420
2404.707
2401.995
2399.282
2396.570
2393.857
2391.145
2388.432
2385.720
2383.007
2380.295
2377.582
2374.870
2372.157
2369.445
2366.732
2364.020
2361.307
2358.595
2355.882
2353.170
2350.457
2347.745
2345.032
2342.320
2339.607
2336.895
2334.182
2331.470
2328.757
2326.045
2323.332
2320.620
2317.907
2315.195
2312.482
2309.770
2307.057
2304.345
2301.632
2298.920
2296.207
2293.495
2290.782
2288.070
2285.357
2282.645
2279.932
2277.220
2274.507
2271.795
2269.082
2266.370
2263.657
2260.945
2258.232
2255.520
2252.807
2250.095
2247.382
2244.670
2241.957
2239.245
2236.532
2233.820
2231.107
2228.395
2225.682
2222.970
2220.257
2217.545
2214.832
2212.120
2209.407
2206.695
2203.982
2201.270
2198.557
2195.845
2193.132
2190.420
2187.707
2184.995
2182.282
2179.570
2176.857
2174.145
2171.432
2168.720
2166.007
2163.295
2160.582
2157.870
2155.157
2152.445
2149.732
2147.020
2144.307
2141.595
2138.882
2136.170
2133.457
2134.361
2135.265
2136.169
2137.073
2137.977
2138.881
2139.785
2140.689
2141.593
2142.497
2143.401
2144.305
2145.209
2146.113
2147.017
2147.921
2148.825
2149.729
2150.633
2151.537
2152.441
2153.345
2154.249
2155.153
2156.057
2156.961
2157.865
2158.769
2159.673
2160.577
2161.481
2162.385
2163.289
2164.193
2165.097
2166.001
2166.905
2167.809
2168.713
2169.617
2170.521
2171.425
2172.329
2173.233
2174.137
2175.041
2175.945
2176.849
2177.753
2178.657
2179.561
2180.465
2181.369
2182.273
2183.177
2184.081
2184.985
2185.889
2186.793
2187.697
2188.601
2189.505
2190.409
2191.313
2192.217
2193.121
2194.025
2194.929
2195.833
2196.737
2197.641
2198.545
2199.449
2200.353
2201.257
2202.161
2203.065
2203.969
2204.873
2205.777
2206.681
2207.585
2208.489
2209.393
2210.297
2211.201
2212.105
2213.009
2213.913
2214.817
2215.721
2216.625
2217.529
2218.433
2219.337
2220.241
2221.145
2222.049
2222.953
2223.857
2224.761
2225.665
2226.569
2227.473
2228.377
2229.281
2230.185
2231.089
2231.993
2232.897
2233.801
2234.705
2235.609
2236.513
2237.417
2238.321
2239.225
2240.129
2241.033
2241.937
2242.841
2243.745
2244.649
2245.553
2246.457
2247.361
2248.265
2249.169
2250.073
2250.977
2251.881
2252.785
2253.689
2254.593
2255.497
2256.401
2257.305
2258.209
2259.113
2260.017
2260.921
2261.825
2262.729
2263.633
2264.537
2265.441
2266.345
2267.249
2268.153
2269.057
2269.961
2270.865
2271.769
2272.673
2273.577
2274.481
2275.385
2276.289
2277.193
2278.097
2279.001
2279.905
2280.809
2281.713
2282.617
2283.521
2284.425
2285.329
2286.233
2287.137
2288.041
2288.945
2289.849
2290.753
2291.657
2292.561
2293.465
2294.369
2295.273
2296.177
2297.081
2297.985
2298.889
2299.793
2300.697
2301.601
2302.505
2303.409
2304.313
2305.217
2306.121
2307.025
2307.929
2308.833
2309.737
2310.641
2311.545
2312.449
2313.353
2314.257
2313.035
2311.813
2310.591
2309.369
2308.147
2306.925
2305.703
2304.481
2303.259
2302.037
2300.815
2299.593
2298.371
2297.149
2295.927
2294.705
2293.483
2292.261
2291.039
2289.817
2288.595
2287.373
2286.151
2284.929
2283.707
2282.485
2281.263
2280.041
2278.819
2277.597
2276.375
2275.153
2273.931
2272.709
2271.487
2270.265
2269.043
2267.821
2266.599
2265.377
2264.155
2262.933
2261.711
2260.489
2259.267
2258.045
2256.823
2255.601
2254.379
2253.157
2251.935
2250.713
2249.491
2248.269
2247.047
2245.825
2244.603
2243.381
2242.159
2240.937
2239.715
2238.493
2237.271
2236.049
2234.827
2233.605
2232.383
2231.161
2229.939
2228.717
2227.495
2226.273
2225.051
2223.829
2222.607
2221.385
2220.163
2218.941
2217.719
2216.497
2215.275
2214.053
2212.831
2211.609
2210.387
2209.165
2207.943
2206.721
2205.499
2204.277
2203.055
2201.833
2200.611
2199.389
2198.167
2196.945
2195.723
2194.501
2193.279
2192.057
2190.835
2189.613
2188.391
2187.169
2185.947
2184.725
2183.503
2182.281
2181.059
2179.837
2178.615
2177.393
2176.171
2174.949
2173.727
2172.505
2171.283
2170.061
2168.839
2167.617
2166.395
2165.173
2163.951
2162.729
2161.507
2160.285
2159.063
2157.841
2156.619
2155.397
2154.175
2152.953
2151.731
2150.509
2149.287
2148.065
2146.843
2145.621
2144.399
2143.177
2141.955
2140.733
2139.511
2138.289
2137.067
2135.845
2134.623
2133.401
2132.179
2130.957
2129.735
2128.513
2127.291
2126.069
2124.847
2123.625
2122.403
2121.181
2119.959
2118.737
2117.515
2116.293
2115.071
2113.849
2112.627
2111.405
2110.183
2108.961
2107.739
2106.517
2105.295
2104.073
2102.851
2101.629
2100.407
2099.185
2097.963
2096.741
2095.519
2094.297
2093.075
2091.853
2090.631
2089.409
2088.187
2086.965
2085.743
2084.521
2083.299
2082.077
2080.855
2079.633
2078.411
2077.189
2075.967
2074.745
2073.523
2072.301
2071.079
2069.857
2070.542
2071.226
2071.911
2072.595
2073.280
2073.964
2074.649
2075.333
2076.018
2076.702
2077.387
2078.071
2078.756
2079.440
2080.125
2080.809
2081.494
2082.178
2082.863
2083.547
2084.232
2084.916
2085.601
2086.285
2086.970
2087.654
2088.339
2089.023
2089.708
2090.392
2091.077
2091.761
2092.446
2093.130
2093.815
2094.499
2095.184
2095.868
2096.553
2097.237
2097.922
2098.606
2099.291
2099.975
2100.660
2101.344
2102.029
2102.713
2103.398
2104.082
2104.767
2105.451
2106.136
2106.820
2107.505
2108.189
2108.874
2109.558
2110.243
2110.927
2111.612
2112.296
2112.981
2113.665
2114.350
2115.034
2115.719
2116.403
2117.088
2117.772
2118.457
2119.141
2119.826
2120.510
2121.195
2121.879
2122.564
2123.248
2123.933
2124.617
2125.302
2125.986
2126.671
2127.355
2128.040
2128.724
2129.409
2130.093
2130.778
2131.462
2132.147
2132.831
2133.516
2134.200
2134.885
2135.569
2136.254
2136.938
2137.623
2138.307
2138.992
2139.676
2140.361
2141.045
2141.730
2142.414
2143.099
2143.783
2144.468
2145.152
2145.837
2146.521
2147.206
2147.890
2148.575
2149.259
2149.944
2150.628
2151.313
2151.997
2152.682
2153.366
2154.051
2154.735
2155.420
2156.104
2156.789
2157.473
2158.158
2158.842
2159.527
2160.211
2160.896
2161.580
2162.265
2162.949
2163.634
2164.318
2165.003
2165.687
2166.372
2167.056
2167.741
2168.425
2169.110
2169.794
2170.479
2171.163
2171.848
2172.532
2173.217
2173.901
2174.586
2175.270
2175.955
2176.639
2177.324
2178.008
2178.693
2179.377
2180.062
2180.746
2181.431
2182.115
2182.800
2183.484
2184.169
2184.853
2185.538
2186.222
2186.907
2187.591
2188.276
2188.960
2189.645
2190.329
2191.014
2191.698
2192.383
2193.067
2193.752
2194.436
2195.121
2195.805
2196.490
2197.174
2197.859
2198.543
2199.228
2199.912
2200.597
2201.281
2201.966
2202.650
2203.335
2204.019
2204.704
2205.388
2206.073
2206.757
2208.028
2209.299
2210.570
2211.841
2213.112
2214.383
2215.654
2216.925
2218.196
2219.467
2220.738
2222.009
2223.280
2224.551
2225.822
2227.093
2228.364
2229.635
2230.906
2232.177
2233.448
2234.719
2235.990
2237.261
2238.532
2239.803
2241.074
2242.345
2243.616
2244.887
2246.158
2247.429
2248.700
2249.971
2251.242
2252.513
2253.784
2255.055
2256.326
2257.597
2258.868
2260.139
2261.410
2262.681
2263.952
2265.223
2266.494
2267.765
2269.036
2270.307
2271.578
2272.849
2274.120
2275.391
2276.662
2277.933
2279.204
2280.475
2281.746
2283.017
2284.288
2285.559
2286.830
2288.101
2289.372
2290.643
2291.914
2293.185
2294.456
2295.727
2296.998
2298.269
2299.540
2300.811
2302.082
2303.353
2304.624
2305.895
2307.166
2308.437
2309.708
2310.979
2312.250
2313.521
2314.792
2316.063
2317.334
2318.605
2319.876
2321.147
2322.418
2323.689
2324.960
2326.231
2327.502
2328.773
2330.044
2331.315
2332.586
2333.857
2335.128
2336.399
2337.670
2338.941
2340.212
2341.483
2342.754
2344.025
2345.296
2346.567
2347.838
2349.109
2350.380
2351.651
2352.922
2354.193
2355.464
2356.735
2358.006
2359.277
2360.548
2361.819
2363.090
2364.361
2365.632
2366.903
2368.174
2369.445
2370.716
2371.987
2373.258
2374.529
2375.800
2377.071
2378.342
2379.613
2380.884
2382.155
2383.426
2384.697
2385.968
2387.239
2388.510
2389.781
2391.052
2392.323
2393.594
2394.865
2396.136
2397.407
2398.678
2399.949
2401.220
2402.491
2403.762
2405.033
2406.304
2407.575
2408.846
2410.117
2411.388
2412.659
2413.930
2415.201
2416.472
2417.743
2419.014
2420.285
2421.556
2422.827
2424.098
2425.369
2426.640
2427.911
2429.182
2430.453
2431.724
2432.995
2434.266
2435.537
2436.808
2438.079
2439.350
2440.621
2441.892
2443.163
2444.434
2445.705
2446.976
2448.247
2449.518
2450.789
2452.060
2453.331
2454.602
2455.873
2457.144
2458.415
2459.686
2460.957
2460.224
2459.490
2458.757
2458.023
2457.290
2456.556
2455.823
2455.089
2454.356
2453.622
2452.889
2452.155
2451.422
2450.688
2449.955
2449.221
2448.488
2447.754
2447.021
2446.287
2445.554
2444.820
2444.087
2443.353
2442.620
2441.886
2441.153
2440.419
2439.686
2438.952
2438.219
2437.485
2436.752
2436.018
2435.285
2434.551
2433.818
2433.084
2432.351
2431.617
2430.884
2430.150
2429.417
2428.683
2427.950
2427.216
2426.483
2425.749
2425.016
2424.282
2423.549
2422.815
2422.082
2421.348
2420.615
2419.881
2419.148
2418.414
2417.681
2416.947
2416.214
2415.480
2414.747
2414.013
2413.280
2412.546
2411.813
2411.079
2410.346
2409.612
2408.879
2408.145
2407.412
2406.678
2405.945
2405.211
2404.478
2403.744
2403.011
2402.277
2401.544
2400.810
2400.077
2399.343
2398.610
2397.876
2397.143
2396.409
2395.676
2394.942
2394.209
2393.475
2392.742
2392.008
2391.275
2390.541
2389.808
2389.074
2388.341
2387.607
2386.874
2386.140
2385.407
2384.673
2383.940
2383.206
2382.473
2381.739
2381.006
2380.272
2379.539
2378.805
2378.072
2377.338
2376.605
2375.871
2375.138
2374.404
2373.671
2372.937
2372.204
2371.470
2370.737
2370.003
2369.270
2368.536
2367.803
2367.069
2366.336
2365.602
2364.869
2364.135
2363.402
2362.668
2361.935
2361.201
2360.468
2359.734
2359.001
2358.267
2357.534
2356.800
2356.067
2355.333
2354.600
2353.866
2353.133
2352.399
2351.666
2350.932
2350.199
2349.465
2348.732
2347.998
2347.265
2346.531
2345.798
2345.064
2344.331
2343.597
2342.864
2342.130
2341.397
2340.663
2339.930
2339.196
2338.463
2337.729
2336.996
2336.262
2335.529
2334.795
2334.062
2333.328
2332.595
2331.861
2331.128
2330.394
2329.661
2328.927
2328.194
2327.460
2326.727
2325.993
2325.260
2324.526
2323.793
2323.059
2322.326
2321.592
2320.859
2320.125
2319.392
2318.658
2317.925
2317.191
2316.458
2315.724
2314.991
