315.019
318.001
320.982
323.964
326.945
329.927
332.908
335.890
338.871
341.853
344.834
347.816
350.797
353.779
356.760
359.742
362.723
365.705
368.686
371.668
374.649
377.631
380.612
383.594
386.575
389.557
392.538
395.520
398.501
401.483
404.464
407.446
410.427
413.409
416.390
419.372
422.353
425.335
428.316
431.298
434.279
437.261
440.242
443.224
446.205
449.187
452.168
455.150
458.131
461.113
464.094
467.076
470.057
473.039
476.020
479.002
481.983
484.965
487.946
490.928
493.909
496.891
499.872
502.854
505.835
508.817
511.798
514.780
517.761
520.743
523.724
526.706
529.687
532.669
535.650
538.632
541.613
544.595
547.576
550.558
553.539
556.521
559.502
562.484
565.465
568.447
571.428
574.410
577.391
580.373
583.354
586.336
589.317
592.299
595.280
598.262
601.243
604.225
607.206
610.188
613.169
616.151
619.132
622.114
625.095
628.077
631.058
634.040
637.021
640.003
642.984
645.966
648.947
651.929
654.910
657.892
660.873
663.855
666.836
669.818
672.799
675.781
678.762
681.744
684.725
687.707
690.688
693.670
696.651
699.633
702.614
705.596
708.577
711.559
714.540
717.522
720.503
723.485
726.466
729.448
732.429
735.411
738.392
741.374
744.355
747.337
750.318
753.300
756.281
759.263
762.244
765.226
768.207
771.189
774.170
777.152
780.133
783.115
786.096
789.078
792.059
795.041
798.022
801.004
803.985
806.967
809.948
812.930
815.911
818.893
821.874
824.856
827.837
830.819
833.800
836.782
839.763
842.745
845.726
848.708
851.689
854.671
857.652
860.634
863.615
866.597
869.578
872.560
875.541
878.523
881.504
884.486
887.467
890.449
893.430
896.412
899.393
902.375
905.356
908.338
911.319
913.152
914.985
916.818
918.651
920.484
922.317
924.150
925.983
927.816
929.649
931.482
933.315
935.148
936.981
938.814
940.647
942.480
944.313
946.146
947.979
949.812
951.645
953.478
955.311
957.144
958.977
960.810
962.643
964.476
966.309
968.142
969.975
971.808
973.641
975.474
977.307
979.140
980.973
982.806
984.639
986.472
988.305
990.138
991.971
993.804
995.637
997.470
999.303
1001.136
1002.969
1004.802
1006.635
1008.468
1010.301
1012.134
1013.967
1015.800
1017.633
1019.466
1021.299
1023.132
1024.965
1026.798
1028.631
1030.464
1032.297
1034.130
1035.963
1037.796
1039.629
1041.462
1043.295
1045.128
1046.961
1048.794
1050.627
1052.460
1054.293
1056.126
1057.959
1059.792
1061.625
1063.458
1065.291
1067.124
1068.957
1070.790
1072.623
1074.456
1076.289
1078.122
1079.955
1081.788
1083.621
1085.454
1087.287
1089.120
1090.953
1092.786
1094.619
1096.452
1098.285
1100.118
1101.951
1103.784
1105.617
1107.450
1109.283
1111.116
1112.949
1114.782
1116.615
1118.448
1120.281
1122.114
1123.947
1125.780
1127.613
1129.446
1131.279
1133.112
1134.945
1136.778
1138.611
1140.444
1142.277
1144.110
1145.943
1147.776
1149.609
1151.442
1153.275
1155.108
1156.941
1158.774
1160.607
1162.440
1164.273
1166.106
1167.939
1169.772
1171.605
1173.438
1175.271
1177.104
1178.937
1180.770
1182.603
1184.436
1186.269
1188.102
1189.935
1191.768
1193.601
1195.434
1197.267
1199.100
1200.933
1202.766
1204.599
1206.432
1208.265
1210.098
1211.931
1213.764
1215.597
1217.430
1219.263
1221.096
1222.929
1224.762
1226.595
1228.428
1230.261
1232.094
1233.927
1235.760
1237.593
1239.426
1241.259
1243.092
1244.925
1246.758
1248.591
1250.424
1252.257
1254.090
1255.923
1257.756
1259.589
1261.422
1263.255
1265.088
1266.921
1268.754
1270.587
1272.420
1274.253
1276.086
1277.919
1283.638
1289.356
1295.075
1300.793
1306.512
1312.230
1317.949
1323.667
1329.386
1335.104
1340.823
1346.541
1352.260
1357.978
1363.697
1369.415
1375.134
1380.852
1386.571
1392.289
1398.008
1403.726
1409.445
1415.163
1420.882
1426.600
1432.319
1438.037
1443.756
1449.474
1455.193
1460.911
1466.630
1472.348
1478.067
1483.785
1489.504
1495.222
1500.941
1506.659
1512.378
1518.096
1523.815
1529.533
1535.252
1540.970
1546.689
1552.407
1558.126
1563.844
1569.563
1575.281
1581.000
1586.718
1592.437
1598.155
1603.874
1609.592
1615.311
1621.029
1626.748
1632.466
1638.185
1643.903
1649.622
1655.340
1661.059
1666.777
1672.496
1678.214
1683.933
1689.651
1695.370
1701.088
1706.807
1712.525
1718.244
1723.962
1729.681
1735.399
1741.118
1746.836
1752.555
1758.273
1763.992
1769.710
1775.429
1781.147
1786.866
1792.584
1798.303
1804.021
1809.740
1815.458
1821.177
1826.895
1832.614
1838.332
1844.051
1849.769
1855.488
1861.206
1866.925
1872.643
1878.362
1884.080
1889.799
1895.517
1901.236
1906.954
1912.673
1918.391
1924.110
1929.828
1935.547
1941.265
1946.984
1952.702
1958.421
1964.139
1969.858
1975.576
1981.295
1987.013
1992.732
1998.450
2004.169
2009.887
2015.606
2021.324
2027.043
2032.761
2038.480
2044.198
2049.917
2055.635
2061.354
2067.072
2072.791
2078.509
2084.228
2089.946
2095.665
2101.383
2107.102
2112.820
2118.539
2124.257
2129.976
2135.694
2141.413
2147.131
2152.850
2158.568
2164.287
2170.005
2175.724
2181.442
2187.161
2192.879
2198.598
2204.316
2210.035
2215.753
2221.472
2227.190
2232.909
2238.627
2244.346
2250.064
2255.783
2261.501
2267.220
2272.938
2278.657
2284.375
2290.094
2295.812
2301.531
2307.249
2312.968
2318.686
2324.405
2330.123
2335.842
2341.560
2347.279
2352.997
2358.716
2364.434
2370.153
2375.871
2381.590
2387.308
2393.027
2398.745
2404.464
2410.182
2415.901
2421.619
2417.953
2414.287
2410.621
2406.955
2403.289
2399.623
2395.957
2392.291
2388.625
2384.959
2381.293
2377.627
2373.961
2370.295
2366.629
2362.963
2359.297
2355.631
2351.965
2348.299
2344.633
2340.967
2337.301
2333.635
2329.969
2326.303
2322.637
2318.971
2315.305
2311.639
2307.973
2304.307
2300.641
2296.975
2293.309
2289.643
2285.977
2282.311
2278.645
2274.979
2271.313
2267.647
2263.981
2260.315
2256.649
2252.983
2249.317
2245.651
2241.985
2238.319
2234.653
2230.987
2227.321
2223.655
2219.989
2216.323
2212.657
2208.991
2205.325
2201.659
2197.993
2194.327
2190.661
2186.995
2183.329
2179.663
2175.997
2172.331
2168.665
2164.999
2161.333
2157.667
2154.001
2150.335
2146.669
2143.003
2139.337
2135.671
2132.005
2128.339
2124.673
2121.007
2117.341
2113.675
2110.009
2106.343
2102.677
2099.011
2095.345
2091.679
2088.013
2084.347
2080.681
2077.015
2073.349
2069.683
2066.017
2062.351
2058.685
2055.019
2051.353
2047.687
2044.021
2040.355
2036.689
2033.023
2029.357
2025.691
2022.025
2018.359
2014.693
2011.027
2007.361
2003.695
2000.029
1996.363
1992.697
1989.031
1985.365
1981.699
1978.033
1974.367
1970.701
1967.035
1963.369
1959.703
1956.037
1952.371
1948.705
1945.039
1941.373
1937.707
1934.041
1930.375
1926.709
1923.043
1919.377
1915.711
1912.045
1908.379
1904.713
1901.047
1897.381
1893.715
1890.049
1886.383
1882.717
1879.051
1875.385
1871.719
1868.053
1864.387
1860.721
1857.055
1853.389
1849.723
1846.057
1842.391
1838.725
1835.059
1831.393
1827.727
1824.061
1820.395
1816.729
1813.063
1809.397
1805.731
1802.065
1798.399
1794.733
1791.067
1787.401
1783.735
1780.069
1776.403
1772.737
1769.071
1765.405
1761.739
1758.073
1754.407
1750.741
1747.075
1743.409
1739.743
1736.077
1732.411
1728.745
1725.079
1721.413
1717.747
1714.081
1710.415
1706.749
1703.083
1699.417
1695.751
1692.085
1688.419
1690.448
1692.476
1694.505
1696.533
1698.562
1700.590
1702.619
1704.647
1706.676
1708.704
1710.733
1712.761
1714.790
1716.818
1718.847
1720.875
1722.904
1724.932
1726.961
1728.989
1731.018
1733.046
1735.075
1737.103
1739.132
1741.160
1743.189
1745.217
1747.246
1749.274
1751.303
1753.331
1755.360
1757.388
1759.417
1761.445
1763.474
1765.502
1767.531
1769.559
1771.588
1773.616
1775.645
1777.673
1779.702
1781.730
1783.759
1785.787
1787.816
1789.844
1791.873
1793.901
1795.930
1797.958
1799.987
1802.015
1804.044
1806.072
1808.101
1810.129
1812.158
1814.186
1816.215
1818.243
1820.272
1822.300
1824.329
1826.357
1828.386
1830.414
1832.443
1834.471
1836.500
1838.528
1840.557
1842.585
1844.614
1846.642
1848.671
1850.699
1852.728
1854.756
1856.785
1858.813
1860.842
1862.870
1864.899
1866.927
1868.956
1870.984
1873.013
1875.041
1877.070
1879.098
1881.127
1883.155
1885.184
1887.212
1889.241
1891.269
1893.298
1895.326
1897.355
1899.383
1901.412
1903.440
1905.469
1907.497
1909.526
1911.554
1913.583
1915.611
1917.640
1919.668
1921.697
1923.725
1925.754
1927.782
1929.811
1931.839
1933.868
1935.896
1937.925
1939.953
1941.982
1944.010
1946.039
1948.067
1950.096
1952.124
1954.153
1956.181
1958.210
1960.238
1962.267
1964.295
1966.324
1968.352
1970.381
1972.409
1974.438
1976.466
1978.495
1980.523
1982.552
1984.580
1986.609
1988.637
1990.666
1992.694
1994.723
1996.751
1998.780
2000.808
2002.837
2004.865
2006.894
2008.922
2010.951
2012.979
2015.008
2017.036
2019.065
2021.093
2023.122
2025.150
2027.179
2029.207
2031.236
2033.264
2035.293
2037.321
2039.350
2041.378
2043.407
2045.435
2047.464
2049.492
2051.521
2053.549
2055.578
2057.606
2059.635
2061.663
2063.692
2065.720
2067.749
2069.777
2071.806
2073.834
2075.863
2077.891
2079.920
2081.948
2083.977
2086.005
2088.034
2090.062
2092.091
2094.119
2095.194
2096.269
2097.344
2098.419
2099.494
2100.569
2101.644
2102.719
2103.794
2104.869
2105.944
2107.019
2108.094
2109.169
2110.244
2111.319
2112.394
2113.469
2114.544
2115.619
2116.694
2117.769
2118.844
2119.919
2120.994
2122.069
2123.144
2124.219
2125.294
2126.369
2127.444
2128.519
2129.594
2130.669
2131.744
2132.819
2133.894
2134.969
2136.044
2137.119
2138.194
2139.269
2140.344
2141.419
2142.494
2143.569
2144.644
2145.719
2146.794
2147.869
2148.944
2150.019
2151.094
2152.169
2153.244
2154.319
2155.394
2156.469
2157.544
2158.619
2159.694
2160.769
2161.844
2162.919
2163.994
2165.069
2166.144
2167.219
2168.294
2169.369
2170.444
2171.519
2172.594
2173.669
2174.744
2175.819
2176.894
2177.969
2179.044
2180.119
2181.194
2182.269
2183.344
2184.419
2185.494
2186.569
2187.644
2188.719
2189.794
2190.869
2191.944
2193.019
2194.094
2195.169
2196.244
2197.319
2198.394
2199.469
2200.544
2201.619
2202.694
2203.769
2204.844
2205.919
2206.994
2208.069
2209.144
2210.219
2211.294
2212.369
2213.444
2214.519
2215.594
2216.669
2217.744
2218.819
2219.894
2220.969
2222.044
2223.119
2224.194
2225.269
2226.344
2227.419
2228.494
2229.569
2230.644
2231.719
2232.794
2233.869
2234.944
2236.019
2237.094
2238.169
2239.244
2240.319
2241.394
2242.469
2243.544
2244.619
2245.694
2246.769
2247.844
2248.919
2249.994
2251.069
2252.144
2253.219
2254.294
2255.369
2256.444
2257.519
2258.594
2259.669
2260.744
2261.819
2262.894
2263.969
2265.044
2266.119
2267.194
2268.269
2269.344
2270.419
2271.494
2272.569
2273.644
2274.719
2275.794
2276.869
2277.944
2279.019
2280.094
2281.169
2282.244
2283.319
2284.394
2285.469
2286.544
2287.619
2288.694
2289.769
2290.844
2291.919
2292.994
2294.069
2295.144
2296.219
2297.294
2298.369
2299.444
2300.519
2301.594
2302.669
2303.744
2304.819
2305.894
2306.969
2308.044
2309.119
2310.879
2312.638
2314.398
2316.157
2317.917
2319.676
2321.436
2323.195
2324.955
2326.714
2328.474
2330.233
2331.993
2333.752
2335.512
2337.271
2339.031
2340.790
2342.550
2344.309
2346.069
2347.828
2349.588
2351.347
2353.107
2354.866
2356.626
2358.385
2360.145
2361.904
2363.664
2365.423
2367.183
2368.942
2370.702
2372.461
2374.221
2375.980
2377.740
2379.499
2381.259
2383.018
2384.778
2386.537
2388.297
2390.056
2391.816
2393.575
2395.335
2397.094
2398.854
2400.613
2402.373
2404.132
2405.892
2407.651
2409.411
2411.170
2412.930
2414.689
2416.449
2418.208
2419.968
2421.727
2423.487
2425.246
2427.006
2428.765
2430.525
2432.284
2434.044
2435.803
2437.563
2439.322
2441.082
2442.841
2444.601
2446.360
2448.120
2449.879
2451.639
2453.398
2455.158
2456.917
2458.677
2460.436
2462.196
2463.955
2465.715
2467.474
2469.234
2470.993
2472.753
2474.512
2476.272
2478.031
2479.791
2481.550
2483.310
2485.069
2486.829
2488.588
2490.348
2492.107
2493.867
2495.626
2497.386
2499.145
2500.905
2502.664
2504.424
2506.183
2507.943
2509.702
2511.462
2513.221
2514.981
2516.740
2518.500
2520.259
2522.019
2523.778
2525.538
2527.297
2529.057
2530.816
2532.576
2534.335
2536.095
2537.854
2539.614
2541.373
2543.133
2544.892
2546.652
2548.411
2550.171
2551.930
2553.690
2555.449
2557.209
2558.968
2560.728
2562.487
2564.247
2566.006
2567.766
2569.525
2571.285
2573.044
2574.804
2576.563
2578.323
2580.082
2581.842
2583.601
2585.361
2587.120
2588.880
2590.639
2592.399
2594.158
2595.918
2597.677
2599.437
2601.196
2602.956
2604.715
2606.475
2608.234
2609.994
2611.753
2613.513
2615.272
2617.032
2618.791
2620.551
2622.310
2624.070
2625.829
2627.589
2629.348
2631.108
2632.867
2634.627
2636.386
2638.146
2639.905
2641.665
2643.424
2645.184
2646.943
2648.703
2650.462
2652.222
2653.981
2655.741
2657.500
2659.260
2661.019
2657.256
2653.493
2649.730
2645.967
2642.204
2638.441
2634.678
2630.915
2627.152
2623.389
2619.626
2615.863
2612.100
2608.337
2604.574
2600.811
2597.048
2593.285
2589.522
2585.759
2581.996
2578.233
2574.470
2570.707
2566.944
2563.181
2559.418
2555.655
2551.892
2548.129
2544.366
2540.603
2536.840
2533.077
2529.314
2525.551
2521.788
2518.025
2514.262
2510.499
2506.736
2502.973
2499.210
2495.447
2491.684
2487.921
2484.158
2480.395
2476.632
2472.869
2469.106
2465.343
2461.580
2457.817
2454.054
2450.291
2446.528
2442.765
2439.002
2435.239
2431.476
2427.713
2423.950
2420.187
2416.424
2412.661
2408.898
2405.135
2401.372
2397.609
2393.846
2390.083
2386.320
2382.557
2378.794
2375.031
2371.268
2367.505
2363.742
2359.979
2356.216
2352.453
2348.690
2344.927
2341.164
2337.401
2333.638
2329.875
2326.112
2322.349
2318.586
2314.823
2311.060
2307.297
2303.534
2299.771
2296.008
2292.245
2288.482
2284.719
2280.956
2277.193
2273.430
2269.667
2265.904
2262.141
2258.378
2254.615
2250.852
2247.089
2243.326
2239.563
2235.800
2232.037
2228.274
2224.511
2220.748
2216.985
2213.222
2209.459
2205.696
2201.933
2198.170
2194.407
2190.644
2186.881
2183.118
2179.355
2175.592
2171.829
2168.066
2164.303
2160.540
2156.777
2153.014
2149.251
2145.488
2141.725
2137.962
2134.199
2130.436
2126.673
2122.910
2119.147
2115.384
2111.621
2107.858
2104.095
2100.332
2096.569
2092.806
2089.043
2085.280
2081.517
2077.754
2073.991
2070.228
2066.465
2062.702
2058.939
2055.176
2051.413
2047.650
2043.887
2040.124
2036.361
2032.598
2028.835
2025.072
2021.309
2017.546
2013.783
2010.020
2006.257
2002.494
1998.731
1994.968
1991.205
1987.442
1983.679
1979.916
1976.153
1972.390
1968.627
1964.864
1961.101
1957.338
1953.575
1949.812
1946.049
1942.286
1938.523
1934.760
1930.997
1927.234
1923.471
1919.708
1915.945
1912.182
1908.419
1906.684
1904.948
1903.213
1901.477
1899.742
1898.006
1896.271
1894.535
1892.800
1891.064
1889.329
1887.593
1885.858
1884.122
1882.387
1880.651
1878.916
1877.180
1875.445
1873.709
1871.974
1870.238
1868.503
1866.767
1865.032
1863.296
1861.561
1859.825
1858.090
1856.354
1854.619
1852.883
1851.148
1849.412
1847.677
1845.941
1844.206
1842.470
1840.735
1838.999
1837.264
1835.528
1833.793
1832.057
1830.322
1828.586
1826.851
1825.115
1823.380
1821.644
1819.909
1818.173
1816.438
1814.702
1812.967
1811.231
1809.496
1807.760
1806.025
1804.289
1802.554
1800.818
1799.083
1797.347
1795.612
1793.876
1792.141
1790.405
1788.670
1786.934
1785.199
1783.463
1781.728
1779.992
1778.257
1776.521
1774.786
1773.050
1771.315
1769.579
1767.844
1766.108
1764.373
1762.637
1760.902
1759.166
1757.431
1755.695
1753.960
1752.224
1750.489
1748.753
1747.018
1745.282
1743.547
1741.811
1740.076
1738.340
1736.605
1734.869
1733.134
1731.398
1729.663
1727.927
1726.192
1724.456
1722.721
1720.985
1719.250
1717.514
1715.779
1714.043
1712.308
1710.572
1708.837
1707.101
1705.366
1703.630
1701.895
1700.159
1698.424
1696.688
1694.953
1693.217
1691.482
1689.746
1688.011
1686.275
1684.540
1682.804
1681.069
1679.333
1677.598
1675.862
1674.127
1672.391
1670.656
1668.920
1667.185
1665.449
1663.714
1661.978
1660.243
1658.507
1656.772
1655.036
1653.301
1651.565
1649.830
1648.094
1646.359
1644.623
1642.888
1641.152
1639.417
1637.681
1635.946
1634.210
1632.475
1630.739
1629.004
1627.268
1625.533
1623.797
1622.062
1620.326
1618.591
1616.855
1615.120
1613.384
1611.649
1609.913
1608.178
1606.442
1604.707
1602.971
1601.236
1599.500
1597.765
1596.029
1594.294
1592.558
1590.823
1589.087
1587.352
1585.616
1583.881
1582.145
1580.410
1578.674
1576.939
1575.203
1573.468
1571.732
1569.997
1568.261
1566.526
1564.790
1563.055
1561.319
1564.056
1566.793
1569.530
1572.267
1575.004
1577.741
1580.478
1583.215
1585.952
1588.689
1591.426
1594.163
1596.900
1599.637
1602.374
1605.111
1607.848
1610.585
1613.322
1616.059
1618.796
1621.533
1624.270
1627.007
1629.744
1632.481
1635.218
1637.955
1640.692
1643.429
1646.166
1648.903
1651.640
1654.377
1657.114
1659.851
1662.588
1665.325
1668.062
1670.799
1673.536
1676.273
1679.010
1681.747
1684.484
1687.221
1689.958
1692.695
1695.432
1698.169
1700.906
1703.643
1706.380
1709.117
1711.854
1714.591
1717.328
1720.065
1722.802
1725.539
1728.276
1731.013
1733.750
1736.487
1739.224
1741.961
1744.698
1747.435
1750.172
1752.909
1755.646
1758.383
1761.120
1763.857
1766.594
1769.331
1772.068
1774.805
1777.542
1780.279
1783.016
1785.753
1788.490
1791.227
1793.964
1796.701
1799.438
1802.175
1804.912
1807.649
1810.386
1813.123
1815.860
1818.597
1821.334
1824.071
1826.808
1829.545
1832.282
1835.019
1837.756
1840.493
1843.230
1845.967
1848.704
1851.441
1854.178
1856.915
1859.652
1862.389
1865.126
1867.863
1870.600
1873.337
1876.074
1878.811
1881.548
1884.285
1887.022
1889.759
1892.496
1895.233
1897.970
1900.707
1903.444
1906.181
1908.918
1911.655
1914.392
1917.129
1919.866
1922.603
1925.340
1928.077
1930.814
1933.551
1936.288
1939.025
1941.762
1944.499
1947.236
1949.973
1952.710
1955.447
1958.184
1960.921
1963.658
1966.395
1969.132
1971.869
1974.606
1977.343
1980.080
1982.817
1985.554
1988.291
1991.028
1993.765
1996.502
1999.239
2001.976
2004.713
2007.450
2010.187
2012.924
2015.661
2018.398
2021.135
2023.872
2026.609
2029.346
2032.083
2034.820
2037.557
2040.294
2043.031
2045.768
2048.505
2051.242
2053.979
2056.716
2059.453
2062.190
2064.927
2067.664
2070.401
2073.138
2075.875
2078.612
2081.349
2084.086
2086.823
2089.560
2092.297
2095.034
2097.771
2100.508
2103.245
2105.982
