297.915
300.603
303.291
305.979
308.667
311.355
314.043
316.731
319.419
322.107
324.795
327.483
330.171
332.859
335.547
338.235
340.923
343.611
346.299
348.987
351.675
354.363
357.051
359.739
362.427
365.115
367.803
370.491
373.179
375.867
378.555
381.243
383.931
386.619
389.307
391.995
394.683
397.371
400.059
402.747
405.435
408.123
410.811
413.499
416.187
418.875
421.563
424.251
426.939
429.627
432.315
435.003
437.691
440.379
443.067
445.755
448.443
451.131
453.819
456.507
459.195
461.883
464.571
467.259
469.947
472.635
475.323
478.011
480.699
483.387
486.075
488.763
491.451
494.139
496.827
499.515
502.203
504.891
507.579
510.267
512.955
515.643
518.331
521.019
523.707
526.395
529.083
531.771
534.459
537.147
539.835
542.523
545.211
547.899
550.587
553.275
555.963
558.651
561.339
564.027
566.715
569.403
572.091
574.779
577.467
580.155
582.843
585.531
588.219
590.907
593.595
596.283
598.971
601.659
604.347
607.035
609.723
612.411
615.099
617.787
620.475
623.163
625.851
628.539
631.227
633.915
636.603
639.291
641.979
644.667
647.355
650.043
652.731
655.419
658.107
660.795
663.483
666.171
668.859
671.547
674.235
676.923
679.611
682.299
684.987
687.675
690.363
693.051
695.739
698.427
701.115
703.803
706.491
709.179
711.867
714.555
717.243
719.931
722.619
725.307
727.995
730.683
733.371
736.059
738.747
741.435
744.123
746.811
749.499
752.187
754.875
757.563
760.251
762.939
765.627
768.315
771.003
773.691
776.379
779.067
781.755
784.443
787.131
789.819
792.507
795.195
797.883
800.571
803.259
805.947
808.635
811.323
814.011
816.699
819.387
822.075
824.763
827.451
830.139
832.827
835.515
838.081
840.647
843.213
845.779
848.345
850.911
853.477
856.043
858.609
861.175
863.741
866.307
868.873
871.439
874.005
876.571
879.137
881.703
884.269
886.835
889.401
891.967
894.533
897.099
899.665
902.231
904.797
907.363
909.929
912.495
915.061
917.627
920.193
922.759
925.325
927.891
930.457
933.023
935.589
938.155
940.721
943.287
945.853
948.419
950.985
953.551
956.117
958.683
961.249
963.815
966.381
968.947
971.513
974.079
976.645
979.211
981.777
984.343
986.909
989.475
992.041
994.607
997.173
999.739
1002.305
1004.871
1007.437
1010.003
1012.569
1015.135
1017.701
1020.267
1022.833
1025.399
1027.965
1030.531
1033.097
1035.663
1038.229
1040.795
1043.361
1045.927
1048.493
1051.059
1053.625
1056.191
1058.757
1061.323
1063.889
1066.455
1069.021
1071.587
1074.153
1076.719
1079.285
1081.851
1084.417
1086.983
1089.549
1092.115
1094.681
1097.247
1099.813
1102.379
1104.945
1107.511
1110.077
1112.643
1115.209
1117.775
1120.341
1122.907
1125.473
1128.039
1130.605
1133.171
1135.737
1138.303
1140.869
1143.435
1146.001
1148.567
1151.133
1153.699
1156.265
1158.831
1161.397
1163.963
1166.529
1169.095
1171.661
1174.227
1176.793
1179.359
1181.925
1184.491
1187.057
1189.623
1192.189
1194.755
1197.321
1199.887
1202.453
1205.019
1207.585
1210.151
1212.717
1215.283
1217.849
1220.415
1222.981
1225.547
1228.113
1230.679
1233.245
1235.811
1238.377
1240.943
1243.509
1246.075
1248.641
1251.207
1253.773
1256.339
1258.905
1261.471
1264.037
1266.603
1269.169
1271.735
1274.301
1276.867
1279.433
1281.999
1284.565
1287.131
1289.697
1292.263
1294.829
1297.395
1299.961
1302.527
1305.093
1307.659
1310.225
1312.791
1315.357
1317.923
1320.489
1323.055
1325.621
1328.187
1330.753
1333.319
1335.885
1338.451
1341.017
1343.583
1346.149
1348.715
1351.135
1353.554
1355.974
1358.393
1360.813
1363.232
1365.652
1368.071
1370.491
1372.910
1375.330
1377.749
1380.169
1382.588
1385.008
1387.427
1389.847
1392.266
1394.686
1397.105
1399.525
1401.944
1404.364
1406.783
1409.203
1411.622
1414.042
1416.461
1418.881
1421.300
1423.720
1426.139
1428.559
1430.978
1433.398
1435.817
1438.237
1440.656
1443.076
1445.495
1447.915
1450.334
1452.754
1455.173
1457.593
1460.012
1462.432
1464.851
1467.271
1469.690
1472.110
1474.529
1476.949
1479.368
1481.788
1484.207
1486.627
1489.046
1491.466
1493.885
1496.305
1498.724
1501.144
1503.563
1505.983
1508.402
1510.822
1513.241
1515.661
1518.080
1520.500
1522.919
1525.339
1527.758
1530.178
1532.597
1535.017
1537.436
1539.856
1542.275
1544.695
1547.114
1549.534
1551.953
1554.373
1556.792
1559.212
1561.631
1564.051
1566.470
1568.890
1571.309
1573.729
1576.148
1578.568
1580.987
1583.407
1585.826
1588.246
1590.665
1593.085
1595.504
1597.924
1600.343
1602.763
1605.182
1607.602
1610.021
1612.441
1614.860
1617.280
1619.699
1622.119
1624.538
1626.958
1629.377
1631.797
1634.216
1636.636
1639.055
1641.475
1643.894
1646.314
1648.733
1651.153
1653.572
1655.992
1658.411
1660.831
1663.250
1665.670
1668.089
1670.509
1672.928
1675.348
1677.767
1680.187
1682.606
1685.026
1687.445
1689.865
1692.284
1694.704
1697.123
1699.543
1701.962
1704.382
1706.801
1709.221
1711.640
1714.060
1716.479
1718.899
1721.318
1723.738
1726.157
1728.577
1730.996
1733.416
1735.835
1738.255
1740.674
1743.094
1745.513
1747.933
1750.352
1752.772
1755.191
1757.611
1760.030
1762.450
1764.869
1767.289
1769.708
1772.128
1774.547
1776.967
1779.386
1781.806
1784.225
1786.645
1789.064
1791.484
1793.903
1796.323
1798.742
1801.162
1803.581
1806.001
1808.420
1810.840
1813.259
1815.679
1818.098
1820.518
1822.937
1825.357
1827.776
1830.196
1832.615
1833.422
1834.228
1835.035
1835.841
1836.648
1837.454
1838.261
1839.067
1839.874
1840.680
1841.487
1842.293
1843.100
1843.906
1844.713
1845.519
1846.326
1847.132
1847.939
1848.745
1849.552
1850.358
1851.165
1851.971
1852.778
1853.584
1854.391
1855.197
1856.004
1856.810
1857.617
1858.423
1859.230
1860.036
1860.843
1861.649
1862.456
1863.262
1864.069
1864.875
1865.682
1866.488
1867.295
1868.101
1868.908
1869.714
1870.521
1871.327
1872.134
1872.940
1873.747
1874.553
1875.360
1876.166
1876.973
1877.779
1878.586
1879.392
1880.199
1881.005
1881.812
1882.618
1883.425
1884.231
1885.038
1885.844
1886.651
1887.457
1888.264
1889.070
1889.877
1890.683
1891.490
1892.296
1893.103
1893.909
1894.716
1895.522
1896.329
1897.135
1897.942
1898.748
1899.555
1900.361
1901.168
1901.974
1902.781
1903.587
1904.394
1905.200
1906.007
1906.813
1907.620
1908.426
1909.233
1910.039
1910.846
1911.652
1912.459
1913.265
1914.072
1914.878
1915.685
1916.491
1917.298
1918.104
1918.911
1919.717
1920.524
1921.330
1922.137
1922.943
1923.750
1924.556
1925.363
1926.169
1926.976
1927.782
1928.589
1929.395
1930.202
1931.008
1931.815
1932.621
1933.428
1934.234
1935.041
1935.847
1936.654
1937.460
1938.267
1939.073
1939.880
1940.686
1941.493
1942.299
1943.106
1943.912
1944.719
1945.525
1946.332
1947.138
1947.945
1948.751
1949.558
1950.364
1951.171
1951.977
1952.784
1953.590
1954.397
1955.203
1956.010
1956.816
1957.623
1958.429
1959.236
1960.042
1960.849
1961.655
1962.462
1963.268
1964.075
1964.881
1965.688
1966.494
1967.301
1968.107
1968.914
1969.720
1970.527
1971.333
1972.140
1972.946
1973.753
1974.559
1975.366
1976.172
1976.979
1977.785
1978.592
1979.398
1980.205
1981.011
1981.818
1982.624
1983.431
1984.237
1985.044
1985.850
1986.657
1987.463
1988.270
1989.076
1989.883
1990.689
1991.496
1992.302
1993.109
1993.915
1994.990
1996.065
1997.140
1998.215
1999.290
2000.365
2001.440
2002.515
2003.590
2004.665
2005.740
2006.815
2007.890
2008.965
2010.040
2011.115
2012.190
2013.265
2014.340
2015.415
2016.490
2017.565
2018.640
2019.715
2020.790
2021.865
2022.940
2024.015
2025.090
2026.165
2027.240
2028.315
2029.390
2030.465
2031.540
2032.615
2033.690
2034.765
2035.840
2036.915
2037.990
2039.065
2040.140
2041.215
2042.290
2043.365
2044.440
2045.515
2046.590
2047.665
2048.740
2049.815
2050.890
2051.965
2053.040
2054.115
2055.190
2056.265
2057.340
2058.415
2059.490
2060.565
2061.640
2062.715
2063.790
2064.865
2065.940
2067.015
2068.090
2069.165
2070.240
2071.315
2072.390
2073.465
2074.540
2075.615
2076.690
2077.765
2078.840
2079.915
2080.990
2082.065
2083.140
2084.215
2085.290
2086.365
2087.440
2088.515
2089.590
2090.665
2091.740
2092.815
2093.890
2094.965
2096.040
2097.115
2098.190
2099.265
2100.340
2101.415
2102.490
2103.565
2104.640
2105.715
2106.790
2107.865
2108.940
2110.015
2111.090
2112.165
2113.240
2114.315
2115.390
2116.465
2117.540
2118.615
2119.690
2120.765
2121.840
2122.915
2123.990
2125.065
2126.140
2127.215
2128.290
2129.365
2130.440
2131.515
2132.590
2133.665
2134.740
2135.815
2136.890
2137.965
2139.040
2140.115
2141.190
2142.265
2143.340
2144.415
2145.490
2146.565
2147.640
2148.715
2149.790
2150.865
2151.940
2153.015
2154.090
2155.165
2156.240
2157.315
2158.390
2159.465
2160.540
2161.615
2162.690
2163.765
2164.840
2165.915
2166.990
2168.065
2169.140
2170.215
2171.290
2172.365
2173.440
2174.515
2175.590
2176.665
2177.740
2178.815
2179.890
2180.965
2182.040
2183.115
2184.190
2185.265
2186.340
2187.415
2188.490
2189.565
2190.640
2191.715
2192.790
2193.865
2194.940
2196.015
2197.090
2198.165
2199.240
2200.315
2201.390
2202.465
2203.540
2204.615
2205.690
2206.765
2207.840
2208.915
2208.524
2208.133
2207.742
2207.351
2206.960
2206.569
2206.178
2205.787
2205.396
2205.005
2204.614
2204.223
2203.832
2203.441
2203.050
2202.659
2202.268
2201.877
2201.486
2201.095
2200.704
2200.313
2199.922
2199.531
2199.140
2198.749
2198.358
2197.967
2197.576
2197.185
2196.794
2196.403
2196.012
2195.621
2195.230
2194.839
2194.448
2194.057
2193.666
2193.275
2192.884
2192.493
2192.102
2191.711
2191.320
2190.929
2190.538
2190.147
2189.756
2189.365
2188.974
2188.583
2188.192
2187.801
2187.410
2187.019
2186.628
2186.237
2185.846
2185.455
2185.064
2184.673
2184.282
2183.891
2183.500
2183.109
2182.718
2182.327
2181.936
2181.545
2181.154
2180.763
2180.372
2179.981
2179.590
2179.199
2178.808
2178.417
2178.026
2177.635
2177.244
2176.853
2176.462
2176.071
2175.680
2175.289
2174.898
2174.507
2174.116
2173.725
2173.334
2172.943
2172.552
2172.161
2171.770
2171.379
2170.988
2170.597
2170.206
2169.815
2169.424
2169.033
2168.642
2168.251
2167.860
2167.469
2167.078
2166.687
2166.296
2165.905
2165.514
2165.123
2164.732
2164.341
2163.950
2163.559
2163.168
2162.777
2162.386
2161.995
2161.604
2161.213
2160.822
2160.431
2160.040
2159.649
2159.258
2158.867
2158.476
2158.085
2157.694
2157.303
2156.912
2156.521
2156.130
2155.739
2155.348
2154.957
2154.566
2154.175
2153.784
2153.393
2153.002
2152.611
2152.220
2151.829
2151.438
2151.047
2150.656
2150.265
2149.874
2149.483
2149.092
2148.701
2148.310
2147.919
2147.528
2147.137
2146.746
2146.355
2145.964
2145.573
2145.182
2144.791
2144.400
2144.009
2143.618
2143.227
2142.836
2142.445
2142.054
2141.663
2141.272
2140.881
2140.490
2140.099
2139.708
2139.317
2138.926
2138.535
2138.144
2137.753
2137.362
2136.971
2136.580
2136.189
2135.798
2135.407
2135.016
2134.625
2134.234
2133.843
2133.452
2133.061
2132.670
2132.279
2131.888
2131.497
2131.106
2130.715
2129.982
2129.249
2128.516
2127.783
2127.050
2126.317
2125.584
2124.851
2124.118
2123.385
2122.652
2121.919
2121.186
2120.453
2119.720
2118.987
2118.254
2117.521
2116.788
2116.055
2115.322
2114.589
2113.856
2113.123
2112.390
2111.657
2110.924
2110.191
2109.458
2108.725
2107.992
2107.259
2106.526
2105.793
2105.060
2104.327
2103.594
2102.861
2102.128
2101.395
2100.662
2099.929
2099.196
2098.463
2097.730
2096.997
2096.264
2095.531
2094.798
2094.065
2093.332
2092.599
2091.866
2091.133
2090.400
2089.667
2088.934
2088.201
2087.468
2086.735
2086.002
2085.269
2084.536
2083.803
2083.070
2082.337
2081.604
2080.871
2080.138
2079.405
2078.672
2077.939
2077.206
2076.473
2075.740
2075.007
2074.274
2073.541
2072.808
2072.075
2071.342
2070.609
2069.876
2069.143
2068.410
2067.677
2066.944
2066.211
2065.478
2064.745
2064.012
2063.279
2062.546
2061.813
2061.080
2060.347
2059.614
2058.881
2058.148
2057.415
2056.682
2055.949
2055.216
2054.483
2053.750
2053.017
2052.284
2051.551
2050.818
2050.085
2049.352
2048.619
2047.886
2047.153
2046.420
2045.687
2044.954
2044.221
2043.488
2042.755
2042.022
2041.289
2040.556
2039.823
2039.090
2038.357
2037.624
2036.891
2036.158
2035.425
2034.692
2033.959
2033.226
2032.493
2031.760
2031.027
2030.294
2029.561
2028.828
2028.095
2027.362
2026.629
2025.896
2025.163
2024.430
2023.697
2022.964
2022.231
2021.498
2020.765
2020.032
2019.299
2018.566
2017.833
2017.100
2016.367
2015.634
2014.901
2014.168
2013.435
2012.702
2011.969
2011.236
2010.503
2009.770
2009.037
2008.304
2007.571
2006.838
2006.105
2005.372
2004.639
2003.906
2003.173
2002.440
2001.707
2000.974
2000.241
1999.508
1998.775
1998.042
1997.309
1996.576
1995.843
1995.110
1994.377
1993.644
1992.911
1992.178
1991.445
1990.712
1989.979
1989.246
1988.513
1987.780
1987.047
1986.314
1985.581
1984.848
1984.115
1982.209
1980.303
1978.397
1976.491
1974.585
1972.679
1970.773
1968.867
1966.961
1965.055
1963.149
1961.243
1959.337
1957.431
1955.525
1953.619
1951.713
1949.807
1947.901
1945.995
1944.089
1942.183
1940.277
1938.371
1936.465
1934.559
1932.653
1930.747
1928.841
1926.935
1925.029
1923.123
1921.217
1919.311
1917.405
1915.499
1913.593
1911.687
1909.781
1907.875
1905.969
1904.063
1902.157
1900.251
1898.345
1896.439
1894.533
1892.627
1890.721
1888.815
1886.909
1885.003
1883.097
1881.191
1879.285
1877.379
1875.473
1873.567
1871.661
1869.755
1867.849
1865.943
1864.037
1862.131
1860.225
1858.319
1856.413
1854.507
1852.601
1850.695
1848.789
1846.883
1844.977
1843.071
1841.165
1839.259
1837.353
1835.447
1833.541
1831.635
1829.729
1827.823
1825.917
1824.011
1822.105
1820.199
1818.293
1816.387
1814.481
1812.575
1810.669
1808.763
1806.857
1804.951
1803.045
1801.139
1799.233
1797.327
1795.421
1793.515
1791.609
1789.703
1787.797
1785.891
1783.985
1782.079
1780.173
1778.267
1776.361
1774.455
1772.549
1770.643
1768.737
1766.831
1764.925
1763.019
1761.113
1759.207
1757.301
1755.395
1753.489
1751.583
1749.677
1747.771
1745.865
1743.959
1742.053
1740.147
1738.241
1736.335
1734.429
1732.523
1730.617
1728.711
1726.805
1724.899
1722.993
1721.087
1719.181
1717.275
1715.369
1713.463
1711.557
1709.651
1707.745
1705.839
1703.933
1702.027
1700.121
1698.215
1696.309
1694.403
1692.497
1690.591
1688.685
1686.779
1684.873
1682.967
1681.061
1679.155
1677.249
1675.343
1673.437
1671.531
1669.625
1667.719
1665.813
1663.907
1662.001
1660.095
1658.189
1656.283
1654.377
1652.471
1650.565
1648.659
1646.753
1644.847
1642.941
1641.035
1639.129
1637.223
1635.317
1633.411
1631.505
1629.599
1627.693
1625.787
1623.881
1621.975
1620.069
1618.163
1616.257
1614.351
1612.445
1610.539
1608.633
1606.727
1604.821
1602.915
1602.695
1602.475
1602.255
1602.035
1601.815
1601.595
1601.375
1601.155
1600.935
1600.715
1600.495
1600.275
1600.055
1599.835
1599.615
1599.395
1599.175
1598.955
1598.735
1598.515
1598.295
1598.075
1597.855
1597.635
1597.415
1597.195
1596.975
1596.755
1596.535
1596.315
1596.095
1595.875
1595.655
1595.435
1595.215
1594.995
1594.775
1594.555
1594.335
1594.115
1593.895
1593.675
1593.455
1593.235
1593.015
1592.795
1592.575
1592.355
1592.135
1591.915
1591.695
1591.475
1591.255
1591.035
1590.815
1590.595
1590.375
1590.155
1589.935
1589.715
1589.495
1589.275
1589.055
1588.835
1588.615
1588.395
1588.175
1587.955
1587.735
1587.515
1587.295
1587.075
1586.855
1586.635
1586.415
1586.195
1585.975
1585.755
1585.535
1585.315
1585.095
1584.875
1584.655
1584.435
1584.215
1583.995
1583.775
1583.555
1583.335
1583.115
1582.895
1582.675
1582.455
1582.235
1582.015
1581.795
1581.575
1581.355
1581.135
1580.915
1580.695
1580.475
1580.255
1580.035
1579.815
1579.595
1579.375
1579.155
1578.935
1578.715
1578.495
1578.275
1578.055
1577.835
1577.615
1577.395
1577.175
1576.955
1576.735
1576.515
1576.295
1576.075
1575.855
1575.635
1575.415
1575.195
1574.975
1574.755
1574.535
1574.315
1574.095
1573.875
1573.655
1573.435
1573.215
1572.995
1572.775
1572.555
1572.335
1572.115
1571.895
1571.675
1571.455
1571.235
1571.015
1570.795
1570.575
1570.355
1570.135
1569.915
1569.695
1569.475
1569.255
1569.035
1568.815
1568.595
1568.375
1568.155
1567.935
1567.715
1567.495
1567.275
1567.055
1566.835
1566.615
1566.395
1566.175
1565.955
1565.735
1565.515
1565.295
1565.075
1564.855
1564.635
1564.415
1564.195
1563.975
1563.755
1563.535
1563.315
1563.095
1562.875
1562.655
1562.435
1562.215
1561.995
1561.775
1561.555
1561.335
1561.115
1560.895
1560.675
1560.455
1560.235
1560.015
1559.795
1559.575
1559.355
1559.135
1558.915
1562.190
1565.464
1568.739
1572.013
1575.288
1578.562
1581.837
1585.111
1588.386
1591.660
1594.935
1598.209
1601.484
1604.758
1608.033
1611.307
1614.582
1617.856
1621.131
1624.405
1627.680
1630.954
1634.229
1637.503
1640.778
1644.052
1647.327
1650.601
1653.876
1657.150
1660.425
1663.699
1666.974
1670.248
1673.523
1676.797
1680.072
1683.346
1686.621
1689.895
1693.170
1696.444
1699.719
1702.993
1706.268
1709.542
1712.817
1716.091
1719.366
1722.640
1725.915
1729.189
1732.464
1735.738
1739.013
1742.287
1745.562
1748.836
1752.111
1755.385
1758.660
1761.934
1765.209
1768.483
1771.758
1775.032
1778.307
1781.581
1784.856
1788.130
1791.405
1794.679
1797.954
1801.228
1804.503
1807.777
1811.052
1814.326
1817.601
1820.875
1824.150
1827.424
1830.699
1833.973
1837.248
1840.522
1843.797
1847.071
1850.346
1853.620
1856.895
1860.169
1863.444
1866.718
1869.993
1873.267
1876.542
1879.816
1883.091
1886.365
1889.640
1892.914
1896.189
1899.463
1902.738
1906.012
1909.287
1912.561
1915.836
1919.110
1922.385
1925.659
1928.934
1932.208
1935.483
1938.757
1942.032
1945.306
1948.581
1951.855
1955.130
1958.404
1961.679
1964.953
1968.228
1971.502
1974.777
1978.051
1981.326
1984.600
1987.875
1991.149
1994.424
1997.698
2000.973
2004.247
2007.522
2010.796
2014.071
2017.345
2020.620
2023.894
2027.169
2030.443
2033.718
2036.992
2040.267
2043.541
2046.816
2050.090
2053.365
2056.639
2059.914
2063.188
2066.463
2069.737
2073.012
2076.286
2079.561
2082.835
2086.110
2089.384
2092.659
2095.933
2099.208
2102.482
2105.757
2109.031
2112.306
2115.580
2118.855
2122.129
2125.404
2128.678
2131.953
2135.227
2138.502
2141.776
2145.051
2148.325
2151.600
2154.874
2158.149
2161.423
2164.698
2167.972
2171.247
2174.521
2177.796
2181.070
2184.345
2187.619
2190.894
2194.168
2197.443
2200.717
2203.992
2207.266
2210.541
