316.288
319.269
322.251
325.232
328.214
331.195
334.177
337.158
340.140
343.121
346.103
349.084
352.066
355.047
358.029
361.010
363.992
366.973
369.955
372.936
375.918
378.899
381.881
384.862
387.844
390.825
393.807
396.788
399.770
402.751
405.733
408.714
411.696
414.677
417.659
420.640
423.622
426.603
429.585
432.566
435.548
438.529
441.511
444.492
447.474
450.455
453.437
456.418
459.400
462.381
465.363
468.344
471.326
474.307
477.289
480.270
483.252
486.233
489.215
492.196
495.178
498.159
501.141
504.122
507.104
510.085
513.067
516.048
519.030
522.011
524.993
527.974
530.956
533.937
536.919
539.900
542.882
545.863
548.845
551.826
554.808
557.789
560.771
563.752
566.734
569.715
572.697
575.678
578.660
581.641
584.623
587.604
590.586
593.567
596.549
599.530
602.512
605.493
608.475
611.456
614.438
617.419
620.401
623.382
626.364
629.345
632.327
635.308
638.290
641.271
644.253
647.234
650.216
653.197
656.179
659.160
662.142
665.123
668.105
671.086
674.068
677.049
680.031
683.012
685.994
688.975
691.957
694.938
697.920
700.901
703.883
706.864
709.846
712.827
715.809
718.790
721.772
724.753
727.735
730.716
733.698
736.679
739.661
742.642
745.624
748.605
751.587
754.568
757.550
760.531
763.513
766.494
769.476
772.457
775.439
778.420
781.402
784.383
787.365
790.346
793.328
796.309
799.291
802.272
805.254
808.235
811.217
814.198
817.180
820.161
823.143
826.124
829.106
832.087
835.069
838.050
841.032
844.013
846.995
849.976
852.958
855.939
858.921
861.902
864.884
867.865
870.847
873.828
876.810
879.791
882.773
885.754
888.736
891.717
894.699
897.680
900.662
903.643
906.625
909.606
912.588
914.421
916.254
918.087
919.920
921.753
923.586
925.419
927.252
929.085
930.918
932.751
934.584
936.417
938.250
940.083
941.916
943.749
945.582
947.415
949.248
951.081
952.914
954.747
956.580
958.413
960.246
962.079
963.912
965.745
967.578
969.411
971.244
973.077
974.910
976.743
978.576
980.409
982.242
984.075
985.908
987.741
989.574
991.407
993.240
995.073
996.906
998.739
1000.572
1002.405
1004.238
1006.071
1007.904
1009.737
1011.570
1013.403
1015.236
1017.069
1018.902
1020.735
1022.568
1024.401
1026.234
1028.067
1029.900
1031.733
1033.566
1035.399
1037.232
1039.065
1040.898
1042.731
1044.564
1046.397
1048.230
1050.063
1051.896
1053.729
1055.562
1057.395
1059.228
1061.061
1062.894
1064.727
1066.560
1068.393
1070.226
1072.059
1073.892
1075.725
1077.558
1079.391
1081.224
1083.057
1084.890
1086.723
1088.556
1090.389
1092.222
1094.055
1095.888
1097.721
1099.554
1101.387
1103.220
1105.053
1106.886
1108.719
1110.552
1112.385
1114.218
1116.051
1117.884
1119.717
1121.550
1123.383
1125.216
1127.049
1128.882
1130.715
1132.548
1134.381
1136.214
1138.047
1139.880
1141.713
1143.546
1145.379
1147.212
1149.045
1150.878
1152.711
1154.544
1156.377
1158.210
1160.043
1161.876
1163.709
1165.542
1167.375
1169.208
1171.041
1172.874
1174.707
1176.540
1178.373
1180.206
1182.039
1183.872
1185.705
1187.538
1189.371
1191.204
1193.037
1194.870
1196.703
1198.536
1200.369
1202.202
1204.035
1205.868
1207.701
1209.534
1211.367
1213.200
1215.033
1216.866
1218.699
1220.532
1222.365
1224.198
1226.031
1227.864
1229.697
1231.530
1233.363
1235.196
1237.029
1238.862
1240.695
1242.528
1244.361
1246.194
1248.027
1249.860
1251.693
1253.526
1255.359
1257.192
1259.025
1260.858
1262.691
1264.524
1266.357
1268.190
1270.023
1271.856
1273.689
1275.522
1277.355
1279.188
1284.906
1290.625
1296.343
1302.062
1307.780
1313.499
1319.217
1324.936
1330.654
1336.373
1342.091
1347.810
1353.528
1359.247
1364.965
1370.684
1376.402
1382.121
1387.839
1393.558
1399.276
1404.995
1410.713
1416.432
1422.150
1427.869
1433.587
1439.306
1445.024
1450.743
1456.461
1462.180
1467.898
1473.617
1479.335
1485.054
1490.772
1496.491
1502.209
1507.928
1513.646
1519.365
1525.083
1530.802
1536.520
1542.239
1547.957
1553.676
1559.394
1565.113
1570.831
1576.550
1582.268
1587.987
1593.705
1599.424
1605.142
1610.861
1616.579
1622.298
1628.016
1633.735
1639.453
1645.172
1650.890
1656.609
1662.327
1668.046
1673.764
1679.483
1685.201
1690.920
1696.638
1702.357
1708.075
1713.794
1719.512
1725.231
1730.949
1736.668
1742.386
1748.105
1753.823
1759.542
1765.260
1770.979
1776.697
1782.416
1788.134
1793.853
1799.571
1805.290
1811.008
1816.727
1822.445
1828.164
1833.882
1839.601
1845.319
1851.038
1856.756
1862.475
1868.193
1873.912
1879.630
1885.349
1891.067
1896.786
1902.504
1908.223
1913.941
1919.660
1925.378
1931.097
1936.815
1942.534
1948.252
1953.971
1959.689
1965.408
1971.126
1976.845
1982.563
1988.282
1994.000
1999.719
2005.437
2011.156
2016.874
2022.593
2028.311
2034.030
2039.748
2045.467
2051.185
2056.904
2062.622
2068.341
2074.059
2079.778
2085.496
2091.215
2096.933
2102.652
2108.370
2114.089
2119.807
2125.526
2131.244
2136.963
2142.681
2148.400
2154.118
2159.837
2165.555
2171.274
2176.992
2182.711
2188.429
2194.148
2199.866
2205.585
2211.303
2217.022
2222.740
2228.459
2234.177
2239.896
2245.614
2251.333
2257.051
2262.770
2268.488
2274.207
2279.925
2285.644
2291.362
2297.081
2302.799
2308.518
2314.236
2319.955
2325.673
2331.392
2337.110
2342.829
2348.547
2354.266
2359.984
2365.703
2371.421
2377.140
2382.858
2388.577
2394.295
2400.014
2405.732
2411.451
2417.169
2422.888
2419.222
2415.556
2411.890
2408.224
2404.558
2400.892
2397.226
2393.560
2389.894
2386.228
2382.562
2378.896
2375.230
2371.564
2367.898
2364.232
2360.566
2356.900
2353.234
2349.568
2345.902
2342.236
2338.570
2334.904
2331.238
2327.572
2323.906
2320.240
2316.574
2312.908
2309.242
2305.576
2301.910
2298.244
2294.578
2290.912
2287.246
2283.580
2279.914
2276.248
2272.582
2268.916
2265.250
2261.584
2257.918
2254.252
2250.586
2246.920
2243.254
2239.588
2235.922
2232.256
2228.590
2224.924
2221.258
2217.592
2213.926
2210.260
2206.594
2202.928
2199.262
2195.596
2191.930
2188.264
2184.598
2180.932
2177.266
2173.600
2169.934
2166.268
2162.602
2158.936
2155.270
2151.604
2147.938
2144.272
2140.606
2136.940
2133.274
2129.608
2125.942
2122.276
2118.610
2114.944
2111.278
2107.612
2103.946
2100.280
2096.614
2092.948
2089.282
2085.616
2081.950
2078.284
2074.618
2070.952
2067.286
2063.620
2059.954
2056.288
2052.622
2048.956
2045.290
2041.624
2037.958
2034.292
2030.626
2026.960
2023.294
2019.628
2015.962
2012.296
2008.630
2004.964
2001.298
1997.632
1993.966
1990.300
1986.634
1982.968
1979.302
1975.636
1971.970
1968.304
1964.638
1960.972
1957.306
1953.640
1949.974
1946.308
1942.642
1938.976
1935.310
1931.644
1927.978
1924.312
1920.646
1916.980
1913.314
1909.648
1905.982
1902.316
1898.650
1894.984
1891.318
1887.652
1883.986
1880.320
1876.654
1872.988
1869.322
1865.656
1861.990
1858.324
1854.658
1850.992
1847.326
1843.660
1839.994
1836.328
1832.662
1828.996
1825.330
1821.664
1817.998
1814.332
1810.666
1807.000
1803.334
1799.668
1796.002
1792.336
1788.670
1785.004
1781.338
1777.672
1774.006
1770.340
1766.674
1763.008
1759.342
1755.676
1752.010
1748.344
1744.678
1741.012
1737.346
1733.680
1730.014
1726.348
1722.682
1719.016
1715.350
1711.684
1708.018
1704.352
1700.686
1697.020
1693.354
1689.688
1691.716
1693.745
1695.773
1697.802
1699.830
1701.859
1703.887
1705.916
1707.944
1709.973
1712.001
1714.030
1716.058
1718.087
1720.115
1722.144
1724.172
1726.201
1728.229
1730.258
1732.286
1734.315
1736.343
1738.372
1740.400
1742.429
1744.457
1746.486
1748.514
1750.543
1752.571
1754.600
1756.628
1758.657
1760.685
1762.714
1764.742
1766.771
1768.799
1770.828
1772.856
1774.885
1776.913
1778.942
1780.970
1782.999
1785.027
1787.056
1789.084
1791.113
1793.141
1795.170
1797.198
1799.227
1801.255
1803.284
1805.312
1807.341
1809.369
1811.398
1813.426
1815.455
1817.483
1819.512
1821.540
1823.569
1825.597
1827.626
1829.654
1831.683
1833.711
1835.740
1837.768
1839.797
1841.825
1843.854
1845.882
1847.911
1849.939
1851.968
1853.996
1856.025
1858.053
1860.082
1862.110
1864.139
1866.167
1868.196
1870.224
1872.253
1874.281
1876.310
1878.338
1880.367
1882.395
1884.424
1886.452
1888.481
1890.509
1892.538
1894.566
1896.595
1898.623
1900.652
1902.680
1904.709
1906.737
1908.766
1910.794
1912.823
1914.851
1916.880
1918.908
1920.937
1922.965
1924.994
1927.022
1929.051
1931.079
1933.108
1935.136
1937.165
1939.193
1941.222
1943.250
1945.279
1947.307
1949.336
1951.364
1953.393
1955.421
1957.450
1959.478
1961.507
1963.535
1965.564
1967.592
1969.621
1971.649
1973.678
1975.706
1977.735
1979.763
1981.792
1983.820
1985.849
1987.877
1989.906
1991.934
1993.963
1995.991
1998.020
2000.048
2002.077
2004.105
2006.134
2008.162
2010.191
2012.219
2014.248
2016.276
2018.305
2020.333
2022.362
2024.390
2026.419
2028.447
2030.476
2032.504
2034.533
2036.561
2038.590
2040.618
2042.647
2044.675
2046.704
2048.732
2050.761
2052.789
2054.818
2056.846
2058.875
2060.903
2062.932
2064.960
2066.989
2069.017
2071.046
2073.074
2075.103
2077.131
2079.160
2081.188
2083.217
2085.245
2087.274
2089.302
2091.331
2093.359
2095.388
2096.463
2097.538
2098.613
2099.688
2100.763
2101.838
2102.913
2103.988
2105.063
2106.138
2107.213
2108.288
2109.363
2110.438
2111.513
2112.588
2113.663
2114.738
2115.813
2116.888
2117.963
2119.038
2120.113
2121.188
2122.263
2123.338
2124.413
2125.488
2126.563
2127.638
2128.713
2129.788
2130.863
2131.938
2133.013
2134.088
2135.163
2136.238
2137.313
2138.388
2139.463
2140.538
2141.613
2142.688
2143.763
2144.838
2145.913
2146.988
2148.063
2149.138
2150.213
2151.288
2152.363
2153.438
2154.513
2155.588
2156.663
2157.738
2158.813
2159.888
2160.963
2162.038
2163.113
2164.188
2165.263
2166.338
2167.413
2168.488
2169.563
2170.638
2171.713
2172.788
2173.863
2174.938
2176.013
2177.088
2178.163
2179.238
2180.313
2181.388
2182.463
2183.538
2184.613
2185.688
2186.763
2187.838
2188.913
2189.988
2191.063
2192.138
2193.213
2194.288
2195.363
2196.438
2197.513
2198.588
2199.663
2200.738
2201.813
2202.888
2203.963
2205.038
2206.113
2207.188
2208.263
2209.338
2210.413
2211.488
2212.563
2213.638
2214.713
2215.788
2216.863
2217.938
2219.013
2220.088
2221.163
2222.238
2223.313
2224.388
2225.463
2226.538
2227.613
2228.688
2229.763
2230.838
2231.913
2232.988
2234.063
2235.138
2236.213
2237.288
2238.363
2239.438
2240.513
2241.588
2242.663
2243.738
2244.813
2245.888
2246.963
2248.038
2249.113
2250.188
2251.263
2252.338
2253.413
2254.488
2255.563
2256.638
2257.713
2258.788
2259.863
2260.938
2262.013
2263.088
2264.163
2265.238
2266.313
2267.388
2268.463
2269.538
2270.613
2271.688
2272.763
2273.838
2274.913
2275.988
2277.063
2278.138
2279.213
2280.288
2281.363
2282.438
2283.513
2284.588
2285.663
2286.738
2287.813
2288.888
2289.963
2291.038
2292.113
2293.188
2294.263
2295.338
2296.413
2297.488
2298.563
2299.638
2300.713
2301.788
2302.863
2303.938
2305.013
2306.088
2307.163
2308.238
2309.313
2310.388
2312.147
2313.907
2315.666
2317.426
2319.185
2320.945
2322.704
2324.464
2326.223
2327.983
2329.742
2331.502
2333.261
2335.021
2336.780
2338.540
2340.299
2342.059
2343.818
2345.578
2347.337
2349.097
2350.856
2352.616
2354.375
2356.135
2357.894
2359.654
2361.413
2363.173
2364.932
2366.692
2368.451
2370.211
2371.970
2373.730
2375.489
2377.249
2379.008
2380.768
2382.527
2384.287
2386.046
2387.806
2389.565
2391.325
2393.084
2394.844
2396.603
2398.363
2400.122
2401.882
2403.641
2405.401
2407.160
2408.920
2410.679
2412.439
2414.198
2415.958
2417.717
2419.477
2421.236
2422.996
2424.755
2426.515
2428.274
2430.034
2431.793
2433.553
2435.312
2437.072
2438.831
2440.591
2442.350
2444.110
2445.869
2447.629
2449.388
2451.148
2452.907
2454.667
2456.426
2458.186
2459.945
2461.705
2463.464
2465.224
2466.983
2468.743
2470.502
2472.262
2474.021
2475.781
2477.540
2479.300
2481.059
2482.819
2484.578
2486.338
2488.097
2489.857
2491.616
2493.376
2495.135
2496.895
2498.654
2500.414
2502.173
2503.933
2505.692
2507.452
2509.211
2510.971
2512.730
2514.490
2516.249
2518.009
2519.768
2521.528
2523.287
2525.047
2526.806
2528.566
2530.325
2532.085
2533.844
2535.604
2537.363
2539.123
2540.882
2542.642
2544.401
2546.161
2547.920
2549.680
2551.439
2553.199
2554.958
2556.718
2558.477
2560.237
2561.996
2563.756
2565.515
2567.275
2569.034
2570.794
2572.553
2574.313
2576.072
2577.832
2579.591
2581.351
2583.110
2584.870
2586.629
2588.389
2590.148
2591.908
2593.667
2595.427
2597.186
2598.946
2600.705
2602.465
2604.224
2605.984
2607.743
2609.503
2611.262
2613.022
2614.781
2616.541
2618.300
2620.060
2621.819
2623.579
2625.338
2627.098
2628.857
2630.617
2632.376
2634.136
2635.895
2637.655
2639.414
2641.174
2642.933
2644.693
2646.452
2648.212
2649.971
2651.731
2653.490
2655.250
2657.009
2658.769
2660.528
2662.288
2658.525
2654.762
2650.999
2647.236
2643.473
2639.710
2635.947
2632.184
2628.421
2624.658
2620.895
2617.132
2613.369
2609.606
2605.843
2602.080
2598.317
2594.554
2590.791
2587.028
2583.265
2579.502
2575.739
2571.976
2568.213
2564.450
2560.687
2556.924
2553.161
2549.398
2545.635
2541.872
2538.109
2534.346
2530.583
2526.820
2523.057
2519.294
2515.531
2511.768
2508.005
2504.242
2500.479
2496.716
2492.953
2489.190
2485.427
2481.664
2477.901
2474.138
2470.375
2466.612
2462.849
2459.086
2455.323
2451.560
2447.797
2444.034
2440.271
2436.508
2432.745
2428.982
2425.219
2421.456
2417.693
2413.930
2410.167
2406.404
2402.641
2398.878
2395.115
2391.352
2387.589
2383.826
2380.063
2376.300
2372.537
2368.774
2365.011
2361.248
2357.485
2353.722
2349.959
2346.196
2342.433
2338.670
2334.907
2331.144
2327.381
2323.618
2319.855
2316.092
2312.329
2308.566
2304.803
2301.040
2297.277
2293.514
2289.751
2285.988
2282.225
2278.462
2274.699
2270.936
2267.173
2263.410
2259.647
2255.884
2252.121
2248.358
2244.595
2240.832
2237.069
2233.306
2229.543
2225.780
2222.017
2218.254
2214.491
2210.728
2206.965
2203.202
2199.439
2195.676
2191.913
2188.150
2184.387
2180.624
2176.861
2173.098
2169.335
2165.572
2161.809
2158.046
2154.283
2150.520
2146.757
2142.994
2139.231
2135.468
2131.705
2127.942
2124.179
2120.416
2116.653
2112.890
2109.127
2105.364
2101.601
2097.838
2094.075
2090.312
2086.549
2082.786
2079.023
2075.260
2071.497
2067.734
2063.971
2060.208
2056.445
2052.682
2048.919
2045.156
2041.393
2037.630
2033.867
2030.104
2026.341
2022.578
2018.815
2015.052
2011.289
2007.526
2003.763
2000.000
1996.237
1992.474
1988.711
1984.948
1981.185
1977.422
1973.659
1969.896
1966.133
1962.370
1958.607
1954.844
1951.081
1947.318
1943.555
1939.792
1936.029
1932.266
1928.503
1924.740
1920.977
1917.214
1913.451
1909.688
1907.952
1906.217
1904.481
1902.746
1901.010
1899.275
1897.539
1895.804
1894.068
1892.333
1890.597
1888.862
1887.126
1885.391
1883.655
1881.920
1880.184
1878.449
1876.713
1874.978
1873.242
1871.507
1869.771
1868.036
1866.300
1864.565
1862.829
1861.094
1859.358
1857.623
1855.887
1854.152
1852.416
1850.681
1848.945
1847.210
1845.474
1843.739
1842.003
1840.268
1838.532
1836.797
1835.061
1833.326
1831.590
1829.855
1828.119
1826.384
1824.648
1822.913
1821.177
1819.442
1817.706
1815.971
1814.235
1812.500
1810.764
1809.029
1807.293
1805.558
1803.822
1802.087
1800.351
1798.616
1796.880
1795.145
1793.409
1791.674
1789.938
1788.203
1786.467
1784.732
1782.996
1781.261
1779.525
1777.790
1776.054
1774.319
1772.583
1770.848
1769.112
1767.377
1765.641
1763.906
1762.170
1760.435
1758.699
1756.964
1755.228
1753.493
1751.757
1750.022
1748.286
1746.551
1744.815
1743.080
1741.344
1739.609
1737.873
1736.138
1734.402
1732.667
1730.931
1729.196
1727.460
1725.725
1723.989
1722.254
1720.518
1718.783
1717.047
1715.312
1713.576
1711.841
1710.105
1708.370
1706.634
1704.899
1703.163
1701.428
1699.692
1697.957
1696.221
1694.486
1692.750
1691.015
1689.279
1687.544
1685.808
1684.073
1682.337
1680.602
1678.866
1677.131
1675.395
1673.660
1671.924
1670.189
1668.453
1666.718
1664.982
1663.247
1661.511
1659.776
1658.040
1656.305
1654.569
1652.834
1651.098
1649.363
1647.627
1645.892
1644.156
1642.421
1640.685
1638.950
1637.214
1635.479
1633.743
1632.008
1630.272
1628.537
1626.801
1625.066
1623.330
1621.595
1619.859
1618.124
1616.388
1614.653
1612.917
1611.182
1609.446
1607.711
1605.975
1604.240
1602.504
1600.769
1599.033
1597.298
1595.562
1593.827
1592.091
1590.356
1588.620
1586.885
1585.149
1583.414
1581.678
1579.943
1578.207
1576.472
1574.736
1573.001
1571.265
1569.530
1567.794
1566.059
1564.323
1562.588
1565.325
1568.062
1570.799
1573.536
1576.273
1579.010
1581.747
1584.484
1587.221
1589.958
1592.695
1595.432
1598.169
1600.906
1603.643
1606.380
1609.117
1611.854
1614.591
1617.328
1620.065
1622.802
1625.539
1628.276
1631.013
1633.750
1636.487
1639.224
1641.961
1644.698
1647.435
1650.172
1652.909
1655.646
1658.383
1661.120
1663.857
1666.594
1669.331
1672.068
1674.805
1677.542
1680.279
1683.016
1685.753
1688.490
1691.227
1693.964
1696.701
1699.438
1702.175
1704.912
1707.649
1710.386
1713.123
1715.860
1718.597
1721.334
1724.071
1726.808
1729.545
1732.282
1735.019
1737.756
1740.493
1743.230
1745.967
1748.704
1751.441
1754.178
1756.915
1759.652
1762.389
1765.126
1767.863
1770.600
1773.337
1776.074
1778.811
1781.548
1784.285
1787.022
1789.759
1792.496
1795.233
1797.970
1800.707
1803.444
1806.181
1808.918
1811.655
1814.392
1817.129
1819.866
1822.603
1825.340
1828.077
1830.814
1833.551
1836.288
1839.025
1841.762
1844.499
1847.236
1849.973
1852.710
1855.447
1858.184
1860.921
1863.658
1866.395
1869.132
1871.869
1874.606
1877.343
1880.080
1882.817
1885.554
1888.291
1891.028
1893.765
1896.502
1899.239
1901.976
1904.713
1907.450
1910.187
1912.924
1915.661
1918.398
1921.135
1923.872
1926.609
1929.346
1932.083
1934.820
1937.557
1940.294
1943.031
1945.768
1948.505
1951.242
1953.979
1956.716
1959.453
1962.190
1964.927
1967.664
1970.401
1973.138
1975.875
1978.612
1981.349
1984.086
1986.823
1989.560
1992.297
1995.034
1997.771
2000.508
2003.245
2005.982
2008.719
2011.456
2014.193
2016.930
2019.667
2022.404
2025.141
2027.878
2030.615
2033.352
2036.089
2038.826
2041.563
2044.300
2047.037
2049.774
2052.511
2055.248
2057.985
2060.722
2063.459
2066.196
2068.933
2071.670
2074.407
2077.144
2079.881
2082.618
2085.355
2088.092
2090.829
2093.566
2096.303
2099.040
2101.777
2104.514
2107.251
