32.322
32.260
37.349
1419.259
1406.536
1400.232
1427.115
1410.904
1413.776
1411.924
1418.600
1403.118
1411.815
1399.850
1420.121
1420.485
1404.601
1398.530
1414.726
1410.375
1402.156
1413.210
1417.871
1410.003
1416.434
1411.211
1394.529
1410.381
1401.087
1418.372
1392.898
1418.011
1402.382
1394.175
1415.091
1405.730
1398.339
1393.379
1407.513
1393.543
1389.804
1394.174
1403.171
1413.455
1401.439
1404.871
1396.171
1412.126
1408.089
1399.736
1387.734
1404.577
1403.406
1413.271
1402.059
1408.228
1397.828
1407.970
1398.184
1402.388
1406.622
1410.949
1402.699
1402.403
1398.574
1398.557
1384.399
1407.926
1392.383
1387.572
1387.836
1408.493
1402.363
1398.210
1384.801
1391.233
1399.417
1389.092
1388.543
1395.613
1378.848
1392.061
1383.821
1382.620
1394.217
1385.588
1394.665
1375.435
1385.198
1377.523
1385.155
1391.022
1379.483
1375.921
1375.129
1390.794
1381.189
1396.815
1399.886
1374.219
1387.278
1377.762
1378.149
765.497
771.847
775.560
773.543
769.476
761.732
761.231
766.189
760.168
774.651
773.420
766.336
759.605
765.607
772.541
769.939
762.106
768.807
764.550
759.047
767.607
769.310
771.977
771.016
769.764
770.649
770.229
767.668
768.955
761.782
765.496
759.269
759.053
758.286
770.742
765.018
770.694
756.423
760.751
756.581
764.118
762.127
765.124
767.350
759.240
769.251
763.324
765.696
757.521
761.544
759.814
760.723
757.612
763.175
759.341
754.089
758.188
763.146
761.736
766.049
753.808
755.143
761.188
765.202
756.210
766.346
753.225
751.623
763.995
764.270
761.942
765.316
760.306
762.316
756.584
759.718
756.873
756.230
752.486
753.011
749.403
758.011
750.434
750.026
757.982
762.285
754.531
751.862
749.690
747.935
748.874
751.118
754.141
760.530
745.715
752.741
759.577
749.447
753.016
760.753
753.374
747.054
759.767
759.232
763.792
769.191
758.782
772.609
764.725
774.729
773.240
779.690
773.919
775.065
782.069
784.189
789.260
777.633
788.413
791.404
786.145
790.435
796.550
786.174
797.326
795.855
806.617
797.136
801.288
800.648
806.476
814.607
807.131
808.261
809.232
816.148
814.723
826.941
821.663
820.221
820.876
819.392
833.179
831.080
828.458
833.569
835.217
834.032
845.078
843.942
841.988
852.085
842.294
842.522
846.167
852.194
854.185
857.520
860.090
860.407
865.949
858.031
870.896
859.666
868.297
863.263
878.804
870.145
870.501
880.274
882.174
877.898
874.813
887.836
880.136
880.452
888.029
887.872
900.403
901.852
892.076
896.277
893.891
894.858
899.399
909.248
911.483
911.567
918.226
910.965
907.476
911.660
922.124
927.530
926.856
921.525
932.360
925.239
927.722
936.679
935.633
932.735
935.736
939.428
946.121
939.563
946.905
949.758
949.559
948.972
953.775
944.754
955.126
948.421
951.146
961.943
966.624
966.123
964.137
960.182
975.730
969.748
970.712
976.321
967.789
974.042
973.185
981.086
976.227
976.803
983.704
988.880
991.250
985.097
997.661
999.222
998.181
999.999
1000.594
1008.031
1004.090
1011.938
1011.220
1006.045
1012.915
1020.755
1017.082
1014.924
1025.865
1017.887
1022.000
1024.461
1019.481
1035.247
1029.169
1026.373
1028.271
1034.445
1029.972
1040.677
1047.461
1038.983
1041.267
1038.432
1052.657
1053.078
1053.051
1047.363
1055.288
1049.997
1062.293
1059.515
1060.940
1066.339
1073.118
1069.026
1076.713
1068.366
1071.476
1078.007
1078.011
1083.467
1074.056
1086.039
1076.995
1081.840
1090.423
1084.137
1092.978
1099.813
1100.781
1097.239
1094.189
1101.216
1098.878
1101.239
1098.694
1100.359
1113.389
1117.819
1113.727
1103.794
1105.586
1105.665
1097.480
1096.040
1096.341
1093.815
1102.843
1092.515
1088.081
1099.470
1098.104
1095.822
1078.560
1084.459
1080.602
1082.148
1082.992
1080.091
1072.827
1078.839
1072.051
1076.404
1075.087
1067.808
1059.870
1061.902
1052.992
1051.233
1055.199
1048.124
1052.741
1044.846
1049.031
1049.806
1040.677
1048.548
1048.743
1039.987
1045.653
1040.194
1026.459
1027.709
1033.922
1028.821
1027.904
1020.844
1018.905
1019.985
1020.277
1017.020
1022.990
1013.316
1019.015
1010.618
1013.409
1013.648
1003.400
1004.922
998.328
998.954
994.616
992.695
985.992
993.659
993.010
982.132
987.529
984.797
977.728
974.097
978.415
982.630
971.825
974.651
970.441
977.046
959.761
969.367
966.477
955.347
960.045
954.667
955.958
947.240
954.236
949.635
944.895
940.924
946.491
942.158
940.392
934.124
939.994
931.731
940.352
925.964
930.316
920.830
925.701
931.626
917.463
917.236
926.631
924.740
918.673
908.332
912.035
916.206
915.793
909.729
909.234
900.283
896.431
899.518
904.702
890.607
891.261
897.479
886.816
885.225
881.453
886.312
881.987
873.392
884.629
880.443
873.757
874.879
863.130
870.302
862.701
858.730
870.378
866.517
852.972
853.746
849.061
846.705
854.942
855.217
841.935
848.608
840.339
837.720
846.306
840.220
844.104
840.139
834.944
839.402
834.802
835.382
829.677
825.112
826.605
826.296
818.386
822.441
815.694
806.041
805.943
815.821
807.106
803.467
806.000
797.864
805.441
795.566
801.129
796.613
798.414
792.223
791.053
784.566
790.220
775.769
783.653
778.982
785.110
774.621
781.917
777.288
775.293
776.297
771.671
761.694
769.353
764.833
760.540
763.443
762.657
746.460
753.028
751.323
751.563
749.249
741.658
737.180
745.810
747.513
741.471
749.443
748.234
751.741
738.632
749.435
740.439
742.808
757.321
747.821
752.361
760.085
756.616
759.288
752.087
758.058
761.160
764.088
765.588
757.888
763.980
764.081
756.014
765.734
764.269
767.841
766.383
772.312
763.482
766.848
769.837
773.851
765.918
770.172
778.747
771.569
781.887
779.128
770.969
786.724
787.084
774.641
779.522
778.506
780.823
784.767
783.729
786.543
785.444
788.235
795.947
782.303
796.472
784.225
800.475
801.406
796.558
801.152
795.054
799.044
803.652
800.886
805.909
809.063
797.792
795.573
810.868
801.539
800.574
809.985
810.841
810.066
805.835
804.152
805.532
805.994
810.127
813.143
807.971
813.694
822.122
821.387
813.519
822.915
813.056
814.182
825.072
826.546
818.761
820.588
820.508
827.207
821.914
827.600
836.157
837.854
830.249
828.801
838.850
830.280
838.222
829.697
840.926
835.259
845.554
847.037
844.301
848.994
839.276
839.942
837.344
846.937
839.796
854.352
850.181
854.491
854.986
856.177
855.005
850.430
856.633
848.028
861.801
862.826
856.055
861.675
856.110
859.192
859.057
869.281
862.571
861.856
866.473
874.154
869.367
871.028
865.069
874.966
875.227
877.531
878.704
879.028
878.450
870.157
883.653
870.974
874.489
887.122
878.774
878.305
886.115
889.155
891.280
890.117
892.047
887.339
894.061
889.670
895.576
894.575
888.562
887.835
892.502
890.132
900.732
888.463
899.148
890.675
902.278
905.672
904.411
900.304
904.781
908.315
908.807
908.503
898.737
910.377
905.325
916.862
913.447
917.756
918.841
918.472
913.521
912.078
915.670
910.535
909.949
917.821
924.830
923.958
917.505
928.946
925.931
925.769
922.519
928.165
930.301
931.471
931.531
923.581
926.320
926.709
924.635
920.885
919.242
919.958
934.218
933.543
931.991
923.632
932.337
931.021
932.488
932.013
924.741
918.585
932.905
925.747
928.344
933.720
928.485
931.188
923.243
927.256
920.346
919.310
926.621
928.643
925.736
929.573
926.980
933.136
924.979
931.903
923.583
927.444
933.079
920.251
919.867
918.562
919.859
930.921
932.390
926.848
926.162
921.009
928.388
928.732
930.845
921.625
919.287
922.663
928.336
922.310
929.149
919.219
916.388
926.081
924.195
917.721
931.996
921.320
921.490
928.234
923.087
929.217
917.143
915.930
928.334
930.392
921.937
926.277
928.639
920.018
917.523
930.943
920.768
923.272
924.100
924.200
930.714
926.660
926.691
920.982
923.205
926.308
926.281
921.964
930.298
923.448
918.362
915.863
915.783
920.127
925.537
927.560
925.461
922.950
919.984
924.098
925.424
921.044
927.957
919.117
921.417
922.092
929.871
928.155
923.219
929.882
921.819
917.596
920.996
923.375
922.795
921.749
925.761
923.913
914.715
921.323
923.711
926.319
929.202
924.855
922.417
921.270
924.518
927.486
920.996
914.550
920.463
916.834
925.977
927.626
923.913
915.538
925.084
921.002
914.763
921.959
922.074
928.106
928.027
914.682
916.451
912.949
919.094
927.311
916.513
927.506
914.247
915.522
914.899
913.715
919.996
918.516
918.002
920.501
927.219
916.936
927.251
914.179
915.146
926.960
922.132
919.077
923.438
919.723
917.985
926.842
916.953
919.494
925.127
913.169
915.212
920.055
921.712
924.564
912.346
923.937
916.711
925.046
926.324
921.482
924.904
916.991
919.543
918.016
916.774
916.060
920.224
917.048
924.745
923.825
912.808
912.368
918.642
915.697
917.324
910.724
905.245
909.659
905.564
907.665
904.776
913.239
910.982
899.598
905.531
897.021
903.215
903.422
897.474
888.925
894.812
885.549
897.594
894.943
879.338
880.529
890.092
883.078
880.621
874.484
885.552
872.809
882.080
872.997
875.548
866.188
868.017
864.819
871.240
857.836
856.941
859.275
856.043
861.830
856.020
856.441
857.649
851.278
844.791
845.585
848.942
846.949
846.239
850.634
842.615
850.068
838.215
843.553
845.431
834.551
827.601
833.853
837.260
825.901
831.522
821.993
823.257
824.782
825.898
827.804
826.221
818.003
818.726
814.225
814.555
814.302
810.620
810.316
802.393
801.189
803.929
801.336
799.162
802.743
796.737
799.016
794.733
796.049
799.319
791.626
784.753
784.075
794.343
788.672
793.252
780.472
778.713
780.277
777.487
785.431
771.312
781.023
781.678
779.174
774.779
775.107
776.757
770.045
767.524
761.883
771.265
761.424
760.151
760.789
757.906
755.989
749.387
753.160
749.739
743.511
744.484
743.777
739.548
738.542
738.029
738.649
740.294
741.559
740.692
730.492
739.873
733.361
738.111
735.904
722.701
733.453
725.370
719.153
724.452
714.371
727.111
718.917
724.673
716.339
707.005
708.317
704.353
711.545
711.980
702.570
707.339
705.455
710.847
698.703
697.247
705.898
702.307
690.915
689.822
688.955
687.244
697.588
684.269
693.844
689.722
686.434
687.430
685.809
674.013
673.361
680.026
681.094
672.315
668.292
678.108
664.903
667.763
660.169
661.121
658.397
667.742
661.870
661.808
656.175
653.467
651.227
655.701
657.859
658.338
645.173
649.793
647.098
644.289
651.422
648.895
640.230
645.515
632.417
638.200
628.092
627.896
633.939
625.256
626.012
628.413
633.432
632.349
640.189
641.731
629.979
640.545
645.373
640.093
641.342
642.813
635.431
640.365
635.147
646.688
637.158
649.827
646.533
646.412
649.411
649.562
653.391
646.195
645.299
651.548
652.224
654.927
648.389
651.401
650.455
661.273
653.561
656.162
660.488
652.390
659.636
658.913
659.979
651.771
663.428
657.111
665.547
660.113
662.569
669.282
659.044
660.354
665.506
674.393
668.323
664.497
673.486
673.206
670.244
671.500
672.969
672.351
679.332
674.571
672.014
676.984
683.184
683.802
675.540
678.874
683.788
686.222
686.702
684.036
680.125
682.467
681.731
687.755
683.384
685.931
683.928
681.368
687.404
682.136
690.752
695.412
686.449
686.522
693.629
685.559
685.103
698.321
699.153
694.202
700.271
696.917
703.791
704.911
691.378
695.857
701.069
699.624
702.559
703.780
699.465
701.613
696.768
696.785
700.553
713.156
712.430
713.195
706.993
706.915
705.085
703.152
709.632
712.017
710.153
711.486
714.162
706.637
717.062
708.646
717.189
723.042
716.562
721.716
718.410
722.956
720.619
720.763
719.561
724.099
716.806
725.862
722.983
730.194
724.259
720.267
724.745
731.743
730.045
723.383
725.926
724.115
729.102
740.123
740.372
732.638
728.281
733.327
739.626
730.615
743.380
734.780
740.280
737.640
737.370
741.389
742.889
740.419
747.988
737.515
741.268
738.597
753.760
739.721
752.221
751.572
746.468
743.945
750.234
744.039
758.199
745.267
749.220
759.950
752.431
756.886
761.233
759.700
764.100
765.930
754.752
761.591
760.388
766.571
760.191
764.008
757.529
757.237
769.817
763.963
772.677
765.203
766.470
766.987
771.683
773.755
762.691
768.315
764.471
778.219
774.715
771.868
770.195
771.534
760.608
758.741
765.872
757.875
757.006
752.437
750.922
751.732
748.510
754.086
754.972
750.730
742.941
743.415
739.962
745.083
739.395
736.053
735.675
734.006
744.103
731.726
738.267
732.936
727.445
732.338
727.838
726.473
727.435
718.635
728.679
720.622
715.019
720.848
711.451
714.497
712.102
712.823
718.810
709.486
703.234
702.354
708.639
699.841
704.111
708.886
698.768
703.548
697.483
695.934
687.003
701.386
698.907
686.204
682.358
686.950
679.023
680.164
685.443
687.336
688.098
678.313
677.630
677.454
680.056
668.714
670.360
670.882
677.178
660.188
659.782
658.000
666.010
656.786
655.338
655.888
651.487
656.988
656.433
648.155
645.943
644.852
642.721
646.579
650.983
649.480
639.627
641.970
635.351
638.848
633.751
631.939
634.044
642.012
640.551
632.489
622.288
630.230
633.475
624.434
629.649
622.814
628.704
627.533
612.864
615.060
612.682
620.158
608.365
606.612
614.538
611.037
601.030
602.447
611.856
602.572
597.355
592.614
600.615
592.962
590.310
596.358
593.910
599.792
583.363
593.683
594.880
591.158
590.929
576.939
577.800
578.662
580.756
571.600
581.387
577.074
566.063
567.462
570.466
574.450
566.679
565.966
569.551
565.427
569.051
560.955
560.462
561.088
553.252
557.901
546.992
552.147
543.561
556.426
555.600
548.769
544.917
537.321
550.296
547.909
539.833
531.937
539.592
542.322
540.575
535.638
537.707
528.637
530.667
528.412
523.903
529.941
529.925
518.783
523.779
513.840
514.898
523.687
519.711
508.667
516.191
516.479
513.129
514.061
512.492
502.455
511.330
503.346
495.097
506.275
497.657
503.599
487.730
496.745
498.674
490.326
486.110
492.777
482.602
485.508
488.956
478.428
479.882
472.475
480.767
473.258
466.858
468.685
464.347
468.421
453.920
462.233
451.542
453.573
451.432
455.679
449.158
454.479
439.494
450.960
443.864
433.072
434.511
436.009
430.713
431.306
433.695
424.986
429.408
417.664
423.477
415.955
417.280
415.973
413.718
417.723
414.596
406.975
399.904
404.330
402.588
405.257
403.073
397.478
394.282
392.535
397.985
382.250
380.355
384.250
384.048
382.521
385.866
386.066
383.166
370.200
365.650
365.512
366.296
365.316
369.903
355.010
363.530
354.150
358.825
359.739
355.279
358.615
347.401
348.889
337.636
339.281
346.698
337.385
336.231
337.204
326.098
324.713
329.889
322.940
321.324
322.572
322.266
321.921
317.024
314.301
313.406
319.279
302.814
301.396
309.373
312.662
297.124
297.959
293.977
301.823
301.272
290.451
288.629
297.113
294.038
291.369
283.160
288.756
283.838
271.779
280.548
277.527
264.835
266.754
271.068
261.970
270.798
254.705
257.517
253.545
254.870
247.367
250.775
250.765
241.570
249.787
247.327
243.003
241.991
245.022
236.396
229.903
238.045
229.102
235.915
234.470
218.766
222.500
220.436
218.651
217.712
223.623
209.601
208.138
203.618
209.367
209.908
203.583
200.821
193.796
192.236
199.071
188.392
200.281
192.255
183.923
185.371
178.116
178.766
187.179
172.835
184.012
181.087
173.521
166.921
176.309
164.380
167.793
168.913
157.065
156.978
160.287
163.150
158.007
150.843
146.234
144.345
149.212
493.335
438.055
457.158
451.952
439.641
433.875
443.266
411.066
424.712
407.044
390.137
393.091
390.083
400.811
372.666
368.353
376.843
360.449
338.093
336.273
333.816
329.938
330.752
323.279
350.676
325.624
312.636
317.749
352.126
343.273
341.430
317.108
327.413
353.741
306.176
334.344
331.648
347.958
338.572
347.478
343.724
334.658
329.989
326.795
318.356
317.890
347.046
347.943
344.670
336.983
342.931
333.960
296.074
329.400
303.753
338.357
324.850
303.839
327.449
319.358
313.368
326.993
321.481
307.308
341.172
331.780
290.289
316.734
318.756
291.664
328.194
338.711
304.970
318.597
332.808
313.871
299.812
335.473
298.815
322.491
301.186
298.456
303.491
299.038
287.404
307.948
301.983
283.838
310.224
304.952
327.324
321.659
292.122
291.375
298.191
287.078
309.066
301.372
307.484
306.250
293.686
277.059
320.332
316.751
310.939
322.018
310.029
321.226
272.405
318.784
315.582
310.470
289.405
304.352
272.909
284.858
266.013
293.533
310.031
293.593
300.302
269.194
279.577
295.453
301.904
270.244
266.993
309.963
306.867
272.984
268.167
291.549
261.176
294.378
264.065
261.066
294.070
270.431
262.670
281.271
300.236
267.070
254.731
282.766
291.120
298.064
253.405
295.597
259.829
253.562
274.215
288.371
249.877
257.196
278.117
292.848
269.717
272.674
248.014
261.033
271.699
293.015
277.044
259.733
279.716
249.568
242.385
267.587
278.805
274.221
267.881
254.595
261.609
239.595
288.678
285.366
254.102
271.193
270.203
287.223
281.713
260.326
248.034
245.740
268.762
277.781
238.445
246.889
277.959
231.895
242.621
240.148
271.963
240.177
256.680
242.449
255.670
278.336
264.243
246.832
276.667
244.029
253.859
235.038
226.919
243.948
264.650
241.095
233.192
254.035
222.971
267.866
228.044
222.173
220.753
264.320
266.264
263.310
