137.805
130.115
107.674
122.048
118.575
120.629
100.882
98.489
127.435
136.429
101.712
143.101
140.691
97.244
123.977
128.402
125.096
134.036
113.705
121.667
127.708
122.221
146.355
96.724
127.433
109.530
109.383
109.437
141.312
135.895
127.273
122.931
121.746
100.386
136.911
120.588
101.981
122.085
138.261
106.521
130.734
140.815
104.643
102.505
101.401
103.745
118.719
144.566
104.520
140.373
125.383
96.529
107.859
111.252
105.394
95.704
139.556
97.861
126.829
95.058
114.929
146.054
124.393
113.033
119.144
140.515
118.116
110.354
122.259
128.316
110.867
127.591
111.237
103.548
104.450
132.026
137.598
99.019
130.288
113.299
123.400
116.093
107.954
118.771
111.682
131.526
134.447
133.080
117.530
109.922
144.579
136.907
142.717
128.392
123.995
146.518
129.591
122.472
130.202
112.988
132.468
112.750
116.383
115.764
112.946
125.430
134.481
101.091
114.471
131.888
114.875
143.795
125.908
138.367
128.552
112.095
145.559
125.011
109.318
101.821
141.820
128.291
144.115
127.519
122.923
99.583
96.600
106.593
125.435
132.383
105.248
124.519
118.869
139.050
131.902
134.844
145.274
112.330
112.066
115.348
137.161
101.356
126.581
129.539
107.093
100.923
125.865
131.393
95.743
97.215
133.798
127.663
101.237
98.137
97.833
118.280
134.363
141.865
101.615
133.546
103.607
141.433
100.073
104.119
141.755
137.033
127.791
128.959
122.494
122.179
102.720
113.470
143.887
106.336
98.804
97.351
142.214
114.955
105.341
100.303
134.589
118.926
98.537
117.975
117.090
95.407
142.137
112.678
134.368
100.479
124.755
116.188
116.393
129.862
102.105
106.108
134.688
107.367
141.975
136.082
123.125
134.332
127.382
130.350
105.638
133.563
133.012
130.241
97.131
135.208
123.427
123.054
135.117
122.889
121.075
112.704
107.106
138.227
112.923
115.486
133.372
138.462
120.491
120.767
127.725
126.520
141.164
142.152
124.121
99.102
97.360
109.526
34.948
39.123
43.445
43.486
31.844
33.822
42.060
42.612
39.215
44.220
42.905
37.558
42.067
38.187
34.121
35.938
44.296
40.004
39.105
42.686
29.355
43.548
37.337
31.125
37.109
32.189
44.089
36.434
29.829
41.772
30.829
42.590
37.126
29.571
39.966
31.194
36.567
41.617
44.481
30.816
40.658
906.927
921.918
928.196
927.880
935.434
951.978
942.618
938.176
945.501
960.069
973.091
953.181
970.891
980.177
979.346
977.330
979.958
998.589
999.456
1004.031
1008.737
1017.333
1015.057
1010.967
1030.771
1030.272
1018.321
1034.538
1035.118
1044.757
1028.142
1037.415
1043.002
1051.508
1058.289
1065.497
1066.594
1068.859
1063.827
1067.370
1073.544
1075.772
1092.047
1097.095
1106.534
1102.222
1103.382
1108.529
1125.443
1132.360
1116.601
1135.319
1130.048
1126.910
1136.689
1141.014
1148.772
1164.032
1143.003
1154.190
1154.998
1183.436
1180.967
1183.765
1173.671
1196.259
1184.834
1186.363
1198.234
1208.818
1192.507
1210.940
1211.885
1210.106
1215.655
1220.685
1228.091
1223.859
1242.067
1229.741
1253.830
1255.583
1249.017
1272.172
1269.509
1272.397
1277.180
1266.813
1287.408
1292.246
1299.165
1291.222
1306.826
1306.320
1297.973
1309.142
1311.168
1328.982
1329.061
1339.299
745.779
734.522
747.587
747.635
745.320
750.992
758.012
755.002
760.002
756.233
756.881
771.778
772.677
770.483
770.892
767.227
773.063
781.695
777.612
777.260
790.620
781.346
787.084
795.550
794.460
798.224
806.332
808.217
808.751
811.216
812.937
814.561
804.360
809.251
818.801
822.894
813.517
820.586
820.400
832.904
830.723
839.052
830.496
830.411
836.986
838.341
845.837
854.297
843.436
849.937
853.422
848.716
865.620
855.827
864.158
872.401
861.115
869.933
876.516
867.278
883.473
875.782
875.010
885.786
889.125
886.530
888.063
895.367
889.618
898.485
898.398
906.041
901.736
907.857
911.958
916.418
910.274
907.539
922.467
917.138
928.408
919.178
926.217
921.665
925.765
934.909
937.599
938.569
947.207
941.027
942.334
943.711
956.415
954.086
956.550
956.596
964.582
954.227
956.574
973.069
969.530
959.109
961.340
956.461
969.705
964.464
965.625
951.649
951.914
961.491
956.810
949.876
957.347
942.663
940.142
943.513
941.744
946.188
949.085
934.666
940.369
929.340
940.769
941.579
933.060
937.121
922.167
923.969
933.199
929.072
916.112
916.364
922.880
914.797
925.761
910.383
910.364
909.856
912.163
915.623
905.047
902.737
906.455
900.002
908.186
898.014
893.146
905.594
890.168
895.623
889.900
893.083
885.753
895.900
896.332
892.117
882.664
891.588
875.700
889.180
874.938
884.543
877.959
876.858
872.209
866.699
868.858
868.949
865.702
870.773
859.175
862.644
857.904
861.338
859.657
862.593
858.996
847.181
851.993
850.674
857.820
842.535
852.567
852.094
848.007
847.119
848.381
834.866
830.921
842.310
839.689
827.085
831.496
828.641
837.671
834.813
827.668
829.979
827.021
822.131
827.849
819.072
820.708
818.997
814.013
806.301
817.268
809.100
812.200
802.864
806.083
797.062
809.700
806.360
805.621
798.183
793.408
802.427
789.559
794.337
795.948
797.684
792.927
780.277
786.000
790.429
775.329
777.672
776.235
785.817
771.821
771.196
773.199
777.968
765.262
775.684
765.015
769.353
770.875
769.530
768.232
760.854
765.755
762.823
759.780
758.691
755.885
749.905
757.919
749.981
746.890
740.493
742.068
743.082
736.501
748.306
740.335
732.668
738.624
733.970
740.067
730.035
726.147
731.679
720.021
722.205
723.933
726.258
718.506
723.233
724.766
720.171
710.993
714.911
710.761
711.767
707.927
711.281
707.210
710.131
701.691
698.715
703.645
703.087
705.460
689.545
695.009
692.176
694.612
694.066
690.192
693.781
685.574
689.998
675.733
687.219
678.825
686.189
673.436
679.889
671.605
670.709
668.262
673.248
682.724
672.241
679.666
676.911
681.471
680.443
675.596
690.912
686.708
681.212
685.191
679.434
681.071
684.240
686.067
693.747
682.951
699.498
691.811
698.977
692.055
690.405
700.141
690.376
696.121
701.339
700.700
693.965
695.920
706.001
704.408
709.807
708.446
698.677
707.510
703.583
712.161
699.984
701.573
716.744
715.236
703.127
707.203
712.829
717.411
709.574
708.461
717.499
718.484
710.570
725.254
724.835
724.361
716.872
729.395
715.370
719.145
728.805
731.381
729.588
718.785
725.604
725.857
727.551
729.650
732.505
726.962
728.394
737.897
728.300
741.257
734.068
743.021
740.217
737.224
746.246
740.802
738.691
740.364
734.554
737.416
749.128
746.305
742.862
743.937
740.914
754.598
744.644
747.926
742.544
757.262
759.157
754.087
754.108
747.296
761.369
760.758
761.471
761.043
760.744
754.587
764.637
760.398
762.542
759.651
766.120
769.094
762.917
758.516
760.446
760.012
766.871
765.824
774.407
769.284
764.822
765.610
779.026
776.198
768.423
774.705
780.474
780.415
778.843
773.819
772.992
772.952
778.402
776.039
777.135
778.006
778.644
776.891
785.152
791.124
780.126
794.774
783.172
793.075
784.747
785.561
787.513
785.421
785.867
791.795
794.386
793.438
802.757
792.124
802.032
800.821
794.338
793.522
805.771
802.944
808.990
796.885
799.956
813.713
811.574
813.908
804.643
801.257
810.641
814.851
817.315
813.648
811.488
807.062
809.070
814.853
810.000
822.774
816.300
815.807
821.751
820.426
827.205
821.271
828.378
831.540
819.406
822.748
831.467
823.837
826.575
825.675
827.723
822.947
831.406
827.179
834.168
826.661
832.451
827.859
842.733
837.100
840.546
842.851
832.960
834.529
845.501
833.517
835.811
848.196
841.194
847.651
835.280
836.447
847.478
848.458
838.601
839.501
839.077
846.253
846.370
846.322
847.825
852.532
840.493
844.223
841.993
840.819
851.725
854.475
852.518
853.361
852.467
843.968
846.210
855.965
845.688
844.421
852.031
845.207
859.298
853.804
854.324
851.123
853.355
862.213
849.414
862.672
855.368
861.733
854.799
862.594
859.442
866.653
860.068
859.832
861.184
860.254
869.073
859.118
864.019
858.779
855.531
856.341
858.897
863.673
867.303
858.148
858.680
864.138
864.702
863.119
861.763
872.952
866.243
864.175
869.303
866.522
875.583
865.142
877.716
863.252
863.739
875.349
874.090
878.397
871.950
865.839
882.124
874.194
882.112
879.934
870.321
869.780
878.702
878.587
878.010
881.495
881.243
886.687
877.625
879.182
875.480
875.604
880.385
880.513
883.581
881.986
886.229
890.110
888.865
884.091
879.079
889.775
890.529
882.519
890.197
880.299
885.174
894.753
889.594
884.037
896.562
893.370
887.452
896.119
890.449
896.199
884.285
888.085
899.957
896.486
885.443
896.734
893.281
889.825
890.211
896.049
895.611
895.930
904.008
894.483
889.869
898.905
905.455
902.964
898.274
907.231
894.556
903.620
907.004
905.444
896.710
902.592
895.529
900.784
903.731
911.404
906.944
907.004
900.196
909.827
902.102
906.814
906.857
915.034
907.145
902.436
905.022
904.003
904.077
905.743
917.354
912.783
916.150
917.273
911.163
908.855
911.987
908.751
909.192
912.971
916.000
910.032
922.110
921.042
910.336
916.361
916.951
923.132
915.449
917.872
926.212
916.737
927.293
912.884
919.128
923.732
916.456
921.035
918.554
914.850
924.490
917.455
929.539
919.424
930.503
931.346
931.202
920.762
925.823
922.186
926.626
929.754
926.127
929.272
938.129
931.339
932.356
928.843
932.841
941.808
942.368
934.923
933.489
936.453
933.867
947.663
940.627
943.958
939.174
944.151
938.004
940.594
945.433
954.567
952.060
949.059
941.446
951.816
957.961
944.364
948.762
954.827
959.381
948.719
960.408
953.026
947.861
953.679
952.386
965.355
963.887
956.671
957.444
966.363
956.698
966.803
960.840
969.102
963.656
962.879
964.496
973.389
966.435
967.650
967.494
962.858
967.526
976.676
967.934
977.950
969.877
973.313
975.311
971.399
980.619
976.100
978.467
983.007
982.316
981.111
985.323
988.329
975.545
975.289
984.715
981.476
990.139
990.884
992.800
983.135
981.670
986.942
996.181
988.488
986.174
996.951
992.271
992.841
993.138
990.094
998.978
989.612
989.011
997.171
990.492
1003.818
999.507
1006.208
1006.729
1008.055
1001.416
1008.538
1000.297
999.148
999.013
1007.981
1000.140
998.846
1006.642
1004.250
1009.462
1001.408
1001.583
1008.610
1009.354
1004.945
1006.962
1012.309
1013.022
1007.442
1019.857
1009.958
1021.962
1021.744
1016.064
1021.223
1018.053
1018.859
1021.672
1016.716
1024.522
1027.199
1016.520
1026.198
1026.843
1023.286
1030.626
1027.400
1023.554
1030.959
1029.535
1036.162
1025.464
1034.713
1025.763
1027.397
1026.934
1040.299
1031.545
1039.355
1036.366
1041.996
1029.889
1041.102
1038.860
1037.449
1041.520
1045.767
1042.171
1044.051
1048.381
1048.457
1045.604
1045.920
1046.438
1047.614
1040.430
1045.523
1051.442
1046.012
1047.645
1046.045
1049.460
1051.612
1045.893
1055.379
1060.086
1047.667
1048.207
1062.764
1062.949
1064.171
1062.915
1058.983
1067.365
1059.003
1065.448
1054.718
1060.396
1058.421
1063.887
1065.427
1057.469
1064.253
1060.829
1062.445
1045.814
1046.709
1055.814
1053.241
1039.619
1042.156
1043.236
1045.080
1044.823
1032.218
1043.266
1031.235
1031.523
1033.633
1027.576
1034.862
1026.866
1021.586
1033.050
1031.238
1024.513
1013.705
1015.471
1022.581
1017.214
1023.094
1006.631
1005.930
1009.430
1015.767
1014.062
1007.438
1012.307
998.913
1000.549
994.202
1005.469
1002.703
1003.237
993.122
989.593
998.609
996.349
992.090
981.135
985.178
981.829
987.566
987.669
972.736
979.399
976.681
979.204
980.441
975.049
971.982
973.730
968.612
972.984
959.192
954.801
959.878
967.349
955.698
953.219
948.428
947.243
958.149
957.180
952.436
954.769
946.109
937.591
945.476
949.472
943.840
941.650
930.113
941.268
936.371
934.192
929.746
932.284
931.085
926.594
926.475
919.549
921.862
914.126
918.908
915.668
914.505
913.476
920.893
914.228
905.130
907.452
904.109
901.073
903.161
895.899
899.425
901.306
899.237
897.246
888.158
899.427
894.842
896.529
896.146
882.013
880.357
885.528
885.605
878.459
876.906
875.923
871.213
881.686
870.026
867.477
875.775
874.138
875.727
867.920
872.788
862.683
857.080
860.119
858.599
861.768
862.108
853.107
853.202
848.610
848.739
840.944
848.509
849.046
847.880
840.697
836.044
846.956
837.358
830.236
827.615
833.760
839.452
826.044
831.191
832.677
829.113
831.155
815.112
817.347
816.658
812.729
819.545
809.216
816.135
805.625
816.647
809.185
811.389
809.775
797.159
800.867
799.852
792.311
790.657
801.531
788.759
786.146
795.015
792.903
782.579
786.713
784.773
781.547
780.339
783.922
782.382
786.794
782.722
779.045
769.263
778.015
774.730
764.050
774.166
760.543
769.958
766.956
762.388
758.679
763.160
759.395
758.188
753.651
762.506
754.962
755.455
755.433
757.565
761.261
758.980
757.059
745.861
754.065
753.155
751.903
748.308
753.536
756.010
740.388
742.728
740.836
742.502
751.887
746.729
747.218
744.352
738.345
747.612
733.935
743.194
733.020
731.784
730.618
736.804
731.195
743.522
740.518
734.315
734.116
730.663
740.622
734.723
724.197
729.772
733.123
723.370
724.164
720.001
731.267
726.747
723.428
722.656
723.482
715.671
724.608
723.345
723.221
718.251
716.162
721.320
726.666
711.672
720.072
710.482
719.909
707.831
708.045
720.051
714.345
710.575
714.317
703.581
716.475
706.687
701.650
709.510
705.547
705.811
709.624
707.948
701.733
704.005
699.979
698.744
709.660
705.873
699.851
707.275
698.313
702.197
698.359
699.193
697.440
692.113
700.631
697.896
695.968
686.292
691.231
692.828
691.519
696.613
682.377
682.565
687.558
687.111
689.637
684.424
678.615
690.266
686.232
688.417
684.700
684.691
673.298
681.964
681.628
677.884
672.665
684.377
678.767
670.513
680.204
672.003
680.034
678.230
671.474
676.097
671.084
677.122
667.138
671.903
672.964
668.642
662.776
665.627
664.524
662.537
656.818
663.485
661.890
656.635
655.889
664.231
653.991
666.077
666.906
657.289
652.704
651.312
648.860
650.461
655.435
655.321
657.365
651.403
646.366
647.956
647.311
645.424
642.710
654.092
646.003
652.128
639.439
652.700
643.354
649.725
651.458
649.830
640.208
637.540
643.621
642.466
646.475
645.904
644.819
631.157
637.000
639.695
637.636
635.215
641.147
626.726
635.881
624.447
625.440
626.218
636.729
635.681
629.324
633.870
625.272
619.650
625.467
627.203
621.777
623.447
627.926
621.382
628.232
631.467
627.448
631.103
623.810
639.307
628.614
632.102
636.120
640.220
636.987
643.184
644.097
647.602
649.596
650.269
642.107
645.567
644.618
648.879
645.782
655.511
645.979
649.118
655.528
655.813
661.930
657.228
663.100
651.277
660.996
662.850
665.317
669.778
667.817
671.075
660.113
663.461
667.587
661.786
668.744
665.824
667.749
677.498
670.218
680.112
685.153
674.328
681.460
686.175
684.450
675.195
689.014
688.228
692.772
679.415
695.770
683.249
684.901
690.181
687.586
694.039
702.000
692.207
698.087
690.450
705.045
696.655
706.244
699.020
709.065
698.941
706.165
703.932
704.581
702.903
712.619
715.192
717.161
719.668
715.949
719.846
724.279
722.080
710.971
720.885
722.159
723.611
722.456
721.556
722.645
720.571
727.734
734.466
730.429
734.278
735.681
735.026
732.232
735.877
741.575
734.317
742.008
734.013
744.154
737.742
749.368
743.231
744.382
739.452
749.684
756.012
753.652
747.508
744.764
747.541
750.973
753.133
751.640
757.035
755.033
754.719
758.706
760.512
763.283
760.313
761.526
769.453
759.786
775.920
766.241
776.329
769.147
769.882
773.197
767.980
779.694
781.791
773.332
786.497
778.233
786.032
784.258
785.984
778.947
789.154
794.178
794.805
785.409
782.506
795.637
784.972
788.349
798.674
802.144
796.300
790.110
802.479
797.041
802.701
803.096
795.215
801.267
802.174
811.625
804.436
807.250
802.530
812.382
818.926
809.636
816.669
820.139
808.529
811.247
815.945
813.791
818.577
814.969
817.367
822.432
827.746
833.685
833.624
832.898
825.987
823.054
831.717
829.243
838.363
829.136
838.079
842.538
831.114
841.702
842.413
844.830
838.866
843.583
851.827
851.667
840.853
850.860
844.128
855.011
845.286
853.721
849.418
851.150
861.931
850.506
858.887
866.080
851.763
864.702
856.776
868.752
863.086
858.856
870.741
869.384
868.959
875.317
870.244
876.852
866.624
878.492
879.980
868.093
873.273
873.217
883.401
885.118
875.924
879.527
883.956
890.800
891.554
883.667
891.409
884.152
883.344
887.089
895.136
897.974
887.352
901.517
887.092
900.504
890.746
895.885
898.898
896.666
902.023
909.216
910.626
897.969
907.237
913.546
909.828
904.628
903.164
904.859
911.422
920.591
918.777
920.809
910.981
919.874
915.822
914.915
924.823
923.111
929.969
917.474
925.796
928.711
931.897
930.598
921.955
921.544
934.708
926.005
925.313
936.723
928.132
933.068
932.764
933.183
938.350
944.206
948.136
949.281
943.874
939.769
951.791
944.006
949.153
942.270
952.676
954.012
948.533
952.588
951.972
954.595
953.736
959.881
964.920
956.922
965.908
953.158
965.131
969.715
960.769
959.561
970.039
961.177
960.268
974.913
970.041
968.783
975.590
970.752
980.612
