98.349
103.795
109.070
94.132
111.037
98.506
101.003
120.496
89.095
107.816
108.869
98.869
84.547
127.048
107.186
90.449
117.907
116.141
123.926
90.814
102.052
105.950
104.334
90.375
113.361
127.343
91.386
86.439
94.575
101.824
86.125
121.189
108.534
117.013
97.065
99.561
121.468
95.556
126.819
127.483
124.786
104.876
101.618
99.944
98.854
98.805
123.042
89.696
122.613
115.077
108.243
97.859
111.727
122.694
104.371
115.505
123.028
90.242
87.495
88.590
92.141
113.933
108.517
93.609
91.265
84.242
99.783
91.008
124.156
120.341
113.656
108.018
89.062
116.256
101.027
106.554
126.203
91.015
128.717
125.122
110.596
100.526
101.223
113.952
120.887
118.797
91.576
84.241
98.027
123.049
115.758
125.340
111.171
120.637
97.532
111.646
124.950
113.960
105.233
83.980
118.639
112.585
102.287
95.969
105.676
110.833
111.552
128.338
112.208
87.484
88.096
85.045
121.373
99.338
119.019
114.379
87.708
93.758
92.260
109.600
86.038
97.410
115.599
87.309
126.082
84.968
95.930
100.677
91.144
124.328
89.632
114.303
124.892
90.347
124.770
88.926
103.118
127.972
117.845
118.779
98.457
105.612
90.171
97.387
84.313
123.280
126.321
117.661
108.102
124.697
87.308
111.724
97.613
118.622
120.515
114.539
107.096
123.068
98.161
108.902
103.228
116.887
126.733
128.500
100.517
92.103
113.340
125.741
105.076
97.391
85.557
123.256
119.314
107.938
115.095
92.510
90.331
124.987
95.059
119.191
106.870
104.198
111.867
101.698
103.384
99.537
88.754
109.477
115.668
92.298
84.995
91.438
109.221
94.613
119.123
115.311
97.823
108.864
101.143
129.734
87.534
122.778
117.707
105.028
121.983
114.635
104.414
98.165
126.668
129.288
103.512
124.418
100.400
107.263
102.926
93.211
110.346
118.124
103.115
115.137
113.839
120.136
119.811
125.878
95.165
110.425
111.927
108.916
121.320
87.958
110.305
96.437
86.099
114.750
125.677
123.825
116.495
121.371
92.915
105.303
116.004
123.738
109.695
120.934
104.673
95.809
111.726
99.547
114.940
104.035
105.413
85.892
94.167
115.594
85.186
125.217
125.693
94.165
98.598
108.709
101.743
106.131
125.925
123.707
120.359
100.803
122.801
118.575
87.433
98.282
103.446
126.637
98.105
100.771
111.145
123.071
122.016
85.808
94.530
89.728
84.755
117.956
128.966
126.360
122.377
129.314
115.859
121.635
117.000
119.029
115.783
111.791
129.649
107.842
2063.859
2044.616
2036.397
2046.634
2061.169
2052.852
2054.197
2054.728
2055.700
2057.942
2059.862
2050.523
2032.253
2029.556
2050.413
2036.857
2031.364
2050.606
2029.546
2042.628
2048.219
2032.602
2028.093
2037.406
2047.143
2033.354
2031.738
2027.651
2029.440
2026.495
2039.659
2042.446
2038.605
2033.089
2042.015
2037.406
2032.250
2030.091
2020.968
2022.022
2022.494
2025.324
2014.550
2035.434
2013.375
2030.176
2017.427
2023.339
2010.825
2017.400
2028.507
2022.388
2008.469
2012.632
2023.194
2009.691
2011.294
2004.241
2007.011
2003.853
2002.655
2024.882
2019.498
2022.283
2016.769
2022.178
2004.304
1999.385
1998.830
1996.358
2011.735
2005.001
2020.990
2014.788
2019.675
2019.006
2010.980
2002.842
2015.102
2011.515
2000.869
1998.459
2003.062
1996.397
1999.763
1999.854
2008.123
2000.743
1985.230
1991.803
1992.362
2001.963
2004.445
1984.017
1985.820
1993.678
1996.004
1995.717
1983.215
2006.058
1114.218
1108.203
1108.605
1098.864
1099.051
1106.321
1105.281
1103.593
1096.760
1104.923
1101.592
1108.539
1099.503
1107.536
1102.626
1105.111
1097.827
1097.044
1102.237
1104.191
1104.115
1100.684
1106.771
1104.044
1090.892
1093.182
1100.262
1103.767
1093.374
1091.394
1096.324
1095.774
1103.486
1096.837
1102.027
1087.176
1100.448
1093.627
1100.161
1097.258
1088.070
1089.031
1100.503
1097.078
1095.606
1090.740
1088.507
1093.988
1085.395
1090.705
1092.964
1082.803
1092.136
1087.896
1088.063
1083.465
1082.782
1093.278
1080.989
1082.991
1087.822
1082.892
1083.904
1084.977
1085.368
1081.692
1079.832
1082.523
1085.102
1087.187
1079.832
1083.612
1079.001
1078.071
1076.356
1077.966
1079.935
1076.037
1078.313
1088.261
1072.160
1082.009
1083.294
1086.011
1080.545
1077.763
1080.326
1075.838
1079.036
1069.945
1076.132
1083.319
1082.088
1080.376
1068.018
1071.139
1078.415
1077.789
1074.142
1077.578
1078.718
1070.687
1067.072
1068.668
1066.916
1062.114
1061.346
1052.794
1054.339
1047.697
1052.700
1055.858
1046.282
1040.388
1044.506
1043.020
1028.827
1039.011
1033.720
1030.985
1026.669
1021.713
1027.342
1017.629
1017.878
1019.002
1017.508
1014.076
1009.610
1001.302
1011.069
1002.598
1007.200
995.216
988.444
986.765
986.548
987.566
990.227
986.175
977.208
982.583
975.684
975.918
976.081
963.739
975.210
960.610
958.853
958.050
950.723
954.787
948.611
951.873
945.509
939.298
951.771
938.189
934.959
929.893
928.282
925.940
923.212
934.591
930.267
921.032
915.600
919.785
912.334
910.221
913.959
903.086
910.910
903.110
910.649
893.529
893.374
893.330
896.766
893.065
882.942
881.317
888.279
889.785
873.701
885.356
882.206
867.824
873.349
873.801
863.318
869.645
865.958
856.822
849.825
849.442
848.732
857.903
845.112
838.065
846.136
838.541
840.314
843.207
842.271
836.696
830.558
826.927
824.296
822.575
823.881
815.967
809.995
805.962
810.523
814.321
811.055
811.647
796.649
804.664
796.519
793.939
794.484
789.807
792.500
788.943
790.448
785.469
780.389
780.436
767.734
766.401
762.730
766.774
773.064
755.604
758.805
751.654
749.790
759.203
744.814
753.795
744.712
736.994
749.400
743.403
738.819
740.891
732.999
736.789
728.874
727.494
730.592
717.836
727.202
722.193
718.220
709.258
713.110
714.822
707.433
708.686
708.254
703.969
701.230
697.947
698.708
697.474
689.116
683.752
675.842
673.288
671.859
681.132
672.469
677.494
668.530
665.921
667.130
661.188
662.256
665.090
654.479
647.948
654.478
644.412
640.714
648.120
645.188
646.279
640.188
638.819
625.345
627.841
622.881
630.117
627.110
624.449
616.905
622.359
614.568
613.319
611.904
621.230
610.675
625.703
612.271
625.927
628.548
617.825
618.637
630.412
632.562
623.682
623.274
631.083
637.561
625.252
638.814
635.572
628.097
630.482
637.941
632.896
642.794
643.772
646.306
648.227
638.230
646.734
637.261
639.266
650.938
654.289
650.836
648.421
650.403
652.074
655.118
651.256
650.587
658.351
651.514
655.712
657.800
656.081
662.610
665.469
669.492
661.254
671.795
668.918
661.006
667.751
669.602
665.116
677.917
672.225
672.532
681.827
683.932
670.029
680.246
684.860
681.276
681.177
683.831
684.065
681.888
686.467
691.358
689.759
692.820
689.492
691.883
693.488
692.469
690.027
696.576
703.156
701.910
701.006
702.840
708.210
696.317
704.519
698.628
708.553
711.955
708.351
700.077
715.143
705.480
715.463
709.344
707.338
720.780
712.887
712.033
721.693
723.289
713.769
726.843
726.064
723.715
726.653
725.805
724.040
720.918
722.091
727.866
732.703
725.589
736.660
732.383
739.099
743.178
744.071
734.131
741.758
737.950
740.386
748.250
744.285
738.253
748.840
750.101
740.410
741.872
755.593
751.083
743.300
756.396
751.637
748.223
747.578
761.212
763.045
764.447
761.919
762.216
764.038
756.770
766.750
760.522
765.220
772.032
760.934
769.004
765.261
771.637
779.615
779.524
779.125
776.999
776.325
779.113
775.301
773.994
786.970
777.561
780.954
789.230
785.463
783.783
781.052
787.511
781.678
784.963
793.271
792.525
789.740
795.468
797.739
797.594
791.502
791.020
802.076
795.610
797.639
806.300
810.972
810.220
798.956
809.949
812.553
806.834
812.940
811.666
805.281
819.438
806.732
814.504
822.630
813.183
825.591
822.624
820.599
827.141
827.168
823.289
817.474
820.397
826.943
824.078
824.141
825.242
831.239
835.757
826.844
835.901
833.937
823.697
825.766
836.006
827.810
837.699
839.167
839.151
837.921
834.568
840.900
831.501
832.618
833.272
834.602
833.006
832.496
833.851
834.884
849.568
835.428
838.133
843.302
840.902
837.989
845.618
851.767
845.678
847.346
855.416
856.533
848.396
848.734
857.551
851.112
859.162
856.140
857.156
859.196
857.263
852.250
850.870
849.106
854.759
861.784
852.560
856.364
864.474
867.592
864.217
868.418
865.808
864.912
856.844
867.849
863.207
862.459
861.273
864.469
862.128
867.462
861.327
875.420
871.153
869.872
864.170
873.237
866.983
877.236
874.612
867.422
872.761
874.466
873.743
874.377
871.592
878.417
876.855
881.475
874.916
882.592
883.255
880.233
879.075
883.816
883.292
888.715
880.380
878.001
891.688
890.382
885.854
893.405
881.294
888.293
886.548
890.562
892.711
887.341
892.070
896.896
897.232
902.460
892.205
902.481
900.550
890.530
902.922
903.345
896.773
896.516
898.445
908.353
903.750
900.031
903.983
895.841
909.252
907.271
913.213
907.872
913.375
902.976
910.830
905.932
904.919
911.010
905.981
913.027
917.896
910.404
912.633
913.748
912.475
913.182
919.096
920.062
918.425
919.547
917.662
921.419
915.716
926.418
927.066
926.735
920.762
917.209
922.521
917.561
921.842
926.516
925.282
932.122
935.278
920.178
935.934
925.897
929.475
927.913
935.640
936.401
940.079
933.783
926.706
935.901
932.480
931.951
932.097
944.463
939.108
933.995
933.062
933.014
932.686
947.113
934.290
943.771
943.951
936.766
948.654
938.839
952.626
942.535
940.571
947.629
952.888
941.308
950.003
952.637
950.184
956.009
950.774
944.278
951.486
954.218
948.201
942.550
949.202
943.987
948.036
948.780
936.095
940.039
940.575
941.449
932.866
935.636
933.375
944.892
942.949
933.174
939.639
935.206
941.394
935.559
934.336
934.879
927.752
936.064
921.453
934.509
931.018
926.426
920.313
929.139
922.440
922.293
920.835
921.114
917.970
920.718
924.507
918.443
926.570
925.053
922.560
920.579
914.868
909.914
923.261
909.614
919.100
916.691
911.066
918.981
912.218
915.204
917.460
910.972
907.363
905.061
900.755
901.727
912.794
906.811
903.579
897.677
896.779
898.603
905.296
901.833
892.392
891.927
895.309
902.918
899.210
891.351
896.848
897.868
893.657
897.785
887.588
889.094
897.249
884.716
891.157
895.101
894.116
884.662
880.400
881.783
890.157
878.395
878.308
889.402
890.500
881.975
884.868
882.300
874.177
882.492
881.383
880.604
880.151
884.678
879.598
881.489
869.178
881.516
873.977
865.377
880.277
873.988
876.708
872.873
871.415
874.052
864.811
865.497
860.752
872.049
866.862
866.045
865.881
857.146
869.271
854.503
854.423
865.011
859.145
853.812
860.537
862.447
864.878
862.763
853.574
854.660
858.338
858.819
845.068
856.437
850.478
857.815
854.115
851.036
844.132
846.915
842.196
840.722
842.807
842.944
837.586
838.287
844.809
837.888
842.809
848.665
833.597
847.430
835.060
842.475
840.596
830.893
838.084
833.662
836.968
835.393
829.665
830.485
835.519
831.725
832.142
824.344
832.633
822.695
835.604
826.727
828.144
818.233
827.545
820.441
817.265
820.629
828.104
817.446
824.239
814.724
820.542
825.018
822.015
812.413
814.848
808.484
823.034
821.437
818.785
818.275
813.558
816.081
806.364
808.278
817.580
814.256
811.924
819.188
827.396
826.250
817.236
818.769
822.424
826.044
829.319
827.964
830.293
836.803
833.958
836.397
837.413
844.553
849.100
836.425
843.448
847.861
842.119
857.093
845.287
854.944
855.839
857.494
850.743
853.614
860.759
866.963
863.970
863.276
860.132
864.251
868.164
874.566
866.322
869.012
878.425
871.580
883.726
879.804
886.815
883.127
891.068
886.888
881.449
897.245
891.482
888.363
890.423
895.716
901.811
903.409
893.935
906.838
906.846
912.454
910.245
908.168
904.811
913.478
911.354
913.983
916.156
911.908
914.662
922.194
919.106
926.716
934.228
924.779
925.013
934.810
932.760
926.637
931.308
936.235
935.704
943.708
934.945
935.683
943.257
941.592
940.753
955.350
950.788
946.138
958.774
952.208
953.234
953.927
966.888
967.213
962.780
962.696
972.649
961.530
975.933
977.450
971.498
972.771
982.567
979.664
975.988
986.038
975.839
987.015
979.354
986.412
986.011
988.731
999.288
993.089
995.775
990.274
998.652
1003.368
1004.412
1008.062
1007.333
1012.784
1006.174
1002.513
1018.021
1011.139
1012.800
1014.729
1017.833
1021.495
1018.859
1021.216
1027.157
1023.895
1026.727
1022.215
1028.179
1029.633
1034.978
1031.962
1035.880
1030.894
1032.629
1037.283
1038.931
1048.513
1038.280
1045.102
1047.801
1048.257
1047.988
1056.550
1054.942
1051.533
1054.616
1058.430
1054.066
1061.586
1066.116
1060.814
1071.193
1070.822
1073.806
1064.361
1076.888
1067.062
1080.019
1073.932
1080.001
1080.581
1079.524
1088.860
1090.327
1089.111
1089.435
1095.009
1088.619
1097.428
1095.050
1091.957
1102.120
1095.790
1097.271
1108.498
1109.015
1097.957
1101.923
1107.924
1104.598
1105.252
1112.063
1106.969
1115.079
1113.736
1112.345
1117.827
1129.166
1123.345
1114.418
1117.492
1116.691
1116.054
1116.946
1114.122
1114.606
1117.064
1113.105
1118.914
1116.568
1120.642
1107.721
1105.632
1112.351
1108.379
1116.971
1114.692
1106.454
1103.043
1104.036
1105.870
1101.058
1105.192
1112.673
1110.909
1099.332
1102.112
1106.449
1095.974
1101.844
1096.281
1097.117
1099.597
1098.493
1098.331
1091.655
1103.516
1105.166
1104.218
1098.948
1098.522
1089.828
1096.846
1089.598
1099.346
1096.379
1089.100
1093.282
1087.964
1084.284
1093.249
1093.712
1087.302
1093.665
1090.547
1081.733
1090.876
1079.193
1087.325
1086.726
1084.600
1083.345
1091.150
1084.103
1087.796
1081.212
1083.901
1074.036
1082.414
1072.250
1085.378
1070.390
1073.055
1074.230
1079.520
1081.608
1067.673
1071.728
1077.948
1067.993
1069.082
1075.759
1066.790
1066.050
1071.420
1066.397
1063.486
1074.845
1072.160
1064.295
1065.923
1074.092
1066.187
1069.023
1063.905
1063.307
1068.246
1057.142
1063.804
1057.651
1056.303
1056.161
1058.273
1062.352
1054.903
1050.806
1053.818
1057.536
1061.616
1059.977
1052.883
1057.574
1054.169
1052.262
1057.630
1048.736
1058.465
1057.016
1052.178
1052.019
1051.179
1045.917
1047.040
1045.688
1042.531
1051.774
1040.834
1041.629
1048.403
1044.572
1047.230
1049.564
1037.742
1046.124
1044.426
1034.119
1046.290
1043.292
1030.767
1040.597
1044.634
1042.130
1028.715
1028.968
1036.334
1031.651
1037.271
1025.355
1032.613
1027.026
1028.058
1031.469
1035.978
1028.720
1036.458
1028.823
1027.111
1022.742
1030.572
1028.555
1020.868
1028.092
1019.974
1025.548
1019.553
1019.476
1027.306
1013.191
1021.468
1013.356
1018.173
1023.316
1011.104
1011.233
1019.524
1014.623
1017.422
1018.084
1017.516
1016.412
1020.809
1019.715
1015.438
1009.500
1004.183
1009.002
1016.107
1007.229
1005.690
1014.036
1010.912
1010.497
1006.232
1010.919
1010.563
996.774
1010.056
1009.563
995.976
1007.555
998.988
997.104
990.045
998.983
988.521
987.828
992.376
998.530
982.930
991.243
995.041
983.581
986.892
989.453
987.714
982.138
975.652
988.270
978.034
974.507
981.509
981.716
980.045
978.166
965.087
974.822
969.670
971.249
966.882
968.747
968.195
964.503
960.838
958.535
962.976
967.438
952.858
950.187
959.809
950.109
958.045
953.773
951.457
950.774
951.245
950.996
953.588
950.616
942.570
948.721
949.549
935.546
935.562
947.857
938.048
937.444
934.828
936.975
933.790
929.816
925.114
938.868
930.571
923.180
926.156
928.116
924.408
925.764
923.722
914.345
924.432
926.639
925.521
925.454
923.254
921.118
907.359
920.862
914.177
903.831
913.555
901.761
904.401
906.054
905.911
910.700
910.546
909.448
896.014
905.709
900.842
893.259
894.926
902.436
896.633
895.445
899.077
884.824
895.804
882.898
884.570
891.499
889.108
887.333
890.553
876.338
876.575
871.743
878.607
881.633
869.233
881.641
881.401
877.776
873.740
864.062
870.739
868.107
863.495
865.264
870.000
871.214
858.147
856.483
857.843
854.516
853.343
862.914
848.024
857.193
853.752
858.645
851.760
852.403
844.787
846.332
849.240
842.515
843.400
850.730
845.951
843.043
839.784
841.696
840.091
833.339
835.468
828.431
839.605
825.856
837.656
823.677
827.129
827.735
825.316
832.426
831.548
827.665
823.009
820.117
812.510
817.980
824.065
812.388
816.457
817.067
812.597
815.991
817.089
810.684
814.955
808.130
805.456
802.956
809.893
798.223
797.458
799.535
796.538
799.331
799.958
802.461
795.404
796.865
792.248
794.469
787.783
787.935
792.205
784.876
793.979
782.665
775.937
783.367
788.978
786.283
780.142
778.618
770.685
773.982
768.086
762.369
771.613
768.662
766.388
759.745
764.983
757.683
761.405
756.497
751.853
754.775
752.415
738.109
734.985
741.161
740.403
738.315
735.022
724.868
729.961
720.160
722.499
721.288
714.183
710.921
708.274
717.548
717.039
707.389
703.124
709.537
695.184
701.158
703.003
692.684
696.626
693.196
691.934
682.733
683.025
687.500
681.750
673.897
673.681
673.300
675.555
665.015
669.644
661.395
657.517
652.388
649.163
662.469
645.057
658.291
645.002
650.983
646.253
635.441
645.856
636.924
643.157
634.089
635.903
627.259
629.264
623.517
623.187
623.864
611.615
617.958
620.214
615.777
609.400
604.807
610.906
595.721
592.025
596.425
600.479
591.713
591.080
583.005
584.729
591.147
589.224
576.711
585.437
569.661
578.527
563.473
568.784
563.256
565.370
569.304
553.762
560.983
549.340
551.504
550.241
552.499
551.725
