141.804
141.683
99.274
95.406
126.356
136.374
146.515
110.853
132.520
110.642
144.847
112.349
126.956
108.241
121.136
121.562
136.876
113.320
134.441
128.809
106.730
127.808
145.394
126.828
135.768
107.276
124.130
106.054
128.495
101.699
112.641
97.325
137.972
127.748
102.899
146.427
118.884
144.530
140.329
98.118
143.654
124.000
122.160
110.698
141.619
118.495
119.151
101.845
117.183
123.133
132.622
120.334
104.454
139.652
111.041
111.792
102.759
108.737
108.451
108.517
116.878
120.522
120.940
144.197
125.190
113.992
108.943
101.974
113.781
142.372
133.144
115.397
119.889
145.728
113.835
119.154
146.561
137.284
112.838
105.831
96.934
114.970
107.634
99.353
118.480
116.569
101.821
100.578
107.503
129.883
145.234
125.953
109.010
138.370
142.666
141.606
143.067
116.857
139.890
106.806
140.951
110.967
110.028
125.832
137.031
132.623
126.142
109.137
144.090
104.953
128.916
117.281
111.361
104.898
135.110
107.095
135.079
117.260
94.969
123.673
100.918
108.903
104.833
101.482
103.511
120.791
142.018
105.887
98.737
100.338
111.261
130.336
139.279
120.734
136.932
123.570
125.149
126.245
136.291
97.771
141.245
98.225
136.806
111.043
95.213
101.578
98.260
143.720
136.054
109.843
130.519
115.108
111.919
127.949
142.157
105.690
122.916
117.171
133.970
135.113
123.709
120.446
132.277
101.915
136.982
146.703
98.532
142.563
110.224
134.579
114.961
129.454
96.117
130.655
120.471
103.909
98.899
100.724
145.466
135.963
120.267
102.577
105.394
109.447
134.447
123.260
142.091
105.612
114.401
119.960
135.256
97.349
109.134
145.478
108.107
143.375
99.117
114.343
135.717
120.646
128.842
122.420
108.673
140.286
126.334
136.993
110.691
109.605
127.931
125.576
143.562
102.907
144.694
140.912
105.844
95.428
112.810
104.569
102.712
143.632
99.254
95.427
128.170
135.687
105.327
125.023
133.598
120.821
96.849
130.045
97.354
127.926
122.976
117.017
136.280
100.359
97.128
105.694
95.233
121.215
133.810
133.839
105.647
112.888
111.771
96.853
131.627
131.935
98.744
101.759
115.080
131.789
143.419
96.386
113.153
118.637
102.579
107.281
130.811
138.409
145.511
103.770
145.973
144.137
122.303
110.639
138.732
135.974
146.408
143.329
111.925
117.647
123.140
129.677
105.348
143.559
112.788
101.833
113.794
125.916
115.661
140.872
116.504
117.349
99.740
106.657
125.777
107.353
127.944
106.236
99.181
97.970
144.996
117.135
143.379
144.071
117.511
119.283
139.932
135.187
104.499
104.069
146.488
135.069
99.567
124.267
138.788
99.573
138.719
136.464
104.863
118.809
142.981
100.588
121.073
101.584
100.618
116.078
145.986
107.865
133.113
111.228
110.473
100.797
95.912
135.200
97.819
117.704
142.573
146.039
136.063
95.791
101.853
114.445
141.172
121.391
118.623
121.282
126.545
128.221
109.963
119.489
141.556
104.364
131.905
103.223
136.025
119.628
106.855
104.899
126.088
103.133
118.808
96.933
103.306
135.087
129.876
115.642
134.686
133.927
136.187
116.868
117.953
145.491
125.354
115.911
102.180
127.260
100.239
118.523
133.851
143.203
145.866
107.839
114.904
127.258
145.420
114.393
98.695
139.646
134.773
142.358
97.714
94.985
111.573
116.270
138.298
120.777
127.251
145.150
113.882
117.267
142.148
125.198
120.140
143.683
108.921
119.916
120.082
134.282
99.519
135.074
98.583
95.358
143.130
127.450
117.456
100.710
117.024
124.433
100.937
131.194
141.617
116.052
138.084
125.882
121.757
138.316
103.914
119.487
144.626
127.182
140.237
120.746
135.417
122.265
95.926
119.640
121.187
108.345
102.679
125.700
100.634
119.234
134.554
137.302
134.536
97.566
146.579
132.935
142.586
114.015
142.998
122.636
104.694
97.947
100.954
136.085
115.433
133.537
127.763
104.938
111.133
126.374
137.276
129.324
130.124
98.641
123.365
134.445
143.546
97.117
128.766
132.610
122.543
142.730
141.457
131.567
130.872
123.578
106.300
125.282
97.299
95.634
114.451
130.351
140.692
132.432
137.891
144.452
126.274
108.913
129.196
98.102
96.254
109.252
126.138
143.218
134.797
106.969
104.268
124.974
144.535
108.124
131.528
109.489
120.064
139.721
123.251
116.719
120.150
140.638
124.004
113.710
103.520
135.731
119.747
126.869
106.265
108.561
98.539
133.838
145.821
112.337
113.779
138.618
126.610
117.688
138.956
113.997
139.871
113.269
108.248
109.100
132.827
142.608
145.020
144.331
140.804
107.750
132.330
138.540
118.193
119.008
117.268
139.279
103.169
100.612
146.451
132.596
123.618
98.835
99.875
139.323
128.871
137.369
146.381
103.709
132.838
111.581
103.105
98.121
101.155
144.192
116.059
137.552
124.542
128.248
137.057
143.247
134.598
131.147
112.119
140.941
113.889
102.618
106.230
135.546
99.808
98.465
101.977
143.519
144.490
143.405
127.679
136.896
132.274
145.716
127.991
96.445
114.650
110.014
131.611
132.846
122.013
108.884
131.290
116.666
121.878
106.671
111.288
112.424
132.719
140.970
145.746
103.710
119.141
115.375
143.100
137.557
142.485
127.022
94.791
111.110
134.369
142.796
135.849
144.227
134.219
102.126
101.273
145.741
113.257
110.299
146.296
125.982
137.285
135.212
142.360
117.192
106.814
135.671
113.504
103.077
129.929
96.648
131.953
132.345
114.551
99.103
100.151
111.975
127.779
134.846
105.388
108.240
145.801
134.304
103.084
111.717
111.474
120.997
111.682
119.269
124.620
112.046
96.062
122.207
116.177
140.402
98.355
130.396
115.649
145.308
111.772
130.807
96.571
139.616
110.253
129.584
144.848
144.646
104.279
118.525
121.346
118.104
139.772
132.776
135.397
137.487
125.036
116.399
136.616
146.271
111.714
105.217
106.673
97.380
145.674
138.982
128.651
116.295
107.738
141.754
140.146
130.616
123.686
115.466
102.813
136.546
131.063
145.871
120.492
104.879
135.788
124.079
135.454
111.883
125.225
128.254
144.237
95.265
108.128
98.425
119.641
99.637
114.075
98.222
111.999
106.660
120.906
134.626
104.394
116.600
122.217
95.720
125.179
132.122
109.024
142.782
96.487
95.749
144.605
123.106
119.305
131.485
129.200
111.362
114.572
129.099
132.521
116.027
120.639
111.294
145.702
118.289
113.128
109.637
106.097
106.592
108.433
117.679
118.276
120.989
120.755
97.865
146.024
117.935
112.921
108.260
133.867
129.095
98.883
95.838
120.175
142.348
99.242
132.679
109.533
127.403
116.390
102.891
126.776
125.077
95.114
96.404
103.189
143.590
144.577
138.514
98.728
95.004
126.419
144.657
100.395
127.101
121.037
138.964
105.799
136.141
145.866
106.502
102.075
104.070
125.838
126.790
108.592
105.405
119.212
141.313
140.749
105.340
105.639
104.809
134.429
98.528
95.871
137.404
145.807
115.185
124.958
106.732
113.713
96.824
132.693
111.954
135.015
131.327
139.869
101.510
96.786
143.830
145.469
98.616
119.632
121.123
95.298
118.458
119.225
127.234
141.696
102.872
110.740
117.909
110.464
146.725
110.692
102.122
99.641
110.163
132.937
117.775
126.056
140.412
133.308
139.406
109.942
132.832
135.399
96.558
127.614
114.704
100.730
120.898
133.619
95.364
139.215
140.507
104.829
110.291
103.405
139.172
141.607
135.200
142.687
122.436
136.451
126.856
128.904
120.565
133.863
139.072
102.412
128.649
108.815
104.598
124.664
140.955
114.664
112.186
102.156
145.157
101.540
143.657
102.493
145.873
114.681
111.937
122.416
134.479
142.976
113.067
99.402
106.175
99.839
105.965
111.919
109.324
112.772
103.198
138.353
143.285
122.493
113.384
117.455
103.662
140.412
97.264
101.824
114.045
106.322
126.983
96.538
143.595
136.743
96.910
115.726
104.679
130.666
137.155
139.157
141.415
99.769
144.187
138.771
113.047
117.861
100.899
96.498
117.001
115.383
134.827
117.388
140.449
124.579
107.419
113.942
119.234
135.978
116.072
122.910
132.169
127.314
109.351
129.854
144.436
136.009
95.034
139.370
110.472
96.421
138.191
108.869
115.213
110.865
143.381
106.054
106.372
137.705
116.131
145.780
99.965
137.905
136.702
143.625
100.497
114.633
133.089
113.773
106.809
134.905
100.014
103.863
136.346
112.607
122.065
95.063
105.709
102.844
124.196
135.565
115.038
139.636
97.151
138.985
102.816
109.645
113.960
94.875
110.530
139.130
111.325
114.662
116.976
101.855
136.766
106.462
343.908
359.135
354.692
374.223
363.255
378.836
404.579
417.928
395.400
430.051
426.236
439.570
452.164
475.849
464.955
475.172
474.145
144.930
151.653
150.786
157.151
157.968
162.251
161.864
178.648
177.051
185.356
173.806
179.331
191.953
190.073
197.291
198.019
198.697
199.445
201.719
213.615
204.410
208.739
213.520
221.876
220.418
218.129
219.412
232.406
236.785
234.687
239.392
240.045
244.016
238.568
256.221
256.551
252.508
252.005
265.574
262.741
266.603
262.602
275.958
279.165
283.742
282.782
287.413
288.486
282.430
287.319
298.861
298.444
294.665
304.249
301.834
314.573
318.637
316.056
317.200
312.969
329.588
320.164
336.114
333.583
334.699
334.001
338.487
337.970
352.149
341.742
350.431
352.382
354.575
355.714
367.605
360.232
370.653
364.255
368.562
380.938
383.135
375.765
388.346
388.138
395.917
390.356
400.180
404.199
410.170
403.172
410.708
413.718
414.615
413.440
415.864
418.724
422.430
430.072
435.143
427.608
442.458
435.845
447.978
450.738
444.786
448.089
445.603
448.566
465.606
459.945
461.479
467.176
474.610
471.327
470.006
474.107
482.740
482.995
484.534
489.385
494.758
494.350
494.269
499.226
510.640
505.404
514.448
512.583
509.410
517.728
521.891
531.324
520.085
529.153
528.182
534.518
545.313
535.424
544.176
551.453
551.700
552.231
548.562
556.366
554.841
571.968
571.754
574.836
571.622
577.837
574.310
583.943
583.965
582.333
596.294
597.093
588.843
606.027
606.125
603.607
606.510
607.711
609.607
615.588
619.810
620.652
619.402
621.524
636.181
627.369
641.279
636.666
636.326
643.751
647.838
646.389
650.025
661.286
660.074
663.055
668.011
668.994
665.343
675.467
667.870
678.267
686.622
686.090
676.676
682.528
691.236
693.378
699.798
703.831
690.268
695.575
705.858
699.636
704.641
711.403
705.381
711.185
709.270
722.630
714.451
718.892
722.724
731.650
735.815
732.430
732.458
738.935
736.325
738.579
737.419
747.910
746.105
752.476
754.292
762.527
762.126
757.766
759.365
769.281
771.861
765.190
771.953
774.709
776.411
773.829
780.582
786.974
792.244
784.276
787.337
788.148
801.383
798.019
803.748
811.323
813.217
807.611
803.277
813.664
815.913
815.998
822.205
826.282
830.602
818.968
829.565
834.401
826.275
831.386
833.588
837.472
841.281
841.871
850.964
855.287
856.546
849.648
862.715
857.755
853.997
868.878
860.918
873.439
874.313
877.614
869.035
876.341
881.173
874.981
889.997
890.291
892.670
897.303
894.125
893.768
897.963
902.626
907.556
905.181
911.400
904.414
917.530
922.691
911.984
916.638
917.890
927.987
934.774
930.484
931.325
932.215
934.755
935.045
940.247
940.339
953.628
942.855
946.028
958.897
954.343
958.594
963.659
964.057
962.294
970.157
972.118
967.170
968.807
977.587
983.758
984.656
989.618
990.334
986.635
992.554
994.449
996.032
992.656
993.396
1003.242
1005.213
1005.901
1009.474
1014.738
1021.125
1014.545
1012.541
1013.041
1028.735
1019.537
1030.766
1032.091
1028.608
1033.318
1040.528
1032.113
1046.336
1045.572
1048.628
1050.174
1058.085
1050.967
1048.323
1052.324
1063.321
1061.619
1058.196
1062.440
1073.527
1070.562
1081.722
1083.860
1086.168
1088.374
1090.916
1082.843
1094.609
1093.515
1100.936
1096.102
1105.134
1094.648
1101.131
1100.775
1108.333
1110.478
1110.496
1112.780
1114.875
1121.481
1120.417
1124.010
1126.499
1125.860
1123.282
1136.266
1136.775
1131.708
1141.943
1144.717
1140.137
1137.771
1134.434
1135.397
1139.225
1145.134
1136.022
1132.209
1140.064
1134.275
1128.890
1136.394
1141.341
1139.637
1139.755
1131.351
1128.994
1129.923
1126.624
1132.127
1137.875
1132.310
1137.015
1138.672
1132.194
1131.697
1137.901
1124.124
1129.369
1130.168
1135.095
1134.651
1127.374
1135.297
1120.572
1133.437
1131.358
1129.499
1132.827
1122.046
1127.652
1126.225
1131.192
1123.380
1117.472
1127.737
1123.762
1128.243
1124.603
1122.029
1124.529
1122.112
1119.800
1125.459
1127.614
1124.265
1128.369
1114.426
1119.103
1126.791
1120.963
1125.736
1110.542
1125.397
1113.708
1122.365
1109.746
1109.311
1110.308
1120.091
1122.767
1113.883
1110.834
1110.704
1109.999
1118.687
1110.533
1112.383
1106.551
1118.200
1116.471
1118.840
1107.931
1109.119
1110.831
1105.345
1114.293
1113.067
1109.238
1114.801
1105.531
1109.838
1103.440
1105.654
1110.475
1101.642
1113.911
1102.494
1107.845
1104.244
1106.652
1103.846
1099.034
1111.376
1105.164
1100.828
1105.187
1109.785
1095.981
1096.041
1098.951
1106.841
1100.951
1103.239
1102.354
1105.451
1099.355
1103.254
1095.298
1100.581
1098.893
1097.837
1100.937
1095.200
1098.273
1099.451
1098.256
1099.300
1091.689
1099.036
1101.685
1095.815
1101.250
1094.472
1100.659
1102.135
1097.068
1096.105
1100.089
1091.317
1097.076
1090.327
1090.985
1090.336
1097.123
1097.836
1086.440
1089.379
1096.555
1087.171
1086.872
1092.800
1089.909
1093.046
1094.426
1092.599
1094.735
1086.473
1083.173
1086.715
1085.729
1085.975
1080.221
1081.154
1085.012
1077.655
1084.314
1082.912
1091.224
1079.036
1088.545
1082.426
1088.522
1076.973
1077.153
1080.153
1082.375
1075.558
1085.582
1074.193
1084.905
1077.217
1072.804
1074.147
1081.990
1084.407
1069.664
1081.231
1069.554
1083.785
1078.841
1073.189
1070.883
1078.841
1068.161
1075.184
1074.025
1079.599
1068.062
1070.728
1064.214
1063.701
1057.875
1068.563
1053.136
1055.868
1059.822
1054.218
1054.450
1042.145
1048.238
1038.574
1035.670
1037.013
1033.083
1037.992
1035.250
1029.685
1032.186
1022.021
1020.827
1021.881
1020.419
1011.674
1011.669
1008.809
1009.967
1010.996
1009.672
999.483
1004.757
998.315
997.729
997.594
993.586
993.351
992.626
989.973
983.470
980.987
980.313
973.014
965.278
975.067
965.971
957.422
969.428
960.568
966.079
957.829
952.157
956.455
942.609
943.099
949.318
948.329
946.775
944.116
937.698
931.391
934.807
930.831
924.543
922.195
926.687
926.694
924.646
915.140
905.633
911.813
906.399
906.476
897.675
893.640
894.316
904.102
896.013
892.588
889.804
893.728
881.276
876.830
875.443
877.079
875.167
871.894
871.168
863.698
871.432
864.266
858.675
853.386
858.082
854.052
850.200
844.631
853.837
838.815
841.395
837.474
846.059
830.352
832.961
830.570
837.638
819.717
827.327
828.659
823.230
816.364
813.786
813.823
805.944
802.143
810.101
797.475
806.187
802.257
795.865
801.336
791.611
795.544
782.227
782.685
780.498
787.048
780.954
777.418
781.730
765.391
767.758
769.872
770.183
770.153
757.265
754.785
751.216
759.978
755.615
755.890
747.074
749.832
744.625
740.320
742.189
732.575
730.165
729.948
729.107
731.753
717.877
728.139
720.669
720.780
711.082
713.581
709.042
707.728
711.157
708.843
701.159
694.933
702.132
688.048
692.714
692.793
693.186
679.352
674.982
683.610
676.311
675.054
679.829
672.991
662.029
660.527
664.002
655.695
655.602
659.899
648.719
656.492
643.688
649.911
638.219
637.750
641.773
634.995
632.102
638.739
630.276
637.588
625.216
626.676
616.978
614.450
615.957
616.040
608.722
617.161
617.959
614.488
618.907
626.607
624.316
613.566
616.044
620.500
627.753
628.311
626.485
626.811
627.894
624.333
631.902
638.115
633.257
639.661
636.796
638.660
632.810
636.332
637.040
638.660
642.916
642.265
648.936
645.621
646.858
647.424
654.510
647.850
653.243
647.638
650.119
655.968
658.421
661.176
650.863
657.804
656.011
655.931
661.070
657.917
659.128
659.470
669.798
659.517
664.453
665.086
668.754
674.733
667.482
673.623
679.721
680.212
669.788
675.488
673.772
676.165
677.710
682.020
685.638
681.519
687.511
677.740
688.301
688.816
680.329
682.132
688.207
692.858
687.086
693.945
699.881
699.746
694.587
693.455
703.517
705.445
695.894
700.931
704.224
699.697
703.386
708.728
703.917
710.628
712.507
707.476
714.601
709.240
711.999
715.864
708.695
719.707
721.545
724.528
710.658
720.291
713.779
724.331
721.441
730.371
720.460
726.116
723.146
732.715
735.481
735.123
724.916
728.638
725.991
736.291
727.792
732.543
730.019
741.006
732.894
736.625
736.749
739.961
738.694
746.477
749.706
754.271
753.832
745.100
749.397
757.370
751.773
747.214
747.064
754.176
751.281
751.493
764.020
755.366
754.520
757.961
761.327
762.158
763.891
763.793
764.236
765.046
763.789
763.001
766.516
776.403
773.174
774.707
772.885
770.601
783.889
775.171
777.036
773.215
778.825
775.240
775.953
784.208
784.551
783.269
783.749
782.184
785.465
793.247
794.872
791.394
794.967
788.919
794.439
803.253
804.028
794.261
796.148
803.726
804.837
799.514
798.192
806.920
807.906
802.159
811.081
803.092
816.790
810.653
818.890
814.917
819.947
818.837
818.140
809.856
816.144
824.178
816.927
829.646
828.223
823.863
825.311
824.583
822.662
819.303
821.742
827.224
828.589
827.645
826.165
834.104
823.461
