121.774
125.126
102.154
118.362
114.312
127.327
96.075
95.561
144.001
131.808
141.402
146.460
120.301
140.288
126.880
107.770
143.675
143.787
98.708
121.650
109.332
137.058
108.561
100.050
124.551
115.963
136.564
137.114
96.810
144.322
123.544
139.412
117.880
95.553
107.529
97.989
124.889
116.307
115.738
126.038
119.198
125.159
135.788
140.197
98.267
141.674
97.248
145.382
122.593
118.263
126.663
119.569
95.072
126.199
102.124
135.622
118.496
143.447
127.443
101.757
100.684
115.810
142.843
109.732
105.024
116.159
128.573
112.938
134.514
99.239
114.178
96.793
101.156
139.912
143.341
136.306
138.588
140.918
94.858
102.125
125.128
137.144
127.646
96.983
137.511
130.768
145.215
115.678
137.142
114.600
103.169
121.522
118.907
115.850
141.313
135.646
117.221
127.669
97.455
137.973
106.919
105.222
106.043
139.389
112.603
129.232
108.076
131.488
100.369
101.415
130.446
106.062
140.407
108.356
100.645
139.903
144.802
129.870
146.597
140.871
138.590
123.994
143.921
102.157
142.958
115.010
119.839
125.125
41.526
32.366
42.546
40.163
32.490
34.422
31.857
38.609
33.944
43.227
31.444
32.239
38.121
40.053
376.902
372.800
376.445
358.897
388.071
386.073
372.180
391.728
395.535
386.103
387.491
396.086
381.690
386.727
386.283
390.863
394.247
416.013
397.506
421.660
396.560
403.450
416.495
404.242
421.291
417.372
436.002
415.395
440.874
424.081
433.819
436.400
441.450
441.286
444.448
445.510
433.315
434.094
460.289
459.451
440.710
469.391
459.308
472.013
469.719
452.151
477.228
464.843
472.196
466.964
477.894
473.460
485.445
488.600
475.390
497.822
500.592
481.718
503.877
495.782
511.155
494.001
506.893
497.792
499.580
506.085
505.188
521.319
515.699
506.618
506.345
514.713
535.023
523.492
535.252
530.039
522.744
527.117
545.721
529.678
537.435
554.314
539.810
551.984
546.417
554.945
545.970
561.735
545.106
555.065
575.160
575.071
574.652
578.772
570.580
582.330
573.006
585.657
579.602
583.972
322.912
330.130
334.212
323.511
336.805
329.380
337.944
326.977
331.905
337.872
329.006
341.011
341.438
340.476
342.434
335.288
336.059
352.431
349.776
351.733
345.927
351.277
346.418
349.748
350.440
360.171
351.295
360.790
361.185
361.358
361.200
363.449
369.608
365.275
364.005
372.909
363.286
376.221
377.614
369.709
370.366
378.130
374.763
372.573
379.451
381.575
373.574
386.130
374.821
385.637
377.877
386.799
384.718
383.403
396.211
385.056
392.465
393.026
394.389
394.186
404.270
398.663
406.244
396.595
397.003
410.151
407.288
404.738
412.922
412.162
408.804
409.793
418.021
408.922
420.552
409.034
418.992
423.288
413.646
427.382
415.310
424.442
424.481
423.648
424.299
434.582
436.582
424.779
432.931
436.832
435.756
438.633
439.893
434.660
445.622
443.759
438.985
434.241
440.356
448.015
448.385
440.587
442.670
451.913
456.853
443.407
450.231
446.470
460.031
446.633
459.409
463.918
452.117
455.496
451.897
461.605
454.343
455.484
461.400
469.467
465.499
467.848
460.282
464.094
469.143
463.873
464.037
472.470
470.411
470.423
476.681
483.483
483.467
471.092
481.022
483.557
485.910
476.054
490.084
491.847
487.185
491.116
489.105
483.410
484.190
489.641
496.830
496.099
492.601
489.382
492.246
496.632
501.441
500.996
503.560
501.722
497.555
507.089
508.122
502.033
499.947
499.011
513.102
511.483
503.152
517.233
507.313
505.021
508.112
519.150
519.463
510.332
517.804
524.778
518.655
521.676
523.761
523.864
527.892
526.898
529.524
530.505
532.616
522.795
525.823
532.319
535.289
531.309
539.298
526.330
538.446
540.301
537.189
531.423
536.514
540.555
534.786
543.110
536.642
537.970
542.293
549.321
546.177
543.041
548.620
543.359
550.714
544.863
555.310
557.544
552.478
551.758
550.919
557.757
556.164
551.149
557.838
562.641
568.110
564.950
562.166
557.591
566.259
560.139
562.107
570.921
575.610
573.876
577.789
578.972
576.842
580.111
582.469
582.443
569.206
575.768
581.104
581.820
578.406
578.470
578.477
588.426
578.211
584.237
589.935
587.924
581.112
596.513
595.351
596.317
595.298
601.146
595.942
597.859
593.982
591.752
591.511
591.445
596.825
603.966
596.161
609.728
603.420
605.534
610.145
602.863
604.074
606.350
608.233
618.632
614.237
615.329
616.193
612.095
619.819
617.446
625.727
617.134
616.937
618.991
618.646
618.802
629.853
624.274
629.120
622.449
627.094
629.789
628.784
637.686
628.855
633.831
641.374
628.100
638.491
628.862
629.677
636.848
642.774
640.232
643.934
636.921
639.445
636.211
637.379
649.863
648.203
654.105
645.543
650.295
651.384
653.531
649.114
650.210
655.867
652.715
651.825
661.927
661.917
657.676
663.521
658.428
662.951
665.583
657.544
665.671
661.327
656.358
661.988
671.371
667.306
670.987
667.885
676.483
674.930
669.083
663.621
676.886
666.645
666.087
667.100
681.045
684.013
678.329
682.664
677.244
678.444
682.586
686.055
687.909
691.027
681.508
687.065
679.825
683.765
681.129
694.213
687.935
695.598
687.754
684.643
685.353
686.940
695.103
695.463
700.773
702.323
698.919
700.876
704.507
698.709
697.022
699.133
710.122
709.452
699.132
698.451
703.493
712.835
705.557
715.201
702.276
713.438
712.002
709.918
705.755
707.092
712.074
715.255
723.904
723.637
720.075
718.912
712.508
713.071
721.099
714.699
720.385
726.159
723.521
730.616
732.979
730.389
723.096
726.164
722.924
728.829
728.227
736.550
734.366
727.347
728.002
734.489
736.535
732.445
736.750
735.484
736.964
744.768
747.261
749.915
737.112
740.271
746.699
749.040
745.032
753.722
749.203
746.169
751.045
757.209
747.502
759.794
747.692
760.145
756.563
751.341
752.276
753.178
763.836
764.203
759.872
761.650
765.354
768.090
768.949
771.968
770.032
765.468
762.129
766.179
767.595
763.423
762.140
775.200
775.389
777.264
774.298
775.062
770.737
774.256
777.555
776.688
781.913
781.646
781.077
783.566
781.532
788.701
780.136
780.109
778.120
783.227
794.595
781.808
788.076
790.840
788.749
794.203
797.585
791.855
801.122
800.993
802.200
794.825
789.124
798.259
803.405
791.580
797.326
801.151
799.395
797.864
805.344
810.852
808.210
808.601
811.572
802.423
801.183
813.491
812.453
809.363
804.249
814.166
815.259
810.824
809.560
814.849
808.391
813.318
808.379
804.448
807.935
808.783
808.998
819.244
810.307
817.967
815.334
818.918
813.586
818.545
818.243
818.358
810.245
822.038
822.323
817.818
821.975
820.359
813.657
823.379
816.049
812.480
808.800
810.515
815.992
820.096
815.358
809.863
816.486
813.622
820.634
818.809
826.192
826.386
815.122
821.666
821.579
813.060
814.327
821.512
819.080
826.943
821.780
813.514
816.508
824.990
826.183
827.093
828.259
814.988
828.966
822.278
819.462
830.381
825.090
818.959
817.165
830.251
822.504
818.360
821.038
826.583
817.211
817.965
824.920
817.665
825.511
830.918
832.443
831.015
827.642
824.289
834.705
834.124
832.121
834.448
835.531
826.753
825.252
830.990
832.270
824.515
828.274
826.271
835.196
834.843
822.676
828.710
829.119
833.883
833.594
833.716
830.486
825.807
827.332
829.809
829.502
830.898
828.613
838.430
826.170
839.047
829.171
832.479
835.284
828.355
837.371
831.959
835.044
833.136
827.504
840.527
838.004
827.511
842.947
833.071
843.084
834.682
840.088
836.285
838.691
831.881
832.650
834.387
836.053
841.255
838.834
840.229
831.883
838.860
846.684
844.755
840.457
846.853
847.211
845.759
832.717
846.714
834.584
848.110
847.461
842.546
845.218
847.565
837.363
836.341
848.197
837.305
844.709
838.629
836.001
845.282
839.130
841.796
836.789
842.950
848.371
841.503
851.698
842.609
852.029
845.337
844.535
853.482
852.308
847.664
842.037
847.512
854.134
849.405
849.068
855.064
848.658
853.123
854.902
852.883
855.622
843.480
842.403
843.635
854.682
849.398
852.360
842.812
856.672
847.686
851.157
856.489
850.979
842.942
853.957
846.584
846.971
841.895
845.325
851.173
837.361
846.278
840.257
842.987
835.766
847.947
848.293
846.692
845.584
840.595
837.723
831.316
832.534
834.286
840.139
842.283
830.289
842.375
827.834
841.314
830.811
829.189
826.892
829.746
838.641
834.857
832.829
834.477
830.122
833.501
824.920
831.592
823.405
833.948
818.647
818.139
830.020
824.901
826.897
830.150
828.955
824.525
817.516
815.511
824.456
814.081
815.379
816.715
818.773
816.770
823.741
809.850
820.293
809.378
810.157
815.123
810.168
820.269
807.427
813.393
803.973
809.722
806.007
811.974
816.229
800.704
805.148
813.233
799.209
807.177
800.271
809.055
796.813
810.239
810.496
806.701
804.294
800.599
793.787
803.298
806.960
796.570
793.280
798.643
789.115
803.469
790.947
796.984
795.120
801.601
787.045
796.506
785.072
789.502
785.569
798.118
788.525
789.124
791.618
785.915
795.255
787.861
785.071
787.930
779.146
778.729
781.675
789.986
781.175
785.765
782.059
774.141
776.258
772.237
776.497
779.213
773.401
776.245
775.853
780.235
779.834
773.263
772.346
775.829
769.210
776.115
778.367
764.180
766.653
773.531
772.732
765.463
772.345
763.751
764.546
764.496
769.034
758.981
772.869
765.398
761.381
769.733
763.354
769.617
758.625
765.341
755.564
758.233
763.009
761.760
763.266
762.921
762.380
750.640
760.645
760.164
758.473
755.727
756.668
749.800
759.259
744.754
753.433
743.739
756.839
743.568
743.497
747.308
748.847
744.970
739.981
744.787
742.686
740.706
747.138
751.943
742.062
736.411
742.302
735.146
748.679
738.530
732.527
745.980
738.732
742.992
742.705
731.482
730.679
728.797
729.538
739.719
729.199
733.656
736.034
740.918
741.431
740.697
737.453
744.543
737.889
739.086
748.816
744.269
743.811
747.209
753.936
744.589
757.583
756.197
745.886
757.813
753.162
753.930
750.521
756.005
754.896
762.777
755.376
767.287
766.113
760.078
765.021
762.524
760.356
762.517
762.644
761.621
770.673
773.510
774.920
771.378
779.757
770.170
771.971
784.750
777.570
771.812
775.248
781.008
786.945
778.618
780.975
778.276
788.739
791.943
786.253
792.667
788.282
783.305
789.984
798.131
785.475
800.720
799.643
794.893
792.509
799.314
797.282
805.007
800.118
800.606
807.117
796.013
811.022
808.032
811.788
810.635
812.828
803.709
816.690
815.017
804.577
808.645
806.062
819.552
815.104
824.323
819.119
813.445
824.085
816.648
817.786
828.662
822.170
822.781
817.711
827.796
824.723
820.653
830.119
837.091
824.598
828.372
836.715
837.719
826.737
836.730
838.495
833.974
845.662
846.512
833.028
845.780
841.808
848.856
843.629
852.914
852.690
852.206
851.917
843.283
848.855
850.296
856.010
859.020
854.356
855.865
857.817
853.393
859.527
858.160
859.271
857.709
865.710
863.281
863.640
869.492
865.009
858.219
859.934
863.386
871.325
862.435
871.016
868.473
867.701
877.377
877.688
872.966
873.873
871.270
880.816
874.649
878.280
874.186
880.883
879.295
884.812
891.654
880.772
894.107
894.298
895.994
895.924
889.604
896.472
892.425
901.244
886.768
899.493
896.505
902.614
896.158
903.346
892.194
901.037
898.763
897.538
904.129
901.222
901.987
913.818
914.735
910.402
902.392
908.611
917.268
915.338
917.584
913.620
916.157
921.524
914.394
919.759
924.576
916.040
924.058
914.257
926.826
918.455
923.043
930.313
925.094
923.060
921.588
927.626
926.805
930.012
916.716
915.104
916.033
916.041
923.342
921.606
920.409
923.745
913.466
918.773
924.935
922.102
917.170
919.457
911.131
922.325
921.410
922.213
923.014
908.113
920.029
910.307
907.819
921.309
918.638
920.836
920.820
920.216
908.836
917.757
917.755
916.228
916.723
912.993
914.269
913.725
914.824
915.898
915.244
911.129
905.666
914.527
914.726
910.382
900.712
910.121
910.938
900.540
897.689
906.570
899.319
899.887
907.165
900.331
898.086
908.673
896.602
900.420
901.274
905.065
904.551
907.270
901.511
905.664
905.412
900.009
902.482
893.408
900.096
894.139
904.380
899.868
902.138
903.112
902.334
899.640
901.026
900.627
900.817
889.498
888.959
895.017
901.923
888.775
888.107
897.464
894.925
888.086
885.333
893.744
887.971
897.734
885.114
895.811
886.859
884.577
886.327
892.316
885.343
893.061
887.804
883.668
883.794
893.049
887.022
893.728
887.730
879.488
890.461
888.878
879.711
885.825
878.044
885.658
879.586
880.221
885.484
875.544
884.232
888.852
878.152
876.556
887.706
877.197
874.791
872.589
885.483
871.823
881.241
873.652
877.176
871.472
883.071
877.592
871.578
883.106
880.355
878.002
877.078
876.134
877.886
868.928
871.850
877.009
867.026
866.359
868.851
872.207
866.033
871.221
862.969
866.700
872.923
875.270
874.622
876.386
866.334
874.817
867.113
862.869
866.755
872.915
865.917
869.659
868.642
872.325
862.552
857.679
868.223
861.725
861.527
864.412
855.827
861.737
865.085
860.510
861.197
867.268
867.203
860.202
856.622
852.338
856.036
865.615
856.582
862.802
864.399
863.914
856.771
859.270
850.623
858.821
856.191
853.146
850.964
846.985
855.129
856.564
853.293
849.690
848.311
853.329
841.027
852.188
839.122
847.276
841.567
840.335
836.243
839.199
846.462
846.931
841.203
843.378
834.240
839.483
829.509
839.349
834.330
829.851
836.177
829.109
827.613
827.150
824.390
825.000
825.026
822.298
831.595
828.170
819.363
822.785
819.038
823.719
813.955
817.022
819.765
815.531
809.546
811.966
812.458
810.272
815.273
809.829
802.834
813.000
807.077
800.593
799.159
807.978
804.048
801.577
801.647
806.402
796.350
798.262
793.869
791.075
797.235
800.400
798.423
792.290
788.715
791.859
785.604
790.290
789.746
788.091
790.865
780.885
780.570
778.177
792.975
784.370
778.883
784.526
788.570
779.454
785.382
775.589
780.055
783.740
781.681
783.351
769.112
768.455
778.709
768.631
776.770
763.994
761.479
760.574
763.562
767.518
772.365
766.725
765.475
767.260
755.531
757.732
761.144
766.441
751.576
753.141
762.678
760.302
748.338
754.644
758.900
751.655
756.802
750.964
757.460
751.151
741.813
751.477
750.985
748.555
743.308
751.009
748.737
743.522
734.018
732.539
737.944
739.698
731.176
730.747
733.962
734.631
728.035
728.213
738.987
737.543
732.388
729.287
733.779
727.084
719.909
732.688
723.869
725.607
722.082
715.799
720.898
724.606
726.294
713.949
725.519
724.058
716.750
712.009
711.075
709.949
712.009
715.068
707.147
709.021
705.767
714.517
702.430
703.110
702.730
698.636
696.561
698.827
704.369
692.925
692.545
693.520
705.131
699.492
691.387
697.184
688.353
686.732
692.232
687.709
694.661
685.300
691.107
688.808
693.105
683.572
679.831
683.178
681.489
677.135
689.792
688.526
673.119
683.659
674.691
678.685
681.519
683.712
687.329
678.019
679.847
684.990
693.551
687.435
681.129
682.446
691.460
684.483
697.484
695.818
699.657
695.247
698.724
689.783
692.418
704.286
704.266
703.503
697.265
702.289
696.117
709.136
711.731
701.718
698.613
713.808
709.953
703.256
704.921
706.252
711.504
714.191
714.703
718.132
718.575
715.448
712.533
717.136
715.617
717.886
725.676
728.076
718.163
716.736
725.378
724.285
724.579
730.374
730.966
725.814
737.998
729.947
735.663
728.300
726.279
739.663
743.015
732.274
734.880
740.109
743.672
743.796
744.677
741.104
740.734
750.841
746.132
739.081
751.549
741.937
747.138
751.184
749.975
751.146
759.947
758.436
750.443
757.324
750.937
756.228
756.515
759.309
760.118
758.608
754.559
766.694
759.185
761.306
768.259
763.532
773.995
772.395
765.780
768.654
769.334
777.191
770.587
778.562
774.139
768.056
784.401
781.295
786.146
784.001
778.883
786.280
783.354
778.637
783.116
780.425
785.292
782.410
792.532
784.616
797.670
784.577
786.558
788.485
797.644
800.670
795.121
790.287
798.884
798.894
799.431
795.657
799.888
802.251
804.280
796.333
811.410
806.333
800.062
801.791
802.591
806.554
816.619
818.443
806.068
810.490
820.732
814.025
817.215
810.918
814.765
818.407
819.010
820.603
816.960
820.622
815.436
827.773
829.396
829.094
826.289
823.097
830.691
830.659
825.035
824.306
836.897
838.842
832.694
841.210
835.677
837.200
841.116
838.632
835.632
841.267
841.715
837.469
847.795
850.372
842.371
844.650
842.342
842.283
856.529
856.781
855.397
857.920
853.478
853.215
861.187
852.189
864.597
861.252
852.719
859.082
865.386
860.086
863.466
870.374
868.237
869.652
867.603
866.649
870.056
867.998
874.824
875.422
869.651
878.331
883.592
873.703
874.372
879.720
881.164
884.652
888.538
891.396
891.210
890.796
894.224
896.505
886.388
890.727
895.857
892.203
905.945
908.011
904.425
897.530
909.632
903.803
905.122
907.528
908.350
915.149
909.765
919.645
923.236
916.497
914.505
923.280
914.923
927.219
921.973
919.441
929.101
922.859
936.218
925.048
933.083
932.765
934.358
937.998
930.652
945.779
941.857
944.606
