104.875
107.499
107.317
121.358
134.692
107.603
114.643
119.439
106.503
139.264
103.788
122.194
101.548
119.280
138.910
122.558
101.651
130.589
91.477
129.640
89.067
137.286
95.163
137.355
122.379
109.505
102.918
127.681
99.550
129.996
125.457
117.278
126.651
100.740
109.680
138.424
109.385
96.079
105.418
131.765
128.072
91.857
118.357
104.703
139.308
94.203
112.743
121.340
89.503
92.848
104.578
123.236
125.165
125.483
98.413
139.455
135.168
117.984
129.385
132.766
112.151
121.761
119.755
137.457
115.382
98.718
133.568
114.475
94.982
95.114
128.627
89.933
115.243
92.448
98.993
113.449
122.580
95.523
130.492
128.241
102.036
130.181
110.447
132.727
117.492
121.120
107.496
98.961
138.021
135.035
111.309
102.492
103.708
91.513
126.211
124.080
113.199
127.884
91.704
132.001
126.876
89.545
95.884
110.241
136.878
109.136
92.888
126.571
88.903
127.114
96.776
125.925
129.978
93.445
95.775
88.881
132.450
110.452
129.400
135.673
89.946
126.359
111.412
122.325
123.659
93.783
88.535
95.997
132.000
93.400
115.655
108.499
91.272
120.021
122.974
117.680
136.889
92.023
121.352
128.171
115.202
115.014
130.420
135.091
102.775
89.265
111.860
109.437
94.888
126.365
94.623
121.275
93.517
113.884
100.187
91.742
131.803
137.493
128.100
133.108
104.398
119.807
120.561
111.957
118.003
135.439
138.221
117.806
124.615
132.709
124.510
138.896
140.260
101.870
114.761
130.158
91.637
106.876
127.633
100.363
97.808
97.970
102.724
131.839
121.944
121.857
115.960
125.261
102.349
137.888
96.693
137.176
94.533
93.147
90.769
128.994
102.440
121.877
109.161
135.401
131.227
108.421
134.662
123.255
140.508
99.948
137.960
137.219
124.476
130.609
128.975
102.579
128.690
115.743
110.933
117.868
110.706
110.733
105.974
90.698
111.701
96.079
137.342
106.574
137.800
106.928
122.595
142.048
115.848
138.902
105.572
108.514
117.466
101.845
142.253
125.579
111.982
122.894
96.832
109.106
112.318
119.898
133.540
139.521
133.477
128.737
91.835
95.962
131.843
137.446
107.493
112.360
142.199
139.179
108.541
100.587
95.968
107.234
137.898
103.497
117.323
124.357
136.055
132.037
133.071
112.465
132.258
100.618
142.942
129.733
119.458
117.730
139.327
98.649
120.025
120.638
104.187
119.483
140.805
129.733
128.265
110.604
131.931
122.164
108.730
133.349
111.755
105.389
116.129
113.458
100.599
118.856
136.713
116.150
124.323
96.686
100.448
103.677
112.448
129.756
139.536
103.115
132.185
143.211
143.809
143.240
114.150
132.742
135.704
113.271
95.861
127.479
135.225
97.154
116.533
113.581
102.165
102.793
115.388
125.835
135.115
99.412
129.686
109.440
144.804
119.956
128.666
95.084
111.899
137.973
108.596
133.028
138.104
133.272
132.109
140.991
131.186
121.871
143.710
120.898
98.645
104.941
121.022
113.993
110.508
109.061
94.492
117.080
117.597
97.653
123.178
135.576
105.495
142.062
103.858
122.315
145.999
108.469
103.188
118.173
115.888
128.493
112.495
97.584
142.431
145.801
118.423
139.817
102.430
108.916
111.562
103.358
121.312
103.453
124.483
122.127
97.321
117.347
131.967
139.960
139.495
100.292
128.700
144.679
112.047
121.302
118.742
94.314
100.366
141.247
143.525
143.429
143.943
99.515
140.234
112.029
124.613
103.486
104.948
110.363
115.434
104.750
95.733
142.052
97.457
111.353
96.818
137.444
118.910
94.380
134.210
110.350
120.223
129.905
129.536
113.262
134.793
106.042
109.229
133.718
105.055
118.525
136.500
114.844
143.974
102.200
138.498
144.675
105.366
105.900
142.183
105.842
95.832
125.713
118.248
121.858
104.663
98.279
94.692
137.002
135.209
123.916
114.129
117.543
125.794
142.682
125.579
143.813
130.740
126.904
129.978
97.408
120.789
115.281
104.928
116.242
119.400
99.987
115.011
140.619
124.399
96.241
103.927
127.702
105.329
91.925
124.856
121.870
136.332
111.703
92.885
111.912
107.843
128.122
105.666
132.512
130.024
140.727
111.806
139.156
116.887
107.594
108.840
101.639
112.973
123.343
119.839
125.915
93.824
124.972
130.185
100.463
115.504
126.879
97.738
122.315
112.833
127.681
117.396
134.333
96.742
121.642
90.420
94.416
137.052
127.220
111.875
135.012
120.269
130.325
138.334
135.882
110.841
125.878
123.449
130.067
139.955
92.946
118.458
136.374
128.670
114.857
99.488
128.999
92.178
103.974
135.682
132.406
99.237
131.837
117.656
92.097
115.071
123.581
116.281
94.556
128.219
109.542
121.810
89.785
120.629
92.673
131.831
90.182
121.377
114.406
125.732
128.729
101.653
133.769
108.968
106.031
90.233
131.278
99.148
117.857
89.562
131.854
96.005
94.138
115.266
100.202
111.769
97.773
117.340
134.189
116.243
118.627
131.298
99.634
89.639
100.167
94.063
107.341
120.531
138.952
134.814
99.420
138.105
138.675
96.969
102.365
127.617
99.612
134.692
116.788
138.124
100.618
91.894
111.845
110.442
123.363
121.421
100.409
92.515
122.507
100.330
115.014
118.789
139.886
107.116
116.033
125.184
133.547
138.915
138.740
93.939
130.769
107.073
102.231
109.799
117.346
95.562
120.516
98.197
97.617
122.890
92.839
122.865
100.571
118.795
93.850
98.786
131.651
110.007
142.100
104.030
113.678
123.061
112.563
96.614
122.782
136.256
92.265
94.083
110.919
140.424
136.176
130.660
104.068
138.383
113.769
135.505
112.907
134.115
103.990
126.476
115.163
103.186
125.275
140.565
110.680
122.554
128.700
133.282
134.794
97.313
133.187
97.673
108.347
105.875
118.413
140.890
98.737
131.927
108.405
122.493
92.981
99.839
119.635
142.512
141.231
126.403
132.674
102.040
129.646
97.937
94.345
92.496
105.434
125.840
142.494
127.177
109.667
107.632
140.367
124.210
104.215
130.557
133.690
108.908
118.348
108.350
124.249
131.595
100.431
95.363
134.230
142.267
129.472
143.969
94.364
111.376
140.218
125.741
122.927
115.391
130.759
101.326
103.268
116.007
117.126
104.453
135.335
97.217
95.008
115.869
119.213
95.598
113.631
118.085
112.568
130.848
103.602
122.289
113.335
141.801
140.075
139.846
121.247
129.909
95.973
144.392
135.752
96.671
112.564
140.285
128.720
124.179
125.086
103.616
121.951
108.715
104.440
112.597
144.347
115.592
95.251
141.262
135.464
98.379
141.215
108.956
124.503
107.824
127.581
144.313
138.771
136.438
132.532
114.043
96.061
99.825
116.200
131.171
100.157
114.039
144.929
121.051
104.927
114.087
94.947
136.478
139.069
111.355
140.455
137.678
144.374
119.658
138.507
101.933
115.392
125.788
119.550
97.634
110.625
126.343
115.128
103.538
109.217
118.996
144.685
133.637
114.038
109.946
95.873
146.075
96.213
117.983
101.491
107.024
113.934
98.673
120.163
120.583
101.681
108.991
142.275
131.572
132.502
143.433
132.927
128.715
127.180
96.234
110.637
95.472
121.869
114.468
97.943
103.513
114.228
114.060
117.269
136.675
144.315
130.955
134.450
130.421
145.081
111.046
129.554
124.384
109.454
121.707
128.060
126.490
139.305
137.050
141.293
115.011
104.840
137.132
109.860
114.550
100.784
129.762
94.855
143.411
122.638
114.245
110.122
134.570
137.184
133.916
112.547
114.425
96.965
118.339
135.199
108.106
134.359
144.878
109.467
113.619
116.205
97.161
111.696
111.427
132.071
114.943
144.800
110.068
111.575
140.053
100.173
102.590
110.753
129.923
105.085
111.757
125.944
127.154
144.250
110.011
126.321
116.235
139.095
137.989
146.655
144.433
112.328
117.766
98.440
107.918
128.262
127.873
94.996
128.209
112.969
106.865
123.626
95.382
135.567
144.159
144.196
105.432
142.852
143.649
143.113
127.313
125.596
101.611
144.659
139.202
137.445
130.208
110.416
132.134
108.507
96.514
134.478
110.023
110.614
140.402
122.187
138.887
145.163
103.779
130.626
144.262
127.258
125.835
146.266
102.801
103.808
113.593
102.895
128.814
142.299
101.701
95.453
127.707
124.552
138.712
99.055
132.476
95.453
105.050
138.112
102.539
141.564
120.354
103.888
131.331
117.820
95.302
97.001
132.900
128.027
138.362
129.152
137.517
108.854
113.424
100.935
119.373
124.596
104.413
136.592
129.093
129.862
106.336
146.227
124.543
110.169
124.216
120.693
96.114
113.913
129.914
128.033
99.152
145.480
126.138
132.207
105.773
139.538
114.181
99.119
131.280
143.864
103.586
120.473
126.591
113.804
112.964
121.520
128.409
127.596
138.503
142.854
127.375
108.545
143.588
112.630
117.987
100.903
131.303
94.753
122.120
136.277
96.632
136.679
108.771
116.115
111.669
113.217
144.045
140.326
127.196
123.048
130.580
98.013
140.064
108.363
144.089
109.988
140.570
143.075
99.925
117.810
94.043
104.323
135.941
136.894
143.539
96.247
106.308
97.475
130.738
104.132
104.646
115.087
123.496
133.742
139.375
116.103
99.567
110.152
114.785
102.021
138.701
132.754
129.125
122.090
137.487
132.731
124.464
131.121
96.030
104.486
133.213
97.168
127.405
141.040
143.514
111.728
125.241
93.548
132.003
117.670
120.387
96.886
95.082
131.012
136.435
98.089
110.628
139.114
115.844
132.403
139.594
128.418
142.814
105.081
112.932
111.336
125.127
121.309
111.035
111.295
96.506
123.293
94.986
101.098
141.513
106.563
106.779
115.672
117.368
111.007
111.474
98.978
104.403
117.847
106.077
104.261
95.725
115.122
126.092
140.241
127.547
117.063
99.269
128.943
120.958
111.276
128.118
127.536
119.882
136.238
90.844
139.881
126.055
100.078
111.266
93.328
118.314
137.897
108.862
101.305
94.712
110.767
119.595
137.991
97.838
89.520
109.804
128.353
138.170
120.411
132.965
100.916
101.501
124.971
102.566
104.202
116.303
119.020
104.503
134.776
121.439
115.570
135.651
106.978
113.779
90.705
131.539
116.892
114.454
96.643
97.173
133.516
110.015
103.408
137.472
95.107
107.755
100.397
125.541
123.861
109.615
93.151
113.526
119.652
104.015
95.472
98.603
126.570
101.168
99.244
113.521
121.667
105.987
132.579
121.481
118.176
99.372
126.173
130.790
105.871
98.385
128.586
101.142
91.002
132.540
141.300
112.346
103.653
92.831
104.692
97.324
136.385
132.300
106.510
92.207
99.089
112.388
105.708
123.721
135.315
100.355
103.228
117.498
137.260
120.472
118.059
101.929
95.703
134.239
122.211
139.775
91.284
123.648
97.580
142.315
106.862
136.039
94.192
140.030
96.141
131.294
108.377
128.902
130.022
124.201
125.531
108.881
113.760
116.695
107.799
106.963
124.738
123.124
110.860
128.082
135.461
108.114
122.499
121.530
96.404
140.782
132.152
129.675
128.828
131.563
135.572
106.901
100.900
121.597
95.826
113.546
110.699
105.010
141.903
93.283
122.232
139.367
96.872
119.962
131.727
130.523
103.254
143.376
134.769
108.958
132.744
108.237
116.802
116.543
128.047
105.833
143.175
117.644
117.238
130.058
134.341
120.208
111.177
97.286
118.830
105.813
101.283
135.304
100.948
117.080
100.042
111.574
132.677
144.443
136.807
127.009
103.900
133.716
96.777
102.887
128.347
101.487
143.805
93.174
100.070
125.934
122.607
135.348
112.312
138.309
118.010
129.493
105.639
127.103
119.535
114.731
98.107
102.075
115.631
145.445
99.733
141.069
115.383
134.360
100.423
138.435
117.168
110.096
119.693
114.488
138.629
98.498
112.752
124.372
139.530
119.572
111.816
106.356
128.242
134.902
104.005
106.237
120.066
115.865
128.333
138.235
97.732
135.825
132.956
121.112
140.397
125.663
122.660
124.791
103.632
113.388
107.864
114.130
96.122
102.918
143.379
143.448
133.964
143.456
114.201
122.486
116.958
100.670
129.861
105.244
122.701
122.794
96.377
140.916
126.559
98.079
98.926
101.525
122.248
100.742
100.541
111.675
94.853
117.211
123.109
117.417
109.662
109.483
118.512
128.378
115.001
146.616
144.960
118.256
133.026
98.724
104.836
112.932
117.398
118.809
109.003
101.408
127.716
104.358
100.780
134.578
108.195
118.590
128.784
130.319
109.858
143.341
96.436
101.646
109.723
132.714
111.454
101.971
127.513
137.802
141.366
117.198
113.953
110.491
120.841
111.160
126.409
126.680
126.459
117.667
100.769
96.733
138.722
125.028
101.404
115.441
127.752
101.810
128.258
139.241
95.291
98.016
128.852
101.362
120.643
133.426
138.294
102.046
113.068
109.473
108.226
99.744
114.898
133.941
101.040
137.647
121.082
105.614
142.363
145.250
101.509
136.623
145.055
134.849
112.298
103.492
99.292
99.250
106.898
103.854
109.866
111.676
120.180
128.465
95.830
107.367
132.145
101.100
111.999
124.214
139.227
122.383
117.783
112.542
128.341
118.750
95.073
141.833
139.672
112.035
131.102
101.714
110.592
143.079
146.386
133.425
128.447
127.354
142.619
96.728
114.945
105.046
103.875
102.257
115.842
98.100
115.931
98.499
101.427
134.840
134.497
125.413
122.303
44.933
32.700
43.873
35.922
44.703
30.207
41.817
39.360
33.029
43.448
41.858
36.909
43.788
37.513
31.242
33.522
37.630
38.468
40.939
35.606
43.578
41.043
34.303
40.941
37.009
35.420
42.925
45.010
36.556
42.535
38.391
30.899
30.067
35.470
32.037
44.366
36.890
31.453
44.106
37.921
37.933
30.124
43.187
32.761
36.925
938.744
945.576
965.128
943.019
954.369
955.236
952.425
966.308
956.425
966.846
966.387
944.066
969.270
954.619
948.636
952.165
962.277
948.647
972.160
954.514
957.874
977.133
975.472
955.656
981.115
956.422
956.464
955.830
983.993
957.661
980.704
978.077
981.003
987.331
973.584
963.521
963.042
976.956
967.696
991.451
991.848
984.038
976.946
989.279
983.155
981.434
978.370
971.787
977.848
981.593
992.527
994.110
996.787
993.232
977.078
999.498
1001.110
994.767
990.579
1003.749
987.102
1005.955
996.136
999.716
1003.344
999.551
988.889
989.547
1005.222
993.720
1000.328
1009.795
992.875
1002.698
997.723
1007.560
1002.278
996.765
996.109
1016.095
1004.780
1016.268
1013.822
999.514
1008.553
1020.087
997.770
1004.978
1002.330
1002.512
1006.637
1024.587
1028.917
1013.964
1004.436
1030.487
1020.812
1028.574
1020.992
1020.878
561.644
568.440
575.363
566.087
567.402
576.547
570.745
575.373
573.584
576.049
575.654
567.381
572.174
570.084
568.674
577.755
573.200
581.505
576.204
566.441
577.331
578.950
582.640
580.718
577.718
573.673
579.582
583.258
581.516
585.012
571.780
573.063
586.281
585.869
582.577
575.797
588.551
580.690
581.028
583.304
589.522
582.901
581.096
578.720
582.100
583.761
589.177
591.664
578.951
578.587
592.500
586.394
585.541
589.360
586.280
585.628
583.092
591.385
581.875
585.411
590.144
582.856
585.979
585.361
592.944
589.712
599.016
590.056
586.382
592.985
599.596
588.467
587.348
592.588
602.209
589.228
598.524
601.029
590.277
603.946
605.544
602.941
606.698
605.418
596.593
599.960
597.106
599.064
599.139
603.667
605.872
596.998
610.395
599.197
606.256
604.194
608.412
603.716
597.840
604.443
606.503
604.846
613.421
605.141
607.381
609.159
605.294
611.372
613.382
613.014
619.568
621.683
621.655
619.178
621.059
614.435
617.486
627.184
614.459
623.252
614.518
615.557
630.005
628.063
621.702
621.004
634.626
632.213
627.437
632.481
622.839
630.925
629.765
636.106
630.906
639.681
629.582
629.797
631.406
636.417
637.883
638.356
635.690
636.511
639.876
636.879
638.411
651.579
651.773
653.379
650.752
645.883
646.859
646.558
652.981
647.184
655.866
649.538
654.887
654.156
647.035
647.577
648.556
661.803
662.832
659.795
660.110
663.925
663.787
667.369
665.846
659.750
658.207
665.075
660.261
670.473
667.767
660.951
661.787
674.435
673.382
675.101
665.907
666.548
675.489
674.396
675.857
682.391
678.764
681.403
674.970
673.939
677.096
684.386
688.018
682.287
677.369
689.875
678.048
692.601
694.591
692.878
687.143
696.823
683.683
688.089
691.678
700.489
692.592
699.574
702.189
692.165
701.283
702.521
700.337
692.280
699.535
705.274
700.405
698.451
698.390
697.116
700.184
707.696
708.453
707.032
714.136
708.143
711.049
704.656
708.195
713.142
708.273
707.000
710.168
712.953
710.245
714.644
720.580
713.889
717.062
719.918
728.802
722.668
725.116
720.015
719.790
720.074
728.457
719.893
734.119
727.712
727.748
736.336
737.644
732.968
739.044
734.165
731.694
731.996
729.361
738.956
736.159
740.273
742.462
744.179
745.286
735.955
747.541
749.549
740.353
741.100
740.455
748.143
748.712
740.290
752.554
754.126
745.617
746.743
756.867
747.013
750.127
758.522
752.770
753.999
759.707
758.864
756.892
760.466
760.661
767.497
758.987
760.488
763.051
766.306
772.226
759.886
760.617
768.012
760.822
765.339
766.281
768.892
766.468
775.885
774.935
768.451
764.022
768.785
771.695
769.287
765.675
768.746
763.139
761.443
770.839
760.867
762.989
768.514
776.285
774.414
771.735
770.687
775.384
764.823
763.692
771.585
772.612
776.525
771.358
775.889
767.702
774.581
771.697
