118.822
147.844
118.477
140.724
124.698
115.907
122.405
101.822
114.868
129.978
112.817
132.350
102.381
110.219
113.678
117.679
122.511
121.299
152.052
113.283
142.636
125.259
129.363
133.782
104.522
112.997
121.683
132.027
135.751
138.899
147.681
149.492
127.306
120.388
149.094
115.353
141.214
114.304
146.386
147.929
107.833
142.232
102.902
128.321
124.085
133.638
122.379
110.989
135.998
104.327
135.943
150.318
122.186
106.583
124.189
105.688
104.461
106.041
146.394
130.775
149.982
152.622
132.445
144.432
114.807
139.804
153.098
130.168
111.715
102.584
121.237
125.064
127.713
120.089
126.912
143.410
125.824
108.958
123.168
103.351
141.557
148.084
135.181
131.183
135.199
118.958
128.046
149.513
106.042
136.544
148.092
151.834
144.480
131.400
113.757
139.824
123.704
151.308
142.492
115.176
136.747
127.320
148.690
149.904
146.768
114.987
110.455
104.446
136.541
107.740
114.569
140.199
128.135
149.088
133.552
143.101
145.064
149.072
118.401
135.570
144.293
146.079
147.936
139.744
139.809
123.151
123.771
134.823
119.276
125.684
108.136
146.343
115.623
109.358
102.614
143.021
107.255
142.339
102.478
102.346
149.935
117.097
147.673
102.634
137.822
129.347
114.377
148.848
128.283
141.605
128.127
102.407
138.445
124.279
127.927
119.864
113.627
108.920
149.106
119.864
148.291
142.076
114.107
104.720
104.513
127.810
144.718
149.445
145.615
136.501
116.802
119.179
151.891
135.751
109.531
118.614
103.013
148.543
148.667
140.531
132.993
147.643
120.671
113.314
108.613
139.719
102.080
131.987
143.580
143.171
136.898
111.365
109.800
120.237
140.404
138.107
101.172
151.896
114.866
109.449
123.582
113.477
121.424
143.662
106.938
135.159
105.990
132.315
126.465
134.190
141.972
107.043
107.444
122.701
134.684
121.271
135.820
146.673
130.715
146.126
145.448
115.114
127.567
114.348
127.182
106.788
125.408
113.288
121.840
151.748
117.420
119.326
112.707
126.442
114.428
142.707
138.580
149.584
122.625
117.572
148.161
122.621
128.154
150.140
112.449
138.562
106.865
106.349
104.105
105.584
118.335
128.035
111.214
116.305
148.428
119.030
145.866
130.326
114.224
101.406
104.039
109.229
133.183
147.958
118.216
107.486
123.388
105.525
103.512
143.540
139.875
140.853
136.921
121.371
129.887
114.729
152.254
129.359
135.484
146.303
134.633
106.259
117.208
107.047
114.966
110.388
128.094
130.166
118.735
130.442
118.894
153.002
107.828
151.410
118.520
138.029
118.034
146.941
124.566
113.434
114.405
145.152
128.408
119.512
152.391
115.598
120.634
134.674
115.034
141.399
147.558
130.893
121.986
129.229
134.676
106.030
114.185
107.949
134.910
106.718
130.867
128.882
109.932
103.101
133.739
119.034
139.698
128.316
152.907
133.741
107.853
123.283
122.769
106.658
146.330
148.376
139.588
113.094
133.438
132.375
137.251
103.757
140.463
129.829
101.760
152.184
140.895
145.651
111.286
119.164
117.520
151.015
152.548
149.604
122.268
134.003
145.421
147.000
122.715
127.611
141.588
119.355
140.269
120.301
139.045
131.412
117.766
138.218
128.631
138.284
121.273
144.411
134.071
120.079
101.847
122.633
140.318
102.519
133.023
136.166
141.819
119.717
137.578
107.643
144.052
144.646
146.321
113.795
117.864
135.983
143.512
152.422
102.456
124.883
146.079
132.553
122.374
110.846
103.292
105.734
144.464
123.146
138.659
121.917
152.993
135.355
122.976
118.697
127.224
130.700
132.213
151.428
130.628
104.278
147.614
110.145
127.868
140.457
110.176
101.406
104.144
102.928
107.901
104.723
133.813
118.481
121.303
140.801
133.508
124.425
104.076
128.086
121.835
151.672
109.725
125.048
131.096
147.271
107.994
137.972
149.884
146.455
139.424
146.279
146.414
114.466
101.463
151.068
114.580
152.972
126.877
104.720
123.809
118.360
114.397
138.349
126.469
104.290
109.455
124.114
132.814
128.188
146.021
132.585
131.618
137.935
119.664
108.740
120.369
114.291
123.633
145.766
133.940
141.980
113.742
123.797
150.778
149.324
104.592
105.150
113.661
115.690
146.766
125.320
137.668
122.503
149.709
118.307
106.524
146.872
104.168
134.306
120.827
122.517
138.234
151.034
140.307
123.897
106.417
118.547
151.737
111.442
149.359
129.306
136.049
126.645
141.308
117.554
146.266
152.743
138.876
128.034
139.119
107.255
118.109
134.761
151.760
141.029
148.809
108.473
123.932
150.166
152.243
143.325
146.666
141.215
122.695
151.896
120.528
141.962
122.072
107.766
117.731
131.694
114.354
131.609
152.527
107.681
148.937
113.263
139.618
129.236
123.358
150.864
120.671
111.103
151.110
138.110
112.717
139.611
144.937
144.618
101.776
101.340
104.431
149.138
151.419
132.452
137.762
103.284
118.514
114.697
148.474
138.097
148.002
110.781
122.638
149.585
149.708
147.233
108.121
139.971
132.554
147.441
151.978
105.402
121.770
116.372
139.842
102.613
120.667
117.150
113.357
118.773
145.403
118.616
130.981
140.871
149.092
140.817
118.934
152.820
113.897
143.052
145.536
114.299
133.087
107.633
152.424
121.092
102.732
107.183
112.699
112.214
102.679
116.873
119.192
150.414
139.485
143.058
120.625
102.635
132.729
127.257
152.896
125.037
139.428
140.495
113.315
110.993
134.784
114.673
136.661
151.933
126.015
146.275
116.762
147.955
117.876
119.932
119.665
119.579
143.681
141.236
136.076
102.338
139.841
132.803
109.530
139.052
122.724
129.377
133.495
136.369
118.984
137.327
140.849
109.229
115.787
117.892
145.796
129.794
152.495
144.323
125.032
130.522
150.990
106.456
102.338
143.254
130.608
143.240
141.033
135.591
116.734
109.235
148.008
150.973
126.953
127.090
120.759
103.043
148.180
102.960
138.577
132.624
148.378
108.543
110.272
135.383
125.536
140.503
148.091
145.531
122.337
107.193
117.809
113.591
114.569
103.867
133.660
135.523
124.044
138.648
151.977
144.474
103.054
146.862
103.445
105.594
132.129
114.165
128.532
152.740
131.042
103.566
124.601
122.120
118.332
119.752
127.617
146.733
146.932
145.986
111.270
114.716
109.848
152.848
121.592
142.199
116.634
144.424
128.106
147.378
146.586
152.583
113.249
125.510
139.134
105.840
131.657
116.459
108.056
133.566
150.303
145.907
107.699
117.813
122.923
130.848
113.281
123.655
104.593
141.835
111.095
107.047
120.823
121.285
104.503
130.585
143.623
132.001
111.701
143.816
151.003
104.979
132.450
113.961
110.587
129.110
117.933
103.546
141.017
102.456
119.777
147.732
151.828
139.747
129.010
109.126
127.311
133.877
138.864
142.039
114.171
124.954
105.543
114.739
149.252
133.366
126.020
127.828
124.690
143.247
113.484
119.430
132.911
116.088
152.437
138.228
140.011
150.341
107.916
110.926
137.481
118.399
136.107
127.296
150.671
131.200
116.743
148.012
126.288
152.069
142.558
105.129
138.328
109.036
120.566
101.230
149.788
141.975
130.261
140.798
148.974
103.686
111.719
117.639
137.604
136.667
150.639
109.613
145.833
116.667
149.440
113.608
134.601
126.946
134.799
153.121
153.084
109.068
148.545
102.235
120.965
116.281
122.876
118.915
143.352
144.773
112.992
106.499
103.063
101.728
142.233
143.034
117.523
124.125
113.383
117.968
106.494
121.728
121.881
123.672
132.604
131.123
142.693
142.243
124.294
124.210
131.683
129.019
129.500
102.394
144.714
124.416
118.000
116.266
130.421
143.490
153.076
117.994
126.290
126.559
128.351
123.687
152.963
117.315
127.404
121.312
128.995
112.513
118.867
109.569
113.319
151.971
141.024
148.829
134.059
144.957
146.727
141.510
131.115
123.127
115.753
121.695
141.862
112.800
132.062
125.423
144.334
102.461
114.899
124.636
113.109
131.436
124.410
118.260
129.563
141.859
107.500
136.217
132.117
143.413
118.036
125.936
133.406
151.779
122.115
125.216
109.169
116.165
140.804
144.400
108.120
148.583
115.217
107.262
116.720
120.861
143.782
125.353
144.714
124.456
128.571
135.130
136.791
108.814
132.530
126.397
152.831
144.380
132.423
110.974
111.050
129.063
131.271
146.779
111.597
141.279
121.740
145.503
126.300
128.560
108.758
105.257
117.000
119.347
109.945
131.962
113.808
109.122
141.980
140.844
128.054
115.343
147.591
126.848
146.595
123.991
148.492
112.672
146.461
149.652
120.708
136.183
123.117
143.438
103.284
146.093
121.207
112.368
112.811
112.597
129.343
115.478
102.142
125.680
152.830
123.643
105.438
119.854
137.677
148.686
150.105
122.428
145.904
146.807
144.783
103.347
105.712
104.653
140.808
143.705
127.512
132.840
130.524
125.991
103.346
108.780
129.315
124.770
141.391
145.117
140.514
141.042
147.413
121.405
114.843
105.254
136.488
135.685
137.677
129.959
151.956
125.163
122.645
149.090
150.397
124.101
106.929
153.102
123.944
140.117
136.829
122.205
137.042
119.048
130.251
122.483
116.359
119.040
103.607
105.472
106.332
145.984
146.622
149.951
115.786
136.776
149.810
145.727
101.427
101.154
143.376
101.405
138.734
120.893
119.449
109.375
152.202
146.355
129.550
145.263
108.278
118.653
150.968
113.955
111.363
117.576
132.707
116.867
109.784
127.568
141.669
128.344
149.157
132.516
124.654
129.571
122.423
103.143
146.982
141.544
143.286
143.113
137.665
111.928
150.374
148.224
135.571
111.257
149.589
147.491
141.884
117.038
112.725
116.904
136.319
126.051
102.106
135.422
141.171
108.608
125.547
147.907
137.040
135.922
120.306
147.681
149.141
129.520
138.208
116.307
126.351
133.303
150.001
151.252
136.603
105.346
152.640
117.434
113.846
137.111
144.665
117.786
125.614
152.210
124.693
106.223
146.382
120.919
119.705
111.828
107.172
131.968
132.616
148.273
103.254
136.478
134.089
129.078
129.815
108.544
123.222
129.742
127.222
137.694
128.214
110.038
137.433
142.910
121.812
149.569
120.023
152.702
124.219
125.269
141.656
136.004
120.262
112.358
117.599
117.399
127.085
131.798
110.436
111.218
120.960
123.651
120.908
112.489
148.275
150.621
117.059
151.744
147.519
117.954
143.602
140.361
151.202
107.839
132.689
105.188
114.693
148.986
119.442
133.208
138.225
129.644
143.101
126.272
120.907
101.821
126.952
120.884
152.775
129.689
129.791
132.277
110.809
149.708
112.751
126.584
109.982
150.046
129.561
144.491
147.048
106.032
122.986
130.410
115.600
126.700
112.710
129.506
147.875
145.745
149.239
133.040
122.359
108.703
105.483
118.571
128.330
149.725
134.086
114.007
128.397
149.371
108.190
109.041
119.005
114.059
136.786
129.390
137.007
128.225
130.392
121.577
142.001
104.651
127.170
112.230
101.426
130.746
133.413
123.430
128.161
120.415
135.043
125.057
148.745
139.550
108.365
146.864
136.021
142.020
109.155
110.569
119.175
110.257
107.723
143.544
122.777
105.748
147.062
151.183
148.689
113.796
112.313
140.021
133.942
152.720
126.139
144.252
118.334
122.494
116.430
146.791
111.234
101.521
114.372
110.854
133.574
126.692
124.943
107.371
113.050
109.777
131.065
103.249
103.066
123.186
136.298
110.631
130.310
122.251
128.180
121.128
103.650
108.721
121.292
132.446
102.314
124.233
110.762
134.458
121.278
132.065
107.883
101.295
147.240
146.773
118.410
123.930
115.708
131.416
124.173
127.163
102.034
113.091
117.947
124.109
130.364
124.124
112.417
111.936
129.230
108.158
102.072
145.986
102.200
118.016
102.611
124.161
134.577
115.018
121.333
122.361
118.593
141.761
150.561
130.823
108.985
111.004
118.257
106.807
112.538
103.704
145.091
152.207
119.814
130.333
138.124
119.669
146.550
141.152
108.750
118.508
106.676
134.526
152.270
123.515
114.089
104.896
147.667
106.091
127.612
131.230
107.247
135.252
126.711
139.062
136.991
141.823
147.956
112.875
101.518
150.607
117.851
143.142
120.427
122.130
126.424
129.452
123.869
104.429
130.833
134.649
123.360
152.043
108.805
139.105
141.140
152.824
150.070
132.629
124.274
122.162
120.595
132.829
138.350
147.743
109.249
119.677
115.271
115.648
121.953
110.116
138.757
125.934
139.145
134.138
102.442
132.722
106.637
105.782
149.776
109.738
106.376
117.999
140.367
103.851
117.829
127.320
140.578
113.554
152.880
107.221
127.631
153.095
117.362
133.096
143.030
122.568
147.868
125.117
130.324
137.002
116.678
125.770
108.206
123.395
137.042
118.371
103.430
104.366
134.784
137.615
113.603
147.362
126.279
133.122
125.252
147.858
136.975
130.027
151.916
116.590
133.612
105.593
127.193
134.659
117.759
122.309
113.436
135.400
141.513
151.447
114.297
108.220
112.368
101.794
114.922
113.937
121.361
128.466
106.200
142.061
104.054
128.319
146.639
135.773
152.943
147.069
133.857
132.326
144.842
152.645
122.819
114.871
113.172
133.511
108.018
134.186
124.356
106.114
135.149
132.036
115.145
117.975
126.651
123.560
124.299
146.623
152.226
130.652
150.638
141.163
120.035
118.052
139.614
152.411
132.044
130.915
105.435
150.135
137.884
113.524
120.402
103.642
143.669
131.340
123.048
104.432
152.280
103.787
140.712
132.649
134.031
134.226
112.234
152.572
113.081
144.790
111.220
133.860
152.033
103.731
101.999
128.382
148.721
127.221
127.855
135.413
134.245
114.690
114.615
102.928
120.031
142.314
102.280
114.907
135.904
133.910
103.708
126.303
128.212
103.068
149.779
123.536
114.707
146.122
133.789
104.204
141.021
103.150
124.411
149.398
151.871
132.080
148.544
146.341
152.362
118.452
115.863
149.439
101.893
121.320
130.977
121.051
135.665
127.634
116.244
135.077
146.900
151.430
129.129
104.896
128.833
106.396
120.069
125.046
110.714
142.710
140.891
125.513
125.873
110.247
115.746
125.719
106.709
143.880
126.652
130.254
118.855
133.250
138.133
138.735
134.743
126.509
141.942
109.501
126.184
150.768
111.779
135.772
102.972
104.585
151.714
125.016
145.588
144.062
133.133
141.496
140.416
108.289
135.801
121.245
124.491
115.719
138.663
143.815
143.591
141.045
141.011
114.835
148.558
102.478
127.219
114.250
142.088
147.895
137.916
151.005
113.167
153.108
114.548
117.498
117.667
151.932
119.755
122.431
129.001
113.924
129.457
137.644
136.069
118.473
114.802
125.502
111.269
128.064
134.313
109.951
114.143
124.432
122.851
110.754
131.954
146.654
138.816
113.524
104.018
127.054
119.652
144.035
114.812
106.927
123.033
127.673
106.033
127.234
135.767
151.214
125.142
133.165
152.581
120.664
135.418
128.591
133.899
138.721
110.009
111.877
127.826
123.733
126.619
135.267
145.680
145.946
121.924
130.707
113.651
132.547
135.088
116.675
143.303
142.231
128.346
101.855
113.068
111.863
113.445
114.258
152.661
150.805
115.432
117.815
127.624
110.810
123.249
138.323
152.178
125.942
127.335
148.689
119.677
124.550
137.292
136.223
108.185
123.061
109.646
133.317
127.786
132.308
131.874
135.840
152.118
141.111
144.220
119.860
125.357
124.954
104.248
106.162
102.541
144.417
141.247
116.327
130.767
116.790
106.670
113.179
152.917
115.522
131.356
116.637
129.710
121.832
147.856
104.530
150.895
117.270
112.810
144.004
140.237
146.751
113.613
124.813
134.849
130.806
118.049
130.380
144.338
132.778
143.765
128.812
134.847
107.473
111.763
127.486
142.290
141.590
115.957
105.373
133.133
126.711
107.221
143.723
121.756
114.178
119.946
127.001
108.647
146.322
135.055
145.447
115.120
150.777
127.069
112.927
151.477
109.189
115.321
133.404
145.509
126.270
139.070
134.263
138.285
117.226
106.618
137.152
150.742
152.563
105.225
142.171
109.050
135.236
110.154
150.788
143.279
125.714
149.538
126.915
138.684
134.420
126.624
116.689
112.451
150.605
113.902
121.833
108.778
136.337
151.052
131.758
107.033
137.959
128.428
133.061
143.014
139.305
127.793
148.283
131.978
108.370
126.810
146.514
148.027
145.313
145.389
140.645
104.055
122.040
124.588
146.166
125.927
115.453
135.786
116.243
133.513
111.837
149.273
145.395
140.831
117.523
139.006
115.786
152.559
106.990
137.978
115.148
142.255
147.363
142.108
112.611
139.604
102.083
107.354
143.666
131.213
108.287
146.891
108.495
116.322
106.537
103.638
37.555
41.143
35.507
43.772
37.909
34.075
32.472
38.383
43.682
44.772
36.478
37.654
36.241
40.720
36.386
34.518
42.887
34.968
40.105
41.107
37.125
35.083
42.553
31.739
45.373
38.085
44.798
33.629
42.854
38.721
44.148
35.170
32.759
39.362
31.829
41.701
39.571
37.274
36.504
37.340
34.495
39.225
46.706
39.326
31.659
45.901
44.724
40.479
33.907
794.559
804.830
805.341
803.319
810.798
803.169
816.283
801.380
807.934
827.286
825.484
810.896
828.701
825.392
822.178
842.198
824.487
831.103
822.900
834.942
841.032
852.133
846.248
839.857
840.483
848.935
856.826
845.597
858.174
843.958
863.395
870.575
855.995
870.651
867.477
874.082
866.681
871.712
864.015
868.223
872.643
872.708
879.508
881.541
870.092
887.340
891.803
877.274
888.447
887.667
890.738
888.172
893.605
908.184
899.226
899.781
912.432
909.395
901.403
915.592
