110.806
147.151
132.813
153.110
137.647
131.798
106.524
141.260
104.093
117.924
128.169
130.382
139.063
149.027
134.351
149.411
106.849
116.973
138.402
125.105
124.801
122.875
137.414
118.790
122.642
125.895
128.468
114.925
143.292
124.964
132.641
103.381
151.505
134.235
117.900
113.000
148.429
139.798
146.344
127.638
124.995
145.117
136.671
101.270
116.626
104.937
123.786
104.498
131.982
129.635
148.570
126.707
110.934
120.997
118.763
129.541
116.809
125.852
113.871
152.009
112.512
125.197
148.219
119.175
138.411
107.415
150.361
130.899
128.393
103.103
143.204
143.479
127.365
144.426
108.530
111.309
116.453
107.416
109.547
121.640
118.259
113.058
120.595
108.568
104.916
147.754
142.943
102.900
149.121
126.034
106.492
113.374
101.868
147.172
104.798
142.825
103.329
107.156
126.480
109.692
144.305
120.877
109.154
119.324
124.802
150.617
146.245
111.525
107.719
152.263
107.818
144.436
138.075
144.319
128.681
122.280
107.073
113.991
128.585
143.800
134.051
114.847
148.639
104.647
150.766
130.547
147.897
101.499
141.097
136.451
112.675
148.552
129.427
103.862
143.006
143.229
111.217
129.127
102.092
112.044
140.942
132.244
107.076
105.080
150.586
115.909
126.613
146.592
116.525
133.095
119.271
141.110
146.012
133.087
120.366
124.985
149.078
116.726
101.742
117.418
146.603
133.437
113.930
131.579
111.050
123.950
131.701
102.832
131.097
110.279
115.550
112.870
120.981
111.901
150.616
127.402
136.001
153.111
127.303
120.054
107.988
139.777
103.201
112.027
140.135
145.145
146.260
121.994
116.887
146.268
113.938
144.333
108.019
133.903
125.581
140.418
139.000
144.617
146.705
114.008
131.197
132.399
128.692
101.358
139.431
134.891
128.589
109.174
139.249
150.789
139.452
116.400
138.858
147.242
138.018
121.776
107.939
118.721
114.680
150.527
132.243
117.150
126.102
149.593
105.247
151.338
128.973
111.833
128.317
120.724
101.633
110.715
115.376
132.475
109.035
136.370
104.967
122.112
139.820
149.497
134.878
148.662
145.623
141.478
125.339
132.892
102.768
126.285
127.021
152.557
126.032
132.433
116.362
131.447
122.444
111.266
111.271
140.828
145.442
147.039
108.996
120.628
145.053
124.280
110.085
106.756
142.281
102.686
144.340
111.998
113.297
129.733
141.060
136.741
102.162
127.290
122.041
101.663
138.521
105.523
140.008
150.911
124.197
135.516
105.136
119.441
118.363
135.179
121.925
128.985
151.158
116.645
122.547
134.374
131.920
127.678
137.109
136.889
123.711
110.882
147.345
134.129
128.605
143.669
120.606
136.854
137.669
121.462
133.026
102.514
148.903
141.149
132.367
121.320
111.938
106.242
104.230
127.702
134.222
103.883
111.651
130.563
128.735
143.858
151.791
150.224
118.711
139.855
106.596
106.336
134.312
124.936
150.698
107.182
127.647
139.101
124.848
108.399
122.003
130.712
144.449
149.390
113.006
122.106
126.121
143.405
112.575
115.574
126.124
106.196
106.525
102.042
101.794
102.153
102.913
143.135
141.090
117.347
153.069
120.259
137.117
140.157
104.584
137.118
147.974
135.154
123.304
136.683
135.810
134.409
139.535
147.653
151.927
115.335
125.915
109.958
133.481
144.459
115.622
134.616
145.378
115.542
104.067
102.057
104.084
150.028
102.627
148.408
122.276
112.297
128.275
126.690
112.482
123.681
143.179
102.614
102.712
121.473
129.405
128.432
146.892
127.092
102.751
101.581
122.248
119.220
143.858
107.149
148.418
115.377
131.341
105.092
136.706
114.819
101.196
113.126
149.504
108.669
151.336
113.766
149.864
103.513
152.685
106.775
124.493
114.480
122.416
148.336
137.883
149.685
110.330
140.287
120.525
116.593
127.822
136.608
105.115
111.777
123.961
109.468
150.988
131.328
138.026
122.562
146.835
111.255
118.443
135.697
107.376
128.512
112.157
148.821
122.661
143.177
113.147
150.688
147.160
143.000
101.461
142.509
144.949
143.943
123.015
148.882
111.968
142.764
119.512
137.543
127.497
140.735
144.486
139.127
133.098
135.952
138.123
109.588
110.655
105.287
120.690
133.500
132.290
151.264
119.253
114.746
110.817
117.620
124.205
132.734
142.426
113.973
146.457
120.195
111.693
122.299
143.145
104.895
133.027
150.496
132.945
146.873
129.064
138.035
108.659
139.042
129.960
107.644
106.860
151.688
150.942
104.412
135.102
116.614
139.353
114.482
119.990
134.656
148.911
115.441
123.615
142.502
131.238
108.851
118.758
102.578
112.787
107.630
104.785
150.816
124.545
101.141
142.392
142.951
127.945
110.852
101.254
110.130
117.883
153.113
151.661
118.799
112.048
116.333
119.509
110.250
109.252
124.208
119.758
134.924
106.506
114.099
149.383
136.069
137.470
127.740
149.388
130.124
146.445
112.950
129.601
124.208
111.475
139.463
117.918
127.986
145.051
110.118
117.936
127.085
117.707
151.119
125.815
152.183
109.298
135.631
124.919
120.809
138.000
122.408
120.821
123.368
123.220
148.498
144.910
129.436
117.973
129.628
119.482
104.775
145.666
140.867
115.811
123.591
132.210
106.145
134.637
141.407
133.476
135.677
142.766
109.133
115.577
152.304
118.808
135.792
141.035
101.301
113.527
151.490
141.330
149.814
120.865
103.521
108.293
120.819
118.280
122.133
103.307
108.130
112.271
142.677
143.791
125.980
117.130
136.274
109.671
116.197
105.664
147.481
147.851
122.089
112.087
136.860
126.436
131.661
121.134
138.560
124.327
122.521
115.537
109.119
130.940
115.457
151.498
126.691
108.657
110.119
109.300
140.917
112.764
153.066
115.811
149.414
148.495
121.784
145.816
108.344
139.761
107.333
125.561
108.150
122.531
133.838
118.441
124.559
125.279
118.591
120.516
103.344
146.713
143.826
149.472
141.075
108.839
118.726
152.138
148.425
109.059
140.209
146.552
102.667
121.248
124.674
108.698
146.890
123.767
110.832
128.894
147.703
134.189
120.088
147.110
115.696
116.356
130.677
123.187
151.531
124.912
122.213
120.122
142.602
105.582
152.696
121.799
148.049
142.920
152.842
138.793
145.867
137.716
108.216
109.885
113.880
125.923
114.880
102.833
129.045
133.452
114.581
144.193
133.164
128.922
102.545
111.485
122.067
149.268
137.642
103.623
128.950
148.547
130.605
124.288
102.472
116.310
152.349
139.298
152.821
145.072
136.569
105.743
133.838
120.187
119.503
141.790
130.601
146.433
140.628
132.480
126.767
104.144
140.200
134.469
125.631
120.961
140.677
146.683
114.816
139.419
111.556
108.329
121.255
109.963
129.244
128.593
112.299
123.782
147.536
144.583
139.274
110.157
147.866
146.306
121.154
103.183
109.000
150.411
110.211
113.004
114.211
126.185
131.228
130.173
106.399
149.681
128.276
125.363
103.706
132.424
101.741
115.698
143.847
114.167
111.618
131.268
125.570
142.909
140.793
151.380
143.365
132.423
120.851
130.773
136.420
110.487
110.153
107.134
144.563
127.108
104.657
121.044
122.879
137.730
102.828
134.412
138.492
136.751
103.556
152.402
104.137
103.285
152.890
136.014
119.351
122.487
133.046
135.749
135.879
109.938
106.980
125.020
138.704
104.887
137.084
139.584
126.585
140.278
114.655
111.552
129.902
109.208
131.204
120.409
118.053
127.327
152.721
138.637
147.727
147.576
139.463
108.287
145.968
119.729
107.999
127.574
106.491
137.668
131.706
141.743
119.965
133.710
137.894
128.075
152.151
107.569
120.736
143.329
119.851
105.386
106.436
122.860
105.972
104.397
114.125
145.604
122.247
137.900
132.719
114.571
124.216
130.159
139.853
145.416
151.143
134.234
138.117
137.229
139.802
123.931
113.801
137.243
152.900
107.667
143.314
132.912
106.294
102.217
152.562
104.794
142.652
125.693
120.341
105.074
136.290
147.318
115.622
115.285
119.278
152.280
129.325
129.412
120.933
140.480
133.327
137.658
128.494
126.994
117.960
112.297
140.091
120.201
132.261
134.670
102.593
133.263
116.452
127.080
144.922
121.048
104.582
101.232
117.334
133.412
119.701
128.095
125.648
110.270
126.086
104.697
126.555
132.851
133.417
135.283
109.494
150.544
141.001
128.184
140.127
130.715
106.794
125.803
138.316
115.949
144.440
124.368
136.988
120.121
110.099
132.875
139.282
113.390
110.806
145.008
130.658
127.312
103.933
107.798
119.711
134.250
125.392
119.983
135.236
136.093
104.011
139.624
145.651
146.346
135.985
114.625
103.734
116.037
128.769
125.061
119.725
113.896
134.474
104.647
107.258
137.391
101.268
103.840
138.999
124.722
148.494
119.527
151.161
139.029
132.546
127.149
146.665
120.569
127.123
142.479
129.331
140.859
102.761
101.897
109.429
152.142
142.814
146.678
136.421
118.491
104.598
106.288
120.516
147.353
111.113
122.387
131.306
146.040
146.184
126.346
110.904
113.899
130.419
123.839
121.904
126.316
118.525
128.556
149.839
105.636
117.335
151.218
121.942
107.062
110.041
109.296
129.825
110.882
110.846
106.406
141.577
149.602
111.321
110.190
102.471
142.912
145.184
148.704
148.230
149.232
115.697
150.102
143.030
141.412
147.227
124.971
114.364
131.159
116.809
143.108
129.146
125.279
134.374
145.540
141.691
132.119
126.893
124.217
129.110
137.247
112.967
115.822
139.569
125.866
105.526
149.944
107.178
129.985
134.724
104.025
117.659
123.750
150.332
138.750
145.294
110.700
114.959
139.745
107.741
114.913
110.018
106.951
111.203
110.668
112.625
108.857
106.403
109.381
117.554
109.249
133.462
133.485
152.287
105.967
142.090
117.251
122.647
145.135
101.711
138.291
101.195
107.321
105.835
140.810
138.347
118.126
126.502
123.567
137.772
140.433
115.165
113.062
127.069
101.975
122.338
150.323
124.437
117.394
120.245
113.161
116.452
122.604
151.964
151.329
151.993
152.996
102.987
101.619
105.851
148.588
133.633
122.014
130.206
126.885
151.767
152.777
127.106
139.479
111.345
145.928
125.108
141.942
109.991
106.380
109.327
125.107
123.233
140.030
115.449
111.680
123.436
131.938
140.797
144.181
142.041
105.537
134.525
117.631
118.988
117.521
147.178
123.994
135.289
115.532
108.559
152.317
141.133
143.829
142.686
152.778
152.521
143.792
146.364
135.794
131.882
114.006
145.600
104.313
111.035
111.354
146.476
120.779
126.588
116.995
130.495
132.385
123.212
111.023
109.911
148.171
147.941
125.757
137.341
137.966
115.617
117.894
147.998
129.373
148.236
101.723
131.584
112.035
113.283
108.900
143.668
129.967
130.205
104.617
140.413
108.830
124.514
129.384
150.607
133.897
147.872
130.253
137.415
119.990
101.282
152.115
132.045
130.929
111.165
117.192
144.964
131.571
139.044
121.220
145.547
151.960
152.232
109.214
139.163
133.500
128.202
125.094
129.894
128.230
121.091
144.167
117.759
122.967
131.101
152.808
149.658
133.704
115.739
113.992
113.430
141.147
104.289
118.024
104.734
106.114
129.182
111.987
111.029
144.305
125.409
101.458
121.969
124.819
125.798
123.344
122.020
123.809
149.957
131.982
127.239
127.701
145.757
140.388
136.855
150.299
110.474
126.954
118.826
118.420
116.788
138.803
132.504
124.681
103.192
140.641
147.764
102.290
120.291
125.516
144.078
151.817
121.157
147.595
104.222
125.517
150.382
137.021
122.621
141.988
144.985
108.653
116.094
122.587
120.462
133.747
120.544
104.710
147.400
137.895
138.174
133.473
119.320
118.962
115.975
145.360
116.741
143.809
102.058
141.581
127.865
149.930
145.828
133.500
132.375
122.510
105.582
107.291
141.419
140.005
102.894
139.027
140.904
135.334
121.370
152.681
102.491
112.758
123.067
150.234
142.139
117.455
131.493
110.835
136.912
152.737
113.200
142.141
151.162
101.501
116.781
151.921
135.501
111.879
102.713
106.142
140.737
117.352
119.878
133.578
143.445
114.189
102.780
148.893
116.354
136.007
139.228
107.169
134.322
130.916
151.856
112.518
145.140
124.556
132.442
132.533
114.811
145.440
107.782
124.808
146.566
139.950
118.063
140.668
136.883
129.497
124.435
151.840
109.454
139.560
125.178
139.880
115.421
116.362
109.662
122.764
135.348
107.945
110.110
110.993
132.145
114.846
131.511
141.452
131.189
130.328
116.721
111.045
116.159
136.863
118.930
104.038
142.123
138.410
102.647
137.633
115.730
102.244
101.990
116.167
127.182
132.503
108.932
124.107
132.764
103.542
108.906
101.728
104.579
121.307
117.869
118.175
117.939
125.087
120.000
125.370
124.298
124.238
135.245
113.628
113.273
151.769
116.106
148.685
140.968
136.735
103.519
123.938
135.589
139.537
115.411
95.067
98.660
146.443
136.517
103.315
136.143
132.034
97.538
103.926
132.131
143.269
102.549
109.367
98.401
113.787
118.966
114.842
106.414
104.169
132.371
125.338
118.708
122.456
142.564
112.417
133.342
140.763
126.848
104.019
138.561
116.433
121.728
127.023
105.901
118.271
146.074
97.638
133.847
134.431
97.970
98.662
118.051
97.575
111.411
138.600
109.414
127.503
136.264
99.061
131.945
129.936
138.832
105.303
120.143
126.052
105.656
112.308
98.244
130.887
105.418
117.413
128.622
123.834
146.635
97.683
96.545
142.268
122.590
138.989
119.018
135.137
119.739
134.341
107.200
94.793
119.206
104.246
110.504
101.577
125.563
146.540
118.566
108.189
111.968
139.589
136.082
118.987
108.264
121.883
137.105
125.675
125.739
125.313
95.825
112.290
111.421
126.483
100.073
109.252
112.755
134.822
116.782
139.080
104.912
115.901
132.015
112.516
122.889
116.107
116.346
121.831
100.157
113.383
145.269
140.032
139.980
96.525
107.085
95.545
113.736
113.530
113.218
146.173
136.501
121.899
109.324
102.433
135.193
120.553
116.271
96.123
136.180
119.805
138.810
132.951
115.028
114.531
104.317
129.455
138.599
96.160
141.130
139.743
108.366
116.687
143.805
125.626
139.088
112.998
104.302
125.115
103.938
100.560
108.346
103.344
137.259
97.969
138.481
139.589
112.050
142.795
110.024
114.492
111.133
139.438
121.123
114.893
109.850
95.192
124.164
129.097
105.194
123.028
143.221
131.830
115.768
106.657
136.198
144.201
122.377
108.558
98.588
113.102
134.927
114.148
111.115
136.850
122.434
123.509
110.251
119.264
131.515
121.692
102.851
129.754
100.029
135.410
99.683
99.098
110.810
117.007
138.823
120.435
118.419
144.189
142.636
129.345
119.640
124.618
123.019
99.173
133.964
98.059
125.422
120.638
144.550
138.478
109.254
103.122
115.335
105.877
131.039
142.188
140.480
95.482
140.579
138.530
119.910
145.444
110.568
126.634
106.179
123.320
95.593
146.612
125.424
101.566
105.869
119.800
137.692
106.049
115.566
131.012
134.674
130.516
143.658
123.213
144.344
103.638
122.355
124.650
109.310
126.039
101.682
144.923
126.570
107.641
125.867
132.519
96.566
114.449
142.727
116.781
107.398
143.626
112.553
110.758
101.964
143.046
137.293
97.951
104.780
95.389
129.509
122.984
105.333
134.874
97.390
143.603
114.179
110.837
137.712
134.924
108.215
118.124
117.429
110.056
139.099
96.930
98.907
128.532
129.631
132.286
123.063
132.346
115.455
111.703
134.314
112.112
108.532
129.267
102.785
144.600
121.918
114.528
128.783
146.398
123.594
111.947
144.390
142.912
128.830
118.395
138.641
122.712
111.216
118.128
96.527
144.626
142.316
140.833
139.763
100.571
119.535
121.803
127.460
129.536
118.369
98.481
114.563
119.831
146.676
127.436
144.964
131.820
122.204
124.774
95.887
121.027
132.121
109.229
136.887
106.930
102.398
107.379
131.603
137.464
96.401
135.743
29.871
36.365
29.418
40.755
40.681
32.428
43.546
30.244
33.201
37.210
29.334
39.331
31.067
43.286
29.679
37.831
44.011
30.676
31.846
41.802
38.068
42.254
44.492
32.005
35.918
29.500
37.375
39.768
32.068
36.651
43.260
32.228
30.133
39.193
45.067
41.365
33.526
41.681
43.782
32.376
42.669
33.582
32.478
36.259
362.465
361.224
361.710
360.491
363.248
372.172
384.001
371.899
371.405
383.228
400.829
403.846
389.850
411.060
408.615
407.143
414.592
409.670
416.210
421.749
412.723
418.622
425.683
431.991
424.813
432.408
441.657
460.408
456.399
454.699
447.119
451.545
468.230
479.886
476.485
463.367
487.530
469.594
487.203
480.285
482.828
485.036
491.493
512.946
497.780
500.540
510.990
523.879
512.103
526.880
531.985
543.923
526.514
542.325
538.655
543.371
544.754
546.552
566.000
559.044
554.105
556.734
565.628
569.209
575.426
573.521
574.877
591.245
594.814
605.812
591.902
591.037
610.717
621.057
619.884
608.393
633.517
611.817
616.711
623.364
620.892
633.051
635.207
643.476
639.338
661.732
667.663
652.330
667.401
669.289
659.449
683.179
685.366
679.789
693.364
689.761
680.923
694.602
711.096
692.201
394.294
398.226
403.288
393.491
394.734
394.076
404.164
410.273
403.205
406.384
409.446
417.056
414.095
423.345
427.188
420.839
426.276
425.370
426.232
431.687
434.282
439.164
436.291
440.781
446.777
433.243
438.141
445.303
447.234
454.100
446.945
456.607
447.271
450.310
452.187
455.511
460.470
466.886
461.689
461.008
476.470
476.355
481.897
478.911
471.490
475.307
486.609
