124.882
124.396
100.748
118.966
95.616
127.553
102.007
96.224
95.194
95.458
104.829
107.926
87.495
112.051
96.402
97.693
109.939
107.090
105.819
101.180
114.731
98.932
128.246
94.015
106.828
96.705
122.280
127.620
92.207
89.934
124.043
88.478
85.212
120.214
128.018
100.753
122.044
99.331
116.869
122.882
95.201
89.699
103.432
95.434
106.193
94.340
83.844
110.347
113.813
97.329
90.459
128.389
113.576
129.274
115.395
111.276
94.008
85.536
106.830
89.614
111.743
104.130
120.537
97.631
111.357
95.040
115.964
118.048
126.830
128.334
96.949
103.049
125.495
113.846
114.032
118.254
104.253
102.774
107.380
84.991
111.719
98.189
102.330
108.194
102.921
114.244
94.791
90.773
122.594
115.729
117.625
120.696
95.811
103.385
127.650
92.498
107.229
98.010
116.097
129.820
86.754
106.706
127.920
126.504
96.281
96.466
118.294
118.079
105.250
121.164
126.156
118.824
89.614
89.165
83.993
90.362
124.321
111.320
118.156
104.874
90.081
110.490
128.534
92.739
117.641
116.192
112.531
104.587
121.370
122.204
118.977
95.949
115.095
108.023
86.649
120.787
110.604
85.912
103.750
115.357
114.951
124.724
105.468
129.572
100.128
101.240
113.395
103.319
103.191
128.344
95.647
129.022
105.799
113.924
127.819
110.882
95.940
99.235
87.309
113.839
100.238
101.527
111.391
109.411
127.900
111.175
100.776
116.081
106.842
121.492
121.335
111.304
125.158
86.274
129.700
119.473
87.642
106.991
108.918
129.329
104.037
88.451
106.059
90.479
90.960
117.257
108.297
114.899
118.081
118.579
91.800
120.443
90.201
84.883
100.326
121.881
122.833
84.302
109.638
124.073
110.872
128.794
109.539
108.715
122.239
85.238
124.556
122.390
107.941
108.021
129.116
128.391
86.023
123.830
107.981
97.318
106.426
104.782
127.911
127.845
95.219
112.423
87.499
96.271
113.669
98.197
89.426
114.731
124.575
88.864
127.595
126.135
115.232
120.289
85.255
119.334
98.475
101.565
86.650
87.015
104.988
121.650
117.646
104.979
105.381
98.899
109.717
99.195
94.630
116.933
98.693
124.159
118.062
119.448
88.537
126.324
112.923
122.651
100.875
107.316
96.948
105.485
99.324
84.424
124.160
86.080
99.897
126.792
99.827
87.374
103.838
126.021
100.797
93.225
120.111
91.468
103.804
118.665
95.313
111.968
88.219
99.574
94.963
87.343
118.376
112.073
90.749
88.651
95.353
129.733
93.420
100.440
110.337
85.664
90.057
118.309
116.117
107.090
125.535
117.950
99.133
119.545
127.547
111.525
118.605
87.142
129.030
84.742
110.874
105.295
116.439
127.758
94.789
102.633
115.296
121.911
119.168
93.573
96.450
119.453
89.605
121.210
97.610
124.617
105.202
110.697
87.968
110.697
120.179
95.312
97.601
90.875
122.811
104.955
115.169
89.900
99.056
119.611
99.540
119.164
91.532
112.802
99.162
124.691
89.232
124.260
100.838
126.927
124.604
96.767
127.196
89.366
122.337
126.212
86.634
85.445
96.149
85.564
86.237
94.900
105.877
108.947
93.555
90.093
92.035
125.148
104.652
118.944
126.488
121.508
94.328
92.798
119.225
99.555
98.125
114.704
121.790
108.006
84.878
110.964
128.930
118.882
88.024
85.130
92.984
111.022
92.596
122.567
114.854
118.166
94.627
89.856
123.008
99.964
89.248
117.515
117.462
123.867
109.643
107.542
122.814
84.891
91.569
125.478
97.951
104.026
126.475
100.408
96.721
97.742
121.364
111.768
119.793
124.079
111.597
127.980
87.798
125.480
107.227
114.086
122.185
91.273
104.908
110.815
97.622
101.270
92.705
121.759
89.633
104.161
98.169
129.239
122.176
102.779
128.010
107.295
114.057
95.293
106.115
111.303
98.293
125.529
128.102
108.435
100.813
129.000
88.717
89.449
87.319
97.573
127.948
97.911
109.703
102.611
109.069
119.327
95.983
115.947
112.806
115.061
90.079
122.348
93.997
120.655
84.596
109.815
118.183
100.736
89.988
100.348
101.844
127.474
90.950
90.308
112.372
111.486
116.463
95.099
111.573
110.808
114.477
127.033
96.502
106.494
112.456
98.472
90.192
91.780
112.399
116.099
93.395
97.730
116.949
103.547
120.986
90.570
114.503
92.740
97.979
128.665
86.811
92.961
126.649
91.064
124.677
127.848
100.649
104.388
119.059
110.742
105.702
99.517
124.450
90.304
116.445
88.558
128.299
105.076
118.137
85.448
105.709
108.516
102.377
122.532
121.879
107.013
117.723
121.601
89.005
110.808
120.702
96.211
110.488
84.320
88.594
107.804
100.924
122.573
97.229
116.809
108.275
88.294
103.401
97.351
88.047
100.224
93.151
96.611
100.561
115.386
87.560
107.435
114.762
128.792
100.474
93.897
92.493
86.886
109.677
105.021
89.954
113.925
116.066
87.169
109.784
102.356
115.622
110.267
115.492
93.054
124.523
102.570
115.051
97.118
118.362
118.193
121.030
126.516
111.252
86.425
108.548
113.812
106.808
121.634
122.807
108.749
100.493
101.082
111.361
123.821
122.580
84.207
128.172
90.163
113.762
107.827
85.433
123.742
119.584
110.616
107.319
97.654
125.446
116.965
103.400
129.400
126.128
95.324
113.077
117.406
121.140
91.625
93.398
97.500
109.824
124.575
98.916
99.975
105.347
110.184
100.564
90.853
118.152
91.579
94.321
118.984
128.620
121.145
1324.449
1349.869
1351.510
1345.789
1330.740
1340.823
1355.817
1349.343
1367.677
1370.308
1349.135
1367.945
1364.588
1357.490
1386.431
1386.700
1387.203
1383.443
1389.664
1395.956
1401.060
1394.794
1402.745
1397.059
1413.792
1393.520
1414.149
1423.857
1420.839
1423.070
1411.189
1419.825
1431.834
1440.162
1431.128
1430.428
1430.629
1449.200
1446.342
1447.449
1443.381
1438.798
1443.406
1451.151
1446.364
1468.261
1462.761
1462.617
1461.499
1478.039
1478.592
1473.315
1471.887
1480.238
1497.104
1481.924
1485.348
1487.865
1487.795
1504.518
1498.985
1515.076
1515.067
1501.385
1505.228
1519.050
1526.136
1528.440
1537.396
1519.728
1545.592
1532.952
1532.436
1543.148
1550.427
1558.467
1536.181
1566.612
1555.644
1561.270
1559.268
1559.913
1570.163
1563.539
1559.295
1571.576
1576.292
1590.659
1596.638
1601.519
1600.358
1598.884
1604.577
1592.770
1594.217
1610.201
1609.706
1618.013
1604.421
1624.637
905.100
906.448
908.294
903.193
903.580
912.401
901.610
917.606
919.090
905.777
909.461
915.538
919.411
915.196
929.448
922.436
924.215
922.178
930.553
928.310
931.814
938.477
927.947
930.244
941.637
943.461
933.430
945.598
942.251
943.600
954.639
946.265
952.653
951.649
947.830
953.492
954.186
962.007
953.279
954.483
963.726
961.037
958.638
964.847
966.600
978.302
975.749
976.612
974.837
983.371
982.222
984.172
977.154
978.501
985.599
986.243
983.976
988.854
994.840
994.170
986.726
1002.602
1004.798
1006.307
998.565
1008.568
1004.736
1005.733
1007.731
1001.887
1011.946
1005.006
1007.920
1010.182
1022.072
1013.615
1017.209
1015.536
1028.823
1023.205
1019.560
1024.709
1026.876
1031.017
1029.296
1035.645
1030.700
1040.220
1040.587
1041.398
1042.697
1048.739
1051.816
1048.059
1044.280
1043.656
1049.389
1048.759
1055.099
1059.731
1055.726
1059.254
1054.674
1061.948
1063.552
1059.244
1064.501
1057.625
1065.441
1057.930
1062.587
1064.606
1050.690
1057.688
1052.177
1063.595
1052.621
1063.706
1060.319
1054.110
1058.886
1066.526
1056.309
1065.578
1055.986
1060.581
1052.858
1059.832
1063.658
1067.162
1054.404
1053.484
1065.000
1062.238
1052.811
1062.660
1058.272
1066.570
1066.981
1064.191
1057.166
1053.401
1062.499
1063.101
1063.354
1064.731
1067.400
1057.929
1060.108
1067.179
1063.407
1055.627
1054.992
1066.102
1062.903
1056.724
1065.193
1063.127
1055.192
1069.128
1057.417
1061.893
1061.641
1060.694
1062.931
1053.785
1067.088
1063.446
1061.032
1056.813
1061.973
1060.251
1058.340
1060.154
1055.901
1055.110
1057.142
1060.299
1060.616
1067.056
1056.079
1055.529
1066.657
1063.112
1068.032
1058.849
1062.938
1066.378
1059.308
1057.926
1056.170
1068.278
1055.822
1069.376
1063.680
1060.119
1058.360
1059.510
1067.068
1062.336
1071.419
1056.662
1061.321
1062.148
1056.318
1062.000
1059.661
1062.407
1056.705
1061.420
1066.171
1072.018
1062.705
1071.592
1064.776
1065.427
1061.187
1071.437
1067.162
1065.553
1059.672
1067.363
1059.297
1065.499
1068.896
1060.765
1059.593
1060.752
1062.925
1068.970
1065.692
1062.417
1071.662
1068.851
1062.577
1071.411
1058.990
1064.625
1060.501
1058.675
1062.681
1071.101
1067.590
1065.887
1071.883
1071.486
1067.696
1059.023
1073.024
1065.843
1060.080
1068.893
1062.569
1061.347
1072.432
1071.338
1071.274
1059.166
1071.294
1072.132
1064.904
1071.381
1060.607
1064.247
1071.379
1067.349
1060.667
1070.784
1068.994
1068.893
1075.005
1071.483
1068.149
1074.226
1060.754
1068.290
1063.106
1062.657
1062.292
1069.456
1063.653
1060.675
1062.494
1073.061
1065.494
1065.078
1066.485
1076.266
1062.206
1069.680
1063.969
1067.212
1068.663
1072.837
1065.267
1071.982
1076.387
1069.376
1074.601
1076.983
1061.657
1061.496
1060.727
1068.184
1066.899
1071.731
1061.961
1055.547
1064.482
1064.878
1053.554
1056.563
1056.208
1055.230
1053.513
1055.380
1050.579
1051.828
1045.537
1042.545
1050.112
1048.241
1042.827
1036.673
1036.296
1034.882
1045.428
1041.338
1032.095
1031.825
1029.037
1034.911
1028.703
1030.773
1035.813
1037.850
1031.641
1022.291
1031.717
1019.841
1031.919
1027.143
1020.503
1027.282
1024.727
1013.653
1025.628
1013.407
1012.136
1012.264
1016.607
1021.518
1015.852
1016.833
1007.104
1012.037
1016.284
1008.709
1004.143
1007.002
999.669
1007.278
1002.775
999.582
1004.020
999.331
1001.704
997.216
1000.337
989.886
1000.358
984.970
994.753
996.524
985.039
983.738
982.112
987.068
984.452
982.562
982.782
981.031
985.983
972.826
981.474
984.739
970.790
968.245
966.121
972.707
967.526
971.468
974.982
966.907
971.516
972.893
961.762
964.734
964.252
969.365
964.108
958.032
951.570
956.496
951.738
961.514
951.210
948.343
959.057
952.038
943.419
941.950
949.516
941.000
941.056
940.068
940.160
938.252
948.340
944.818
932.308
939.033
941.440
929.399
934.457
935.941
939.719
939.211
924.820
932.518
923.541
924.038
921.626
926.390
926.716
927.700
917.691
925.844
913.488
911.582
923.106
911.190
908.599
906.994
918.217
918.705
906.044
913.990
911.827
906.102
902.808
904.899
908.683
906.150
897.076
907.113
893.535
904.832
892.031
898.267
889.110
901.306
898.349
884.686
893.162
888.259
885.089
888.173
879.216
893.945
886.017
878.494
881.728
874.741
888.534
886.469
871.461
880.172
883.649
873.130
881.933
867.899
868.961
863.991
875.999
872.557
867.945
865.871
863.896
869.423
866.442
866.198
856.764
862.098
854.128
854.659
856.989
862.405
862.033
857.526
849.278
851.305
850.192
848.771
847.153
847.096
855.458
857.471
849.984
849.079
858.578
852.052
850.578
860.899
856.619
855.289
863.035
858.279
858.597
860.200
864.251
866.146
865.841
867.447
855.365
855.721
859.096
859.451
861.896
860.921
857.420
858.002
863.259
863.325
861.639
857.706
867.384
871.992
867.413
873.420
874.807
867.105
871.923
871.365
876.284
872.248
863.113
870.747
874.586
870.834
864.565
878.761
875.397
873.681
878.124
868.878
865.372
868.694
867.697
871.577
878.142
872.064
879.451
868.814
877.536
871.881
877.751
881.608
879.058
879.316
871.296
879.808
880.610
871.526
876.169
883.571
883.371
875.312
885.902
876.004
885.121
883.675
876.015
877.210
877.551
882.859
882.477
884.437
878.788
890.279
883.859
882.357
890.178
882.425
889.333
882.760
891.938
894.371
883.554
881.207
889.730
884.517
889.115
892.537
884.623
883.516
884.086
883.982
886.832
889.820
894.005
891.818
895.900
894.206
890.993
893.043
888.356
899.368
898.819
899.989
900.932
896.776
894.403
899.835
900.402
900.983
904.198
904.874
898.646
902.492
901.292
896.674
900.132
892.820
907.682
906.796
895.819
907.487
898.121
900.037
908.731
902.153
906.267
905.626
902.982
901.019
910.196
899.055
907.081
899.286
912.949
911.495
913.029
902.838
909.535
902.922
906.158
911.505
916.952
910.241
909.588
906.610
906.041
918.461
909.845
916.984
911.795
906.317
921.093
912.138
920.694
911.962
914.307
918.301
918.511
918.265
916.812
910.097
910.987
911.938
911.792
922.628
920.107
915.371
912.627
917.383
916.888
914.801
914.395
923.664
913.635
928.484
928.564
920.160
922.785
930.640
917.752
931.086
927.261
924.856
917.430
922.851
930.504
920.298
922.552
920.437
915.753
917.732
913.924
927.175
926.015
921.126
923.765
924.284
919.528
913.066
917.238
919.279
917.414
916.642
921.555
915.129
918.192
906.697
909.280
911.533
914.193
911.237
903.851
915.434
913.915
904.980
913.901
901.004
902.439
904.113
907.062
914.321
906.462
908.737
904.440
900.337
899.647
903.362
911.091
901.445
908.772
901.181
903.811
896.046
893.843
903.784
899.875
903.962
899.815
894.812
902.759
896.295
894.966
903.557
890.882
898.412
891.725
891.766
890.846
896.175
888.730
898.590
892.064
893.293
892.794
897.442
886.791
896.853
889.105
893.674
883.489
884.659
890.227
884.306
879.474
879.057
881.438
881.217
890.655
880.565
890.166
886.410
887.321
874.122
875.006
873.490
872.001
872.592
881.284
874.114
874.224
884.380
880.977
880.863
872.706
877.337
870.161
881.218
869.345
865.989
870.407
868.482
876.951
868.059
864.339
872.338
870.067
876.600
870.934
875.216
863.356
860.502
865.283
873.261
873.194
863.708
866.965
864.308
859.290
864.377
865.096
861.310
860.838
857.372
855.178
860.940
859.407
863.102
857.446
853.006
864.889
856.669
851.001
854.588
854.652
859.620
854.802
855.844
851.302
846.173
847.080
848.916
849.671
847.455
858.083
842.995
844.623
853.775
845.708
849.501
855.793
855.211
840.641
850.299
845.890
838.915
846.994
843.365
837.873
851.264
846.591
843.646
843.960
842.436
843.525
844.460
841.015
835.726
847.123
833.295
842.254
833.040
843.163
841.828
842.610
835.413
835.122
833.399
831.285
830.988
840.116
840.003
837.452
835.129
824.350
837.784
832.846
833.409
835.266
823.315
833.174
834.059
829.566
833.289
827.948
822.604
832.877
825.300
832.090
826.333
834.026
827.320
830.159
836.544
825.508
826.981
829.644
829.460
829.840
837.169
830.527
828.481
829.555
838.342
840.304
830.837
834.251
841.202
835.873
835.650
839.519
833.352
839.909
839.727
840.225
827.916
831.371
829.841
841.848
839.677
832.426
832.677
836.672
842.413
834.886
842.972
841.028
836.657
846.837
840.485
840.136
842.613
843.056
832.757
843.902
848.081
839.661
848.007
845.121
839.143
836.891
848.932
840.319
837.270
847.454
851.443
840.246
837.828
848.591
845.077
847.400
844.643
843.796
841.798
847.334
844.134
843.237
851.891
843.978
849.602
841.160
854.407
848.747
856.477
854.944
851.426
845.695
848.001
852.796
851.331
845.699
846.881
852.628
859.155
855.675
844.531
852.723
853.778
860.307
849.053
857.415
857.107
855.083
857.909
852.431
847.047
853.103
861.390
850.613
854.619
852.404
854.007
850.451
863.687
852.200
862.842
853.632
857.888
854.877
859.487
861.838
851.802
864.770
862.416
862.241
861.811
856.600
865.620
864.595
858.880
865.309
863.756
861.801
867.280
855.034
857.276
868.990
868.568
870.185
860.094
866.164
867.269
863.447
870.157
865.007
873.001
866.280
860.606
864.938
865.161
867.607
868.485
864.246
874.976
871.169
876.057
866.631
868.096
862.744
872.538
864.786
869.745
875.820
877.714
878.337
876.291
866.371
874.796
866.534
870.850
876.238
871.011
865.959
871.553
872.707
866.467
871.178
874.091
881.764
867.100
879.251
879.935
882.660
872.461
877.045
883.576
875.609
878.416
879.443
881.555
873.565
884.475
874.054
872.372
871.204
877.977
872.028
883.775
873.266
877.232
875.659
875.434
874.756
874.681
881.978
874.547
887.652
884.829
877.423
889.111
891.516
885.511
879.253
884.457
891.553
884.077
884.077
881.236
894.504
881.542
884.619
886.601
886.603
886.378
897.419
885.294
890.368
889.852
893.004
893.867
891.746
890.986
901.068
901.164
895.626
904.295
891.394
902.311
902.576
898.999
893.444
907.048
902.213
903.078
905.767
905.632
904.641
903.610
899.717
897.156
897.118
901.372
900.821
914.276
905.968
903.365
908.054
913.637
901.672
903.835
906.321
902.768
911.635
910.367
906.297
912.584
921.236
911.014
916.988
915.948
920.788
922.165
908.975
921.653
915.721
925.545
921.325
922.767
920.958
912.996
921.043
922.729
921.262
924.841
917.246
919.503
924.026
929.997
918.737
919.681
919.234
918.564
920.341
926.650
922.150
927.385
924.741
933.411
931.512
936.016
922.601
930.965
935.285
925.226
932.879
926.021
934.642
930.624
942.030
929.764
939.819
938.793
941.651
939.393
931.609
941.442
940.647
935.161
940.097
934.773
934.079
936.166
935.255
936.335
937.394
944.126
937.473
948.525
937.407
941.689
944.004
949.996
950.914
940.615
941.141
945.628
941.663
953.642
942.271
950.384
943.934
945.945
959.525
954.876
945.723
948.112
952.901
948.904
958.365
957.110
958.319
954.107
958.602
958.696
958.353
954.471
956.449
955.105
967.440
953.533
955.918
956.180
964.942
956.563
965.753
968.465
961.111
961.968
967.397
958.067
970.520
971.569
960.300
962.899
969.267
971.324
