139.140
108.064
140.137
108.814
102.804
134.980
108.652
149.734
120.837
144.621
107.142
116.149
149.219
118.785
126.090
144.408
110.703
137.475
142.607
104.916
126.185
115.007
108.722
102.159
101.310
107.490
117.066
120.995
111.629
116.571
127.748
124.172
126.001
133.970
133.014
149.443
151.932
122.765
125.078
146.435
107.881
133.628
147.181
146.608
133.435
143.329
123.020
147.885
129.826
146.852
149.501
112.668
145.279
113.731
148.610
140.833
132.200
113.538
128.621
109.200
120.289
103.607
104.336
115.879
126.748
134.075
143.153
128.022
140.840
127.809
131.753
125.837
140.898
140.278
150.766
149.136
125.615
145.346
123.888
115.550
146.277
139.546
105.095
125.144
135.636
139.432
38.129
32.937
32.591
42.013
47.071
36.390
45.356
41.763
32.902
37.555
37.227
46.921
31.797
31.145
31.721
40.542
46.455
36.713
42.810
31.597
45.187
31.579
31.859
31.405
45.234
38.130
42.022
43.963
44.248
43.350
39.485
41.064
43.731
37.153
46.482
41.075
39.656
41.289
35.362
43.123
43.841
35.903
36.249
37.092
1218.586
1218.427
1219.057
1210.903
1229.348
1236.616
1233.834
1244.627
1241.148
1262.269
1245.900
1254.966
1271.150
1263.006
1258.608
1286.952
1265.982
1288.576
1293.642
1302.152
1290.914
1293.392
1305.124
1313.080
1322.379
1303.613
1326.252
1327.281
1322.704
1329.158
1350.071
1349.893
1335.577
1352.531
1347.808
1369.691
1361.772
1378.904
1359.486
1368.404
1385.416
1392.744
1383.109
1405.362
1398.360
1405.071
1395.904
1400.169
1404.789
1419.774
1412.014
1421.024
1435.310
1445.406
1425.232
1448.140
1456.671
1446.092
1446.839
1445.879
1456.184
1469.724
1459.236
1489.344
1487.603
1489.090
1473.842
1485.142
1501.172
1489.933
1502.609
1510.062
1506.781
1520.037
1524.462
1524.461
1531.832
1537.416
1552.656
1537.331
1538.110
1556.820
1564.496
1557.142
1577.331
1561.649
1557.947
1573.933
1590.617
1582.578
1603.106
1590.142
1610.500
1615.230
1596.012
1619.963
1617.043
1617.263
1622.625
1620.292
908.707
909.291
909.987
921.155
911.411
921.132
916.874
923.357
925.534
923.756
934.790
929.247
929.082
931.164
946.282
947.603
942.645
948.729
955.244
950.083
958.595
951.022
957.655
959.496
956.356
958.919
969.092
961.646
977.317
966.214
975.049
984.186
981.811
988.404
989.160
987.118
985.658
995.918
989.022
990.096
1007.139
1009.577
1006.286
1005.175
1012.001
1003.475
1009.505
1017.502
1016.527
1018.455
1022.465
1024.426
1021.933
1030.651
1040.317
1031.938
1035.850
1039.252
1035.702
1046.939
1043.913
1044.971
1054.404
1059.603
1058.129
1050.527
1066.574
1070.343
1071.603
1069.724
1064.928
1066.712
1066.513
1081.649
1082.710
1075.006
1091.606
1091.958
1084.902
1084.835
1087.771
1097.331
1093.671
1107.826
1100.152
1110.660
1114.316
1110.974
1104.342
1118.177
1118.454
1117.675
1118.306
1124.386
1120.663
1128.920
1133.716
1137.856
1142.677
1135.137
1132.745
1146.979
1142.055
1142.890
1133.154
1131.178
1137.425
1137.026
1131.469
1138.346
1128.527
1138.939
1135.156
1142.479
1128.281
1136.425
1128.232
1136.062
1129.416
1128.872
1125.919
1136.490
1131.485
1136.090
1127.907
1130.273
1124.323
1127.847
1124.518
1128.991
1133.653
1130.403
1127.658
1122.158
1126.983
1123.730
1126.011
1134.162
1129.785
1127.717
1129.761
1120.207
1123.051
1132.666
1121.158
1117.544
1119.546
1129.032
1124.992
1123.824
1117.555
1116.727
1122.657
1121.693
1123.524
1125.942
1116.527
1121.975
1119.662
1125.164
1126.376
1125.200
1113.709
1115.404
1114.984
1123.893
1111.861
1125.036
1117.492
1123.328
1118.133
1119.734
1112.527
1118.700
1118.853
1107.030
1116.395
1115.813
1106.286
1106.871
1120.072
1116.237
1113.878
1106.645
1111.465
1105.314
1110.596
1104.986
1113.566
1103.269
1114.778
1112.593
1107.445
1102.511
1111.957
1109.244
1107.181
1109.140
1100.497
1108.114
1114.169
1110.682
1099.740
1106.244
1097.746
1105.968
1107.668
1109.125
1102.378
1111.189
1103.127
1110.899
1109.858
1103.530
1106.890
1093.680
1100.721
1094.039
1107.702
1100.320
1102.759
1098.338
1106.111
1098.565
1094.559
1102.543
1097.214
1101.892
1095.303
1096.350
1090.734
1090.512
1091.533
1098.789
1100.080
1095.299
1089.229
1098.119
1091.894
1100.340
1087.646
1090.296
1097.099
1086.321
1088.966
1084.158
1083.537
1092.840
1086.574
1085.507
1092.886
1088.723
1081.938
1092.267
1093.676
1085.632
1087.669
1091.406
1090.413
1079.779
1082.729
1093.989
1085.527
1091.596
1089.638
1079.867
1087.992
1077.084
1090.091
1083.370
1081.573
1076.036
1085.150
1086.506
1074.612
1085.841
1084.789
1084.680
1077.283
1078.509
1083.020
1086.226
1075.110
1086.416
1081.029
1077.715
1081.708
1071.182
1075.449
1083.556
1079.898
1079.199
1074.728
1074.793
1074.868
1080.262
1068.771
1067.859
1080.021
1071.000
1080.205
1076.042
1062.852
1070.779
1067.782
1060.881
1059.407
1060.150
1049.039
1053.196
1051.347
1046.801
1043.539
1037.446
1047.019
1039.116
1034.455
1035.205
1035.409
1023.763
1032.194
1023.027
1015.349
1026.556
1010.305
1017.477
1020.086
1005.603
1009.069
1001.058
997.220
1009.310
1006.848
1005.501
997.699
984.983
984.194
980.868
984.303
981.359
986.315
979.710
983.833
980.676
980.210
971.941
967.832
959.568
963.142
957.714
959.660
962.268
948.447
945.131
945.410
939.432
951.230
935.119
942.097
933.059
933.763
925.444
933.873
929.598
918.707
930.940
920.557
925.628
921.552
909.258
910.001
909.232
901.293
910.275
910.416
908.612
902.943
904.171
889.282
897.663
883.529
883.585
889.120
884.154
872.649
877.498
880.943
878.310
875.313
874.105
859.246
862.065
863.545
861.787
864.214
861.976
858.352
852.743
847.219
842.419
836.346
835.174
840.126
830.393
834.866
829.067
825.146
826.816
833.135
826.517
824.778
822.579
818.888
814.162
814.504
814.934
805.219
807.402
809.037
798.998
801.461
788.314
797.671
786.442
793.639
783.414
787.602
777.731
773.155
780.060
778.812
766.647
770.304
769.637
771.588
767.724
762.141
750.850
757.719
754.695
744.462
747.581
739.392
750.414
745.457
744.647
745.103
736.356
739.226
738.627
733.171
728.211
717.592
727.082
725.254
712.701
717.104
706.573
709.023
707.574
706.816
702.554
708.027
694.103
699.763
693.650
697.930
690.867
680.223
689.951
689.223
676.573
684.842
670.521
675.272
671.793
674.717
660.283
662.322
666.134
651.830
656.662
660.296
650.953
648.395
650.157
639.285
639.699
643.039
638.195
641.871
636.183
624.564
634.109
632.706
628.039
627.945
626.413
617.919
618.363
621.465
614.238
616.193
611.506
621.811
620.718
613.176
619.685
623.375
629.426
622.660
619.619
620.974
633.853
635.072
636.614
637.658
632.492
637.442
626.216
632.597
635.034
638.776
630.918
643.700
642.626
637.718
639.751
645.667
641.910
639.295
640.133
649.271
656.250
642.228
645.779
646.071
659.344
659.395
654.530
652.408
649.200
662.583
657.007
663.322
659.465
657.252
665.590
668.149
670.809
669.179
660.996
673.696
662.312
669.537
674.587
678.869
672.174
674.057
672.388
676.578
684.485
672.827
686.603
688.479
674.256
678.922
690.336
683.949
691.709
682.611
688.045
691.076
684.478
693.139
687.814
688.441
695.314
698.033
689.886
703.978
695.160
700.907
702.542
695.886
707.023
697.194
704.794
701.508
701.043
703.823
703.252
714.342
710.518
714.796
719.404
707.039
714.105
714.709
720.319
718.777
720.822
726.785
720.569
716.289
726.898
724.315
726.464
725.753
724.204
729.084
732.233
737.296
734.845
734.532
740.901
740.726
732.570
740.523
733.134
745.714
739.008
738.542
740.008
742.128
743.676
744.939
751.976
748.053
755.942
752.733
752.008
758.740
750.210
758.168
750.974
748.205
763.987
757.834
760.180
760.504
766.345
768.364
757.917
761.135
766.903
769.934
768.051
765.211
772.956
763.124
769.671
776.830
779.431
780.622
777.337
775.640
780.604
775.449
783.295
773.639
788.578
788.345
778.195
785.615
789.928
789.253
785.674
781.868
788.841
799.286
800.204
797.324
796.355
800.713
800.459
795.415
799.505
801.025
794.254
805.120
801.707
796.743
808.197
799.502
804.250
804.634
810.495
817.218
812.284
806.612
819.264
813.606
818.893
824.781
817.314
826.440
813.005
828.298
819.115
829.090
816.505
825.742
817.626
832.362
823.639
834.711
825.596
835.250
832.838
834.375
837.806
837.042
825.273
835.583
834.802
828.765
829.735
840.774
840.338
841.365
838.483
840.399
839.369
846.142
836.964
832.840
845.824
840.932
844.133
844.202
838.710
839.656
847.210
848.004
846.829
839.247
841.437
848.725
849.001
851.326
845.912
848.036
855.214
843.212
848.385
846.456
857.380
854.586
859.185
848.391
855.498
848.750
854.188
851.601
857.839
851.217
864.562
853.088
865.932
856.401
857.225
858.092
856.624
863.074
858.994
868.475
864.370
868.859
869.900
871.439
869.559
875.600
861.794
872.836
869.938
868.878
864.070
869.744
880.401
878.444
869.300
879.067
873.978
876.584
878.160
870.789
878.316
873.903
881.639
882.594
878.248
876.381
875.537
878.569
880.009
884.962
882.499
890.071
885.683
879.410
885.526
880.231
881.139
894.359
882.729
897.173
896.942
885.442
897.366
900.694
896.622
890.609
896.711
890.024
896.566
904.453
892.039
892.700
893.926
894.613
900.051
896.033
904.715
907.389
903.504
906.901
899.954
907.186
900.766
897.756
911.792
902.682
901.898
901.732
903.295
906.144
914.727
910.579
919.221
919.097
916.423
915.853
917.341
909.260
920.362
920.568
913.584
909.984
912.342
917.926
926.840
922.694
927.414
920.095
916.598
922.151
915.175
929.473
926.807
929.228
928.891
925.764
927.326
930.290
925.614
929.610
934.086
927.990
923.054
938.888
931.698
927.123
928.479
926.234
930.747
934.150
940.340
940.524
937.677
935.400
939.525
944.639
945.486
934.067
937.517
933.753
936.143
938.777
947.879
936.051
942.171
945.646
940.190
939.700
949.276
949.717
950.248
945.767
942.916
950.689
952.919
942.786
955.293
952.216
942.770
948.333
949.921
938.641
950.048
944.411
944.448
942.482
940.973
944.804
933.457
938.504
938.832
935.599
942.703
929.018
932.329
939.084
933.198
926.843
926.701
924.395
938.648
935.665
928.322
928.297
924.748
929.138
928.063
931.291
920.783
918.058
920.400
927.283
930.780
923.514
926.279
919.950
927.922
927.259
917.207
923.897
920.736
911.669
915.821
911.665
915.195
922.001
914.097
907.815
907.114
916.693
914.905
917.153
911.260
916.253
910.558
914.408
910.585
910.631
912.273
901.774
908.001
899.020
907.775
903.570
893.914
901.606
893.950
904.136
901.695
894.066
892.317
895.493
893.086
887.568
900.168
894.153
894.407
889.977
894.265
893.739
886.581
895.280
884.687
891.678
891.431
880.491
886.635
892.471
891.173
881.852
878.630
885.247
887.003
881.633
874.957
874.701
874.539
883.515
877.623
874.785
879.050
878.665
876.989
880.848
865.996
875.855
871.795
868.252
866.668
863.479
865.971
861.005
873.601
874.808
866.502
863.243
856.981
863.558
871.365
855.789
855.601
862.039
867.022
852.945
862.189
852.910
852.280
861.485
860.099
857.379
851.037
860.325
847.683
848.233
849.907
852.329
847.338
856.900
845.416
848.816
849.073
848.230
839.978
846.763
846.391
847.044
848.444
838.418
842.531
841.366
841.868
838.655
839.658
845.236
845.303
844.474
841.019
838.813
836.258
827.702
833.379
827.611
840.569
833.341
839.008
825.401
828.876
829.806
831.890
822.943
823.435
820.830
825.804
823.928
827.482
827.693
826.236
822.048
816.886
828.615
827.116
813.617
817.046
822.639
822.196
816.234
816.408
819.740
811.278
808.261
807.894
812.367
811.773
807.182
805.441
815.957
818.828
823.926
815.804
821.496
823.560
829.472
828.567
832.537
828.112
837.552
839.154
825.545
832.475
844.018
844.704
839.125
842.925
834.511
838.452
839.996
854.238
848.034
855.373
853.140
853.412
850.966
863.908
862.480
864.835
861.697
863.927
862.926
860.694
861.486
863.683
875.482
868.582
875.023
879.783
870.463
870.462
874.634
885.204
881.940
891.441
885.407
894.462
893.784
888.494
898.181
901.339
898.181
897.762
891.719
898.798
895.517
900.752
909.037
905.870
913.586
915.704
914.121
914.352
912.562
916.639
922.490
921.949
916.534
926.480
919.740
923.363
924.498
924.619
929.713
929.551
928.711
931.060
929.917
938.256
936.691
946.528
941.207
949.686
943.129
952.339
952.377
955.281
954.511
945.069
960.925
949.624
954.847
961.449
962.075
967.655
963.124
969.010
962.025
961.192
976.097
969.053
969.240
982.363
975.965
978.927
976.565
987.642
978.466
980.882
986.181
992.132
985.451
989.427
989.641
988.793
1000.339
1001.742
990.313
995.361
999.470
1001.846
1000.362
1006.386
1006.417
1014.450
1016.475
1005.735
1019.061
1012.950
1017.535
1025.358
1022.498
1027.010
1028.684
1021.865
1020.847
1027.021
1028.424
1027.131
1030.721
1027.773
1033.109
1035.174
1043.676
1047.506
1035.063
1046.068
1052.340
1049.483
1050.669
1047.620
1053.435
1058.660
1059.398
1060.287
1062.204
1052.696
1061.489
1057.423
1058.781
1065.317
1066.069
1063.199
1074.631
1066.994
1065.799
1068.101
1076.795
1072.417
1086.575
1086.711
1088.093
1084.751
1078.303
1089.236
1086.813
1082.463
1085.968
1100.468
1102.196
1092.550
1101.638
1092.723
1104.860
1099.884
1103.101
1099.923
1103.354
1101.433
1107.002
1113.530
1110.177
1109.798
1109.300
1111.891
1112.507
1126.887
1127.207
1129.502
1128.640
1120.345
1120.149
1112.478
1122.625
1122.331
1114.331
1118.838
1114.521
1121.751
1113.584
1116.692
1117.482
1117.293
1109.161
1109.705
1114.144
1115.535
1112.044
1117.621
1107.495
1100.602
1101.175
1111.352
1110.282
1103.072
1110.820
1111.262
1111.504
1105.994
1102.047
1109.370
1099.345
1097.306
1099.366
1093.401
1091.958
1095.876
1102.336
1103.251
1099.408
1093.050
1095.954
1089.704
1098.637
1094.426
1098.992
1089.987
1097.894
1086.609
1090.903
1093.388
1087.541
1085.330
1093.454
1095.446
1094.932
1081.758
1087.273
1084.686
1079.071
1081.377
1090.297
1080.184
1083.990
1080.269
1076.686
1076.676
1075.858
1072.343
1077.899
1080.186
1081.009
1071.293
1081.661
1068.940
1082.390
1073.306
1081.892
1067.613
1072.857
1076.931
1072.520
1074.809
1067.185
1075.399
1070.739
1075.425
1066.531
1070.132
1060.490
1066.213
1065.428
1058.547
1070.111
1067.480
1070.462
1059.567
1068.879
1066.068
1055.968
1057.211
1059.372
1060.673
1062.594
1053.534
1059.307
1049.196
1050.452
1052.041
1060.518
1055.408
1051.209
1056.489
1057.304
1050.766
1048.077
1052.758
1050.855
1048.291
1043.810
1042.611
1045.302
1039.842
1054.811
1052.334
1040.699
1050.709
1048.725
1043.676
1036.722
1045.170
1036.216
1038.653
1043.067
1046.288
1035.857
1040.522
1039.418
1036.361
1041.485
1035.480
1037.329
1040.459
1039.965
1033.530
1036.284
1035.601
1025.925
1035.263
1025.233
1034.514
1033.238
1032.664
1022.559
1036.080
1023.733
1033.268
1029.363
1022.160
1029.733
1032.849
1032.182
1028.972
1015.957
1023.408
1024.776
1023.763
1017.522
1017.177
1023.570
1019.702
1025.955
1017.274
1020.247
1012.495
1023.566
1022.824
1018.776
1014.912
1005.855
1009.153
1016.247
1016.438
1004.212
1010.663
1008.767
1015.871
1009.610
1006.542
1000.577
1003.015
999.981
1000.489
1004.522
1007.110
1011.851
1009.631
1008.466
1007.915
994.975
993.435
995.931
997.747
1003.038
991.416
989.008
993.000
987.173
990.196
981.819
990.609
983.448
982.462
992.414
986.667
984.152
985.928
979.277
985.044
972.273
975.153
982.704
977.950
968.073
975.936
965.743
976.966
964.442
964.155
961.428
968.320
963.877
970.376
959.204
963.935
955.343
961.846
955.473
959.787
952.163
959.623
957.013
959.749
950.509
943.021
941.825
948.724
950.629
942.603
951.785
945.236
947.752
934.161
936.937
931.406
935.528
939.170
931.753
941.457
926.943
934.071
934.591
922.325
931.449
930.225
921.865
930.905
930.225
918.855
921.765
928.381
926.354
916.967
914.950
909.706
921.978
906.229
907.258
910.149
911.862
914.169
903.465
912.503
901.442
905.848
910.714
905.086
905.815
899.243
898.559
893.513
899.111
904.074
902.905
889.117
889.077
898.021
892.978
896.596
891.762
881.936
878.829
882.664
883.290
886.463
881.545
874.776
881.652
875.712
873.052
873.481
867.067
870.322
865.113
863.580
877.777
866.294
862.839
858.923
859.677
862.085
860.726
857.441
866.974
855.963
866.103
852.243
856.357
859.910
857.916
848.355
854.455
854.734
844.408
853.122
845.012
852.166
845.152
844.444
843.692
835.186
846.686
843.510
844.926
837.626
840.929
840.384
832.342
830.888
839.773
835.194
827.217
830.047
827.528
827.247
819.888
829.746
830.692
819.177
826.277
827.285
825.394
825.280
814.832
819.314
814.172
811.998
819.305
809.726
807.507
802.551
808.634
809.160
801.234
811.698
808.702
801.584
797.966
799.907
800.445
795.403
797.252
790.505
789.665
799.341
792.354
792.257
783.274
782.750
794.804
786.859
780.255
784.453
788.692
778.140
776.155
777.020
770.341
768.162
781.114
773.137
774.870
761.600
769.089
769.305
763.748
765.352
749.791
759.747
749.398
743.023
739.858
750.979
736.813
733.711
743.607
741.443
737.551
730.470
734.277
733.560
723.495
721.943
723.030
725.582
717.120
708.490
718.831
712.523
707.939
710.976
701.618
702.768
696.880
702.356
694.332
697.136
692.452
681.125
682.011
680.947
678.268
677.178
678.144
680.740
676.449
675.656
666.469
664.764
666.400
655.036
663.868
658.005
651.375
646.048
652.928
651.313
653.878
647.532
645.738
641.904
645.226
631.859
635.085
632.892
628.165
622.205
