107.906
94.490
101.270
95.252
117.205
119.803
85.272
85.853
85.810
117.469
92.429
99.362
95.344
116.931
96.070
111.359
104.243
96.641
87.925
113.535
110.886
122.809
102.515
97.112
117.013
122.058
103.211
82.966
95.948
112.891
83.491
113.618
117.759
86.552
111.576
115.949
117.269
106.596
86.012
125.841
86.180
118.651
115.464
107.595
110.052
116.098
105.379
119.536
117.843
115.353
118.258
110.716
84.157
114.536
118.608
96.057
97.700
103.686
85.174
96.413
107.308
86.163
105.899
86.356
116.158
104.390
110.322
111.274
116.635
124.694
89.570
97.587
91.663
109.093
103.504
94.983
87.559
121.187
124.817
121.554
124.214
86.649
103.688
103.810
123.587
121.929
120.442
85.622
110.750
123.921
117.619
105.038
113.206
101.465
111.674
102.558
114.059
89.058
86.625
89.561
83.078
99.744
91.494
85.041
109.189
119.662
102.728
119.123
105.846
92.442
124.248
113.240
95.366
84.209
86.734
105.628
101.908
103.886
121.193
81.930
109.610
106.699
98.547
86.260
81.250
88.269
94.070
101.363
120.925
117.620
82.190
101.978
101.184
92.706
119.543
120.473
97.309
113.417
85.242
79.171
93.143
102.698
120.236
120.331
97.316
101.799
106.341
107.208
84.704
115.095
87.796
87.339
87.859
93.338
124.627
81.526
98.522
122.400
109.515
108.138
90.070
101.785
125.156
93.577
120.392
103.747
98.344
113.893
114.697
110.536
121.112
123.781
92.500
112.062
120.711
123.421
122.040
116.527
87.077
115.798
99.232
122.764
100.396
122.990
118.389
101.542
109.855
86.007
101.356
108.669
102.238
125.632
117.314
91.111
95.249
95.689
88.125
89.910
121.152
101.840
119.631
96.357
102.171
83.495
103.694
93.564
94.084
107.090
113.806
82.417
107.161
123.513
120.141
87.945
120.117
96.426
116.159
97.204
98.854
121.508
90.867
114.435
84.178
81.142
92.072
86.678
110.019
116.173
107.415
104.791
122.850
83.588
110.035
92.218
111.343
123.857
126.605
115.421
98.767
107.156
97.239
112.769
126.778
82.770
105.128
104.770
103.644
115.504
127.529
108.931
112.345
114.840
98.834
114.504
93.028
102.221
117.069
125.704
104.516
115.193
115.525
110.536
90.816
127.782
121.126
100.397
90.206
95.969
104.970
111.128
101.155
122.041
106.452
117.190
104.949
83.070
87.020
119.182
122.459
116.652
103.172
108.802
95.055
124.326
122.910
87.238
97.441
94.016
120.325
119.029
123.712
117.763
106.683
101.932
117.947
125.973
118.554
114.264
116.642
107.785
101.212
116.025
88.639
127.248
120.552
125.716
113.894
108.815
105.384
120.805
89.552
93.796
94.404
121.951
120.023
83.792
100.979
97.730
125.540
114.546
128.230
104.156
90.943
118.627
122.189
97.556
905.423
911.132
918.049
933.903
935.038
929.841
932.129
958.740
952.185
966.775
953.010
950.486
971.888
974.804
974.826
976.838
988.546
986.416
995.893
995.136
996.460
1006.076
1013.901
1010.698
1008.214
1020.978
1019.626
1021.682
1022.353
1023.772
1039.263
1036.489
1046.040
1062.349
1051.045
1066.608
1074.900
1084.586
1082.904
1077.471
1079.867
1076.250
1095.714
1094.359
1112.291
1089.453
1102.181
1107.864
1115.151
1109.019
1132.318
1135.997
1143.176
1123.129
1127.990
1131.403
1146.997
1155.014
1161.571
1149.404
1177.164
1177.856
1175.547
1170.158
1182.791
1197.415
1197.487
1206.995
1210.625
1193.990
1198.375
1218.431
1214.728
1212.443
1224.010
1234.562
1234.333
1222.235
1239.253
1242.774
1251.394
1247.139
1270.507
1249.696
1268.771
1272.254
1258.475
1267.873
1280.779
1291.653
1277.896
1296.024
1299.744
1308.472
1296.271
1323.751
1301.061
1318.996
1318.354
1315.389
744.498
735.593
746.281
738.303
755.460
743.065
759.205
757.989
750.158
765.902
761.793
769.122
767.391
772.431
778.673
777.187
778.937
778.237
786.997
775.952
777.744
780.284
789.660
798.730
796.697
802.480
805.621
798.396
807.161
802.388
800.535
811.005
819.146
807.277
823.426
817.933
814.421
818.885
825.026
827.129
836.716
825.937
831.895
842.516
836.685
841.416
843.745
850.968
856.260
854.979
847.107
862.845
859.757
855.089
857.115
865.920
869.408
863.078
864.131
869.574
870.112
877.261
874.379
888.342
887.142
886.379
897.264
887.568
894.689
894.142
901.955
900.888
901.299
909.327
903.314
912.235
906.238
920.956
919.635
922.586
924.388
923.266
925.582
922.439
935.440
925.763
939.628
932.989
941.188
938.154
949.803
954.187
956.437
958.359
953.522
952.129
958.611
965.287
968.836
961.495
972.401
960.030
970.104
956.457
962.970
960.376
952.068
949.703
950.567
960.323
958.102
956.675
953.944
943.376
941.646
937.990
944.227
940.045
946.813
946.857
942.780
938.429
928.722
926.208
936.499
923.411
923.208
935.817
932.239
924.987
915.937
923.954
923.494
917.322
912.258
909.006
919.315
920.147
916.717
915.469
904.861
914.088
913.603
904.044
908.858
894.039
903.544
896.521
890.905
901.710
901.463
896.667
899.225
887.893
891.896
879.125
879.878
877.714
876.562
873.352
876.328
884.805
882.805
870.614
877.987
870.850
874.648
866.744
874.888
863.607
863.232
860.432
860.197
866.689
861.707
854.820
851.562
854.729
859.193
846.322
849.279
854.105
852.369
844.836
843.363
837.379
841.401
843.923
846.025
844.475
839.775
837.143
832.429
823.699
837.528
825.230
822.761
827.160
821.390
817.074
820.755
819.801
811.998
813.807
823.037
819.438
807.828
806.558
815.781
812.522
801.088
798.349
811.010
809.894
802.761
791.855
802.472
795.148
791.471
801.139
792.401
795.595
791.596
784.969
781.980
782.452
789.542
788.416
775.125
783.606
772.106
770.579
772.629
778.292
767.626
766.399
768.692
767.204
771.552
768.609
754.539
764.480
763.899
765.400
751.805
752.093
759.707
749.335
752.460
751.200
745.573
750.515
742.601
749.911
743.605
736.216
735.020
731.280
737.698
729.565
738.383
735.966
726.988
730.982
727.254
731.602
716.714
730.641
716.613
726.813
723.686
719.024
719.972
710.297
710.462
706.228
704.422
707.989
711.761
704.609
703.173
698.952
704.962
695.374
704.214
700.861
688.569
701.410
693.013
695.491
687.277
693.149
687.811
681.865
687.946
689.696
683.932
672.832
672.384
667.969
676.663
680.619
683.192
671.089
676.317
680.655
681.541
675.596
683.441
676.951
674.999
681.273
688.036
684.041
691.275
690.037
683.995
692.712
682.246
686.702
695.676
686.189
696.854
690.798
688.000
699.820
695.476
697.327
702.354
692.793
706.554
702.608
703.495
698.964
699.993
704.545
699.852
708.067
711.477
708.969
706.427
710.476
710.497
707.418
712.582
711.589
704.396
711.586
721.013
715.137
710.970
720.065
720.386
715.585
719.200
714.701
722.273
720.501
721.625
723.882
722.940
727.335
719.890
721.429
718.550
723.282
721.471
726.867
733.986
731.464
728.652
724.773
725.722
728.929
741.601
737.324
730.768
739.729
740.860
736.417
738.849
736.212
737.719
741.949
735.130
737.553
740.729
751.839
752.815
754.460
745.653
755.355
742.305
744.171
749.059
751.526
759.310
759.655
747.645
757.009
753.105
749.127
751.728
759.994
753.936
755.970
766.237
767.177
768.641
760.464
767.589
769.828
760.039
771.976
764.923
775.139
772.807
769.568
768.884
767.948
764.424
769.196
768.266
767.456
769.389
783.856
784.674
771.583
776.146
777.315
781.640
786.188
787.436
782.913
787.812
785.918
779.812
790.137
779.453
780.654
789.625
787.820
785.772
787.358
796.991
793.286
793.944
800.863
800.122
796.350
802.011
802.306
798.022
798.492
793.912
799.275
794.867
796.209
805.435
803.306
805.177
799.250
810.473
800.521
812.908
816.336
803.211
812.872
809.935
811.423
812.006
818.386
821.756
814.678
817.428
815.298
812.981
819.222
813.388
819.352
820.754
819.394
815.779
818.848
822.464
823.809
824.372
829.763
824.132
835.369
832.203
831.283
833.206
828.292
830.273
827.918
830.309
827.379
832.409
828.671
838.777
831.176
832.719
840.663
844.459
831.163
832.849
834.571
843.544
848.034
840.209
841.966
845.495
845.713
840.599
840.753
842.052
851.552
851.786
848.571
847.044
846.107
844.059
845.912
841.999
841.116
854.391
843.077
849.230
845.366
846.980
852.388
853.303
843.492
854.590
854.757
844.472
854.693
853.404
858.266
854.398
858.907
856.564
860.828
863.515
858.528
850.611
858.699
852.973
856.119
865.959
852.584
858.727
855.560
866.029
867.090
858.330
860.751
868.688
866.349
864.306
868.490
868.470
858.481
859.347
863.310
859.242
867.665
870.324
860.180
867.285
873.429
861.976
873.236
861.566
876.509
866.117
868.541
867.962
867.036
877.786
868.643
864.841
879.967
872.256
880.535
876.397
868.952
874.966
871.785
882.734
881.086
882.626
869.850
872.018
881.881
885.709
877.072
881.897
882.689
872.737
880.631
876.077
887.147
879.328
882.805
879.602
889.559
887.936
880.189
891.157
877.787
877.956
885.686
888.975
882.676
879.117
881.879
886.917
880.571
882.308
893.845
883.085
882.013
896.501
882.905
896.481
892.256
887.971
886.665
897.903
894.217
885.805
887.994
895.714
887.442
892.564
895.386
891.511
899.417
897.316
890.639
896.767
896.832
895.518
899.352
901.112
894.029
893.049
893.574
900.331
901.387
902.145
907.897
900.617
906.413
909.467
901.363
902.577
897.140
903.896
911.536
908.256
902.383
906.974
905.491
904.665
905.725
912.694
913.598
902.607
912.189
915.703
915.955
909.058
917.122
904.659
906.967
912.064
911.674
915.973
914.862
913.980
910.479
918.563
918.993
917.034
916.632
919.998
922.176
923.350
923.154
920.926
925.127
920.901
913.927
928.341
929.217
926.397
919.793
921.888
917.427
926.554
926.483
919.260
928.644
920.661
928.714
923.097
935.100
929.307
933.291
926.626
928.284
925.910
940.111
936.061
934.638
938.119
935.159
934.461
933.535
935.528
936.531
946.016
944.563
937.885
945.234
942.370
937.712
938.726
938.869
943.015
948.893
948.903
946.918
951.232
953.189
944.767
944.660
956.463
949.608
953.789
956.691
957.218
955.931
947.439
957.769
953.467
957.890
959.488
960.386
955.867
964.464
964.324
957.166
964.316
955.533
962.685
960.912
958.910
972.723
963.007
969.668
972.818
971.773
970.470
971.810
967.991
966.884
969.055
974.516
973.322
981.495
970.016
975.984
978.612
976.529
972.085
973.476
984.624
972.327
980.339
988.542
980.357
981.010
979.440
979.985
980.150
984.386
984.872
992.103
989.958
986.761
987.184
983.518
992.281
996.561
987.541
994.339
985.658
989.030
989.918
992.104
1002.208
992.409
994.721
990.824
1003.736
994.380
992.242
1006.120
1002.341
1008.249
1008.111
995.966
1010.729
1008.257
1001.184
1002.008
1010.379
1011.996
1009.366
1006.188
1017.281
1008.669
1007.286
1011.867
1012.053
1009.135
1012.744
1010.731
1018.813
1023.606
1018.295
1011.151
1024.923
1026.227
1026.562
1013.955
1025.628
1023.417
1025.131
1017.610
1027.870
1031.663
1028.950
1026.302
1024.308
1030.317
1023.609
1032.900
1029.195
1035.514
1028.352
1030.897
1028.234
1025.680
1041.064
1031.681
1030.505
1029.021
1044.314
1040.017
1032.779
1046.810
1047.240
1047.098
1038.905
1033.745
1041.878
1049.562
1043.203
1046.215
1044.305
1051.085
1044.959
1040.522
1044.675
1053.724
1054.657
1052.180
1044.022
1044.726
1050.104
1045.188
1058.185
1060.508
1062.879
1059.194
1054.002
1055.567
1059.586
1055.191
1066.517
1062.049
1064.456
1059.194
1064.122
1054.953
1059.256
1060.699
1063.720
1051.834
1052.129
1063.665
1058.965
1056.772
1051.050
1051.016
1049.532
1046.810
1048.650
1048.538
1036.877
1042.584
1040.095
1036.835
1032.755
1027.526
1033.398
1038.302
1033.886
1028.681
1033.700
1031.630
1031.357
1028.680
1016.912
1024.219
1021.654
1020.957
1015.078
1007.327
1014.334
1005.997
1001.515
1007.799
998.758
1009.412
995.538
1009.708
1004.545
995.024
1000.959
1000.285
986.964
993.708
991.974
997.344
980.772
994.609
992.756
987.196
977.836
985.274
982.642
973.451
976.261
972.392
966.396
970.793
972.471
968.476
969.535
957.876
970.443
955.680
968.277
959.425
950.959
961.809
956.779
955.381
960.043
943.267
951.098
954.525
944.005
948.474
936.650
939.671
932.506
943.428
935.585
935.322
926.651
927.048
923.781
925.897
927.410
925.881
919.735
928.354
928.716
927.268
921.819
918.917
913.402
909.454
910.896
906.022
914.926
904.874
906.224
902.396
901.139
897.391
896.246
894.748
893.038
893.945
901.575
887.489
894.109
893.029
896.548
886.312
881.722
880.649
883.847
875.673
887.033
877.488
869.906
868.289
868.777
870.014
865.219
863.687
873.139
871.546
872.637
867.776
856.695
867.708
863.655
859.253
850.544
858.597
848.682
855.385
849.894
851.567
851.600
842.435
842.544
836.369
836.382
836.880
838.164
836.507
837.497
825.481
827.475
831.530
834.543
826.387
831.134
823.922
829.945
822.258
819.326
824.157
810.211
814.693
817.819
811.686
810.553
810.021
808.412
811.337
806.137
809.214
794.577
793.293
806.244
793.400
798.306
786.834
789.784
783.767
792.868
792.047
790.424
784.348
788.097
775.414
783.578
779.402
770.441
778.263
770.783
769.896
766.809
763.901
771.811
772.411
773.278
760.562
758.029
758.306
764.947
752.797
754.346
763.750
755.658
750.643
755.484
751.199
759.214
762.690
746.914
746.064
757.271
753.191
749.911
747.321
744.314
749.065
754.860
750.626
749.063
753.333
743.922
740.364
741.298
738.837
740.008
742.809
749.286
744.657
738.994
736.124
731.546
745.057
738.396
733.691
743.744
737.146
737.116
738.904
737.566
736.707
729.729
728.400
729.082
728.564
729.750
732.787
733.791
721.846
728.640
733.391
727.285
718.604
724.049
716.003
725.389
720.627
728.736
713.116
723.887
724.644
721.756
720.961
724.258
714.422
713.036
716.736
721.838
712.676
712.726
717.406
712.861
703.845
706.205
712.242
711.742
700.432
711.034
709.432
700.836
712.038
705.053
696.204
696.710
708.734
694.470
699.803
702.013
696.117
698.924
699.202
694.053
704.211
688.244
696.998
689.277
701.168
699.355
696.379
685.041
684.918
694.675
683.594
683.575
688.418
685.405
685.497
693.307
688.858
692.088
686.006
676.399
686.514
675.564
675.369
676.435
678.063
674.590
682.622
680.788
684.568
672.146
681.164
675.690
669.980
676.412
677.119
676.565
675.965
672.874
665.263
673.535
676.617
669.830
666.307
663.820
667.680
668.981
667.429
659.761
666.273
664.546
658.715
664.361
662.594
664.218
657.474
652.150
658.478
652.280
663.101
656.632
662.018
649.497
653.887
658.547
649.882
645.657
656.883
651.295
645.182
641.214
646.976
649.646
652.676
652.754
639.000
643.473
648.849
637.902
641.162
633.968
648.467
647.263
640.616
642.747
640.685
639.126
635.702
642.688
631.807
627.759
630.412
628.317
627.365
638.802
631.474
635.632
635.677
626.768
628.361
634.470
619.435
623.010
620.790
624.117
625.339
628.397
630.406
624.484
631.325
623.682
628.282
626.917
634.656
628.407
629.142
641.035
631.035
633.781
645.591
646.541
635.804
647.522
637.791
636.190
646.380
652.823
644.285
652.613
645.915
650.813
643.166
649.016
645.772
660.645
652.803
664.154
659.705
651.612
665.336
665.518
661.800
669.524
668.038
663.914
674.143
662.703
675.073
669.597
669.772
675.809
678.354
667.767
676.192
674.796
677.738
686.001
673.792
683.364
686.307
686.365
676.516
690.846
689.275
693.218
693.171
688.493
694.876
698.889
685.807
692.644
687.066
699.029
690.835
703.375
706.215
700.516
700.866
702.896
704.594
697.515
701.227
706.422
713.623
705.292
717.944
710.977
706.265
707.047
711.299
717.312
719.656
716.277
720.918
723.976
726.684
718.046
730.003
729.543
732.975
733.086
722.121
735.542
735.202
731.536
738.918
739.096
741.382
739.605
735.604
735.472
734.430
742.387
740.692
749.188
736.377
749.475
742.857
753.893
747.030
752.508
752.711
757.323
755.376
760.348
757.455
751.538
748.596
758.236
755.041
757.969
754.513
761.701
756.853
760.391
766.696
765.529
768.343
762.081
771.180
770.843
771.929
767.644
769.383
779.095
776.193
769.970
785.672
771.766
784.750
778.487
778.029
783.688
783.497
780.731
792.888
784.049
791.620
794.790
789.261
796.009
788.399
800.882
791.885
804.384
799.043
799.506
796.787
795.529
808.936
802.134
810.605
802.861
808.607
801.804
813.814
806.202
817.067
810.072
807.330
819.208
815.550
811.369
810.334
815.993
812.257
818.783
821.163
815.142
824.270
825.486
829.462
831.120
834.745
832.896
838.184
834.638
829.154
834.570
832.499
835.223
836.153
842.204
835.197
835.456
849.385
837.356
849.966
850.596
848.784
849.858
846.408
852.596
845.256
843.000
854.398
851.123
856.446
847.760
849.457
862.018
855.719
852.431
860.971
853.501
858.436
856.154
862.151
858.574
864.270
864.864
864.781
866.299
869.334
864.949
879.039
871.144
874.825
872.191
872.603
884.884
877.708
878.922
886.006
886.885
890.261
889.893
885.587
892.511
891.587
889.015
896.305
883.718
887.744
890.826
888.189
898.090
899.621
898.540
893.333
892.473
903.659
893.411
899.691
898.200
908.979
906.381
905.163
905.104
909.120
912.383
905.637
908.055
920.175
919.263
920.562
921.195
914.436
919.276
914.943
