29.185
44.788
34.968
32.794
32.886
33.018
42.603
31.378
33.320
31.081
42.339
44.686
31.778
32.803
33.722
43.161
39.517
45.136
42.465
32.908
29.911
29.917
36.474
44.808
41.707
35.058
38.571
43.591
29.201
33.070
31.751
44.488
38.997
42.406
33.768
32.161
1257.671
1260.506
1267.633
1256.151
1251.330
1249.172
1265.297
1248.667
1265.076
1254.735
1253.897
1265.299
1263.110
1272.783
1269.984
1256.687
1260.158
1246.389
1274.439
1266.965
1260.354
1253.763
1268.885
1246.091
1263.457
1244.945
1259.558
1272.558
1260.487
1252.837
1246.820
1258.426
1270.710
1252.477
1268.983
1257.207
1255.767
1269.409
1253.768
1261.886
1256.093
1264.015
1243.197
1268.718
1268.017
1255.527
1258.969
1265.851
1246.743
1257.433
1256.233
1265.245
1263.611
1253.757
1241.117
1264.507
1251.096
1259.578
1241.425
1240.925
1250.425
1243.746
1261.093
1241.091
1239.562
1260.340
1237.741
1259.017
1245.963
1244.259
1261.158
1257.238
1240.618
1248.468
1246.916
1263.824
1263.844
1241.683
1258.894
1260.579
1250.897
1241.380
1253.183
1261.233
1260.501
1261.925
1237.697
1257.241
1260.135
1255.267
1258.478
1257.648
1237.991
1241.424
1232.823
1233.589
1248.958
1237.341
1245.290
1250.370
694.976
697.396
686.456
688.571
684.307
690.019
686.113
683.455
698.515
690.288
694.523
686.901
692.789
684.157
689.610
693.190
695.252
684.021
683.258
692.621
690.606
684.953
690.584
682.314
692.724
686.770
691.915
686.792
690.546
696.267
681.484
696.099
683.899
694.039
684.242
686.098
681.648
684.807
684.956
686.825
688.178
686.733
685.616
689.758
694.250
689.279
682.566
692.528
686.232
691.394
679.836
693.138
691.507
682.082
689.103
692.145
683.957
682.224
678.976
683.569
679.637
683.697
693.084
678.077
691.501
681.130
690.924
693.078
690.632
693.076
684.221
689.533
691.083
684.676
688.521
691.790
686.055
679.273
690.490
684.693
677.362
689.322
690.934
679.105
684.914
684.980
687.989
682.260
688.447
678.267
678.997
684.487
684.794
681.206
684.859
681.430
683.920
684.323
677.718
689.090
683.530
689.291
677.735
689.222
693.560
691.573
694.281
683.922
689.702
689.963
697.006
686.864
694.685
695.302
699.495
688.453
697.708
703.872
703.503
706.104
697.782
706.546
705.628
701.919
709.736
707.255
703.921
705.168
703.647
707.400
707.610
714.458
713.435
714.808
709.970
711.259
716.045
711.601
711.690
717.216
710.978
720.320
713.066
715.703
718.537
721.500
731.005
729.606
722.093
730.405
719.019
723.667
729.781
729.682
732.623
738.028
729.582
726.386
728.674
735.611
729.765
735.193
735.501
732.199
735.367
742.384
742.625
741.530
735.776
748.287
737.792
746.344
742.333
747.150
755.203
743.386
755.323
744.051
743.979
756.662
748.135
747.104
762.479
755.233
755.464
759.640
764.656
763.135
761.561
767.975
766.814
759.792
759.949
764.492
766.928
764.059
767.376
773.004
773.897
762.810
772.182
778.796
768.216
766.330
781.717
767.896
770.660
771.717
777.095
780.502
772.248
786.857
779.531
786.523
782.489
778.402
786.991
784.966
794.823
785.030
787.092
793.798
787.600
787.627
798.035
800.577
793.979
798.364
792.509
803.664
794.001
801.092
801.809
800.449
794.459
795.633
806.616
810.807
811.155
804.405
805.447
812.174
812.850
803.541
807.434
816.531
805.525
818.620
812.315
813.904
813.106
821.446
815.512
825.086
816.796
825.787
818.792
828.068
818.821
820.854
826.753
828.436
832.746
831.697
831.186
823.281
835.655
832.661
830.760
826.587
838.286
827.667
836.409
835.202
834.848
840.405
840.094
837.971
848.152
844.329
835.603
838.273
840.937
851.731
850.261
842.259
853.851
843.322
849.672
855.072
844.220
854.913
853.606
850.327
852.253
855.542
858.220
857.182
853.384
864.561
867.412
854.233
855.333
858.032
856.529
855.816
850.945
851.210
864.333
856.202
863.496
849.282
854.948
849.067
859.909
860.006
856.578
849.006
852.260
862.205
849.814
859.155
857.677
854.222
849.692
845.110
854.379
846.291
855.399
858.841
856.996
843.901
843.512
856.970
846.694
847.232
842.180
850.511
848.101
854.636
841.108
853.254
839.150
854.685
846.277
839.598
842.464
844.010
842.287
846.413
849.084
847.174
839.762
850.022
842.403
838.259
849.877
847.333
841.594
838.254
848.531
846.770
847.805
847.590
835.766
834.869
840.884
831.487
831.027
833.056
840.665
833.889
840.918
838.826
842.112
832.593
837.251
839.515
827.872
838.247
834.596
841.072
826.768
840.826
838.832
836.518
839.222
831.966
839.153
833.939
828.779
834.468
836.646
834.442
824.384
830.100
827.162
822.079
830.058
836.889
830.128
835.244
835.607
821.172
834.787
824.223
827.049
825.447
826.825
830.614
831.437
818.664
827.499
827.660
823.240
827.547
820.516
821.275
818.851
826.305
825.317
823.848
825.943
813.970
817.154
818.152
826.975
813.500
813.077
823.125
824.460
813.526
824.679
821.379
826.236
821.851
818.031
818.146
821.465
817.893
809.848
823.373
814.852
822.317
811.605
815.732
813.009
809.886
806.262
809.892
808.401
808.171
810.308
806.474
819.242
805.459
810.421
817.018
812.621
812.464
813.378
808.987
806.714
807.890
808.303
812.112
800.403
812.118
800.871
806.856
810.613
813.232
807.757
810.208
804.518
811.436
807.379
803.983
806.182
798.266
796.538
800.848
804.043
810.842
802.096
801.099
797.867
799.652
806.464
804.140
793.045
796.865
799.559
798.712
799.531
801.074
804.508
800.369
804.949
790.012
793.919
792.654
789.838
795.777
794.032
802.649
790.324
792.194
793.585
789.869
795.473
787.043
796.938
797.675
789.192
781.621
790.155
786.172
792.782
784.500
786.454
787.275
783.208
791.760
789.637
789.144
777.606
775.662
784.061
775.579
778.835
775.421
785.119
780.537
777.612
783.807
774.459
776.156
778.935
772.528
770.424
769.243
768.690
777.460
766.487
777.153
765.678
766.328
769.396
766.285
766.871
765.666
767.897
775.436
763.565
772.090
763.305
771.043
764.728
758.025
766.746
759.671
764.134
761.451
770.074
757.063
764.842
759.060
766.542
752.197
763.249
757.329
753.490
751.331
764.689
751.659
756.888
759.791
751.748
757.833
748.347
757.190
745.652
759.574
753.249
751.560
750.082
752.021
747.662
740.925
753.704
743.823
754.491
741.201
746.116
741.883
747.921
747.657
737.521
751.181
739.695
739.454
735.404
740.343
740.184
748.133
733.944
731.547
735.166
740.754
737.605
733.861
729.056
740.886
742.671
735.347
734.975
735.569
735.888
739.622
725.636
725.649
724.767
723.557
729.610
729.456
731.486
723.587
729.340
727.118
733.031
721.263
731.750
724.188
729.878
727.135
717.726
728.090
729.219
722.271
723.401
716.150
712.595
721.388
713.749
711.331
725.199
724.364
716.237
716.718
719.237
710.220
721.199
708.729
714.982
716.138
718.971
718.633
704.267
715.248
712.895
708.689
716.344
706.507
713.987
715.044
700.456
703.735
710.187
704.475
704.719
702.685
703.109
700.379
707.313
694.550
705.978
699.374
697.683
699.543
692.762
699.610
696.912
695.464
702.101
692.935
698.549
693.627
701.925
697.189
689.773
694.521
688.573
686.201
692.400
684.279
687.916
692.355
695.039
684.262
688.853
682.276
683.971
696.125
687.484
697.148
700.953
694.672
691.833
691.191
692.320
700.836
703.518
703.589
700.721
700.782
696.905
701.730
711.029
708.526
702.731
702.064
704.395
704.712
705.038
711.154
705.336
710.039
708.979
709.496
711.753
707.542
720.082
721.955
711.359
720.990
713.651
711.697
715.789
717.051
724.739
718.073
723.075
721.772
720.828
724.350
728.986
731.662
732.326
732.767
730.682
735.949
732.903
729.575
736.362
728.153
739.016
739.535
743.991
731.081
733.492
732.971
742.950
743.689
743.176
740.889
742.093
737.862
749.688
752.054
753.569
751.306
744.086
749.277
744.708
753.598
755.392
746.098
762.110
757.248
759.487
758.237
763.583
762.741
753.247
752.829
765.908
764.739
768.757
768.814
758.261
762.166
772.194
760.992
773.149
774.111
776.843
764.042
768.097
772.284
770.608
771.083
771.966
774.888
779.470
771.640
770.710
780.651
776.471
778.993
786.131
785.381
776.116
776.728
786.190
787.058
783.708
790.088
783.434
782.890
787.554
789.151
796.543
786.182
794.067
793.180
789.753
801.403
795.245
803.396
799.722
805.912
794.899
794.075
807.594
801.818
798.368
806.363
800.700
812.376
814.617
812.868
815.846
811.625
813.794
806.254
806.481
815.637
815.963
818.048
809.559
815.120
821.656
812.304
813.561
815.249
819.307
817.578
818.568
816.431
820.475
829.948
833.747
818.980
820.678
820.651
830.730
835.727
831.574
837.946
834.387
834.146
840.853
841.131
839.137
833.305
836.527
832.164
841.834
840.710
843.612
840.743
839.222
837.888
849.161
853.404
853.603
848.195
853.476
842.762
848.510
848.276
843.696
855.004
856.864
850.102
858.465
854.974
855.123
863.998
855.182
857.239
860.674
855.916
844.789
846.573
843.884
844.310
854.474
852.212
837.875
842.408
834.577
841.302
840.114
832.317
830.536
832.975
828.271
835.755
825.490
833.427
833.472
821.118
818.553
815.987
827.510
822.095
817.508
816.451
811.141
817.089
814.681
807.624
813.072
801.639
802.289
811.687
807.030
795.394
802.194
805.571
796.694
791.808
800.499
800.716
784.228
794.655
792.531
792.966
779.648
781.806
776.389
787.591
784.858
779.567
774.530
775.472
779.647
781.401
776.895
778.268
768.912
767.266
771.361
757.483
770.930
767.134
757.008
762.858
763.028
761.889
748.508
754.416
757.951
745.029
755.470
750.713
752.660
741.236
737.203
742.084
736.001
744.955
737.590
734.882
737.666
728.924
729.973
726.341
722.849
728.260
733.104
718.944
726.383
720.826
713.489
719.672
710.481
717.103
720.855
720.616
711.510
709.893
713.407
706.263
702.407
710.108
706.878
696.587
698.639
697.827
694.766
692.869
693.664
699.745
693.861
690.609
689.177
684.941
685.319
679.491
676.509
675.269
681.102
684.674
671.581
673.964
670.372
668.372
665.289
672.342
664.272
664.710
672.400
671.337
666.753
654.701
661.773
654.297
654.261
663.638
657.187
657.739
653.992
657.109
641.564
654.134
648.505
650.978
637.914
640.435
639.813
644.104
631.559
636.598
628.157
626.115
638.750
622.629
634.953
634.129
627.767
627.163
617.947
619.020
616.042
614.681
617.890
613.996
616.652
609.745
609.507
617.012
603.358
613.966
610.531
604.062
604.701
606.400
595.257
599.705
598.062
587.715
600.466
598.225
596.860
592.207
589.311
588.045
589.384
582.200
583.956
580.384
573.024
585.294
579.135
568.299
575.253
569.197
576.546
570.909
576.847
568.332
567.113
563.698
578.024
575.777
577.268
572.294
568.413
570.161
578.313
568.033
570.106
573.698
579.259
568.443
569.593
580.505
573.044
577.343
575.207
579.095
573.343
576.570
577.252
579.724
576.435
578.037
567.439
579.938
569.465
580.755
570.518
576.984
573.589
577.752
573.847
577.485
582.904
579.276
576.270
578.268
578.203
578.800
575.280
578.604
573.079
580.191
574.663
576.520
581.038
581.165
580.583
576.967
585.538
585.975
572.942
574.383
579.449
575.493
571.139
583.501
574.855
571.287
581.789
586.789
584.321
575.867
582.363
581.876
576.042
583.939
582.434
584.762
586.753
585.129
582.259
577.135
582.245
586.115
585.161
580.585
584.053
579.930
581.075
580.308
585.296
580.067
586.672
582.237
583.049
588.542
579.222
589.834
578.623
587.557
583.531
591.123
582.885
589.660
585.404
588.113
582.756
578.000
579.977
590.322
583.697
582.897
591.891
591.573
588.498
579.112
592.963
577.500
588.421
580.324
579.381
581.056
593.347
589.231
583.836
582.160
586.574
591.457
587.772
584.697
589.145
579.502
588.208
585.769
586.099
588.790
584.365
583.663
583.083
589.727
582.570
589.077
583.971
587.157
593.227
588.320
581.412
587.958
593.020
591.112
591.161
586.298
587.487
588.232
598.182
593.616
584.329
586.172
596.997
589.936
588.010
590.831
590.343
591.764
584.340
592.107
596.972
593.542
588.042
599.971
595.997
590.146
591.370
585.610
596.769
596.756
585.631
595.277
590.930
598.930
598.996
592.935
601.507
601.389
598.078
587.709
594.365
599.231
591.880
597.593
588.216
597.545
595.288
597.896
595.352
598.074
592.956
601.467
596.070
601.536
601.824
596.318
594.191
589.624
589.981
592.916
592.572
585.579
590.330
584.766
584.963
580.748
577.524
577.833
568.205
565.709
565.404
569.545
565.102
554.542
554.070
550.220
560.232
548.594
558.024
554.731
551.965
544.403
546.991
547.017
544.163
531.059
536.792
526.626
529.687
526.652
526.871
522.138
517.241
519.841
510.229
508.319
519.994
505.821
515.620
503.061
507.229
508.934
499.378
491.385
489.748
489.632
485.137
497.004
490.226
484.896
485.469
477.701
472.099
472.525
482.017
470.273
476.195
468.728
462.317
460.093
465.876
452.861
461.278
452.893
459.684
455.294
446.277
440.743
445.988
446.905
445.249
437.872
441.430
433.991
433.439
428.875
430.020
430.555
428.429
415.299
416.548
415.850
414.235
415.973
416.796
412.472
414.074
401.690
395.500
407.350
390.735
400.274
393.401
390.637
392.848
391.468
391.433
380.929
389.336
379.182
377.825
368.757
367.129
367.390
365.833
361.457
366.663
358.068
366.459
358.030
364.156
360.323
349.727
357.513
345.253
340.569
345.719
343.513
344.455
343.951
332.891
332.399
336.500
334.330
327.877
322.006
324.717
319.823
314.797
315.970
315.485
314.416
310.031
309.435
302.634
299.891
300.555
302.506
291.528
295.421
292.276
284.077
283.800
289.490
277.531
276.840
279.776
285.687
277.579
279.034
273.674
276.024
273.386
260.807
270.058
262.017
261.221
255.473
253.788
254.744
252.466
248.357
250.187
248.627
241.255
242.650
240.864
241.544
239.934
239.560
228.202
236.475
231.354
226.308
217.662
221.458
221.356
215.077
207.567
210.319
215.515
211.306
205.740
198.801
200.032
193.618
189.550
187.256
199.799
187.256
193.366
185.094
182.393
178.077
172.760
174.180
172.795
173.083
169.668
180.196
174.769
167.237
174.199
180.120
179.404
167.385
169.217
173.501
170.715
175.802
168.059
165.867
162.996
166.640
166.452
159.498
171.981
158.141
165.298
171.374
160.900
165.618
168.897
157.261
162.743
162.233
166.019
159.110
156.266
159.093
159.703
157.124
157.829
164.085
157.104
163.324
156.309
147.915
158.418
159.187
151.233
158.035
155.663
157.070
144.962
146.714
156.856
147.758
146.452
141.243
147.693
152.309
150.756
140.153
144.586
136.839
145.894
147.243
143.981
136.595
144.183
142.333
133.359
146.022
142.546
143.259
138.914
141.447
133.592
134.344
130.440
139.035
127.911
143.316
136.530
129.990
125.990
126.798
137.708
139.549
136.582
132.872
124.147
133.822
124.704
126.572
125.995
120.433
121.551
128.059
389.045
423.582
393.094
404.029
408.848
389.015
377.159
397.914
401.735
378.827
378.822
374.844
395.608
414.234
393.263
375.350
360.636
400.982
357.454
357.899
385.673
375.307
370.170
365.365
358.622
390.804
357.541
379.400
378.956
383.928
368.341
377.694
337.535
330.984
330.972
372.454
373.218
350.655
349.796
359.791
317.560
357.986
317.496
343.744
329.031
340.599
321.267
317.478
342.552
328.928
312.261
298.004
341.968
345.405
340.062
340.111
317.836
300.960
311.863
321.036
301.631
315.329
283.531
314.579
286.851
302.213
307.824
310.973
310.547
281.191
301.492
272.531
304.622
298.716
265.195
288.541
296.370
268.378
274.060
300.150
297.470
290.360
244.196
262.296
264.588
283.840
247.340
256.779
243.376
237.266
245.593
237.866
232.239
268.690
255.991
245.212
266.064
248.260
236.780
246.525
235.811
226.805
257.055
208.266
235.752
236.315
242.894
239.911
218.964
217.260
230.549
253.138
220.460
203.667
216.840
232.287
223.746
237.300
243.933
243.237
250.441
242.501
224.277
241.169
209.085
206.097
205.582
247.633
222.101
224.877
244.803
249.029
205.378
214.278
206.115
208.929
250.330
218.965
212.430
254.735
225.599
215.846
242.177
244.221
207.249
241.303
250.379
217.807
236.628
252.826
252.716
247.743
246.140
236.617
205.084
252.104
210.861
241.113
237.915
203.106
216.848
240.180
224.696
228.741
242.867
230.417
237.752
242.644
253.468
222.636
213.078
217.638
230.240
235.606
249.400
254.360
230.091
240.085
212.231
227.401
210.760
214.868
230.117
234.994
239.386
252.196
230.697
239.242
215.266
235.221
237.412
210.727
250.481
218.817
230.799
251.494
239.417
246.151
218.833
250.762
205.491
241.806
223.608
227.580
250.991
218.611
228.831
248.190
215.102
240.753
253.327
249.002
220.393
248.094
222.325
220.424
232.240
239.531
239.058
214.214
229.307
203.473
205.805
244.814
208.171
203.177
211.309
210.034
210.512
253.431
223.376
211.891
240.324
206.205
247.168
221.798
231.177
226.880
207.261
254.744
232.059
226.273
203.942
206.374
234.211
236.095
219.148
205.095
232.939
203.438
211.106
225.373
235.599
224.305
213.303
251.468
244.349
212.942
216.746
244.738
239.072
238.115
249.050
226.311
204.648
227.414
224.576
210.783
236.112
252.484
