124.485
95.744
145.161
109.765
99.406
124.772
138.936
103.098
97.368
142.351
116.610
126.079
105.067
130.967
111.964
106.645
129.665
116.453
145.906
128.179
102.256
124.190
110.138
129.727
119.229
139.969
138.530
101.830
100.970
144.530
138.313
142.405
142.846
117.894
108.808
112.087
140.729
131.863
119.735
98.603
144.120
96.351
135.861
106.818
101.895
125.259
128.091
133.980
140.153
115.478
121.932
125.778
134.632
126.486
133.160
115.260
117.696
121.108
126.990
99.386
133.617
141.375
143.283
142.813
117.855
112.191
113.542
130.978
134.218
120.976
124.851
127.111
95.493
140.659
116.380
110.901
104.312
143.098
111.129
143.704
144.804
137.994
103.885
98.995
134.263
116.032
129.701
115.611
112.954
138.671
141.926
95.954
101.271
97.769
119.416
114.512
117.819
44.683
43.912
43.535
33.278
29.874
41.104
42.883
33.192
32.749
30.512
41.570
36.792
30.509
33.610
38.561
44.591
40.790
39.870
31.265
35.686
33.174
33.930
34.118
42.557
33.470
41.161
40.868
32.560
45.044
33.176
44.086
45.146
43.476
32.222
37.613
587.495
591.938
590.569
599.498
610.862
597.545
590.908
617.442
600.875
614.210
607.971
599.692
604.809
628.043
616.769
626.506
612.048
609.344
616.860
629.499
627.497
618.999
627.781
639.561
648.692
637.827
635.604
633.797
647.893
635.376
634.539
643.916
657.759
663.446
640.164
666.729
644.731
668.560
650.436
659.816
657.198
680.673
680.296
668.913
666.050
670.480
689.096
669.893
673.980
668.591
694.750
688.605
673.251
688.496
701.628
702.028
687.542
683.365
695.028
712.160
700.082
705.510
700.574
708.827
697.667
697.142
706.964
722.697
714.951
722.871
723.208
725.920
715.763
734.345
718.356
737.591
737.766
740.285
739.720
730.734
740.966
740.814
737.720
744.662
735.484
751.543
748.153
761.932
747.486
762.828
767.266
750.227
761.988
750.424
760.228
763.125
780.705
761.376
784.506
786.286
430.923
427.599
425.951
432.599
434.943
439.253
429.654
441.412
440.631
444.398
446.322
446.555
450.399
444.090
452.319
454.246
452.733
453.160
446.787
447.973
452.228
449.568
456.702
458.463
451.690
453.341
459.183
457.455
455.862
466.734
461.112
462.095
456.459
462.076
468.436
461.508
461.792
475.804
472.756
471.539
478.305
477.132
481.083
476.546
478.081
479.556
481.178
487.025
474.539
473.712
486.888
480.715
485.772
478.667
485.230
493.989
489.912
487.676
493.097
487.375
494.155
499.121
494.347
498.962
501.112
505.480
495.684
497.356
493.910
500.972
508.880
510.287
507.818
513.956
513.265
507.908
501.814
510.871
510.400
515.639
510.711
513.625
519.207
508.387
518.964
521.139
521.399
515.510
524.587
525.179
516.709
527.951
526.820
532.329
526.174
523.353
531.420
531.509
531.275
537.559
532.623
533.271
538.431
534.843
537.104
530.811
543.590
533.593
547.380
550.351
543.640
540.591
542.466
544.876
554.239
540.262
546.972
545.024
550.473
547.829
557.925
550.489
557.588
563.373
558.121
555.692
560.059
558.016
554.335
556.565
570.279
568.741
571.265
567.926
561.163
571.329
571.353
563.876
568.683
576.191
566.940
579.807
572.195
572.101
581.947
582.172
575.359
583.918
582.292
574.538
587.835
582.804
577.408
589.676
589.098
580.550
591.618
588.634
597.368
589.412
592.097
598.552
587.173
591.167
592.718
597.612
591.955
600.494
600.929
601.010
596.474
609.838
609.121
611.612
601.274
600.902
613.794
607.717
611.380
608.782
611.051
613.066
610.313
619.606
612.393
615.656
622.229
613.942
625.640
621.289
617.760
618.576
616.515
617.509
620.952
619.613
624.111
623.974
621.046
625.669
631.498
631.724
631.525
635.366
636.324
631.358
631.508
634.467
640.766
637.484
642.165
642.724
645.267
644.677
643.462
646.328
644.651
650.915
646.160
651.750
656.560
648.813
647.848
658.859
651.997
649.172
662.544
661.864
654.928
656.244
655.432
656.457
655.932
667.682
670.724
671.167
668.595
658.710
673.780
674.494
671.854
677.443
671.501
670.873
681.071
675.582
672.375
672.405
679.796
682.900
683.912
674.335
674.612
686.042
683.906
679.447
690.518
681.491
688.991
682.282
684.099
681.991
696.895
696.671
689.202
696.922
691.913
687.961
696.715
694.169
705.913
705.627
704.192
696.511
703.822
705.960
700.477
697.763
703.723
704.422
706.827
700.987
713.869
703.801
714.152
720.031
719.715
715.372
711.581
722.997
710.359
717.181
720.358
722.165
722.306
716.024
725.326
720.325
730.393
729.533
734.494
719.688
731.871
729.038
735.415
722.043
729.016
726.795
730.672
737.585
734.790
731.768
727.649
736.149
731.830
727.566
731.922
731.588
738.744
729.783
729.102
730.649
735.750
740.094
730.205
731.862
733.271
738.350
732.769
735.801
743.841
734.089
731.923
745.859
744.973
731.144
737.453
742.314
731.906
746.934
738.691
740.913
737.997
739.833
746.032
744.597
742.011
748.375
735.267
742.043
740.502
737.437
740.524
750.234
749.913
752.627
750.765
739.210
748.205
744.499
752.361
740.576
747.408
741.189
753.990
750.503
754.066
756.726
753.579
756.976
744.479
746.144
755.702
757.509
748.388
751.926
747.002
758.687
757.645
749.351
757.684
754.028
748.087
759.763
751.942
761.521
761.967
757.820
757.757
762.215
756.965
758.346
763.955
752.166
751.093
750.760
761.236
750.718
758.688
764.349
754.657
758.244
758.356
753.974
759.911
754.749
754.117
760.981
768.506
758.687
756.938
770.275
758.478
757.339
771.823
761.716
765.848
760.507
763.958
771.410
766.111
770.211
773.073
774.910
764.910
767.032
760.086
769.885
765.431
776.836
776.452
765.754
769.270
774.962
771.738
766.771
769.793
776.052
766.715
773.338
771.058
773.557
769.321
773.967
771.146
772.386
767.671
770.238
773.547
768.710
776.802
773.995
770.750
774.610
782.235
779.649
785.336
784.701
780.667
784.374
771.435
784.136
772.879
772.527
780.773
786.240
776.874
774.641
778.665
781.345
775.622
775.690
784.367
779.203
789.320
776.438
780.191
791.725
783.036
781.602
781.059
791.924
790.646
780.039
789.482
793.329
789.420
782.816
789.021
782.453
789.461
790.615
788.338
782.024
786.222
782.295
783.172
783.152
785.636
790.719
797.215
796.392
800.078
789.095
796.864
790.397
799.517
798.516
792.760
796.434
800.708
794.575
791.017
803.409
794.381
804.535
801.643
794.688
793.218
800.998
798.016
803.119
804.962
802.372
796.962
804.511
800.004
803.558
809.651
808.621
798.450
797.261
812.521
809.685
803.551
802.484
801.723
815.595
802.371
814.995
807.824
814.074
812.606
808.824
811.202
817.034
805.311
813.358
812.012
820.550
809.012
819.420
813.664
807.414
809.194
819.724
818.253
820.093
821.291
824.542
815.290
812.676
825.611
823.324
822.895
818.515
820.208
821.539
814.683
822.707
827.741
827.420
816.629
820.393
820.711
825.149
821.445
826.361
823.760
819.416
831.562
829.122
820.591
824.005
827.874
823.277
828.337
836.414
829.780
828.245
825.029
824.879
828.047
836.405
832.574
828.458
830.391
836.142
840.284
836.080
833.340
838.865
840.119
835.367
842.288
844.592
844.021
832.491
843.049
842.517
834.825
834.708
843.018
847.860
837.601
843.989
842.205
841.578
836.632
838.688
848.449
838.749
840.376
843.571
842.837
841.244
840.249
842.172
847.262
845.044
844.645
851.712
851.604
856.284
855.517
856.911
856.366
844.543
855.717
845.646
852.083
855.858
851.158
855.499
855.938
854.897
851.845
857.940
847.514
851.519
854.448
854.994
851.314
860.994
862.620
852.442
858.893
860.222
854.005
865.756
860.906
860.883
863.086
860.549
860.829
859.072
857.420
867.832
865.732
856.963
864.309
858.730
872.389
871.288
865.494
862.311
868.599
860.312
864.153
866.129
871.122
863.132
866.313
873.193
867.047
874.346
865.795
865.145
866.071
875.424
878.296
873.364
881.419
878.779
873.770
872.252
871.408
883.667
880.086
881.420
872.688
881.531
883.845
869.968
881.896
876.663
883.873
874.261
871.702
879.317
872.374
869.374
876.289
882.262
881.530
878.423
877.243
878.578
868.053
879.916
880.903
871.225
878.796
871.189
873.810
872.112
875.388
877.157
878.120
872.015
879.806
870.943
865.146
876.665
871.817
869.182
873.672
872.489
878.412
877.558
871.630
873.282
870.115
867.231
875.792
867.703
869.533
867.125
865.485
868.689
873.223
873.937
871.894
874.302
875.471
865.369
861.608
873.938
864.779
863.966
875.882
866.363
871.666
865.127
867.793
872.135
869.915
872.663
871.081
859.812
872.937
862.374
859.228
864.203
871.130
864.418
858.596
871.725
868.772
865.558
869.952
871.088
870.443
867.508
868.707
859.122
867.794
871.591
859.996
868.228
867.267
855.781
856.005
858.939
868.905
863.637
866.615
868.289
858.725
856.955
863.927
869.161
865.673
865.057
864.776
857.729
856.945
857.820
865.974
860.681
855.218
854.652
860.334
853.203
863.913
855.566
864.965
859.109
859.908
860.230
855.348
851.561
860.006
862.277
852.494
864.325
862.952
855.223
864.736
849.657
862.775
852.841
852.258
862.032
863.043
852.280
850.881
854.314
862.582
849.946
860.646
848.153
860.642
857.230
857.698
857.314
848.088
862.033
847.152
858.497
852.609
851.049
860.877
860.859
860.844
857.490
858.372
850.635
845.336
857.830
851.213
850.261
857.049
856.876
849.353
859.331
855.114
850.577
852.750
850.352
849.398
858.290
851.513
846.062
854.520
846.281
845.389
855.192
847.866
850.145
850.142
852.621
841.839
851.367
856.088
851.977
845.690
844.434
852.469
855.072
841.310
845.890
844.752
843.567
846.383
845.190
847.031
851.469
846.255
847.384
843.173
847.145
852.044
852.385
844.817
852.467
852.236
842.298
839.599
836.448
835.621
839.125
837.347
850.266
849.949
843.002
847.820
837.395
846.421
840.071
837.574
838.067
847.607
846.905
833.546
832.838
832.234
839.962
830.832
836.018
839.330
841.238
843.268
844.174
840.801
843.483
830.104
831.903
832.443
842.715
837.326
830.473
837.620
837.187
828.566
832.552
837.680
826.966
838.977
834.804
832.505
826.569
825.886
837.770
822.983
822.512
823.019
822.084
822.632
836.851
830.427
828.132
835.723
829.175
827.562
827.285
829.671
830.805
828.805
821.324
826.949
822.976
824.660
828.842
824.826
829.385
831.285
820.313
826.735
825.613
818.763
819.163
826.963
818.026
823.418
823.105
820.966
813.233
824.216
826.924
815.093
821.509
822.067
816.573
826.258
819.150
824.661
821.124
821.897
820.037
819.208
819.362
811.729
823.387
823.643
813.505
816.484
812.061
820.494
815.853
807.204
817.453
806.567
820.102
819.896
816.657
812.271
805.827
816.436
812.814
816.849
809.336
818.114
814.488
809.320
817.567
817.443
802.095
801.917
807.755
813.190
805.176
804.436
800.538
805.237
800.109
801.525
809.395
803.994
807.039
810.646
802.901
812.133
798.534
811.802
810.635
808.993
801.555
800.777
800.671
795.569
801.624
803.400
803.071
802.282
802.452
794.684
794.613
797.971
793.383
802.712
791.597
801.481
805.863
790.442
791.516
797.207
798.671
798.939
790.179
798.631
792.605
794.936
796.059
794.819
794.541
790.518
801.658
794.799
786.276
798.028
786.897
789.382
791.382
796.938
793.937
788.010
787.428
795.174
789.569
784.836
784.364
783.317
785.561
782.713
793.760
782.054
791.636
788.174
786.643
789.825
781.097
780.925
778.326
779.742
782.871
786.908
775.861
782.892
788.860
781.853
784.483
779.018
777.018
769.513
780.007
770.661
780.726
773.845
780.165
780.483
775.789
765.113
767.199
777.261
776.465
771.388
762.715
759.908
766.392
762.472
760.088
768.196
762.552
756.001
762.768
768.288
752.703
761.972
751.184
751.706
761.682
763.258
748.536
754.164
753.241
745.687
753.920
758.255
750.309
751.522
743.484
741.704
752.206
753.265
740.429
742.293
736.607
741.339
736.328
741.101
741.844
741.163
738.653
738.507
733.093
738.134
734.418
736.250
730.772
741.741
741.717
736.317
737.937
733.919
732.942
732.255
722.106
733.074
734.358
724.326
723.775
721.357
732.255
718.347
724.811
724.590
713.662
727.814
715.714
715.749
715.174
721.446
719.696
715.888
707.712
707.690
712.890
719.710
715.181
710.535
717.133
717.206
717.297
715.611
706.457
704.298
710.610
699.671
709.931
697.606
706.501
708.353
707.646
702.736
693.174
700.983
701.588
701.203
697.674
702.054
698.981
692.407
692.632
686.687
696.903
684.429
695.730
691.480
683.009
692.345
688.148
679.979
678.695
685.573
677.268
685.703
676.707
690.537
684.745
673.341
688.223
682.390
671.062
683.301
673.175
677.202
678.585
680.585
673.133
681.076
670.761
670.437
672.082
674.967
667.040
667.485
666.236
666.226
661.721
672.507
672.515
665.514
661.348
669.640
669.837
654.360
661.453
660.691
657.281
651.139
658.408
660.212
658.841
658.138
657.202
651.786
659.269
645.772
657.546
648.051
642.565
648.715
645.629
641.954
639.503
650.703
645.576
637.979
636.124
638.189
644.727
648.034
634.050
636.369
632.517
638.933
635.689
632.474
634.031
631.276
627.365
630.556
643.041
628.789
638.464
642.378
639.825
630.363
634.627
635.860
636.932
635.753
633.641
631.616
633.983
627.957
627.539
635.954
641.525
626.355
630.761
637.884
640.175
626.035
629.238
640.697
632.742
631.842
636.442
632.791
626.858
638.904
625.334
624.603
629.990
638.202
630.423
624.635
634.683
636.143
627.917
630.804
628.905
639.312
629.914
627.168
627.836
626.958
630.857
637.096
635.575
635.010
632.325
623.595
638.276
628.489
623.420
631.659
627.741
623.804
636.139
632.311
633.491
622.957
634.834
627.927
626.585
628.859
633.724
621.485
632.078
629.413
625.668
636.465
632.857
621.777
635.166
621.057
622.041
630.526
633.419
623.806
628.820
625.579
627.082
625.249
632.914
623.319
626.384
635.173
634.240
629.444
627.554
625.183
619.880
623.207
623.888
624.257
619.096
622.051
619.335
627.331
618.770
626.039
624.714
627.351
618.113
622.434
633.132
626.503
622.735
633.170
631.394
618.132
621.169
627.855
629.339
625.100
624.661
616.862
629.806
631.369
623.665
629.601
631.097
622.993
621.440
622.502
624.005
624.684
620.074
616.624
620.321
616.244
626.414
617.500
620.517
615.430
624.603
625.214
619.269
618.663
619.421
629.418
626.487
627.044
619.201
625.899
614.707
622.576
628.181
618.361
626.728
618.564
627.564
614.916
622.124
621.667
623.219
613.437
620.059
623.054
626.226
619.283
620.693
627.645
619.345
618.530
612.786
623.176
627.254
623.673
620.269
612.229
621.953
620.152
619.036
612.758
614.953
619.098
622.335
620.538
616.191
616.797
613.500
615.998
613.186
612.123
613.773
611.675
615.568
611.175
618.691
616.239
612.156
613.295
616.711
625.888
616.808
623.034
620.691
616.372
620.705
622.135
624.020
618.231
621.530
622.682
631.699
629.326
636.636
634.469
639.089
643.307
639.550
636.337
644.188
643.741
646.491
645.335
651.202
654.029
655.765
643.053
655.016
645.910
654.245
660.260
650.141
657.036
653.070
660.788
655.096
669.533
667.523
658.388
673.530
667.811
664.289
667.309
673.014
669.827
671.355
673.819
679.458
684.188
682.432
679.431
677.887
687.111
682.506
691.263
684.238
688.053
692.331
686.503
696.292
699.827
700.230
694.777
692.600
693.155
693.175
702.515
708.953
705.192
707.693
701.183
710.501
713.033
705.940
716.466
706.705
713.117
721.327
722.465
725.900
713.907
718.229
721.305
719.468
727.942
733.546
723.926
726.630
727.824
730.011
726.905
737.506
734.037
732.303
734.586
744.363
747.048
739.451
749.966
749.171
738.325
750.620
745.783
747.245
746.347
758.307
761.592
748.975
756.462
754.909
755.663
758.297
757.288
766.967
768.012
772.236
762.095
762.431
762.708
773.853
779.267
766.701
782.231
771.151
785.433
773.009
779.448
775.414
783.123
777.988
783.995
784.744
788.159
788.732
793.364
794.487
798.451
792.183
801.534
801.306
790.934
807.053
793.367
794.943
804.818
807.692
802.093
802.289
808.842
813.725
815.344
810.000
810.033
809.940
817.314
821.698
818.867
823.091
821.364
825.835
822.703
822.088
834.532
823.871
823.401
830.357
839.559
838.095
837.468
829.660
830.465
838.445
834.317
839.939
841.107
842.039
850.839
846.479
853.573
853.242
848.773
848.839
854.926
859.818
861.003
855.767
865.122
856.496
864.027
869.999
867.906
860.320
859.823
870.241
863.924
873.398
864.842
880.762
868.192
882.897
884.041
875.909
873.245
871.547
880.373
884.923
870.502
882.158
880.081
868.516
865.724
867.135
864.339
874.342
868.626
870.742
861.283
865.891
868.633
865.450
862.563
857.923
856.270
854.816
866.785
857.515
857.641
864.361
862.965
856.691
857.293
853.292
851.043
851.836
845.267
843.719
848.712
843.723
853.457
854.220
853.952
845.346
845.041
836.989
850.585
838.537
841.713
835.768
844.202
834.451
846.542
835.963
844.650
834.773
835.995
841.562
828.163
825.713
829.312
834.666
834.127
834.760
826.326
830.170
824.009
825.281
830.231
828.280
821.614
818.840
