38.053
38.465
38.722
40.901
40.900
42.002
37.773
32.217
37.924
31.920
32.028
44.664
34.830
34.476
36.394
32.364
35.348
38.488
39.838
29.556
40.337
34.392
38.023
39.599
33.172
33.264
39.038
1047.291
1049.052
1049.152
1059.296
1069.358
1066.208
1066.520
1070.667
1067.215
1066.563
1069.273
1083.195
1091.941
1078.238
1083.354
1079.698
1082.366
1080.282
1101.760
1094.499
1088.017
1096.881
1103.468
1098.117
1099.671
1107.372
1091.399
1120.668
1098.257
1107.051
1124.586
1122.386
1102.342
1131.676
1130.730
1109.246
1124.167
1127.084
1133.484
1138.181
1141.252
1138.245
1125.504
1146.912
1141.813
1149.203
1138.917
1150.110
1147.695
1136.884
1160.391
1162.438
1141.713
1156.762
1159.837
1158.478
1145.661
1157.016
1159.662
1152.049
1175.367
1156.541
1174.406
1175.960
1183.060
1169.715
1184.910
1190.142
1184.523
1169.143
1194.917
1199.490
1181.528
1194.713
1204.844
1196.381
1180.334
1183.732
1192.320
1210.592
1193.645
1206.556
1194.426
1216.728
1202.859
1220.858
1222.950
1210.367
1208.871
1229.369
1207.033
1226.022
1211.578
1228.420
1225.850
1229.119
1236.560
1226.299
1233.936
1227.984
683.797
689.676
688.719
696.786
694.879
688.557
692.640
690.662
687.924
702.129
695.748
691.069
705.428
707.144
704.103
699.197
697.952
698.599
702.427
713.227
707.888
700.887
712.665
717.719
716.243
716.201
711.276
717.580
709.341
717.879
720.784
710.378
725.377
725.287
725.811
719.200
714.872
723.682
730.584
726.179
733.262
721.898
722.657
724.690
732.471
731.545
729.713
740.974
728.399
735.155
742.758
740.852
738.591
736.849
744.531
745.018
744.414
743.816
737.141
743.961
751.053
754.491
746.901
752.678
754.138
748.990
747.314
761.058
748.679
760.503
760.356
760.422
760.133
759.545
760.626
754.304
768.979
760.427
767.695
768.044
768.533
760.292
773.533
775.866
775.561
776.901
780.038
774.346
777.533
776.821
783.346
770.802
781.730
780.592
774.213
778.691
781.445
778.433
783.752
781.148
781.164
783.524
783.262
791.092
784.935
783.097
778.960
784.490
786.132
786.879
790.733
789.523
783.946
782.793
785.081
782.884
786.156
787.559
777.858
787.945
784.208
786.933
777.250
776.004
775.937
780.594
787.834
781.591
784.139
788.331
785.421
784.598
783.257
780.592
779.033
777.971
775.473
780.585
777.351
784.847
782.957
776.891
775.940
774.684
783.121
771.413
778.658
777.974
784.489
771.342
777.194
779.210
772.850
776.946
777.475
783.980
778.576
782.531
782.889
775.508
769.937
783.106
770.206
781.920
774.286
771.069
781.302
772.880
782.077
775.038
767.992
769.476
779.041
776.035
771.581
775.212
779.535
780.902
772.323
767.453
777.874
774.976
765.785
767.930
767.583
768.822
765.688
764.562
768.117
770.600
775.841
772.770
772.883
770.383
763.570
776.945
771.846
766.448
764.570
765.961
771.578
774.293
773.520
773.602
763.815
763.273
772.307
760.692
764.153
770.681
761.973
775.314
769.318
765.779
770.751
772.307
772.489
769.008
770.340
767.403
772.145
765.219
759.269
771.513
758.364
766.066
772.661
767.390
767.877
762.643
768.593
766.533
766.635
769.439
770.413
763.324
771.078
767.676
766.204
759.291
755.120
757.144
755.226
760.792
754.573
767.022
763.156
759.613
756.149
765.727
759.903
759.489
762.844
753.018
766.583
754.688
763.756
760.163
763.408
752.151
764.209
760.674
758.695
758.460
757.364
755.487
760.144
763.587
762.408
759.288
756.487
765.343
753.182
752.537
754.249
761.423
762.872
761.935
758.080
751.958
759.503
754.514
748.367
755.917
759.363
748.750
756.749
746.988
757.881
756.512
757.026
759.387
756.838
749.883
761.303
760.999
753.851
758.554
760.420
755.811
757.580
747.614
758.777
763.409
766.419
769.096
764.920
758.160
768.861
768.806
773.782
764.567
769.406
772.925
780.652
779.598
778.049
776.317
786.151
784.135
784.988
793.414
787.727
789.459
788.163
805.139
792.239
808.667
795.507
801.222
812.921
804.670
810.258
815.247
807.572
807.724
823.553
819.545
827.794
829.608
828.221
824.646
834.866
823.550
829.822
837.076
832.027
841.397
833.832
839.920
841.375
844.367
851.723
851.329
846.245
853.632
856.039
861.495
851.950
858.909
856.321
859.568
858.783
870.558
874.191
873.427
875.396
866.261
880.724
884.023
880.454
876.141
888.906
887.383
891.447
891.872
888.495
895.224
896.894
893.939
899.563
891.983
897.685
907.463
902.086
911.473
899.862
908.667
908.613
914.425
915.177
920.962
915.779
924.893
919.791
923.954
923.670
920.168
927.506
934.999
938.266
935.431
937.148
933.495
936.561
949.317
950.209
939.028
939.367
951.453
946.440
946.030
955.882
953.745
962.506
965.078
959.838
957.705
967.584
966.709
967.416
969.110
965.297
973.972
974.946
971.572
976.264
975.970
980.964
980.730
982.153
994.731
995.033
986.859
989.408
988.759
993.679
999.118
1000.016
1008.339
1007.135
998.327
1001.776
1007.311
1019.503
1020.783
1007.350
1012.009
1015.393
1020.763
1015.328
1031.926
1027.935
1025.173
1026.159
1029.787
1039.047
1030.125
1035.049
1031.262
1033.173
1043.725
1048.637
1053.358
1046.297
1045.295
1056.809
1051.228
1061.731
1049.791
1059.925
1058.450
1066.436
1070.679
1060.197
1071.196
1066.868
1070.041
1075.772
1080.327
1080.633
1076.348
1079.517
1083.448
1090.573
1089.925
1090.001
1085.949
1092.147
1100.360
1086.430
1096.196
1090.214
1093.470
1100.935
1100.626
1099.009
1109.633
1101.715
1106.220
1112.593
1113.122
1115.658
1105.293
1108.907
1101.964
1105.860
1100.447
1104.718
1090.816
1090.428
1088.319
1088.550
1087.268
1079.556
1081.989
1087.026
1079.723
1084.202
1072.065
1069.381
1065.956
1068.905
1063.487
1063.078
1060.896
1070.183
1066.738
1061.591
1058.110
1051.702
1057.474
1045.163
1056.330
1047.115
1044.944
1039.260
1041.122
1036.654
1035.128
1030.723
1033.715
1036.392
1038.588
1022.735
1025.673
1018.971
1019.218
1027.600
1022.703
1022.736
1019.107
1014.816
1008.287
1008.286
1015.141
1010.338
999.254
1008.960
1001.923
994.552
1003.157
996.153
1002.138
991.683
988.769
997.249
989.437
985.601
981.106
975.027
979.210
983.218
982.086
974.231
978.659
967.231
964.897
959.846
961.874
964.723
961.285
958.553
954.953
951.487
948.236
946.032
943.046
952.615
951.571
940.048
944.172
947.552
932.354
944.210
935.478
933.580
939.832
931.034
921.328
933.284
921.711
922.849
927.546
920.341
921.755
922.492
915.510
912.493
915.522
910.249
905.566
896.641
902.406
904.287
894.084
896.362
895.000
895.712
893.706
891.930
890.851
891.073
884.407
879.157
882.533
880.027
869.336
872.020
870.039
873.226
873.123
867.913
858.816
856.880
857.865
858.030
855.354
854.966
860.052
853.619
844.477
847.911
853.980
840.575
839.756
844.194
838.668
838.914
838.832
830.532
833.136
831.450
821.031
821.789
825.043
826.822
814.480
822.908
815.110
813.671
807.869
818.839
802.952
800.197
810.225
804.236
803.692
795.255
798.982
796.080
789.110
788.556
791.692
781.307
792.423
788.263
787.786
776.363
778.871
779.466
769.273
781.009
772.576
770.425
767.663
772.275
768.779
759.356
760.000
760.787
756.425
761.797
749.796
759.586
746.240
744.045
753.867
743.598
741.023
742.645
734.524
735.480
744.902
739.889
744.393
751.302
754.917
743.803
745.443
743.498
753.601
752.047
749.114
761.924
752.462
752.586
763.594
764.609
765.881
760.024
752.851
758.122
769.929
755.392
762.048
772.533
765.976
771.662
770.228
773.474
763.518
769.846
769.941
780.343
769.435
782.132
773.376
768.950
776.697
770.898
777.529
773.512
775.869
786.762
783.559
786.445
789.783
787.964
791.182
786.800
783.425
793.818
797.733
794.915
788.369
790.639
788.350
788.732
790.936
796.074
794.048
793.912
792.544
796.278
804.329
794.937
796.975
796.378
800.872
802.753
812.197
802.285
800.888
806.381
808.262
811.539
816.465
807.102
809.674
822.089
818.340
823.867
817.605
823.095
821.010
825.770
827.104
823.826
821.519
818.044
828.099
819.028
826.264
828.182
821.488
832.124
835.216
832.937
831.921
839.628
827.253
838.239
837.956
839.312
833.096
841.706
838.219
837.557
838.724
847.435
836.648
850.603
849.071
854.103
853.201
848.168
854.407
855.484
849.751
856.270
857.419
860.478
857.505
850.711
853.986
852.948
864.774
862.967
868.494
865.386
865.524
857.428
862.182
862.281
865.422
871.464
862.993
862.003
868.803
869.121
865.451
876.887
876.149
878.381
879.505
875.335
874.726
885.009
878.538
887.146
879.206
879.634
884.315
878.925
890.042
888.946
882.743
880.664
883.389
888.789
893.838
885.051
890.789
889.512
901.504
899.930
900.002
899.713
890.229
899.139
895.555
902.061
900.877
910.498
901.423
903.902
898.361
900.413
902.003
912.397
914.164
902.324
913.731
913.302
907.035
907.933
909.006
916.318
923.994
920.268
924.628
914.320
926.322
921.670
923.270
924.064
926.277
927.494
933.027
933.013
928.959
923.694
929.768
932.851
919.037
920.338
933.434
926.060
922.444
930.278
919.764
930.403
929.802
922.397
925.282
920.559
931.025
927.349
923.281
928.354
930.201
925.161
928.913
930.015
931.506
924.266
925.230
925.094
932.044
921.296
926.755
925.188
930.927
921.714
921.158
919.739
932.250
931.355
931.254
917.367
932.717
917.959
919.545
922.114
931.370
921.549
919.384
917.831
918.826
927.178
923.868
931.252
923.828
923.976
921.014
922.565
931.652
931.465
917.213
920.505
926.348
929.391
916.936
919.395
916.913
929.414
923.276
925.620
920.884
923.081
923.493
918.911
931.380
921.760
917.455
917.606
918.431
919.520
920.591
919.348
917.125
929.152
929.033
919.131
916.800
927.037
917.966
917.594
925.585
917.010
917.035
921.954
915.192
929.228
929.352
926.085
925.113
928.768
918.829
924.726
929.860
930.086
924.728
921.925
928.273
925.272
924.647
920.810
920.775
920.431
917.903
930.239
929.928
927.797
916.659
929.842
919.541
924.821
927.978
923.449
919.136
924.333
928.622
921.825
923.367
917.137
929.223
917.891
928.175
918.393
922.133
917.567
929.081
928.861
924.173
918.211
917.263
918.592
915.934
929.117
914.822
917.239
916.921
918.058
918.899
918.079
923.370
921.727
921.444
921.751
928.320
915.996
927.477
926.985
913.960
917.982
923.169
926.129
927.433
918.786
923.759
912.657
921.346
923.580
927.219
914.454
925.610
922.722
923.512
926.840
924.588
917.640
919.554
913.871
913.958
918.854
927.479
917.547
925.970
914.495
912.902
920.889
924.195
916.870
913.411
912.250
918.903
925.598
918.809
919.931
913.013
917.603
926.307
921.984
920.915
920.485
915.712
920.988
926.735
921.549
914.523
908.713
919.597
905.766
918.468
902.964
911.703
912.092
909.610
911.827
902.032
902.388
903.160
905.833
900.374
896.645
895.961
899.485
893.631
891.659
889.599
889.879
885.408
878.442
888.708
888.331
883.790
884.670
875.004
883.595
875.374
868.362
876.886
873.020
868.959
871.558
860.266
864.556
868.332
854.383
861.116
863.213
851.830
849.330
854.972
850.547
855.472
855.435
843.731
852.814
837.988
839.752
839.766
839.067
832.741
835.220
842.159
830.517
836.443
826.202
833.470
834.986
827.057
828.709
826.695
828.490
820.765
813.993
822.713
824.092
818.965
815.789
817.795
809.203
806.428
803.119
814.027
810.662
802.043
800.505
796.136
801.495
793.414
802.234
789.612
802.214
790.394
789.759
788.215
793.618
791.405
791.861
781.923
783.164
779.647
784.832
773.813
770.467
780.248
780.189
773.654
768.062
770.130
773.812
771.313
772.268
766.579
760.405
764.978
762.275
756.004
761.339
759.521
749.141
750.221
746.928
754.737
747.299
740.896
745.646
742.979
741.360
745.966
735.165
731.426
743.352
740.969
741.598
735.339
735.037
737.001
734.830
735.061
727.420
725.613
721.453
729.793
720.327
719.400
721.745
724.105
722.444
705.847
707.572
702.654
705.050
712.584
710.474
711.194
699.033
694.663
698.236
695.182
692.682
698.961
700.328
694.324
699.794
687.950
694.674
688.306
693.743
679.196
689.557
684.942
680.898
674.055
684.146
682.484
675.161
679.169
674.798
674.685
667.172
666.333
667.023
672.199
661.781
654.490
655.741
652.801
665.054
662.284
659.111
650.093
649.072
644.807
646.603
654.723
645.160
648.168
640.816
638.390
637.796
633.986
629.952
639.992
637.448
640.299
638.666
628.150
640.630
633.360
637.857
631.200
634.314
644.110
645.016
642.554
633.267
640.570
643.341
635.579
634.772
644.027
645.234
636.143
644.228
642.841
652.155
649.819
653.992
651.196
644.089
647.189
655.531
645.299
643.341
657.546
656.523
651.354
650.827
660.527
662.572
654.493
649.783
652.518
660.263
651.051
665.818
653.079
663.341
661.429
658.065
670.706
662.502
658.018
662.050
659.174
661.884
665.215
673.222
668.024
668.902
667.746
677.098
675.807
671.526
672.861
677.796
676.034
676.133
681.094
676.334
677.517
679.272
671.817
684.887
684.857
687.447
680.006
689.074
684.142
680.843
686.419
679.661
687.948
693.879
689.667
687.975
692.757
692.659
682.120
684.393
689.732
697.935
688.655
701.020
686.211
700.412
689.301
700.704
691.267
701.090
702.766
696.928
705.906
697.735
697.302
701.086
710.125
701.972
703.609
709.202
711.899
710.936
703.409
706.311
709.503
701.350
704.261
711.481
707.854
710.430
714.563
719.083
710.651
715.519
717.383
721.847
724.223
721.788
717.708
714.176
713.186
714.479
717.341
729.026
728.904
717.736
719.799
730.629
730.470
725.346
728.473
727.599
722.444
729.439
731.801
723.544
726.262
731.662
728.859
733.587
727.332
734.126
737.449
734.021
737.392
734.895
731.629
733.859
746.251
734.669
743.819
745.877
738.748
743.851
747.988
749.303
748.351
741.507
751.011
746.214
750.786
741.082
743.369
748.564
752.123
746.186
750.585
759.707
757.348
758.598
758.143
747.388
761.268
762.378
765.221
751.849
759.533
756.405
760.791
762.776
764.910
765.078
767.556
756.754
764.446
767.582
773.728
767.145
769.801
764.586
775.874
769.653
762.993
776.364
767.985
777.930
773.796
770.419
770.617
770.261
772.746
756.049
754.521
765.267
764.293
759.975
762.242
759.084
761.085
744.830
747.263
751.064
753.654
747.846
741.041
748.334
741.045
740.558
735.199
738.834
733.253
731.314
736.246
733.312
738.799
725.505
731.159
726.145
724.183
717.330
725.604
724.483
716.799
719.752
721.420
717.772
719.797
709.262
708.472
708.090
702.703
706.032
707.072
703.291
705.046
699.587
706.221
705.596
689.645
702.274
695.011
699.691
690.576
697.830
687.926
682.209
688.044
689.228
679.426
683.735
677.825
677.621
685.778
678.541
676.952
675.538
677.208
666.148
676.199
664.074
669.137
665.979
663.451
661.305
659.886
651.868
659.803
657.740
654.787
647.781
649.763
654.153
642.360
641.788
643.689
642.577
640.416
647.426
641.325
638.739
639.668
643.341
639.789
636.528
638.211
628.596
634.467
633.173
631.319
622.884
624.879
617.390
628.357
614.833
618.307
620.748
613.471
610.204
606.302
606.515
618.211
612.098
613.195
605.276
609.279
601.239
600.350
601.183
595.007
596.031
594.915
600.397
591.556
591.043
588.848
586.208
588.380
583.282
583.344
583.506
583.733
587.506
579.411
582.229
577.695
582.169
566.010
579.088
573.075
570.526
568.095
566.033
558.307
563.113
565.287
557.565
558.727
561.051
552.696
552.565
553.325
553.551
553.387
550.294
553.205
540.621
545.304
544.877
547.448
541.096
546.921
541.950
531.828
536.124
530.923
537.611
530.361
523.620
523.012
532.901
528.592
520.831
518.105
526.504
515.649
517.329
523.513
523.674
512.256
506.569
514.176
504.123
501.299
515.513
503.877
501.835
506.322
497.618
500.901
494.744
500.463
495.329
496.068
496.868
487.220
488.099
487.496
487.548
479.817
477.769
485.659
481.857
474.863
481.467
479.999
464.636
473.849
472.514
457.594
463.644
457.657
451.933
456.666
457.111
447.374
456.439
445.863
444.813
442.364
446.386
439.191
446.019
444.699
433.932
438.890
429.112
424.894
433.673
429.948
420.678
418.961
413.562
417.041
415.345
422.951
415.871
410.876
414.540
406.121
400.346
407.144
397.071
404.636
398.390
399.586
386.686
394.763
382.862
392.706
386.237
379.691
388.031
380.119
372.766
377.247
369.838
378.362
373.146
374.325
366.800
371.055
370.482
364.988
361.468
358.037
349.443
349.438
350.090
344.613
341.217
344.689
344.110
340.546
336.226
332.933
335.698
326.383
332.649
322.511
331.826
333.428
326.379
321.133
313.018
315.539
315.449
311.767
313.737
304.898
316.381
313.437
300.869
310.830
307.129
304.522
289.874
299.836
298.789
295.977
284.595
280.820
285.731
288.303
281.987
282.124
278.183
277.997
269.881
268.761
269.454
264.007
270.536
264.986
262.864
264.546
253.588
248.767
261.124
257.352
252.348
253.967
248.431
247.847
242.889
242.282
239.648
232.355
235.828
227.767
226.567
225.749
229.325
223.682
217.482
225.424
227.154
218.751
221.988
214.157
213.008
213.343
205.160
210.954
198.718
198.867
204.767
193.277
202.000
196.082
192.902
183.293
193.828
191.220
186.179
184.063
176.192
179.373
172.361
178.244
173.966
177.935
171.561
537.073
528.571
539.389
510.305
512.840
522.386
