83.938
96.503
113.744
98.144
84.175
90.217
106.857
104.876
127.465
126.556
115.077
93.882
96.448
91.144
112.606
91.084
108.230
117.957
119.024
124.250
99.866
113.365
98.946
109.378
126.703
124.119
119.745
115.354
124.777
90.388
126.085
128.640
97.108
129.434
118.375
102.869
127.359
91.740
115.481
101.324
89.699
111.569
118.779
95.409
94.190
119.895
122.633
124.595
111.218
102.365
87.619
96.099
105.025
110.714
87.692
114.576
106.069
124.571
106.050
88.261
100.933
93.141
129.501
105.726
111.097
84.189
115.141
88.362
98.737
103.936
97.157
97.776
116.419
101.646
122.923
125.593
98.491
119.734
107.037
92.858
122.208
96.093
94.069
98.113
123.857
121.274
107.432
85.012
117.350
109.481
100.450
86.233
123.457
85.845
124.349
83.998
105.400
123.045
108.534
93.333
101.715
115.822
99.673
87.219
106.080
119.300
114.970
106.686
119.491
104.123
114.663
111.023
100.941
94.206
100.273
115.985
88.231
105.400
114.102
122.563
86.871
125.427
100.056
111.988
122.398
100.489
126.012
100.533
86.901
91.418
101.152
115.960
97.017
112.900
119.054
108.203
113.226
92.115
117.261
104.265
91.647
112.792
85.295
124.489
128.465
95.100
96.156
115.241
118.684
106.304
102.905
105.376
102.210
116.812
126.982
99.137
126.922
89.665
87.586
115.856
110.998
114.349
90.832
102.279
104.291
110.276
125.707
121.066
112.404
122.970
85.075
107.086
115.270
105.536
99.115
113.955
116.127
107.027
99.687
116.277
127.009
85.297
114.221
119.379
123.252
129.338
99.491
90.614
88.705
85.250
110.564
107.586
101.888
108.441
128.008
93.078
106.023
91.739
93.027
93.967
98.771
88.508
118.600
113.725
93.402
111.323
104.008
109.380
106.558
96.422
122.776
108.874
95.159
95.504
105.564
91.347
112.535
112.971
125.722
119.176
94.031
86.711
116.891
105.391
90.700
122.456
116.920
98.532
118.612
111.784
103.438
127.713
101.458
116.548
115.757
123.371
119.937
85.409
84.736
103.235
101.312
126.927
106.617
120.958
117.012
87.958
123.006
95.536
109.163
116.570
127.864
93.692
121.494
109.672
121.989
118.471
102.107
111.047
119.490
115.338
125.721
108.527
125.159
95.793
104.610
100.387
123.818
102.759
119.714
84.563
97.839
90.342
93.108
126.410
116.370
84.242
110.130
101.141
115.443
112.423
123.414
93.720
90.287
127.960
84.869
90.697
111.087
108.317
110.192
101.684
129.480
100.955
92.656
128.398
123.018
99.171
87.827
114.997
125.976
117.552
99.798
110.999
107.229
114.610
84.251
103.358
112.492
114.259
123.370
122.797
125.443
85.136
96.650
97.140
118.980
106.938
89.046
96.182
105.217
85.990
97.399
119.659
100.535
104.822
90.139
85.784
123.335
95.297
125.978
119.966
120.010
109.378
127.583
124.864
117.403
101.603
103.774
111.152
84.560
100.335
97.977
124.786
93.745
94.894
101.663
112.674
91.742
121.682
101.301
126.867
107.810
120.442
106.491
107.415
93.938
110.880
93.419
123.659
91.579
107.227
113.935
114.331
107.374
125.057
117.457
90.413
106.091
112.775
100.125
123.934
90.253
101.517
100.630
121.888
86.288
116.304
117.651
120.414
91.298
93.958
125.462
1198.505
1228.720
1223.149
1236.752
1213.013
1239.467
1243.226
1250.312
1239.165
1243.319
1240.303
1258.509
1261.417
1252.683
1258.571
1270.444
1282.203
1287.505
1283.447
1294.793
1290.266
1294.780
1309.148
1316.377
1316.033
1321.400
1320.035
1313.777
1315.536
1340.403
1339.666
1330.124
1338.876
1359.382
1352.135
1361.670
1355.431
1378.038
1366.443
1388.189
1367.353
1394.543
1391.611
1392.039
1396.986
1391.964
1414.881
1396.056
1421.479
1419.496
1424.719
1416.452
1441.385
1425.663
1438.705
1444.847
1431.848
1436.762
1465.097
1447.843
1473.428
1453.641
1472.000
1483.232
1465.956
1484.546
1476.616
1496.220
1502.744
1514.297
1503.996
1511.602
1510.078
1507.151
1519.544
1537.142
1542.174
1527.703
1540.779
1544.137
1536.218
1562.968
1562.064
1551.779
1560.604
1567.192
1579.543
1567.021
1589.838
1596.920
1599.944
1586.025
1592.015
1588.036
1599.723
1602.620
1612.110
1626.482
1636.627
1621.449
910.846
904.421
918.029
907.736
907.852
915.643
918.241
919.676
931.484
926.478
929.581
924.514
937.375
938.098
942.517
945.505
939.663
948.713
948.975
950.497
956.090
947.888
959.124
958.796
966.141
959.005
974.660
970.720
971.064
977.687
975.968
983.070
977.519
985.118
983.087
994.928
990.139
989.400
1002.594
995.844
1007.233
996.211
997.548
1003.168
1012.622
1018.056
1008.724
1013.127
1016.566
1017.802
1030.946
1023.878
1023.891
1022.295
1026.793
1041.105
1040.646
1038.283
1039.425
1051.694
1043.209
1044.568
1055.858
1054.669
1052.936
1063.332
1054.036
1058.840
1071.802
1063.003
1068.846
1067.795
1080.779
1078.505
1071.237
1074.671
1082.660
1086.198
1084.078
1095.728
1099.885
1095.657
1094.126
1094.095
1102.188
1106.889
1108.297
1113.118
1118.547
1112.375
1111.197
1119.885
1119.339
1120.629
1131.386
1120.480
1129.823
1129.072
1135.237
1143.560
1141.957
1140.125
1135.830
1133.159
1138.093
1136.591
1139.437
1131.774
1137.727
1136.085
1141.042
1138.283
1132.028
1127.696
1141.672
1142.138
1141.725
1137.752
1127.481
1130.140
1136.094
1137.551
1136.898
1132.786
1134.003
1131.878
1130.406
1132.258
1136.550
1127.571
1122.714
1134.836
1127.066
1124.833
1132.636
1132.960
1132.729
1121.011
1120.840
1126.963
1123.965
1132.971
1124.524
1126.805
1121.556
1125.980
1121.979
1119.239
1121.675
1118.108
1127.800
1127.372
1119.432
1119.378
1118.367
1121.950
1114.866
1126.666
1123.016
1120.165
1122.424
1114.583
1114.969
1115.930
1114.293
1124.520
1122.220
1124.610
1113.728
1113.046
1116.259
1121.625
1116.839
1117.883
1111.397
1107.742
1116.502
1121.653
1111.250
1108.687
1114.455
1107.368
1114.130
1104.659
1109.682
1111.139
1116.808
1105.296
1104.903
1104.271
1110.075
1117.298
1109.209
1105.087
1102.644
1114.654
1107.173
1113.963
1109.129
1104.584
1106.336
1111.126
1101.591
1112.773
1106.359
1108.943
1108.947
1098.552
1096.478
1100.182
1099.462
1109.856
1101.648
1097.640
1103.565
1099.304
1106.810
1101.437
1100.132
1092.589
1107.695
1099.558
1102.908
1097.825
1103.456
1103.254
1095.270
1098.161
1098.523
1089.202
1095.486
1088.320
1093.516
1088.049
1100.766
1094.397
1101.431
1097.637
1094.446
1101.420
1086.798
1098.846
1091.265
1090.592
1097.327
1096.221
1084.352
1098.117
1098.083
1086.974
1085.889
1091.130
1087.132
1090.881
1095.336
1080.299
1084.197
1088.606
1086.089
1082.139
1084.501
1084.444
1088.385
1083.870
1090.845
1089.634
1088.822
1088.846
1090.685
1087.359
1087.882
1081.502
1075.245
1076.026
1087.301
1078.336
1077.022
1079.727
1088.078
1082.066
1084.037
1082.066
1084.518
1080.336
1082.320
1084.115
1079.538
1073.371
1071.260
1079.186
1073.453
1082.873
1071.841
1075.278
1068.270
1070.855
1067.124
1072.331
1075.143
1069.981
1067.439
1065.616
1075.034
1066.831
1062.992
1067.444
1061.969
1053.338
1062.178
1057.893
1048.975
1042.396
1045.635
1038.094
1046.231
1030.995
1043.004
1033.276
1029.024
1034.435
1026.598
1019.283
1025.107
1018.287
1015.059
1023.096
1013.185
1013.366
1010.357
1000.563
1000.630
999.683
1004.026
1000.677
991.165
989.246
985.080
996.299
986.371
989.787
977.573
977.131
974.554
979.149
975.531
976.979
970.141
971.062
960.528
962.719
964.645
956.902
961.264
957.087
946.325
950.552
947.629
950.317
943.968
945.191
938.495
939.251
929.204
923.684
928.380
918.125
928.766
915.996
910.324
919.207
915.303
912.301
909.180
898.027
899.476
908.543
901.030
899.063
887.635
886.350
882.320
890.273
888.873
879.069
875.568
886.034
870.325
876.536
864.603
864.263
872.747
864.466
857.935
863.884
863.372
856.458
859.606
857.089
855.696
852.300
840.477
838.570
833.348
832.919
827.745
839.225
831.814
831.442
822.047
820.928
813.871
820.071
808.619
819.290
813.096
806.042
809.546
796.642
804.197
802.801
791.962
797.102
788.065
791.116
793.852
793.300
776.970
777.805
772.547
774.002
773.066
765.272
770.281
774.513
769.544
768.771
766.037
758.101
748.992
748.394
754.133
745.312
753.325
739.625
737.900
741.649
735.442
729.262
733.186
734.960
720.874
720.403
728.492
727.273
724.223
723.974
713.959
718.058
718.220
700.512
711.389
703.974
697.743
699.581
702.879
694.107
685.528
696.418
695.172
691.022
687.953
686.412
676.821
680.008
678.542
668.140
671.450
666.562
660.613
658.194
665.412
655.927
649.291
658.544
653.555
650.102
652.892
650.947
641.373
641.164
639.303
639.263
631.756
632.014
621.186
626.276
618.024
626.438
626.075
614.443
617.152
611.200
613.349
616.030
617.496
619.757
616.396
621.083
623.684
621.394
621.920
623.463
622.813
620.016
620.718
630.581
638.027
628.682
635.529
629.758
636.488
629.813
631.202
635.852
642.734
642.035
640.821
642.877
638.437
647.045
652.642
648.789
653.819
654.279
655.530
652.678
649.692
654.003
652.186
650.386
661.371
651.652
665.736
654.111
664.643
667.901
658.052
668.158
665.674
666.298
662.632
665.014
664.982
675.981
678.043
678.621
674.601
676.164
676.262
675.835
670.437
680.182
682.739
678.173
680.142
679.150
679.569
685.184
690.684
687.410
689.928
694.263
689.648
695.630
690.643
690.100
686.814
688.282
691.076
695.537
692.224
699.295
703.336
702.887
708.068
700.493
706.973
700.350
706.618
713.432
710.290
716.196
710.393
708.161
708.987
713.724
715.521
715.085
709.284
717.187
721.487
715.936
712.646
727.575
724.325
730.241
718.093
732.959
733.011
729.435
727.506
737.182
724.958
738.952
739.396
731.635
734.560
739.654
739.539
739.538
732.611
737.034
739.165
742.418
747.543
742.866
749.012
747.995
748.624
743.446
746.628
745.754
744.037
750.684
758.316
749.586
755.148
751.959
761.920
752.306
755.230
768.530
756.177
759.892
766.874
763.625
768.761
772.656
773.883
773.719
763.384
776.152
777.319
771.370
767.304
782.216
779.754
775.327
782.919
782.644
775.574
786.858
783.608
776.383
784.715
781.233
794.746
794.272
783.849
791.439
789.572
796.205
793.097
794.729
790.970
802.084
791.450
793.853
807.121
806.974
798.486
810.906
806.920
806.912
798.623
801.106
808.214
815.308
803.876
816.417
811.689
810.085
815.689
811.106
811.480
812.157
819.139
827.296
827.130
826.247
815.317
820.846
826.929
831.842
831.738
830.901
829.326
822.080
825.167
822.506
834.283
834.602
823.992
833.150
831.668
825.053
834.455
828.897
827.794
837.790
836.437
835.240
841.180
836.568
844.607
840.729
846.610
847.750
846.679
837.687
843.741
835.735
844.093
851.933
844.356
848.387
843.083
839.677
839.437
852.795
849.539
846.891
844.839
843.322
848.695
857.645
859.580
846.615
851.532
849.303
856.121
854.756
863.043
852.003
863.393
855.498
861.760
855.774
858.568
865.669
858.709
854.670
857.276
861.056
860.193
867.414
866.580
865.302
858.521
874.358
870.049
864.113
875.077
873.843
873.866
873.595
872.596
866.159
879.871
870.797
875.376
874.362
871.676
877.519
877.106
874.496
875.128
884.052
871.826
876.052
887.936
881.236
880.289
875.296
882.834
882.016
883.316
877.902
892.527
888.017
887.111
888.731
890.580
890.795
895.119
886.624
889.232
892.701
896.655
890.070
896.247
896.708
892.350
901.028
902.311
889.031
903.801
898.202
902.008
904.337
906.120
898.733
905.669
905.730
908.265
901.344
897.662
903.457
911.570
902.655
900.092
898.500
899.222
914.730
911.479
909.402
913.615
916.520
904.522
908.415
911.876
912.405
911.586
908.331
918.077
920.959
915.030
912.549
917.815
914.545
919.921
923.418
925.497
928.250
923.466
917.340
915.199
919.336
916.380
924.647
929.984
922.502
923.871
923.862
928.438
935.348
922.544
933.694
934.309
931.126
930.343
928.532
939.759
931.653
927.166
938.771
940.410
934.774
943.673
942.362
941.511
934.911
945.994
940.227
933.075
935.839
944.956
948.528
939.713
946.717
949.865
938.719
941.674
950.431
942.295
950.760
952.775
953.901
956.112
954.356
945.783
957.384
955.327
942.123
947.310
954.589
952.497
939.496
941.308
940.234
950.150
947.654
943.140
942.472
943.504
941.015
942.858
936.646
935.602
936.415
936.685
935.392
934.069
929.559
941.265
926.666
924.238
929.121
936.262
936.216
925.334
927.705
923.266
927.448
926.940
931.611
928.165
919.632
916.308
926.695
920.650
923.282
919.801
923.505
921.128
919.750
922.455
914.214
922.644
919.038
911.266
910.610
912.189
914.837
909.980
917.949
913.408
909.770
904.802
915.911
900.800
905.031
906.489
907.927
905.991
912.778
897.697
904.922
900.525
909.020
894.269
905.160
894.591
903.144
906.575
904.305
898.133
896.574
901.118
902.934
893.269
886.637
886.568
893.118
889.340
897.593
885.850
893.855
882.477
888.484
895.381
891.884
890.438
884.529
887.553
884.381
883.678
875.381
881.487
887.552
873.241
885.752
876.881
876.573
882.449
884.566
879.032
876.988
876.067
873.841
866.958
869.165
877.431
876.628
868.328
873.734
868.715
868.106
867.013
873.004
862.318
868.481
860.680
863.481
863.045
860.690
860.788
862.929
860.877
859.902
861.480
855.786
851.295
850.931
849.213
854.099
860.636
860.674
852.828
853.342
855.111
848.909
856.482
848.102
856.323
851.508
852.550
853.479
841.828
845.900
850.385
850.552
843.362
851.887
842.456
844.732
844.537
842.587
836.389
840.901
842.369
843.052
837.240
835.764
842.782
833.368
836.089
836.176
832.267
837.436
837.930
834.937
828.322
825.338
832.907
830.711
825.415
828.310
831.570
819.401
820.082
832.103
821.789
825.738
824.612
823.674
813.533
821.620
819.964
815.372
815.432
811.774
819.555
813.233
809.262
819.525
814.079
820.632
817.729
804.147
811.385
813.200
819.059
815.386
821.723
814.847
823.292
818.313
829.887
829.254
826.204
820.564
835.636
829.364
828.221
833.151
843.160
841.968
833.858
846.827
846.823
851.695
842.423
842.845
855.451
842.737
852.491
854.427
851.741
864.111
857.592
863.075
859.330
854.854
869.198
858.116
873.213
869.391
874.233
875.502
871.393
869.712
870.394
884.392
880.999
878.256
878.876
877.610
885.990
884.742
887.987
887.808
884.395
887.659
888.855
895.748
892.820
902.239
901.095
898.537
911.687
913.894
915.657
911.761
915.702
906.803
913.546
912.628
911.957
922.091
916.079
928.154
922.264
922.625
931.454
926.658
921.681
935.883
927.783
934.272
936.409
929.796
939.035
935.593
943.338
943.540
943.022
949.345
950.977
948.558
949.967
954.332
950.065
960.700
951.744
964.672
955.628
968.794
958.822
970.219
973.406
968.824
977.493
966.921
971.219
972.064
974.374
973.628
985.411
973.901
988.356
979.994
980.504
989.154
987.670
982.596
990.360
993.589
992.983
990.188
991.157
994.834
1006.185
1003.833
1010.398
1001.583
999.176
1007.970
1013.181
1005.569
1018.715
1009.447
1021.828
1024.257
1014.247
1022.227
1027.663
1027.556
1024.848
1025.540
1029.923
1035.529
1039.180
1029.547
1037.098
1036.207
1040.849
1037.198
1034.803
1041.473
1051.944
1046.341
1043.348
1045.333
1055.162
1045.798
1054.969
1055.734
1064.203
1066.435
1065.695
1064.627
1065.085
1069.307
1064.393
1064.241
1069.808
1069.436
1065.209
1077.032
1079.097
1079.933
1079.497
1074.985
1078.741
1083.513
1085.987
1089.513
1086.830
1095.037
1095.328
1098.413
1099.893
1100.950
1100.240
1102.341
1103.185
1105.488
1109.426
1108.974
1101.819
1107.363
1117.736
1112.540
1107.668
1111.322
1118.217
1118.253
1121.576
1123.485
1127.750
1128.814
1117.366
1126.676
1120.739
1111.456
1111.570
1115.799
1114.901
1122.267
1110.931
1109.997
1113.261
1111.261
1111.393
1113.088
1114.765
1113.197
1113.769
1114.634
1102.952
1112.739
1113.198
1102.138
1110.264
1107.100
1106.289
1111.624
1100.470
1107.437
1101.530
1102.438
1101.359
1100.638
1095.912
1108.713
1099.718
1105.698
1106.838
1102.773
1098.533
1091.725
1096.572
1097.817
1098.359
1099.585
1088.644
1095.899
1092.761
1085.518
1092.553
1094.910
1091.914
1089.130
1082.692
1094.944
1089.975
1082.649
1083.578
1092.219
1080.137
1081.509
1091.575
1080.242
1081.076
1087.639
1077.036
1074.352
1086.149
1079.350
1075.661
1084.562
1081.935
1078.274
1073.154
1078.823
1071.670
1079.341
1069.158
1070.727
1071.581
1069.319
1071.153
1069.477
1067.185
1067.333
1074.792
1065.567
1072.635
1074.230
1071.386
1073.145
1062.302
1063.816
1066.900
1062.597
1068.571
1058.272
1066.654
1058.079
1069.708
1060.625
1064.314
1063.227
1065.675
1065.435
1059.789
1051.494
1065.001
1053.252
1051.602
1057.299
1057.662
1057.005
1060.101
1060.348
1051.331
1047.229
1046.306
1055.351
1056.204
1042.287
1048.972
1041.626
1055.835
1051.602
1039.702
1050.469
1049.755
1047.326
1042.445
1048.846
1042.973
1034.951
1035.078
1036.782
1045.662
1033.504
1042.737
1038.040
1035.921
1035.490
1037.370
1038.474
1038.216
1033.307
1035.688
1032.528
1037.328
1034.366
1034.438
1028.713
1029.114
1033.773
1030.476
1029.198
1027.962
1031.363
1031.643
1024.823
1028.989
1023.479
1032.790
1018.733
1019.592
1026.889
1022.452
1022.153
1023.157
1016.547
1022.255
1015.774
1025.456
1017.483
1018.227
1017.584
1021.430
1022.445
1011.715
1020.655
1021.597
1016.079
1019.954
1017.913
1016.959
1015.310
1009.505
1014.675
1002.293
1015.313
1002.279
1003.514
1002.567
1007.535
999.587
1005.582
1006.831
1012.643
1006.993
1003.318
1004.993
997.480
996.436
997.364
1002.189
998.910
998.762
988.299
992.852
986.898
994.030
988.691
988.966
986.688
985.457
979.036
983.683
977.639
981.861
