112.201
100.430
100.643
91.361
96.227
92.143
99.679
90.759
123.823
114.831
89.360
98.907
127.690
84.527
101.567
119.254
100.231
124.710
116.915
117.492
108.287
94.869
99.530
101.191
92.016
127.516
105.269
106.754
115.320
121.015
115.263
116.863
126.672
93.442
115.206
87.878
117.642
96.622
88.510
113.199
105.233
107.735
89.774
87.036
119.246
107.110
115.766
104.034
116.602
96.982
97.834
93.678
84.231
106.779
108.632
127.965
110.559
111.646
106.600
105.981
129.295
88.565
126.767
104.289
115.333
110.356
115.107
116.433
94.216
126.616
102.713
119.606
106.695
114.533
99.751
95.216
103.723
105.485
90.491
94.777
119.595
116.320
89.578
129.194
116.490
125.835
128.595
101.585
117.160
116.816
85.800
95.494
120.617
121.738
118.676
107.116
101.029
91.503
92.981
98.759
101.483
115.270
87.705
105.466
88.327
87.378
114.644
88.782
126.390
129.554
86.756
118.082
92.676
128.711
111.673
119.834
106.453
112.165
88.103
128.944
115.151
97.046
90.856
97.695
103.169
98.659
110.142
97.817
107.236
105.553
98.854
114.252
115.104
120.451
94.661
94.914
110.392
118.541
103.858
86.691
114.520
124.208
92.862
98.089
116.843
97.775
102.244
85.318
104.636
90.772
95.793
119.316
109.732
104.643
123.498
98.948
93.616
101.303
88.778
127.677
122.549
129.664
120.576
124.719
84.379
110.289
104.954
105.534
127.574
115.978
116.555
88.149
128.731
113.965
108.938
122.816
86.721
103.585
92.390
101.903
106.932
113.436
101.445
98.491
120.412
108.778
129.083
96.683
118.640
114.139
96.602
105.249
116.998
126.108
126.282
100.579
117.441
103.673
109.436
124.077
91.981
104.612
92.979
105.384
87.762
95.700
101.814
119.379
84.416
120.030
121.290
115.371
89.454
88.008
128.689
120.883
93.042
121.995
93.380
89.107
121.095
114.334
88.914
115.953
109.089
87.370
91.738
112.316
116.820
121.779
117.623
88.488
119.507
94.600
96.539
120.551
96.354
91.174
104.271
95.682
121.262
96.495
85.237
98.810
115.980
127.551
89.687
114.158
113.515
118.386
122.967
91.549
115.184
111.484
93.669
87.330
93.792
120.997
93.923
118.524
116.153
114.000
89.624
96.468
111.179
117.230
92.474
116.350
97.633
106.420
114.642
88.006
118.388
103.076
105.432
114.774
113.691
106.578
122.277
117.864
92.667
108.454
122.980
122.946
106.091
121.711
86.988
117.545
93.089
105.720
87.659
98.549
91.974
116.899
89.286
96.141
85.816
86.289
111.627
99.477
129.140
91.788
104.317
127.510
124.903
85.095
112.757
125.617
111.296
103.446
118.147
95.471
112.607
112.217
122.222
103.113
102.191
87.822
127.790
119.850
109.775
114.860
112.564
100.474
129.195
109.591
102.682
106.652
94.124
127.887
116.497
102.796
128.716
112.968
105.839
118.881
96.139
94.245
93.277
103.417
86.644
101.488
110.446
90.306
87.822
106.112
128.163
116.142
125.834
122.530
88.059
115.548
111.010
114.925
89.478
105.605
88.347
100.060
118.404
83.968
90.668
90.287
110.537
119.598
119.474
86.445
117.791
106.051
120.507
126.675
94.224
90.063
90.895
120.453
127.897
117.121
94.874
129.742
128.786
103.640
84.612
114.055
121.603
117.678
100.646
109.694
127.329
118.054
122.270
97.297
122.631
90.638
128.280
86.218
92.715
115.731
115.454
102.320
109.261
121.804
92.590
107.834
109.930
115.582
124.883
114.866
112.941
118.250
103.908
101.449
98.890
123.284
115.936
96.535
91.690
103.530
101.862
85.960
104.722
94.245
118.300
91.607
129.318
107.713
100.754
87.445
109.273
119.894
111.109
87.155
125.160
122.942
99.255
90.730
128.847
104.326
124.412
96.481
92.715
121.473
120.363
89.985
111.545
92.872
127.367
115.629
103.531
100.530
91.977
114.738
102.128
120.078
113.172
96.343
124.382
128.244
116.091
88.883
117.784
113.655
106.498
122.831
97.446
106.570
97.065
116.569
123.855
107.922
91.192
116.330
87.817
90.745
100.667
101.876
84.357
112.617
124.827
90.121
97.288
85.438
116.081
97.803
109.732
113.848
116.979
95.154
84.957
98.395
124.152
103.426
92.492
117.155
100.699
87.251
123.375
122.036
108.081
101.765
90.368
126.382
95.095
99.614
110.921
104.074
105.960
94.397
113.537
117.587
100.634
104.507
109.837
104.591
99.618
102.256
107.297
92.723
117.691
88.442
87.531
88.999
107.263
115.627
84.532
118.036
91.006
126.681
128.253
115.950
123.206
99.135
88.285
112.323
106.016
96.326
113.947
111.797
91.261
120.049
98.130
125.626
90.271
116.396
118.661
85.427
99.484
102.018
87.447
87.754
115.553
106.825
108.529
98.493
102.802
109.325
122.217
100.359
110.811
129.779
114.352
110.342
129.545
104.466
116.255
113.281
92.550
103.298
127.412
119.716
105.793
103.930
122.655
115.013
93.593
104.880
118.998
117.337
87.865
103.533
108.333
107.797
125.616
129.301
96.572
113.361
89.988
91.165
121.578
85.849
127.019
96.253
94.886
115.859
86.717
124.507
99.767
101.282
88.053
1417.782
1400.103
1407.112
1426.933
1419.818
1411.425
1400.011
1423.820
1399.375
1410.630
1410.818
1423.226
1407.677
1419.368
1411.988
1410.154
1418.558
1401.629
1402.414
1409.884
1414.053
1421.773
1400.798
1417.850
1420.437
1419.576
1397.787
1403.820
1418.586
1397.539
1408.348
1411.398
1405.672
1403.135
1415.135
1413.477
1405.722
1397.392
1411.925
1409.423
1397.331
1405.740
1415.453
1403.428
1402.581
1390.981
1387.411
1413.458
1407.985
1400.451
1399.509
1412.891
1404.764
1412.348
1403.336
1392.551
1409.944
1402.196
1401.099
1396.010
1396.847
1392.600
1402.016
1400.126
1400.649
1398.379
1403.049
1398.001
1387.363
1394.153
1391.850
1407.100
1398.377
1405.099
1390.494
1382.107
1384.503
1379.697
1380.256
1387.953
1403.804
1381.840
1388.806
1388.555
1378.713
1383.256
1398.249
1397.329
1395.604
1402.273
1380.721
1387.407
1393.402
1380.366
1392.234
1394.221
1387.346
1373.577
1397.719
1390.741
767.769
768.192
772.197
763.734
767.806
772.183
763.106
774.776
771.252
771.143
769.654
772.627
769.364
770.033
770.498
769.132
762.030
768.806
773.919
765.770
763.097
770.175
773.508
772.418
762.050
771.676
757.489
761.131
760.089
764.464
767.537
760.651
759.598
765.557
761.427
762.307
766.688
755.398
767.650
763.955
769.063
767.305
761.089
770.003
755.755
769.276
756.342
764.200
755.986
760.603
766.057
764.943
767.373
757.594
762.740
763.297
764.815
760.180
759.933
756.491
759.085
764.202
766.515
766.374
759.598
765.638
765.847
752.168
750.543
761.311
752.577
753.632
750.028
763.577
757.880
764.342
763.195
762.996
752.346
761.459
762.785
748.660
756.583
751.462
762.533
751.799
751.234
754.775
759.485
749.583
758.203
750.038
751.901
754.771
756.273
759.564
758.254
760.655
753.065
758.172
748.190
748.603
754.757
761.833
756.995
766.379
771.345
767.551
767.055
765.264
773.976
774.388
768.077
770.644
779.240
786.803
788.236
781.827
778.632
788.429
790.813
783.383
787.847
800.082
801.312
796.715
800.004
797.130
807.321
808.567
808.082
803.955
806.384
808.257
811.430
822.008
816.223
820.083
823.438
819.164
821.928
821.276
832.596
825.435
831.401
841.514
834.334
831.417
831.866
836.344
843.851
841.097
840.673
842.778
851.458
859.331
851.306
852.441
858.389
860.996
858.518
870.357
863.332
859.953
860.704
870.280
870.306
871.025
879.815
869.058
880.732
874.114
880.715
881.585
879.178
881.965
888.154
894.957
895.623
896.687
890.433
890.657
900.487
900.979
905.769
903.281
908.160
914.304
910.852
910.194
915.236
914.240
919.805
916.088
921.707
921.868
917.898
929.890
923.301
935.295
931.070
929.451
939.505
945.183
934.923
939.964
942.371
951.154
940.060
944.538
943.132
952.650
947.908
956.543
957.652
959.316
964.467
960.343
960.826
961.170
975.309
964.143
965.000
971.606
975.605
982.846
981.622
983.886
975.385
983.616
981.246
993.475
982.757
993.763
986.533
1003.141
998.955
1005.574
1002.869
1006.156
1001.865
1005.118
1009.000
1012.127
1007.819
1019.988
1010.247
1017.750
1011.806
1024.002
1015.779
1026.073
1027.754
1035.754
1028.009
1034.423
1029.471
1028.492
1037.605
1036.362
1047.753
1043.877
1039.359
1044.225
1050.785
1042.514
1054.674
1059.879
1047.562
1057.820
1058.679
1061.657
1062.296
1058.881
1059.795
1070.571
1075.100
1064.464
1077.881
1073.104
1069.153
1083.467
1079.313
1077.512
1088.686
1081.251
1080.600
1089.432
1095.364
1086.633
1096.045
1099.930
1103.344
1107.723
1099.899
1098.826
1098.563
1108.137
1111.046
1112.722
1107.341
1110.893
1111.338
1101.497
1100.080
1107.222
1102.724
1104.521
1100.175
1089.833
1095.612
1091.591
1084.215
1089.073
1093.944
1092.221
1079.367
1073.909
1075.560
1073.903
1081.860
1066.155
1071.065
1073.456
1075.384
1066.319
1068.593
1061.757
1058.404
1063.370
1062.406
1052.928
1047.056
1053.362
1046.185
1046.603
1038.346
1043.150
1034.241
1046.667
1040.567
1036.907
1032.001
1034.093
1030.244
1022.718
1031.964
1030.765
1028.792
1021.410
1026.337
1021.721
1014.811
1018.691
1011.680
1006.755
1008.766
1001.950
1000.544
1005.646
997.741
1000.827
991.099
992.356
998.603
994.170
982.092
981.967
991.444
985.621
977.505
986.731
980.803
972.934
980.605
970.060
974.723
977.382
968.513
965.480
966.514
955.450
958.772
955.759
959.849
960.420
949.237
957.741
954.393
946.329
939.047
938.525
939.165
933.632
945.791
938.487
938.502
925.540
924.449
924.055
933.947
928.913
916.319
922.507
920.838
918.320
910.425
920.655
919.617
903.812
911.533
910.203
900.091
899.598
903.663
904.762
891.344
889.360
886.471
889.992
885.878
886.821
885.790
888.015
880.500
882.194
885.035
883.562
881.836
877.619
870.434
868.307
860.838
859.378
867.014
854.024
855.693
859.779
850.251
851.035
859.079
844.315
847.216
846.803
849.294
850.876
840.044
832.934
830.748
834.922
834.347
825.078
837.704
828.569
819.562
825.347
815.446
821.395
811.417
815.625
821.224
815.125
807.268
816.956
800.748
801.333
799.066
802.075
799.138
805.158
792.173
801.647
796.295
796.066
785.800
780.726
790.381
783.709
779.610
776.812
770.788
782.616
781.626
765.567
770.987
766.644
759.848
770.372
768.076
753.678
757.484
764.034
757.583
760.054
745.484
747.021
740.417
753.997
743.062
749.683
737.412
743.836
748.707
746.730
743.422
739.792
741.774
749.957
748.458
752.390
750.607
752.360
756.932
751.208
751.646
753.857
754.398
758.450
755.415
763.826
758.210
763.582
757.009
755.676
755.316
763.054
757.525
762.954
772.187
762.184
763.601
768.451
775.046
779.272
770.646
772.357
774.274
780.303
778.782
784.241
782.591
779.432
787.150
785.701
782.773
787.469
778.056
781.134
777.820
785.089
782.066
783.263
795.035
796.916
788.301
794.981
797.067
788.012
793.689
792.873
800.949
804.173
801.883
795.782
803.779
808.101
805.590
803.759
806.013
808.041
809.871
802.320
805.020
801.946
816.483
805.481
808.927
805.081
808.972
820.432
818.196
815.029
809.627
823.760
820.321
818.214
814.684
822.223
830.133
822.985
818.307
829.721
829.841
820.909
832.308
827.855
827.189
824.434
838.963
832.654
832.660
833.979
842.672
837.422
834.991
841.292
836.556
833.357
840.174
834.279
837.066
841.365
838.220
843.373
841.907
850.843
841.890
854.255
853.200
855.381
845.038
852.606
854.985
860.937
860.033
862.416
857.828
865.148
867.419
860.671
858.720
860.047
858.950
860.846
865.676
867.530
872.999
860.449
865.284
871.675
876.611
868.102
867.184
878.957
879.466
872.602
880.885
883.955
884.632
886.867
880.435
883.814
879.772
878.460
883.784
883.755
879.193
888.334
884.249
893.550
896.713
893.645
884.410
898.781
897.824
886.274
892.127
890.846
893.945
901.667
906.683
902.675
904.329
903.952
905.723
907.380
905.434
905.467
903.251
905.928
902.998
910.294
914.337
910.300
918.074
915.401
917.991
912.077
916.108
917.032
922.458
924.111
920.504
920.711
913.565
922.306
916.662
920.165
932.620
928.688
933.768
926.650
927.545
927.298
931.278
925.995
919.407
920.157
931.614
919.674
922.823
933.143
928.911
932.516
930.195
926.612
918.366
921.668
921.743
919.465
923.169
932.061
924.024
928.917
930.423
930.121
933.338
930.198
920.710
917.594
928.568
920.619
923.938
921.501
930.003
930.328
922.949
917.278
930.504
922.489
925.324
925.301
919.428
923.908
923.598
921.345
923.299
918.918
929.019
918.891
931.250
919.256
927.527
923.112
918.466
918.228
928.270
918.388
931.191
929.348
926.236
925.575
926.719
929.953
926.215
922.699
917.647
928.576
924.160
925.641
927.103
919.772
930.674
928.907
921.528
920.063
918.346
924.304
928.209
921.152
917.191
930.177
918.572
917.492
927.158
929.933
927.486
921.631
926.997
920.887
926.908
924.261
929.735
915.630
917.171
923.017
930.688
929.060
917.169
920.930
925.966
915.684
915.384
928.410
918.478
916.463
925.606
928.993
924.314
916.524
924.029
929.737
920.555
916.517
917.543
916.905
923.776
916.444
924.734
918.707
914.096
929.324
916.230
918.406
923.921
917.651
924.991
924.447
925.936
924.736
925.568
925.589
926.241
920.644
916.748
918.268
915.271
926.200
923.726
916.316
919.768
926.167
925.147
924.436
913.980
917.010
927.857
914.817
923.070
913.972
925.058
913.230
926.369
927.962
917.031
928.004
925.363
915.102
919.586
914.833
919.678
919.156
925.995
915.304
919.913
920.943
926.028
916.332
921.302
920.920
917.198
912.937
927.938
920.685
921.566
913.491
918.482
917.502
913.061
915.443
911.999
927.243
922.032
925.545
926.536
927.255
914.502
923.826
922.563
920.403
917.909
920.062
924.678
912.695
911.404
925.685
922.123
924.566
920.909
918.409
921.488
925.414
915.217
907.580
919.930
907.681
905.334
911.298
914.100
911.518
907.288
907.728
898.445
902.572
901.175
903.364
899.094
890.381
889.333
883.994
883.305
894.020
887.860
888.765
880.610
886.114
880.719
877.524
871.203
869.461
877.933
866.881
868.480
864.496
867.675
863.289
868.634
871.172
860.409
855.904
866.820
859.465
851.271
852.225
862.473
861.748
858.478
858.409
845.159
842.526
845.931
842.014
851.461
849.195
846.464
837.036
844.280
832.837
842.080
828.750
826.175
837.828
822.776
835.562
819.599
832.464
818.142
825.477
816.221
813.388
812.110
811.305
816.067
821.884
820.377
805.463
817.632
815.202
810.903
802.343
806.054
807.248
801.836
796.385
801.303
793.297
789.181
793.075
794.349
796.270
785.129
790.194
785.542
778.723
789.479
788.963
781.941
785.847
778.342
783.039
783.084
767.832
767.618
766.674
766.208
763.091
762.566
771.083
768.872
760.661
761.825
755.674
756.427
758.636
759.110
748.373
758.268
745.135
747.929
755.196
749.976
740.934
750.058
747.972
742.190
736.283
735.325
729.048
740.017
736.674
732.829
735.088
724.188
735.539
722.278
718.949
722.841
723.117
724.593
718.770
714.258
718.913
720.694
715.537
709.273
712.971
703.202
709.140
701.298
709.597
695.870
703.712
699.004
695.799
698.526
697.140
694.202
693.729
693.488
685.039
693.252
695.053
688.547
679.077
684.420
689.585
686.539
686.591
677.970
673.860
681.876
678.290
679.155
671.859
674.849
670.812
667.599
664.139
658.647
666.152
653.931
654.404
660.704
654.922
657.676
651.961
659.296
646.209
642.190
640.481
649.183
648.644
644.136
646.915
633.993
639.259
642.213
637.291
640.072
633.915
624.171
637.771
639.577
641.274
628.929
641.107
630.984
631.745
640.890
642.644
643.252
642.558
638.167
645.985
642.990
642.508
642.675
642.974
650.009
638.035
639.737
646.861
654.961
641.919
643.026
646.146
642.528
647.142
651.137
651.689
658.640
648.632
648.138
654.062
654.530
658.359
657.016
656.207
656.797
657.037
660.770
654.491
656.482
655.456
657.558
655.207
663.721
665.895
660.011
663.509
665.045
666.032
671.364
667.862
674.551
678.164
672.584
667.741
672.708
678.537
681.160
680.801
671.447
683.490
678.604
672.622
683.551
685.471
678.375
672.247
684.007
683.589
680.391
679.640
687.489
688.205
685.576
691.992
680.644
694.875
684.099
686.955
695.685
686.689
691.932
694.244
690.024
687.486
695.579
696.170
688.066
688.080
698.793
690.583
698.047
691.106
697.792
696.594
708.334
695.387
708.593
701.735
700.363
697.609
697.843
703.620
708.510
710.069
713.142
702.481
709.936
716.170
713.229
713.030
706.889
714.780
720.031
720.058
708.036
712.948
712.811
717.585
718.305
719.641
711.578
727.196
713.136
726.340
716.698
723.922
727.384
720.952
721.167
720.495
723.387
729.461
722.495
733.965
735.719
730.091
725.535
725.979
737.351
728.135
737.185
734.977
729.815
730.263
738.103
729.233
744.592
744.171
742.198
738.083
744.208
737.605
749.098
744.821
749.313
739.378
751.031
746.204
747.086
749.366
751.236
751.452
747.109
754.147
743.322
754.741
757.526
756.873
754.355
759.871
752.303
753.355
761.663
753.296
758.944
752.393
756.361
753.859
762.239
767.735
759.501
758.484
758.268
755.598
765.511
771.181
764.556
770.509
759.110
772.661
766.263
769.877
768.347
762.838
769.792
766.105
772.683
763.575
764.874
