148.796
125.998
106.133
136.369
104.685
119.398
141.495
102.887
133.961
145.089
129.159
141.402
133.456
123.899
142.506
105.837
106.519
149.789
142.437
150.636
107.326
127.750
147.210
125.362
124.427
134.845
143.855
123.722
125.077
108.209
132.482
120.955
115.580
102.656
106.520
119.797
144.472
125.983
142.084
138.302
146.734
122.836
114.113
147.415
104.529
115.302
138.611
119.069
102.177
130.501
102.219
102.475
123.917
117.259
105.231
129.938
151.039
119.393
143.062
121.620
102.603
132.012
150.889
134.923
121.246
122.385
142.532
116.242
132.621
131.760
149.323
131.396
129.792
116.569
137.645
122.791
117.724
100.935
124.601
137.695
108.716
101.229
141.574
106.116
150.674
127.594
107.470
130.302
109.776
122.965
109.939
122.884
135.917
101.772
114.118
118.784
133.686
139.893
130.669
123.659
109.198
110.560
144.029
126.434
137.141
101.819
108.876
101.228
123.391
131.409
126.082
123.208
135.035
148.790
98.160
136.426
114.343
141.236
146.522
129.351
116.448
114.086
117.075
101.811
145.715
109.851
129.562
145.758
124.118
141.160
127.981
113.596
100.719
104.635
124.728
131.504
148.555
122.666
100.076
147.036
105.528
99.929
135.378
110.394
113.083
126.428
110.753
130.028
147.534
112.169
127.794
101.112
110.285
100.450
126.479
138.125
100.038
116.331
118.604
123.312
98.382
99.924
128.873
103.742
125.741
125.234
144.969
120.919
125.249
137.543
132.688
125.837
97.667
146.620
110.602
138.820
125.954
116.591
96.380
146.111
98.472
120.057
122.988
103.823
120.741
124.812
123.031
146.023
132.882
106.788
133.289
130.011
102.240
121.899
133.818
127.674
95.813
118.592
105.831
131.860
96.738
108.768
144.219
121.220
121.667
129.238
138.384
145.575
143.846
140.405
134.429
115.233
120.364
101.351
99.935
105.966
116.547
116.878
143.484
127.667
144.197
122.685
107.515
143.053
125.680
134.496
98.531
121.927
104.584
133.354
107.604
140.391
110.043
144.295
137.671
131.067
143.923
126.438
145.481
109.189
118.219
103.715
143.846
101.038
111.763
100.062
123.324
103.694
121.567
141.229
120.226
98.306
141.894
130.444
126.740
106.371
144.842
121.943
116.736
142.903
124.228
139.276
108.833
99.252
134.295
96.139
121.590
122.832
104.026
135.750
95.610
143.320
142.907
140.256
140.979
120.746
129.916
115.100
105.347
106.795
114.124
142.918
115.744
140.560
116.325
111.026
112.868
99.336
139.355
100.269
138.517
128.962
119.569
123.655
125.754
119.550
121.386
133.886
108.541
101.981
135.085
96.370
106.894
141.772
96.495
110.312
124.938
140.170
115.511
101.134
132.072
124.272
132.357
104.873
145.194
110.407
105.211
100.277
142.948
142.186
118.211
107.728
121.767
118.662
126.827
134.444
119.406
116.999
95.250
103.293
109.809
136.069
103.148
114.060
102.113
138.344
124.244
102.679
126.585
97.181
127.115
124.744
95.556
97.064
99.704
113.729
94.897
132.731
141.388
114.258
114.485
132.494
121.453
129.304
108.819
138.467
124.668
96.487
95.528
101.819
94.936
117.762
140.080
103.425
119.040
124.889
96.488
120.654
104.551
139.836
103.745
95.348
115.252
111.916
113.910
95.573
97.004
121.233
135.169
109.369
115.807
101.625
140.559
101.490
128.164
116.210
113.719
113.784
143.836
135.561
140.813
139.173
129.938
130.869
108.279
101.981
122.068
121.233
142.405
140.837
101.283
95.803
110.564
119.154
114.587
120.824
120.596
121.098
123.322
131.685
99.300
109.691
121.431
129.672
114.027
125.425
107.168
134.966
123.069
133.545
107.597
101.153
135.189
123.566
110.842
140.530
134.374
135.345
145.119
104.631
145.932
127.935
105.268
134.542
121.215
117.808
117.147
99.595
103.635
134.752
103.147
107.498
120.154
112.645
94.806
130.054
142.641
142.010
105.122
125.365
103.779
128.495
106.935
146.676
103.255
141.595
105.524
136.645
108.155
118.878
105.013
108.148
136.504
101.295
110.976
113.983
119.229
108.551
134.488
106.245
123.755
144.118
125.461
146.626
101.548
124.963
137.138
117.589
95.664
106.279
140.181
122.007
100.373
128.683
97.199
115.594
106.634
125.024
140.819
140.551
134.316
121.574
116.788
100.292
131.891
126.685
123.862
139.608
117.641
109.671
121.217
131.053
136.675
103.828
127.488
105.154
137.371
107.690
117.531
105.013
128.743
108.737
143.831
119.631
96.723
106.010
96.172
96.669
104.695
98.671
126.959
131.226
118.868
106.357
106.748
98.471
105.056
100.303
129.545
145.798
99.188
127.769
142.146
131.314
131.618
141.031
121.443
125.421
111.277
139.072
121.315
141.308
126.100
128.042
96.269
139.625
102.591
135.824
110.696
136.108
122.194
127.463
121.487
101.557
125.297
125.927
104.439
142.132
129.993
125.035
99.677
107.649
111.380
126.649
101.137
125.084
133.096
128.586
97.205
99.520
95.367
117.603
102.552
104.100
146.179
144.992
103.506
117.990
121.572
124.213
124.484
140.065
126.715
117.297
97.077
123.150
131.428
119.445
146.672
130.028
131.880
138.550
110.712
129.522
122.795
134.090
130.679
145.469
111.756
136.625
134.335
145.929
97.278
114.597
122.995
133.378
103.697
101.813
102.667
119.364
114.946
101.805
101.242
101.894
119.106
134.072
142.664
96.399
117.900
142.549
120.688
121.425
129.652
122.240
115.842
114.152
100.183
97.582
121.782
123.600
138.930
140.129
144.925
128.302
138.980
106.409
107.306
115.846
139.631
110.045
107.117
112.460
107.265
120.820
119.214
130.535
100.068
110.207
135.066
100.845
122.379
129.364
110.418
113.468
136.619
128.896
119.317
106.561
131.699
112.121
116.364
120.187
115.508
105.875
130.737
103.225
114.351
121.004
136.031
106.135
114.639
138.163
116.553
111.370
142.621
101.088
116.100
144.842
120.485
115.751
118.014
142.964
114.927
98.773
127.121
136.619
105.985
102.808
134.156
133.854
143.636
117.210
142.576
107.304
127.949
133.439
139.453
109.502
105.469
135.954
133.473
129.191
103.717
105.951
136.469
141.988
115.795
108.333
134.046
101.692
106.713
110.243
126.365
125.695
115.443
103.698
135.974
120.510
100.598
117.432
143.926
122.560
136.929
142.334
120.844
111.179
111.531
124.737
102.515
122.968
122.022
115.471
141.937
122.830
118.048
123.219
142.533
110.961
143.533
139.889
122.734
144.223
118.605
140.761
122.742
114.522
114.545
146.319
135.484
146.682
95.636
138.686
115.712
109.738
128.059
104.904
137.647
114.216
95.796
107.920
121.071
116.014
133.712
136.019
145.002
111.925
98.131
135.068
111.039
111.251
115.564
140.442
120.821
127.760
140.139
98.856
119.302
103.875
134.884
116.065
133.620
108.241
135.957
131.699
108.701
106.661
139.911
96.365
129.209
110.691
135.808
145.235
143.867
108.029
138.798
110.913
127.149
110.187
130.033
123.936
118.132
107.825
137.149
127.949
118.991
105.252
128.669
132.615
141.322
129.764
110.763
122.209
123.240
104.337
133.859
141.370
135.869
133.208
110.103
114.863
143.143
138.155
137.073
108.390
104.187
144.459
119.436
129.117
141.358
102.112
130.230
110.549
105.995
124.818
121.953
114.420
119.844
127.699
140.801
100.182
97.887
127.978
117.154
125.421
109.555
124.742
135.653
127.483
111.955
103.803
112.671
121.316
100.887
105.266
113.899
120.845
113.964
95.705
95.713
137.576
102.080
137.819
144.023
137.521
137.271
102.812
110.181
131.634
118.095
109.390
106.879
139.123
132.921
113.183
106.449
145.360
114.382
129.071
127.790
142.833
135.281
130.160
115.084
117.575
130.715
107.606
96.996
110.539
134.571
102.334
139.604
110.805
108.480
121.941
116.864
98.456
127.598
120.658
100.940
130.201
113.023
98.289
117.716
116.516
137.877
137.244
129.514
138.188
97.693
117.348
140.726
113.285
105.143
141.887
97.914
139.865
124.182
132.788
114.363
119.389
137.537
108.880
108.479
102.566
126.337
129.182
119.548
101.666
122.302
143.618
109.355
139.399
114.535
140.023
134.151
142.529
144.570
111.791
129.742
132.950
107.558
136.649
118.176
134.168
143.072
146.456
106.863
119.815
103.972
97.474
98.021
112.234
140.067
125.691
145.311
126.864
127.165
134.658
129.648
114.030
121.285
116.058
115.079
139.511
114.628
121.520
104.654
132.203
111.644
100.641
143.299
110.895
110.645
104.110
100.529
128.419
126.670
142.926
104.460
110.520
139.225
97.501
119.204
128.355
133.940
121.286
97.866
120.614
111.383
125.968
108.902
112.748
130.276
102.530
113.653
122.375
145.214
120.818
106.410
95.893
107.051
133.150
139.291
120.606
120.784
122.562
123.852
114.217
112.200
106.060
100.623
110.786
134.475
107.268
133.870
129.276
131.496
122.889
111.476
101.800
135.919
95.304
114.792
146.310
145.863
102.221
132.558
118.429
138.767
129.202
105.662
107.995
103.647
97.907
125.782
137.382
140.380
103.468
130.638
107.381
136.915
123.261
114.617
139.870
127.562
106.747
103.808
127.746
144.926
124.834
102.110
133.299
126.909
132.362
141.349
110.841
139.116
98.204
105.164
145.255
137.633
109.461
141.539
96.232
117.232
127.237
100.235
122.896
119.646
132.636
121.073
115.171
115.037
129.726
121.421
145.446
115.706
99.399
144.129
126.850
140.278
138.677
135.714
129.607
126.716
108.638
96.798
102.736
124.408
141.400
126.053
114.075
141.943
139.302
141.880
113.103
112.447
117.566
138.599
136.072
137.608
102.942
112.667
115.673
128.193
116.195
105.075
131.027
131.506
127.172
142.266
133.665
116.200
96.647
98.223
136.322
105.830
130.824
101.455
114.979
125.945
144.335
141.880
99.987
140.541
145.862
133.566
120.704
113.498
122.610
144.973
124.327
134.079
116.068
126.411
124.691
113.525
102.400
102.743
107.086
131.321
119.581
130.023
114.398
129.931
133.080
141.075
134.652
120.549
116.808
124.809
97.657
100.050
144.291
141.475
120.946
101.304
118.001
108.173
129.647
139.408
112.865
105.390
135.373
131.074
98.164
97.747
102.745
126.135
132.237
138.184
131.147
101.631
133.913
128.035
102.732
122.133
122.541
129.712
142.324
112.080
144.737
98.315
107.327
145.049
133.718
139.151
134.460
110.976
116.442
111.432
119.870
140.613
123.915
113.349
143.002
100.577
122.944
100.344
122.246
134.730
110.126
134.897
123.245
95.492
127.035
102.170
136.703
98.155
121.569
146.000
137.869
109.183
141.732
130.752
145.829
133.066
141.859
108.700
128.013
141.136
98.938
146.486
122.713
119.724
100.163
122.138
126.146
130.915
143.463
107.094
142.095
111.701
124.106
145.381
142.800
125.665
132.376
143.626
143.458
139.011
104.491
102.282
105.702
145.382
104.000
143.041
131.630
112.192
114.542
102.318
144.987
132.019
125.754
100.006
128.133
143.878
109.634
130.285
112.651
124.004
116.515
108.288
132.556
102.243
117.461
106.727
122.661
97.983
97.548
109.806
138.353
145.265
142.478
132.971
139.578
111.127
141.245
115.239
110.318
111.520
110.552
126.625
136.447
146.173
117.351
126.983
120.814
114.871
96.949
124.827
95.308
97.166
136.205
138.734
99.339
121.802
128.117
102.623
119.628
112.824
107.684
101.726
97.857
97.317
115.724
111.594
112.868
121.760
99.407
143.958
124.701
95.640
145.137
128.647
143.297
132.135
116.924
141.476
115.494
138.873
141.509
125.672
111.676
106.799
139.771
115.151
96.719
136.064
142.540
133.692
134.869
122.256
144.821
135.039
132.138
108.296
133.626
121.554
141.715
144.397
100.027
104.043
134.459
119.250
131.791
97.526
123.962
120.337
146.565
132.786
97.833
108.266
123.809
123.815
107.896
104.544
144.122
114.378
124.595
105.232
127.765
95.866
128.115
142.173
138.682
97.459
123.648
123.330
134.671
96.135
106.121
104.864
42.788
42.415
43.607
30.405
44.658
35.196
36.002
36.088
30.320
31.204
41.568
38.390
38.712
29.654
37.923
39.656
44.117
32.559
43.534
30.038
38.073
40.733
40.068
34.738
34.082
41.684
36.779
43.016
36.273
44.844
38.859
29.397
32.519
29.661
36.974
32.995
29.284
39.593
36.480
33.271
29.176
34.856
40.688
42.218
1205.602
1204.865
1220.017
1209.419
1231.874
1236.639
1229.227
1237.859
1231.964
1235.055
1248.315
1254.890
1272.695
1265.353
1282.039
1282.540
1269.971
1273.907
1293.958
1299.363
1283.560
1299.282
1305.062
1297.694
1315.227
1304.635
1328.738
1335.699
1326.210
1336.971
1322.708
1354.962
1336.086
1336.344
1359.288
1360.292
1360.279
1358.710
1369.878
1383.453
1379.986
1370.976
1398.604
1381.186
1402.366
1402.662
1389.990
1417.152
1407.094
1426.226
1425.809
1433.168
1438.347
1425.507
1440.548
1436.915
1433.112
1438.072
1458.356
1461.115
1475.294
1475.346
1472.499
1466.562
1483.000
1482.229
1493.584
1499.771
1490.563
1497.339
1512.329
1505.134
1509.587
1522.359
1526.131
1522.251
1537.205
1528.952
1535.735
1530.162
1552.845
1558.608
1550.992
1570.785
1550.516
1577.859
1574.171
1584.536
1585.061
1598.672
1592.148
1588.441
1583.093
1590.998
1601.179
1623.537
1614.150
1629.382
1632.164
1629.429
902.768
909.088
918.747
917.411
917.601
919.248
915.565
923.482
927.830
927.243
924.478
934.820
931.307
941.360
941.551
943.501
939.502
947.177
942.860
950.057
960.124
958.103
963.054
958.299
961.751
963.845
966.691
966.825
964.146
969.567
978.804
977.329
977.696
982.749
978.958
984.524
983.527
994.495
1002.541
996.243
1004.137
1000.539
1005.308
1010.131
1003.813
1006.006
1014.682
1020.918
1024.708
1014.239
1016.012
1031.780
1026.486
1037.693
1029.703
1034.735
1029.895
1034.564
1042.876
1049.040
1048.849
1050.210
1046.705
1056.599
1052.293
1056.560
1056.263
1056.486
1064.509
1064.123
1067.397
1072.187
1068.983
1074.694
1071.919
1081.605
1079.488
1082.240
1081.573
1090.666
1086.210
1098.842
1091.829
1095.758
1097.491
1107.408
1102.466
1103.470
1116.291
1119.322
1119.341
1126.466
1121.986
1121.746
1121.018
1133.701
1128.552
1138.072
1131.454
1140.901
1142.557
1135.400
1131.891
1146.449
1142.443
1135.152
1144.887
1133.291
1134.877
1143.864
1140.442
1137.062
1140.576
1132.606
1140.808
1137.335
1127.916
1134.406
1126.486
1137.713
1139.601
1127.112
1132.632
1127.926
1135.829
1130.172
1128.361
1128.518
1128.275
1131.255
1128.288
1137.306
1126.191
1136.705
1123.467
1124.729
1120.117
1127.628
1119.900
1125.675
1124.819
1130.704
1123.035
1117.636
1117.299
1122.553
1119.072
1122.219
1127.795
1124.715
1122.946
1120.869
1118.839
1120.139
1120.937
1120.790
1126.726
1121.522
1118.567
1126.944
1114.172
1125.020
1119.334
1111.795
1123.218
1117.379
1123.767
1116.552
1115.790
1118.715
1113.661
1114.032
1113.204
1111.527
1116.711
1118.571
1113.721
1112.080
1109.033
1118.508
1119.971
1110.609
1111.213
1115.820
1109.895
1111.333
1118.328
1104.249
1104.167
1103.434
1109.365
1117.529
1111.428
1109.225
1112.234
1109.450
1106.167
1102.633
1108.536
1112.553
1105.367
1108.374
1102.327
1107.614
1107.409
1103.936
1097.570
1103.270
1106.776
1097.697
1111.154
1098.938
1106.645
1106.528
1098.141
1103.537
1094.156
1104.739
1098.781
1094.614
1098.339
1104.615
1102.927
1098.187
1099.891
1093.617
1097.773
1099.134
1095.690
1099.668
1101.630
1094.767
1091.635
1101.260
1093.574
1089.647
1097.501
1095.453
1089.497
1090.426
1096.499
1094.944
1087.684
1089.997
1090.135
1085.864
1092.148
1095.044
1086.653
1085.944
1094.614
1090.915
1081.460
1089.323
1092.868
1087.541
1081.520
1087.663
1086.045
1086.265
1087.516
1088.543
1082.868
1085.499
1089.493
1090.985
1076.947
1090.162
1087.029
1076.200
1090.351
1079.249
1090.205
1081.978
1080.731
1083.405
1087.854
1074.212
1088.385
1086.134
1084.678
1079.851
1086.604
1080.703
1070.871
1083.560
1081.478
1070.889
1084.133
1071.928
1071.907
1081.643
1073.252
1068.694
1070.801
1077.869
1080.108
1074.655
1078.223
1077.185
1066.333
1069.058
1065.330
1070.032
1063.830
1057.032
1053.124
1052.943
1058.238
1048.704
1049.771
1048.004
1038.902
1036.520
1033.777
1032.634
1036.972
1033.178
1026.678
1028.530
1027.402
1028.530
1020.258
1014.973
1012.723
1016.242
1009.753
1008.407
1012.972
1002.828
997.589
998.435
999.027
989.602
994.541
994.806
987.200
983.555
987.459
982.612
975.805
977.288
980.640
982.157
972.028
964.597
974.792
961.331
967.010
960.878
952.218
960.538
946.465
943.674
955.642
944.528
948.129
936.850
946.308
936.969
937.715
935.299
928.594
921.167
930.115
919.609
918.142
911.642
909.321
911.997
918.108
909.479
905.064
901.298
898.728
894.234
904.454
903.375
900.986
896.579
896.950
885.762
891.384
882.642
886.058
871.053
878.925
880.024
875.692
869.018
868.401
860.634
862.999
852.663
864.782
850.438
853.269
844.335
853.021
845.474
846.575
833.346
839.760
829.208
838.039
825.374
823.990
825.649
820.795
827.261
825.247
814.248
808.495
816.134
804.924
802.556
809.367
803.534
802.632
800.809
800.152
793.446
786.224
795.380
787.339
779.027
779.912
780.906
775.470
769.477
781.567
768.905
771.177
772.395
770.053
767.187
753.770
765.659
761.853
757.722
748.597
745.158
742.497
750.252
736.600
748.026
731.507
740.639
734.323
728.548
735.928
719.856
716.830
717.659
714.238
719.845
708.460
718.204
712.828
706.446
702.068
703.320
701.688
701.097
698.271
686.496
685.537
685.517
693.631
692.493
676.436
685.065
670.844
669.973
668.628
673.352
667.278
669.719
661.130
664.747
658.366
650.785
653.005
