104.361
104.546
109.995
134.843
95.359
138.239
122.414
139.275
99.950
131.755
139.164
141.240
119.111
139.225
134.307
112.749
104.966
120.588
130.362
143.544
111.086
116.396
119.726
133.317
120.973
112.272
138.477
118.865
106.757
127.532
110.221
140.387
130.656
117.672
104.786
132.052
140.399
115.335
98.037
129.483
125.768
116.349
142.329
108.564
141.875
135.297
108.963
101.269
117.915
132.279
101.317
101.818
117.236
140.363
129.866
106.433
140.332
134.548
133.619
145.736
98.555
109.969
138.908
137.317
113.369
105.089
120.099
105.204
119.630
114.971
125.987
99.272
107.049
120.510
123.884
110.333
143.204
106.583
99.389
124.798
104.277
143.229
120.896
110.405
110.690
142.125
97.911
105.477
99.931
109.036
111.480
125.576
100.924
122.253
119.318
110.947
144.423
107.893
97.898
134.485
124.702
120.073
143.061
102.099
128.518
104.459
129.701
122.825
124.891
141.963
127.318
123.592
124.888
120.844
128.654
123.552
115.777
110.246
121.893
131.728
102.658
143.828
110.892
145.973
102.193
121.156
104.131
106.953
130.387
126.593
100.469
102.391
102.330
98.791
142.681
95.380
123.200
107.513
108.122
103.732
115.089
143.631
98.782
129.863
108.329
102.167
130.725
132.845
125.467
126.051
133.338
119.089
130.071
135.324
116.605
108.102
145.660
104.809
138.744
128.162
130.311
98.763
144.007
132.888
97.290
138.064
129.505
127.580
135.813
101.495
104.782
145.073
123.258
114.741
99.049
104.564
140.085
105.663
110.590
112.247
144.594
127.176
146.022
125.564
121.949
116.335
124.531
108.058
130.095
111.401
100.088
145.423
106.425
124.924
114.984
122.178
108.468
142.991
126.678
144.634
97.933
120.933
121.046
102.139
108.175
125.830
139.243
135.888
120.058
112.676
115.884
114.337
124.399
121.629
132.679
135.168
134.334
109.771
128.498
120.202
112.268
103.109
95.847
142.699
98.837
137.592
123.571
98.486
133.836
132.666
139.753
755.374
741.421
771.969
728.280
742.478
809.086
738.305
744.748
791.850
801.825
788.778
775.717
771.638
835.815
815.662
822.702
852.705
837.601
874.352
836.357
838.008
912.713
840.788
861.252
861.438
879.147
949.130
887.991
884.070
963.541
919.403
282.408
289.388
299.150
284.532
293.608
292.943
303.253
312.788
317.475
301.451
316.415
314.258
317.164
321.916
325.850
313.684
316.608
322.011
342.221
340.915
330.352
326.772
330.331
336.959
350.704
349.431
349.290
348.858
348.311
360.855
364.736
358.440
349.763
350.426
363.864
377.693
361.916
367.138
361.187
361.297
391.175
367.559
382.366
372.477
376.653
388.758
393.621
385.724
406.633
389.871
388.034
404.623
413.022
407.608
410.136
418.703
422.631
403.019
406.010
416.734
418.830
427.046
426.152
423.230
438.056
438.060
433.594
440.556
442.128
237.540
246.940
246.592
248.282
251.407
256.372
250.365
252.072
258.105
250.269
251.521
255.947
252.649
264.717
259.449
257.899
260.500
267.289
271.379
262.563
261.668
263.437
277.832
272.963
279.110
273.921
272.268
273.583
279.387
283.985
285.478
288.169
280.140
283.989
279.810
286.511
280.853
283.778
293.352
293.007
293.563
289.357
292.787
300.748
302.266
298.278
295.645
302.020
297.849
301.558
302.028
299.482
311.680
305.633
315.234
312.402
318.551
310.127
319.923
319.274
308.202
320.939
318.449
315.369
324.936
322.689
322.724
324.634
327.031
325.785
334.791
333.996
326.010
332.175
334.478
340.987
334.809
342.823
335.850
339.471
338.232
347.290
338.973
349.508
337.419
340.837
351.886
340.382
357.206
351.491
346.195
360.047
348.634
351.683
349.956
361.316
364.942
367.458
353.642
355.363
371.215
361.048
369.326
363.319
358.695
369.451
365.325
364.900
375.147
363.862
375.825
378.556
365.948
376.261
366.497
379.106
368.287
384.082
380.215
385.315
383.812
382.727
373.146
377.572
373.849
379.056
386.773
388.215
390.174
378.416
381.296
382.781
390.049
387.795
380.648
385.491
385.449
392.030
385.579
396.959
390.533
398.516
398.330
389.824
390.006
401.360
402.113
395.658
393.927
396.791
408.123
407.852
407.162
405.040
400.408
410.006
399.175
409.174
399.522
404.205
410.792
406.956
401.351
403.173
416.747
406.743
413.917
417.100
416.893
416.862
421.984
419.329
414.616
424.325
414.916
411.755
417.106
426.370
419.315
423.777
425.021
424.362
421.842
427.837
418.422
418.383
429.662
428.610
424.999
421.428
429.115
430.614
423.762
437.260
440.276
430.602
441.084
441.560
428.011
431.720
435.416
432.138
437.991
443.727
444.296
438.421
443.711
436.587
441.744
443.111
450.700
444.961
451.778
444.975
452.117
451.180
456.110
457.267
447.689
443.106
457.877
458.068
452.490
460.015
459.118
451.358
462.646
455.466
450.361
461.955
465.501
460.686
461.043
458.867
469.765
461.616
460.693
468.373
464.822
469.607
459.274
474.114
475.191
467.823
472.561
470.699
474.307
478.104
473.655
472.455
472.983
472.701
471.994
480.392
469.307
478.721
474.834
479.891
478.729
474.998
479.232
482.863
475.212
489.932
479.101
490.977
486.632
489.236
492.354
488.642
484.593
482.092
489.997
496.120
495.497
485.731
500.045
500.994
494.659
487.145
500.082
488.429
499.942
490.597
492.513
495.985
501.789
501.223
502.580
501.505
508.563
496.021
511.953
498.937
500.483
503.023
513.417
505.010
509.407
515.187
510.798
506.914
511.023
514.330
521.310
523.599
527.997
528.641
535.226
537.699
534.302
527.583
536.306
540.281
537.349
541.631
545.234
545.879
545.499
559.954
561.160
554.918
563.171
565.989
572.926
567.129
573.727
574.830
580.952
574.645
574.860
584.277
585.104
584.930
584.030
594.407
588.216
597.085
591.541
594.715
608.379
609.084
611.712
610.931
605.342
610.336
623.211
612.678
614.802
630.289
617.188
621.865
630.219
626.524
632.430
635.653
640.602
638.168
647.403
649.100
639.678
653.129
654.359
659.365
661.668
658.035
665.500
668.986
658.269
671.305
668.120
670.433
676.418
681.608
686.734
677.703
684.481
687.251
696.585
687.048
688.428
697.680
691.293
701.429
709.854
698.755
700.237
701.418
704.463
712.839
717.644
719.189
726.580
715.027
729.989
721.582
733.128
724.503
728.105
735.578
735.285
743.603
749.114
751.487
748.723
751.521
744.891
751.797
752.446
763.113
756.189
765.394
770.334
773.546
769.138
771.646
775.020
784.647
787.510
782.135
791.258
783.354
783.743
786.626
799.044
795.592
794.340
799.978
800.541
808.496
813.373
811.521
812.869
822.266
810.912
812.964
817.214
817.731
825.377
827.623
835.259
840.493
837.632
829.644
834.201
848.362
852.091
849.377
851.875
850.622
858.125
854.475
862.231
866.829
859.608
871.540
861.423
876.290
867.401
881.167
874.284
883.166
885.556
882.895
889.617
886.785
883.057
896.922
892.006
902.947
900.991
904.364
905.090
906.799
915.935
906.138
916.879
908.165
912.407
924.671
922.910
928.755
919.911
928.010
936.437
940.780
940.752
934.017
941.505
943.808
940.601
947.812
945.697
954.311
955.649
961.570
951.260
967.682
967.812
973.082
965.089
960.032
960.296
966.595
962.511
954.319
957.866
954.773
959.949
957.796
948.293
956.495
954.872
943.525
953.418
941.116
951.896
949.272
940.147
935.908
936.284
940.428
939.223
933.225
928.757
929.421
935.827
921.763
918.964
928.908
923.624
926.056
920.796
917.044
912.485
915.541
914.218
914.081
910.093
908.672
905.042
910.533
898.615
912.010
904.234
906.044
907.205
899.499
892.294
894.927
897.498
896.976
885.365
896.969
892.653
888.748
882.998
878.712
884.959
880.494
872.655
881.283
883.353
869.303
880.361
876.093
877.041
876.225
866.950
861.834
861.478
864.115
859.809
857.258
855.941
853.702
850.152
854.721
846.641
853.254
847.627
852.301
849.317
847.116
841.438
843.431
840.853
836.259
832.189
834.581
842.459
832.447
840.731
831.419
827.374
829.324
822.939
821.288
830.009
823.260
817.178
818.887
823.415
813.565
817.383
819.741
814.881
803.849
810.756
807.003
800.973
798.219
799.342
803.240
801.521
792.935
790.129
801.872
786.827
786.890
792.973
790.621
794.613
794.045
787.776
784.029
784.966
780.897
776.052
779.522
772.955
782.805
768.429
772.398
775.313
771.709
770.770
771.145
770.512
768.451
766.085
763.832
759.196
760.618
758.530
760.762
759.453
751.104
750.840
751.820
747.340
747.530
744.201
747.571
741.167
733.614
744.890
743.932
736.716
732.550
728.302
730.153
735.425
730.663
734.540
729.779
723.534
730.796
715.275
717.372
721.425
717.983
717.928
718.400
716.915
718.184
703.602
715.746
708.898
706.035
704.850
697.431
701.062
705.031
695.369
701.949
695.273
692.643
693.778
690.434
695.136
686.162
688.222
687.926
683.096
688.882
679.046
677.900
678.776
668.496
681.663
669.872
672.751
678.297
684.506
682.056
680.820
679.002
674.856
677.348
689.147
684.369
689.082
683.200
684.745
688.538
687.648
694.722
685.495
682.076
696.810
691.064
689.656
696.559
698.907
691.817
700.807
699.939
693.278
704.795
697.792
696.978
702.126
703.856
702.777
697.540
707.464
711.382
712.471
708.910
710.890
700.731
710.988
715.832
703.778
712.860
711.569
708.652
708.207
709.413
712.062
711.560
722.784
719.980
712.451
716.700
727.481
715.223
721.901
716.090
715.624
718.364
721.204
731.776
722.949
722.429
733.039
727.569
732.622
724.063
736.295
737.635
736.392
736.647
730.964
743.011
740.321
739.179
738.962
730.702
739.649
737.937
737.800
747.479
736.127
740.109
742.228
750.417
744.163
740.572
755.083
749.654
746.530
750.112
753.051
753.322
760.202
757.736
752.745
754.258
762.033
753.987
758.005
756.125
753.653
767.321
764.295
765.541
766.142
760.304
767.808
766.924
764.036
765.529
760.376
761.253
766.698
764.371
762.636
770.954
778.474
769.710
777.954
773.706
770.574
769.126
769.849
779.802
776.199
778.619
780.500
784.999
777.832
779.513
784.264
789.652
782.298
787.935
785.205
782.272
794.160
782.096
793.281
797.418
797.259
796.187
794.539
801.574
799.452
799.694
796.921
798.673
790.156
800.183
798.517
792.609
797.580
798.204
803.861
808.553
797.464
802.071
804.793
802.754
807.743
814.969
808.359
812.051
816.419
811.200
804.557
813.649
811.690
821.287
808.788
824.173
813.971
816.595
816.664
825.706
821.961
827.409
829.857
829.434
830.853
832.518
820.313
833.326
830.332
831.553
830.137
835.510
829.120
836.710
829.495
825.998
833.218
840.231
830.213
841.433
842.857
840.533
844.696
835.821
835.710
835.214
832.688
846.945
834.563
841.568
836.934
846.643
838.023
844.401
847.492
840.116
843.755
845.067
841.484
852.651
839.115
850.396
851.124
840.018
843.774
853.492
851.537
841.856
848.906
855.577
852.973
843.950
843.716
857.313
849.811
851.605
854.796
852.051
850.603
847.956
848.321
862.000
848.911
852.220
861.226
848.912
856.203
859.730
863.958
863.618
855.752
862.833
858.093
855.919
864.151
855.506
859.006
855.380
855.992
865.313
858.917
859.404
856.496
857.734
869.735
859.789
870.630
867.758
863.071
862.814
864.071
864.952
872.615
862.148
874.629
876.725
868.898
871.193
875.410
878.418
875.894
877.667
871.945
879.274
870.633
868.155
872.870
874.316
876.346
867.173
878.064
878.090
873.643
871.804
873.402
883.141
879.025
874.011
883.668
873.240
871.901
884.250
878.014
887.377
876.695
879.292
884.085
880.385
879.126
883.345
891.492
884.048
887.452
879.468
888.040
893.032
878.794
890.368
884.953
890.397
896.301
885.742
895.517
889.477
891.504
885.508
897.690
885.264
888.709
889.165
888.765
893.787
893.354
896.636
889.163
895.009
902.357
896.741
890.968
897.668
904.387
902.557
897.890
895.829
890.808
895.363
900.628
893.620
892.437
903.562
903.084
905.415
897.502
899.922
905.265
904.464
911.557
903.858
912.630
898.653
906.261
912.548
900.892
905.076
914.872
909.529
903.589
901.365
906.471
905.002
909.428
906.959
917.043
915.298
915.068
910.951
909.379
918.030
909.744
921.115
908.525
918.584
920.763
909.464
911.704
922.819
909.378
921.210
920.168
914.951
911.774
918.896
912.946
921.658
913.163
921.098
923.135
921.272
926.972
925.908
918.456
920.598
928.045
920.620
919.334
924.775
922.468
924.447
931.964
925.747
937.538
932.496
939.179
937.474
927.940
927.692
937.463
935.467
929.474
930.330
940.642
942.719
945.495
946.893
943.081
936.559
937.446
942.811
948.559
943.509
950.842
941.801
937.376
938.465
952.824
952.954
950.402
944.291
954.858
954.299
958.039
944.789
946.040
948.962
948.960
959.891
954.678
953.279
958.054
954.534
965.754
958.581
961.465
956.352
954.501
962.450
964.071
961.071
967.049
965.578
972.046
964.963
964.704
968.562
975.576
972.553
970.252
966.082
968.789
964.002
976.112
974.413
976.808
979.865
976.941
969.776
981.458
983.020
982.089
973.525
981.933
985.051
975.831
975.781
976.507
988.011
980.136
978.979
978.592
985.649
980.323
989.946
994.977
995.136
991.461
989.828
988.128
998.403
984.833
984.929
999.688
996.165
990.684
998.626
998.093
998.762
998.376
992.286
1003.755
998.898
999.730
1005.390
1009.457
994.899
995.601
1009.222
999.150
1007.662
1000.228
1007.784
1013.437
1004.582
1014.224
1007.723
1017.204
1003.772
1009.857
1010.698
1019.210
1019.223
1013.922
1021.387
1008.155
1009.704
1015.870
1019.782
1017.028
1022.936
1022.889
1024.759
1024.295
1017.389
1023.167
1016.668
1022.460
1030.165
1021.395
1022.197
1020.645
1035.376
1026.523
1026.163
1023.423
1027.736
1029.770
1031.449
1036.887
1029.801
1037.776
1033.557
1028.583
1038.257
1035.231
1034.297
1035.156
1046.028
1045.009
1032.983
1045.809
1035.244
1042.558
1040.502
1046.525
1042.122
1046.083
1052.224
1042.911
1054.810
1046.279
1054.794
1042.595
1044.827
1058.059
1050.541
1055.566
1059.414
1049.066
1058.123
1061.730
1056.623
1057.160
1062.709
1055.513
1054.317
1055.527
1058.854
1062.613
1065.639
1060.329
1067.721
1066.811
1060.529
1052.750
1055.448
1058.274
1049.422
1053.521
1058.192
1047.285
1049.347
1044.309
1049.123
1037.739
1049.313
1043.803
1044.352
1036.520
1038.638
1039.465
1031.261
1029.312
1036.140
1022.719
1035.376
1031.178
1028.661
1028.764
1019.659
1026.876
1014.088
1022.746
1021.392
1021.151
1019.523
1005.189
1007.330
1012.556
1005.665
1009.538
1002.140
995.919
994.487
1003.513
1006.310
991.970
1003.311
988.977
993.419
983.658
984.066
984.875
980.982
987.954
986.076
975.239
979.179
975.919
974.805
976.331
980.434
969.378
970.369
962.627
975.468
964.655
960.712
965.508
963.691
966.899
951.796
961.745
963.683
951.492
960.515
945.904
945.944
945.747
943.017
952.620
943.993
944.445
937.405
934.332
936.479
940.329
928.285
936.611
937.207
936.013
926.339
921.120
929.740
931.220
930.134
929.214
918.448
918.144
913.495
912.634
920.250
913.693
912.875
906.072
914.911
912.314
906.732
909.266
900.960
904.896
897.693
894.602
898.433
893.288
895.587
899.777
886.093
892.471
879.448
887.446
890.505
876.918
881.986
877.062
884.517
871.790
874.021
880.193
869.753
872.529
870.519
859.849
868.904
866.442
858.498
863.551
855.909
864.424
856.348
857.013
848.618
848.630
857.303
855.499
855.112
842.680
851.089
850.658
846.341
847.750
844.365
841.797
835.674
836.633
834.837
838.771
833.243
828.509
822.113
827.040
821.572
821.802
825.595
826.508
821.226
815.385
809.267
821.656
811.637
805.032
805.208
805.100
802.833
810.546
796.648
797.188
795.048
798.588
794.132
792.053
794.098
792.100
797.688
785.557
790.113
786.336
789.271
790.296
779.229
776.281
772.208
780.166
778.385
771.507
774.607
775.010
772.041
768.444
772.233
772.877
766.802
760.600
769.003
765.382
766.409
757.966
756.390
764.844
763.302
764.244
762.539
761.105
750.936
760.070
753.598
758.633
749.709
752.721
747.568
743.377
749.632
746.662
740.543
747.844
747.403
741.176
744.679
738.146
742.855
745.985
734.865
739.246
741.281
744.499
741.254
738.776
740.864
741.363
730.796
741.625
729.981
728.762
734.304
740.313
740.505
733.758
733.437
722.589
731.267
728.504
723.215
730.105
730.447
726.521
720.208
721.159
730.405
715.834
723.767
725.454
719.788
725.019
712.705
722.597
714.558
713.658
710.050
710.103
720.834
711.963
709.828
719.908
706.550
714.069
709.603
716.475
710.465
707.541
714.798
713.813
709.238
699.791
698.582
713.288
705.283
705.799
699.464
697.912
700.937
707.327
706.976
702.278
697.214
706.172
692.527
703.185
692.504
700.485
700.362
689.673
689.671
689.754
695.405
687.895
686.617
696.317
697.233
695.692
684.818
690.804
690.432
684.818
689.116
688.657
681.135
676.794
678.938
679.244
673.622
677.866
674.173
681.787
672.474
674.141
684.995
676.004
680.267
667.640
676.768
672.593
668.861
669.490
670.887
663.568
668.398
665.199
676.537
673.918
670.863
662.657
665.932
657.907
669.275
660.506
663.239
658.894
657.862
668.051
663.303
652.454
666.070
656.685
655.625
658.202
662.144
648.833
653.348
655.716
656.751
649.604
649.744
652.213
653.281
657.242
650.261
647.788
648.257
651.209
647.969
644.688
