95.831
101.127
101.599
115.348
123.549
135.121
123.839
100.699
101.484
140.113
106.371
120.868
115.872
119.789
129.675
105.940
138.337
94.896
143.794
138.228
116.095
142.944
127.531
140.142
125.253
109.956
135.771
132.610
110.746
144.033
130.827
143.679
140.347
106.199
140.685
107.831
109.811
95.935
126.181
133.229
114.831
96.977
122.528
122.044
111.169
119.903
143.999
116.307
138.097
126.186
103.565
119.549
140.966
131.120
99.748
102.198
133.875
104.760
113.013
106.707
121.242
146.100
107.279
118.507
128.631
121.318
115.994
95.245
133.839
130.033
118.038
144.519
122.745
111.579
135.820
112.662
100.236
95.078
98.769
107.463
97.011
104.848
98.458
145.992
99.842
130.287
133.839
114.892
130.497
116.380
118.838
101.474
132.631
109.303
143.934
128.426
95.091
140.435
132.908
96.471
136.196
130.497
94.786
131.807
123.793
110.822
104.046
141.257
126.900
134.384
100.017
145.996
134.835
103.101
111.490
136.385
134.631
129.260
111.375
109.027
137.065
142.103
96.466
115.789
114.436
141.647
120.261
128.417
135.135
124.096
143.532
128.111
140.413
114.221
97.191
96.673
132.376
130.592
141.223
128.937
118.744
110.675
145.301
100.190
125.782
120.299
124.433
142.491
139.712
132.125
107.295
125.510
115.683
108.456
138.416
120.805
117.988
99.485
101.402
113.488
124.278
111.684
119.238
100.503
124.366
129.050
142.875
143.934
129.196
136.197
103.455
97.076
102.105
110.012
121.025
136.571
119.509
116.446
129.225
100.736
117.580
133.575
114.406
106.941
141.881
110.196
138.260
140.523
99.909
140.537
136.826
133.787
131.906
109.385
111.371
120.301
127.187
100.376
133.331
127.093
99.591
109.577
97.111
98.860
111.879
101.333
112.307
116.998
131.024
135.769
113.903
102.234
98.197
112.928
145.875
130.847
106.935
94.786
99.086
113.664
144.461
120.551
126.557
129.480
104.283
122.983
126.866
120.283
104.282
112.559
116.310
119.022
137.366
117.377
136.698
133.699
104.690
140.699
101.472
105.469
97.883
114.668
124.906
132.511
110.142
112.860
97.800
146.727
134.992
131.496
139.526
96.844
100.567
95.666
95.940
120.699
141.679
146.673
113.688
137.576
116.339
111.412
106.780
114.595
145.907
103.287
144.728
144.318
126.552
123.227
122.298
129.791
129.791
142.255
94.793
139.834
106.239
142.193
125.603
133.211
102.164
98.236
95.513
105.421
120.989
102.656
101.587
117.525
103.192
128.367
96.919
108.384
95.075
105.018
138.070
145.390
106.069
117.250
97.744
103.788
123.897
124.319
141.679
120.237
145.933
142.522
107.274
107.120
124.600
115.349
112.045
120.854
130.403
122.033
128.350
137.325
145.178
127.183
99.345
127.334
118.097
102.824
141.121
100.415
120.745
104.622
130.663
113.469
111.010
144.830
119.789
106.896
141.227
121.190
121.580
103.182
110.000
117.747
115.659
129.953
118.789
123.582
97.412
142.684
119.494
109.596
121.341
99.533
143.137
116.220
97.963
104.913
133.729
128.180
121.174
131.346
102.294
121.500
132.201
143.782
140.375
106.781
117.792
96.068
99.695
122.459
138.880
138.013
96.236
141.073
126.154
124.370
114.877
105.714
120.862
128.815
95.152
113.837
128.198
143.317
140.786
131.877
144.946
124.358
144.662
104.180
101.110
108.631
128.720
108.356
100.774
139.290
140.536
125.221
122.355
99.887
126.315
134.149
135.196
129.069
122.678
118.016
101.963
130.425
109.116
105.857
96.022
146.604
139.027
127.635
97.464
133.216
127.996
110.399
109.696
139.019
145.485
106.924
124.747
94.787
133.879
109.715
117.458
138.562
106.942
109.522
96.591
112.754
128.609
124.180
114.757
142.710
110.516
99.444
100.652
117.062
112.044
132.786
132.213
127.391
124.721
130.172
123.070
118.735
114.788
127.813
97.528
131.962
112.420
96.735
131.500
95.054
109.893
142.755
104.208
116.774
119.860
106.393
142.888
95.428
96.179
108.721
141.267
107.640
111.601
130.244
106.056
118.965
140.148
115.883
96.623
103.499
124.526
128.211
120.493
145.258
125.513
98.634
104.623
108.476
139.188
104.062
116.698
110.872
102.821
125.697
115.761
137.172
118.641
118.559
127.297
117.906
110.721
105.268
139.244
125.294
105.730
138.477
123.564
119.227
140.446
141.975
109.484
131.896
145.686
107.665
114.486
133.004
142.675
100.162
145.363
95.390
114.283
128.136
145.573
108.387
96.765
134.411
107.800
122.688
124.097
100.584
107.636
127.172
143.232
98.727
114.536
121.230
105.075
141.090
103.129
101.994
99.217
131.546
114.179
130.052
133.300
114.515
121.000
141.255
121.233
117.133
143.575
126.171
130.016
113.655
98.412
144.242
140.444
95.324
111.901
109.048
117.540
131.016
124.985
133.709
99.464
134.823
121.117
107.210
139.747
102.622
122.610
140.712
112.245
110.833
99.657
94.856
98.143
120.352
116.722
110.280
102.839
144.080
115.534
130.273
116.333
103.324
119.740
139.773
116.880
130.781
100.818
120.818
143.508
118.335
116.612
138.286
97.331
102.375
140.424
122.052
104.441
134.623
95.297
132.362
107.169
110.017
128.166
130.698
133.085
124.968
128.594
108.541
127.147
138.572
122.922
145.125
135.619
106.689
136.610
143.531
110.672
141.556
127.638
122.543
97.950
94.891
135.540
139.631
124.377
143.607
119.218
139.255
131.882
125.674
109.783
142.946
143.065
135.485
122.508
127.060
137.000
95.831
105.941
145.625
129.389
112.401
131.217
146.502
138.223
146.647
97.205
127.347
106.285
119.439
106.837
145.972
132.183
128.065
123.605
121.629
143.919
100.264
105.639
138.867
144.219
124.525
118.739
136.240
130.939
143.979
102.529
130.267
130.536
134.743
115.658
141.330
142.370
117.151
135.589
125.248
109.516
119.016
117.954
113.897
103.265
103.161
104.450
129.754
119.612
111.557
124.566
120.440
116.922
137.507
127.061
131.911
127.454
114.566
120.283
126.387
111.616
97.084
142.702
113.233
125.312
116.272
95.943
128.691
137.210
98.474
117.934
98.292
112.807
104.062
95.538
146.170
122.859
129.244
139.193
142.211
133.207
127.352
106.072
126.028
125.416
106.068
138.488
133.264
111.976
142.159
136.994
100.314
96.242
111.190
141.017
139.460
144.602
141.776
134.597
132.531
125.866
134.422
110.194
141.192
114.982
131.060
111.967
115.981
116.739
115.318
115.474
131.570
98.872
116.365
115.279
132.558
128.132
110.776
117.580
132.362
130.619
143.428
142.260
108.235
129.627
126.773
100.565
118.274
104.563
96.222
116.915
106.472
134.166
110.210
136.315
119.129
133.320
116.416
119.204
142.863
139.107
138.979
130.126
111.079
97.751
96.471
101.208
112.424
113.486
119.359
99.324
128.232
143.828
112.247
123.762
111.085
122.423
133.382
99.055
145.399
121.788
135.444
128.649
95.816
111.486
108.439
145.162
128.967
132.204
98.682
106.205
109.545
101.546
96.750
121.737
141.614
121.997
114.718
137.159
109.569
118.403
135.028
134.141
138.460
126.413
101.908
112.953
118.878
112.543
117.727
111.665
106.764
142.374
104.139
108.197
141.380
146.293
96.434
134.400
116.417
121.966
130.602
119.176
97.581
141.403
145.152
130.535
105.904
120.885
108.493
143.137
98.010
138.623
96.203
96.210
105.959
133.309
115.197
117.307
95.693
117.586
145.102
131.065
114.646
113.005
120.222
143.125
103.698
126.320
104.004
128.077
141.863
104.245
105.008
136.866
111.377
122.231
122.176
124.245
128.892
140.717
115.738
112.089
99.796
116.728
97.225
139.785
123.503
134.823
125.792
135.438
126.295
133.988
128.471
135.295
125.289
139.258
124.685
107.714
130.542
130.210
114.851
130.786
119.138
97.330
146.158
116.596
97.720
114.583
113.911
97.145
124.399
107.244
94.886
137.923
94.988
124.829
113.429
121.024
136.148
134.784
124.334
135.829
116.423
102.419
143.490
133.287
106.232
126.889
138.709
123.001
140.495
137.760
120.678
95.786
137.829
143.652
118.656
130.261
118.145
128.023
130.732
135.935
144.468
141.915
103.054
108.785
107.571
134.663
123.654
127.013
101.634
116.518
106.729
127.570
146.185
124.734
110.347
101.544
140.643
109.051
134.169
134.161
128.168
104.101
110.220
107.174
125.014
131.264
120.777
116.078
132.985
120.761
100.303
120.663
96.194
143.526
129.831
133.433
128.993
116.667
98.064
114.083
128.987
143.519
135.052
112.306
142.095
115.431
112.607
140.144
137.088
130.727
120.744
98.040
130.020
122.618
134.122
101.711
107.470
132.023
97.514
101.804
136.479
142.408
108.656
101.788
105.916
129.560
132.310
137.848
116.579
132.973
142.508
117.932
103.757
131.492
102.778
127.977
143.692
115.855
95.431
119.067
104.759
99.090
139.030
119.222
132.126
97.100
104.977
109.007
126.937
142.966
121.274
111.999
134.829
140.846
114.767
117.534
97.901
105.860
136.125
137.184
121.987
99.962
118.191
144.413
138.526
126.681
123.339
126.712
140.954
132.598
130.903
122.442
142.324
100.979
135.253
96.503
108.656
134.620
104.056
113.528
114.313
104.288
103.484
96.936
139.296
142.564
138.785
120.343
120.885
134.310
106.655
140.718
122.200
141.148
142.089
122.705
101.193
129.545
110.728
129.608
140.508
127.715
128.099
142.358
120.438
108.278
106.276
125.108
99.799
116.566
131.817
108.325
114.733
103.990
130.579
137.429
124.420
117.397
116.502
123.108
101.293
97.829
126.856
98.863
104.721
129.129
95.345
124.835
106.746
115.333
101.443
145.392
143.874
111.176
122.890
121.539
109.944
118.126
137.474
120.307
117.899
117.644
138.065
140.672
111.703
145.226
95.105
118.953
137.773
131.688
128.800
126.121
105.737
99.558
144.372
106.932
127.081
106.635
114.891
135.882
125.292
102.756
110.235
117.604
121.175
113.324
129.845
130.878
99.601
113.326
115.176
122.384
139.419
115.773
111.999
141.173
131.530
107.708
97.245
97.425
127.611
96.000
114.184
103.928
126.203
130.369
130.745
130.299
140.280
144.969
111.436
107.548
109.830
106.419
102.374
136.498
108.884
137.940
126.004
113.249
142.280
114.138
107.418
125.989
114.627
113.971
105.003
105.806
114.322
136.303
133.099
144.685
109.841
142.520
135.012
98.603
114.507
113.383
135.060
97.048
97.211
116.770
101.589
96.405
127.992
119.671
124.322
129.064
42.219
31.603
36.937
31.617
37.367
36.540
34.118
42.438
42.452
31.261
44.885
43.755
30.478
30.266
29.667
34.529
35.826
29.351
29.284
43.285
34.285
29.660
32.625
31.113
40.116
36.531
34.535
41.812
45.118
30.179
32.793
38.848
33.722
44.757
38.460
36.424
36.965
31.506
37.942
37.807
30.009
39.584
33.105
34.476
957.131
941.266
937.385
950.172
941.047
953.465
960.405
949.253
948.452
963.358
963.619
972.103
958.779
961.241
949.571
960.010
951.653
970.028
951.659
954.140
971.298
978.761
964.753
964.393
969.189
974.610
957.879
969.970
970.400
973.275
983.970
969.430
985.108
959.166
985.829
968.325
968.920
974.467
982.305
977.055
990.144
981.710
970.328
975.956
976.550
969.426
995.066
968.978
993.389
981.746
979.256
981.619
977.679
994.089
974.188
1001.773
996.901
983.240
1004.877
983.033
1002.483
1003.366
983.585
991.047
995.606
992.910
985.097
1010.079
983.848
992.842
985.056
990.858
994.168
1007.098
1005.554
996.175
994.066
1001.620
1009.847
1003.239
1000.526
1021.027
1019.744
1008.404
995.254
996.488
1004.407
1006.256
1000.493
1006.841
1001.601
1006.067
1002.852
1017.417
1009.840
1027.533
1014.964
1028.559
1019.215
1017.128
571.869
567.424
570.030
572.623
564.987
571.275
573.553
571.596
565.578
565.109
571.684
573.394
565.252
575.658
573.818
570.007
567.045
574.609
572.745
578.645
572.866
579.287
575.124
581.114
580.859
574.491
583.645
580.618
579.609
575.316
577.452
584.947
583.067
572.338
572.699
574.805
578.543
581.639
578.663
574.448
578.815
581.509
577.954
589.873
592.160
588.626
581.539
587.282
586.588
593.884
580.857
579.515
592.807
581.210
584.599
594.253
582.570
583.721
594.608
583.335
590.194
589.681
593.866
599.111
597.782
598.472
590.935
591.853
595.286
587.216
588.783
595.271
600.801
594.185
602.085
598.577
600.619
595.087
592.330
590.298
601.292
597.612
597.328
602.555
601.658
595.659
600.594
600.868
608.717
600.734
597.588
595.945
599.245
599.448
605.276
611.155
600.398
597.574
612.394
600.997
608.930
612.274
600.438
608.764
614.291
610.059
608.086
616.917
616.598
618.981
611.381
612.985
608.054
616.394
612.222
614.798
615.904
620.239
617.311
613.816
627.122
624.447
626.141
620.340
621.238
618.949
631.807
625.252
622.695
624.967
628.040
631.918
627.798
638.731
625.795
639.095
634.214
628.372
641.775
631.956
634.745
641.621
642.943
641.602
648.627
644.129
645.465
639.102
637.543
644.501
640.956
642.321
649.678
656.626
649.911
647.403
656.658
647.291
646.805
658.431
656.911
649.278
664.229
655.425
660.871
666.619
660.044
655.462
664.725
668.490
660.879
660.059
664.605
667.642
658.225
665.168
661.889
674.479
675.096
671.317
673.848
674.829
670.083
679.925
681.904
674.887
683.107
673.341
682.737
673.362
674.370
678.039
680.394
681.550
686.297
685.271
685.309
683.520
681.895
679.021
683.549
689.806
696.182
693.852
685.150
688.981
691.528
694.902
689.573
693.789
690.528
700.415
688.940
693.984
697.862
706.110
701.284
706.595
695.767
696.212
711.178
700.438
698.505
701.449
714.406
713.768
709.936
710.246
703.514
718.702
704.506
714.492
715.907
709.293
712.432
719.878
711.136
714.671
722.851
724.611
717.862
727.984
722.923
729.586
725.016
731.043
719.622
730.188
718.936
728.251
720.233
725.910
732.821
736.479
724.509
735.462
726.992
738.022
732.255
735.671
741.387
739.483
733.805
746.038
743.921
747.136
737.210
738.045
741.480
747.640
749.600
741.989
746.664
745.770
739.641
750.414
746.690
746.873
755.551
752.984
746.473
757.731
752.373
759.251
761.808
749.594
751.256
757.945
753.864
758.975
767.007
754.120
757.659
766.496
770.478
758.026
763.062
761.793
767.052
768.724
762.604
775.887
774.946
764.018
762.390
767.263
772.083
774.210
761.636
773.846
760.632
764.669
775.083
772.012
765.758
770.593
768.241
773.539
764.128
773.183
775.564
772.274
768.268
776.278
770.214
774.788
772.779
763.752
775.653
764.660
761.704
772.517
766.170
769.834
771.920
767.306
770.652
768.299
767.461
776.432
765.355
772.041
774.874
772.250
762.234
769.340
770.658
764.397
766.303
775.666
770.699
776.755
766.245
775.508
763.007
768.371
771.867
772.206
765.120
764.256
771.037
772.415
766.652
767.833
771.641
775.061
762.464
772.727
768.438
765.818
774.479
764.059
761.393
768.067
772.628
763.866
765.892
774.350
777.080
773.593
766.701
772.455
761.468
772.089
772.040
770.655
770.663
763.659
765.113
763.890
764.384
764.051
765.897
763.112
766.066
768.750
764.822
764.356
763.286
767.038
763.269
765.412
773.283
764.970
761.979
763.280
772.392
766.543
771.303
764.314
770.821
772.655
764.708
776.055
771.598
765.616
775.356
776.903
774.304
769.581
771.382
773.687
776.046
767.170
767.165
761.971
770.509
762.739
776.729
768.356
770.670
765.569
775.301
774.213
768.671
768.191
776.173
766.750
771.518
770.205
773.841
777.262
764.875
766.656
776.621
764.689
770.112
764.456
769.962
768.565
774.229
764.874
763.468
765.565
770.617
764.336
766.462
765.747
764.451
771.733
765.770
776.149
775.632
768.949
775.508
765.804
769.574
767.567
769.112
772.190
767.571
775.621
763.735
765.456
768.966
772.883
771.917
766.634
776.957
769.994
776.504
764.088
766.389
775.121
768.070
765.986
763.413
769.977
770.501
767.896
772.122
775.395
766.010
768.812
772.413
770.307
764.676
762.331
774.134
764.679
773.720
762.907
766.638
777.602
775.626
767.351
771.418
769.550
773.102
783.272
777.550
775.089
774.431
780.421
785.956
776.572
787.579
784.453
775.405
779.924
775.130
787.628
785.017
789.101
786.280
778.543
789.752
791.709
792.792
781.799
792.737
785.737
793.116
788.574
793.935
785.031
796.704
794.650
792.571
786.382
798.731
801.483
794.946
794.483
788.602
801.271
789.519
800.913
804.986
799.168
804.689
808.043
804.098
807.828
801.647
800.941
796.560
806.100
798.874
804.878
802.277
805.420
809.051
814.179
807.734
810.319
802.863
809.093
808.424
806.640
808.143
818.789
806.003
815.354
814.577
820.887
807.954
809.560
812.487
809.983
821.200
820.759
817.566
823.577
812.005
820.580
818.871
825.104
814.555
819.801
830.423
822.953
822.607
824.350
825.082
826.378
831.766
825.265
823.128
820.759
824.045
831.539
831.013
832.532
827.038
833.014
827.449
834.366
837.672
836.309
826.851
831.212
835.487
843.933
844.898
840.761
844.619
845.544
843.445
844.423
847.406
841.712
840.470
841.217
844.143
851.384
842.980
846.206
838.840
850.625
850.211
850.633
851.508
852.776
842.682
843.883
846.390
846.004
845.321
844.303
853.319
846.235
850.808
853.488
849.217
857.623
858.718
862.952
855.394
860.279
852.345
864.692
865.549
