141.238
121.822
146.317
101.565
137.366
100.457
134.566
136.729
131.199
136.086
96.012
127.525
95.721
139.192
116.416
123.479
117.250
116.874
116.323
130.410
133.464
107.549
96.951
146.029
117.906
127.476
114.385
100.387
144.058
141.183
116.139
133.776
124.408
101.536
113.382
108.617
116.281
112.616
106.328
117.037
138.030
129.802
109.812
100.132
115.309
125.044
123.383
118.937
109.112
125.393
110.191
113.817
106.623
102.248
121.987
114.096
118.824
118.685
138.870
123.310
134.634
108.926
113.533
137.743
107.801
132.457
106.434
128.797
132.041
98.817
139.920
101.888
130.228
137.784
145.145
112.512
124.040
95.112
117.376
108.060
126.675
130.146
141.388
123.976
101.136
138.056
131.417
111.585
114.036
113.193
116.776
124.638
123.741
109.215
127.838
98.775
140.485
133.981
122.844
145.774
120.917
141.520
103.532
141.739
115.139
135.326
143.431
106.055
137.954
97.675
100.806
100.428
136.847
125.086
111.793
129.179
135.357
111.323
125.112
109.271
124.147
126.950
118.012
114.093
97.464
109.094
125.207
97.429
102.692
117.183
122.250
136.092
145.592
107.915
104.541
136.774
125.081
112.694
104.292
141.651
94.986
141.080
143.310
104.663
98.122
138.991
124.225
125.300
135.648
126.550
145.616
112.660
136.163
95.992
137.833
128.359
126.293
105.700
137.863
120.117
124.909
138.571
107.792
101.947
96.001
118.466
114.033
138.046
131.828
94.831
144.987
113.812
108.832
132.365
111.052
101.033
131.615
127.279
144.166
120.409
131.383
105.822
113.933
97.975
113.862
126.184
113.969
122.354
108.501
124.521
103.016
100.921
123.455
139.934
110.646
122.538
114.318
129.171
120.004
138.668
131.523
121.038
114.809
136.911
117.423
119.277
111.505
146.755
145.858
101.854
96.458
96.571
144.085
129.484
102.281
119.476
99.212
106.485
123.704
132.679
118.728
125.956
97.287
96.781
127.865
129.336
103.472
106.461
137.081
121.608
104.934
129.884
127.991
130.529
128.575
103.588
133.269
136.016
136.982
102.113
115.090
136.112
118.639
138.591
145.253
95.730
134.381
119.910
112.365
135.447
132.262
123.447
136.609
109.214
98.949
145.017
117.291
115.132
117.825
134.205
139.232
111.179
112.656
145.286
139.405
129.668
137.575
127.057
107.210
127.382
145.313
105.221
125.443
122.574
107.638
123.377
117.102
146.548
141.230
128.417
108.404
130.977
95.119
116.170
116.817
104.706
128.172
146.600
127.559
122.023
101.690
142.824
98.092
131.692
120.761
132.522
145.145
108.390
108.124
130.735
103.939
135.561
142.916
99.021
130.252
133.953
131.874
108.393
115.389
139.232
114.023
142.013
141.920
125.383
103.812
142.957
128.500
121.353
118.098
128.660
146.516
130.895
114.608
105.845
144.070
99.562
111.934
110.565
129.520
132.177
118.046
131.578
112.483
111.790
116.401
137.017
134.129
120.754
133.976
121.733
98.836
140.225
119.865
131.477
133.801
95.578
116.894
117.321
142.116
118.635
123.896
97.422
105.936
143.863
139.833
99.317
111.640
118.667
123.328
143.121
128.424
137.518
106.873
133.332
144.833
104.374
102.611
109.930
145.518
141.757
141.096
96.718
144.519
97.751
104.327
125.733
107.001
100.313
109.592
128.391
122.402
144.770
95.904
142.094
141.538
99.607
129.295
100.741
100.700
101.240
113.966
118.574
102.301
96.842
134.603
140.861
138.565
131.528
121.782
130.571
111.243
124.817
114.015
134.799
111.121
117.379
121.327
135.358
97.401
127.907
122.635
119.221
124.367
137.760
100.529
104.310
128.232
111.449
138.043
108.757
119.102
143.834
100.420
116.922
145.777
120.721
142.697
140.538
119.722
134.571
120.489
134.082
103.883
104.331
119.353
129.853
141.034
129.392
115.594
142.568
95.072
133.155
141.867
117.496
131.954
99.605
129.845
113.970
134.451
94.837
116.257
134.715
104.555
106.750
103.697
133.239
130.569
103.431
131.362
137.385
98.752
138.793
127.548
103.401
128.659
116.088
98.174
136.291
104.627
130.783
95.167
117.394
111.710
97.413
136.610
138.056
95.857
119.615
124.761
118.060
100.103
127.301
136.544
94.825
118.061
114.641
115.774
117.106
108.240
98.118
104.899
107.640
97.676
141.731
133.169
100.768
124.767
112.850
139.935
141.486
99.479
138.366
117.067
101.697
111.786
94.833
137.391
119.271
127.720
113.981
132.725
113.645
139.369
125.863
115.838
123.633
129.902
121.312
119.817
101.118
122.942
111.743
136.730
141.505
120.774
125.368
118.802
98.149
38.657
29.940
33.606
41.503
40.596
41.593
40.659
32.457
39.067
39.914
30.331
35.063
39.158
40.080
43.152
33.893
45.132
30.260
35.049
29.943
35.749
32.746
43.084
33.030
34.600
38.561
34.643
44.805
42.392
32.428
38.361
44.947
36.514
36.841
40.444
41.289
41.964
40.570
30.912
37.768
34.665
31.221
32.386
35.891
1212.096
1224.849
1222.159
1223.533
1230.003
1230.548
1222.849
1242.630
1253.915
1237.499
1260.266
1252.457
1274.904
1274.577
1280.513
1263.315
1263.820
1275.674
1299.742
1287.438
1295.924
1300.471
1293.707
1307.672
1304.265
1315.394
1325.117
1337.950
1322.803
1343.853
1350.530
1327.943
1342.069
1347.245
1359.642
1355.766
1375.078
1362.504
1362.543
1369.245
1369.843
1389.864
1385.847
1381.628
1405.434
1407.841
1400.185
1418.789
1417.429
1413.817
1426.730
1433.010
1417.057
1426.248
1424.465
1444.880
1442.534
1446.960
1451.370
1471.408
1465.465
1478.238
1464.464
1467.732
1483.133
1479.995
1501.978
1478.033
1509.148
1511.407
1505.778
1504.663
1504.104
1506.568
1532.161
1521.206
1529.991
1523.211
1538.243
1535.769
1557.309
1540.784
1565.374
1564.684
1549.616
1557.420
1574.592
1575.573
1577.931
1571.397
1600.687
1590.089
1608.136
1610.763
1594.775
1605.197
1610.337
1627.496
1609.766
1634.314
910.907
912.092
915.063
920.926
914.160
922.658
913.541
925.819
917.091
927.178
923.204
927.729
933.025
941.027
937.549
946.595
935.814
944.296
942.974
946.841
947.025
962.359
952.970
956.745
959.651
967.050
963.424
967.083
978.372
973.658
981.663
975.128
986.291
988.485
982.524
985.080
990.391
987.447
990.481
998.808
997.903
997.418
997.618
1004.557
1001.328
1015.202
1020.313
1010.091
1011.671
1028.200
1027.210
1030.954
1034.173
1025.994
1024.831
1032.491
1037.276
1033.152
1042.995
1036.551
1046.431
1047.426
1050.471
1057.501
1050.114
1058.953
1065.636
1068.377
1069.016
1069.778
1075.186
1079.438
1078.263
1072.514
1071.286
1087.789
1082.894
1078.733
1088.353
1090.788
1100.002
1094.116
1105.484
1092.378
1100.710
1102.505
1105.283
1112.512
1108.930
1112.235
1122.060
1118.966
1124.847
1117.486
1119.604
1134.340
1128.871
1139.406
1143.009
1142.021
1138.299
1132.472
1132.042
1141.105
1137.033
1135.521
1131.430
1133.545
1139.153
1131.845
1130.812
1136.158
1140.103
1135.160
1130.743
1139.592
1128.771
1133.604
1131.553
1135.417
1135.130
1136.010
1125.958
1127.266
1138.813
1133.669
1126.229
1126.168
1124.237
1133.103
1126.895
1129.596
1125.694
1123.614
1125.393
1132.977
1122.606
1129.607
1126.470
1134.694
1130.521
1127.782
1124.791
1133.019
1121.844
1120.741
1131.259
1118.229
1126.887
1115.899
1129.261
1118.026
1121.354
1117.907
1116.016
1125.891
1129.012
1120.936
1125.244
1124.572
1115.428
1124.257
1123.431
1121.818
1120.614
1111.204
1111.122
1111.639
1124.303
1112.130
1117.267
1123.444
1115.469
1111.068
1115.743
1121.410
1119.129
1119.741
1112.044
1117.664
1107.428
1106.328
1105.173
1119.862
1107.598
1107.130
1116.716
1118.576
1109.829
1107.965
1102.890
1114.861
1105.338
1103.144
1115.703
1114.798
1109.703
1100.113
1101.875
1102.082
1114.023
1105.151
1098.137
1101.826
1104.858
1102.169
1101.275
1099.922
1111.866
1107.076
1110.045
1096.863
1102.738
1100.428
1102.662
1096.012
1093.660
1098.779
1099.907
1105.502
1106.918
1100.147
1091.465
1105.484
1097.923
1103.086
1102.168
1091.470
1105.002
1092.967
1094.552
1094.571
1099.888
1094.112
1099.439
1102.500
1092.142
1093.347
1094.023
1094.376
1093.548
1098.389
1099.551
1096.204
1085.206
1090.202
1083.652
1090.775
1092.164
1093.608
1089.783
1094.483
1092.781
1096.509
1090.139
1083.367
1093.163
1086.175
1085.985
1086.470
1087.074
1093.638
1093.282
1079.182
1079.412
1083.880
1089.901
1077.555
1083.796
1087.738
1078.342
1082.970
1083.426
1085.045
1079.335
1084.836
1083.087
1077.265
1086.521
1077.914
1075.284
1078.898
1085.217
1072.950
1073.923
1080.831
1077.047
1082.615
1082.284
1071.315
1073.468
1075.689
1069.318
1080.515
1079.352
1081.652
1073.533
1074.178
1072.691
1071.332
1079.095
1071.256
1076.079
1071.568
1065.674
1069.640
1061.677
1058.556
1051.610
1057.379
1055.790
1055.533
1041.893
1041.897
1036.451
1043.116
1029.655
1028.374
1025.636
1022.776
1029.646
1029.243
1017.166
1020.507
1024.069
1008.665
1020.936
1011.514
1013.340
1013.225
1001.740
995.701
1005.533
995.990
999.653
987.651
991.925
994.047
988.597
980.066
986.783
973.242
977.272
969.392
970.317
975.738
962.658
969.364
957.586
966.181
964.384
958.944
960.374
958.953
947.788
951.075
938.506
944.287
945.540
933.086
937.119
934.738
932.367
926.614
925.600
917.296
927.340
927.019
915.583
919.027
910.681
918.096
913.266
902.096
906.300
899.835
893.036
897.350
891.524
893.006
889.724
890.634
886.956
875.395
885.969
879.896
873.684
867.181
876.423
861.658
866.992
860.770
866.519
865.702
857.787
849.094
855.869
852.523
840.634
842.214
851.533
838.350
845.120
843.459
837.342
825.225
826.084
826.351
824.183
824.476
827.332
822.507
819.498
807.421
818.018
812.826
810.906
809.198
808.724
795.288
803.830
800.455
800.162
798.391
783.424
781.741
791.669
786.820
781.485
772.283
766.773
779.456
770.381
765.210
766.292
769.912
763.510
756.159
761.917
748.632
747.949
752.427
752.428
738.629
735.595
744.686
741.757
731.926
735.665
730.569
723.398
726.016
728.795
719.251
718.104
717.288
714.549
709.048
711.022
704.661
698.981
699.044
702.984
698.824
692.988
697.632
697.975
689.211
687.285
690.907
676.019
685.856
680.740
679.686
673.921
667.413
675.573
662.251
664.936
654.194
661.223
662.958
656.271
649.357
657.652
652.348
650.870
637.377
637.710
645.108
629.571
641.084
637.833
626.587
623.200
623.941
621.216
617.079
624.920
620.367
616.007
622.181
610.361
622.384
612.158
616.441
614.159
615.795
616.391
620.508
625.575
619.603
633.620
620.771
626.971
634.571
628.337
637.973
635.083
625.856
637.841
639.408
635.464
640.932
639.043
637.035
633.096
644.283
635.476
640.804
639.770
654.028
655.168
641.733
646.203
653.523
649.833
659.773
652.227
662.589
649.097
661.100
665.544
660.293
654.852
663.746
660.390
667.222
664.659
663.318
666.803
661.697
661.793
671.050
667.985
677.576
675.653
665.853
673.574
675.120
679.774
678.466
686.666
682.196
681.653
686.852
680.887
680.240
691.099
678.844
693.095
684.875
691.738
696.765
686.052
690.964
688.343
699.369
696.558
694.434
694.437
697.142
700.589
693.387
697.499
699.146
697.627
712.530
709.540
714.310
706.636
715.179
709.343
711.886
708.950
711.385
717.485
707.782
722.589
716.122
725.283
725.069
712.741
722.718
725.656
723.094
720.414
733.309
728.712
726.071
732.460
722.029
736.101
738.190
730.836
737.213
735.688
728.408
737.947
735.563
741.228
742.973
746.280
740.389
742.972
746.092
742.361
741.832
747.697
743.250
756.381
750.185
758.548
760.763
746.076
758.197
763.903
757.677
756.368
759.447
761.513
759.943
762.369
760.291
764.951
762.693
772.480
772.113
775.920
763.904
775.432
769.651
769.021
774.405
773.682
771.579
779.559
783.136
778.089
784.081
778.715
778.568
781.858
791.701
791.069
785.946
788.986
789.753
791.651
793.176
788.675
799.447
790.407
800.073
793.046
790.343
792.350
800.051
799.255
803.604
807.715
801.443
811.156
797.883
811.856
807.303
813.063
809.973
806.133
804.103
812.742
810.466
813.664
809.150
815.459
816.841
817.846
822.003
822.038
828.902
819.546
819.669
826.445
818.645
832.463
827.934
819.711
831.674
832.187
834.574
827.280
827.101
829.417
838.132
827.798
826.283
827.730
837.035
833.898
832.517
842.560
841.231
845.047
837.719
838.761
834.837
839.746
844.838
835.105
842.078
844.120
841.606
839.560
852.042
839.984
840.162
846.138
844.041
848.946
839.991
845.645
849.416
847.206
857.652
844.644
851.041
853.539
859.279
847.670
856.886
852.898
859.152
853.459
853.129
850.916
855.800
859.274
856.223
867.433
858.720
861.786
864.218
864.142
863.441
859.043
864.905
860.733
861.934
859.306
869.801
869.354
866.121
869.491
874.146
873.597
872.607
870.695
874.681
874.072
874.942
873.434
872.720
878.475
868.185
872.041
881.230
884.899
885.230
882.719
876.238
875.516
883.246
881.841
877.823
884.840
886.517
877.958
886.032
881.657
888.844
882.576
895.082
884.844
892.806
895.291
885.196
888.349
888.389
897.328
889.180
889.956
889.331
901.238
902.027
895.652
891.862
891.585
893.353
896.312
900.817
904.063
906.524
907.776
894.421
903.557
907.397
910.846
903.323
911.310
909.270
908.304
900.115
908.674
901.399
906.305
910.300
903.479
913.901
916.498
909.789
908.102
918.104
918.223
919.795
917.050
918.077
914.014
911.815
911.698
912.772
918.912
925.464
919.597
917.643
913.700
918.613
915.486
916.647
915.835
921.139
923.309
921.569
930.945
924.474
927.168
927.888
930.308
924.486
922.620
924.854
934.426
927.284
932.198
933.829
932.828
936.874
929.806
938.966
931.926
931.826
931.905
944.862
931.443
940.354
944.162
946.640
942.264
945.490
939.899
940.434
938.578
943.099
948.033
949.749
951.293
940.958
947.928
942.891
954.989
950.017
955.792
943.141
943.604
954.486
953.023
938.944
947.834
947.972
938.107
936.998
943.541
944.059
939.497
942.057
945.337
934.570
935.288
931.772
942.607
930.872
930.734
939.317
940.394
938.303
927.425
930.888
925.886
925.222
924.858
934.528
923.007
934.613
920.609
925.967
921.283
921.635
932.506
917.052
922.268
918.644
920.410
915.056
919.320
922.632
921.737
925.683
915.058
921.040
924.811
915.660
918.354
907.340
918.348
915.758
918.559
914.087
913.567
912.093
906.816
905.295
901.136
908.568
900.419
910.548
904.267
899.262
911.562
907.092
897.200
896.240
908.185
900.545
901.530
896.268
906.592
893.891
904.757
898.499
903.480
893.366
897.949
901.427
897.579
888.475
892.235
895.841
892.551
882.683
882.716
887.678
884.734
892.336
882.307
885.461
881.386
884.170
886.253
887.937
883.399
881.938
881.176
883.451
874.326
874.005
879.586
879.525
880.729
874.388
882.046
866.861
869.720
866.179
879.608
870.401
874.953
874.105
865.597
867.698
863.043
862.888
873.273
863.786
864.476
870.367
867.084
856.261
860.405
856.604
855.104
860.228
861.693
851.906
853.455
857.656
853.544
861.442
857.054
847.704
859.565
846.018
860.724
859.905
858.111
849.288
850.296
849.350
847.879
840.506
852.186
850.741
849.796
839.707
847.532
837.953
841.140
841.978
842.548
833.460
832.947
847.197
845.544
843.297
834.427
841.988
832.668
832.460
840.968
839.448
837.692
839.579
832.152
834.492
829.410
825.918
828.827
822.530
833.107
832.339
825.491
830.855
823.551
826.113
823.143
817.483
817.280
829.331
813.997
819.467
824.985
826.944
824.181
817.872
814.613
812.412
819.041
818.562
816.811
817.634
805.607
814.628
811.152
806.000
808.829
813.055
815.848
811.473
820.897
827.747
818.955
830.141
828.732
823.122
834.840
834.047
834.773
835.093
836.177
844.936
837.899
839.059
845.361
841.848
852.697
841.479
844.525
853.928
845.357
856.048
852.736
854.076
859.323
857.210
862.214
856.834
866.479
864.236
863.966
863.852
872.709
874.858
868.190
875.684
869.791
874.865
877.864
883.759
881.587
879.263
882.421
892.399
883.305
885.153
886.193
887.088
894.811
889.874
891.125
905.044
897.545
910.510
909.942
902.939
911.287
905.694
905.977
913.132
919.694
914.232
916.596
920.215
918.884
926.905
923.556
931.937
929.908
931.697
926.348
931.278
938.541
930.207
938.905
931.534
934.119
942.165
943.666
942.392
951.313
948.475
955.617
943.222
955.719
958.672
951.154
954.880
954.902
951.520
967.299
959.665
962.518
971.375
974.537
968.621
965.090
970.829
972.820
970.361
977.739
979.265
983.663
988.417
978.113
982.644
987.470
993.460
990.594
996.615
999.149
996.163
995.834
992.554
996.892
995.331
994.711
1009.425
1007.732
1001.796
1002.283
1015.956
1016.804
1012.527
1011.919
1015.973
1018.846
1017.152
1015.775
1018.043
1022.777
1029.340
1020.040
1026.074
1030.707
1027.038
1025.305
1040.259
1029.648
1040.282
1031.741
1032.227
1042.923
1045.570
1037.292
1039.736
1044.942
1047.569
1047.614
1049.871
1059.823
1049.882
1063.063
1061.959
1059.640
1061.362
1070.212
1065.287
1065.934
1073.060
1075.002
1077.484
1078.838
1068.414
1078.608
1080.366
1071.218
1081.477
1078.984
1082.400
1088.223
1084.802
1094.670
1093.302
1090.770
1090.381
1094.397
1092.131
1096.868
1092.441
1093.782
1107.010
1098.630
1107.776
1113.766
1105.226
1117.663
1106.699
1115.737
1112.136
1118.295
1115.588
1120.529
1115.070
1122.348
1116.098
1119.242
1120.609
1111.863
1125.737
1119.256
1113.615
1118.790
1124.755
1123.938
1117.185
1119.227
1117.581
1121.439
1106.965
1119.814
1118.642
1104.266
1111.938
1109.068
1106.453
1104.084
1106.621
1105.665
1099.980
1101.597
1111.915
