115.393
114.358
142.375
139.857
142.460
134.896
125.854
126.596
122.974
124.450
139.090
145.804
117.871
103.988
138.792
140.790
109.958
113.156
111.396
106.613
113.352
127.705
97.037
131.542
112.149
97.515
137.661
118.209
142.905
136.394
140.969
96.119
113.114
122.020
102.590
142.611
103.222
95.279
128.627
129.727
114.711
138.826
110.851
135.372
110.507
144.017
145.380
105.683
131.618
141.356
111.035
112.950
136.247
135.603
100.215
138.570
115.868
144.985
116.934
134.705
107.490
145.531
113.731
131.796
139.293
132.282
129.242
142.078
119.670
145.809
108.360
101.338
121.309
121.683
99.834
107.958
132.080
99.112
116.200
113.283
136.585
139.585
111.463
141.028
111.813
111.136
106.328
135.972
96.302
101.337
106.436
113.056
100.810
103.798
114.664
96.519
128.303
95.479
102.513
97.366
96.439
145.165
118.415
100.460
138.483
109.407
96.585
109.824
135.059
144.339
135.112
100.202
112.336
122.800
143.868
135.140
95.815
139.732
108.917
133.587
130.697
100.470
135.485
96.418
115.228
120.494
120.350
118.454
108.251
140.472
129.759
102.645
129.775
124.582
111.102
127.784
110.947
104.032
108.074
104.255
103.262
101.735
108.359
99.790
144.404
125.739
128.977
128.247
143.325
146.206
105.545
101.468
127.162
112.884
104.591
141.430
138.475
103.139
99.917
116.500
145.840
115.173
123.523
146.641
145.543
96.576
119.656
95.053
118.618
139.628
142.268
128.881
95.724
120.501
143.825
107.425
124.100
143.830
143.304
108.135
107.237
130.620
144.269
137.967
97.249
109.608
140.117
114.633
106.179
112.496
96.100
139.329
100.058
133.675
120.949
143.453
122.758
99.447
110.458
97.383
118.895
140.361
99.116
100.712
146.248
119.779
111.466
96.349
127.800
127.639
137.819
145.415
117.581
99.871
97.405
98.947
96.075
95.980
142.916
116.344
136.327
133.714
138.421
136.714
140.773
142.336
109.571
124.571
128.329
122.653
94.885
118.181
123.769
121.373
122.098
94.902
106.856
96.063
104.996
108.356
102.770
129.509
114.104
124.655
108.636
135.224
131.771
117.217
114.111
146.040
114.896
102.482
120.849
125.324
96.811
143.247
145.328
127.039
94.792
98.163
126.722
125.073
143.543
132.093
136.304
115.559
134.286
130.594
134.899
127.940
110.419
112.220
134.789
95.904
137.794
98.534
123.020
113.836
134.575
128.481
119.238
112.795
96.049
139.032
99.077
128.336
113.444
96.416
117.642
132.230
98.278
102.203
117.828
109.761
95.204
111.402
130.839
119.513
102.509
139.846
125.207
111.609
109.518
97.066
131.139
105.145
130.456
98.234
120.603
137.634
97.607
130.610
116.374
119.895
145.915
103.958
97.693
139.582
125.792
95.807
97.399
103.341
137.944
141.259
119.596
124.608
143.080
103.243
112.759
110.831
99.940
140.469
135.241
109.594
100.227
114.785
137.701
96.214
99.225
132.606
140.037
135.051
94.947
104.737
103.209
122.397
131.906
142.393
112.755
140.540
138.953
111.320
109.833
144.840
139.184
123.812
132.957
130.649
103.379
112.400
135.704
109.980
136.315
125.561
144.890
131.869
126.292
122.543
99.163
120.742
145.311
108.382
128.619
98.538
97.025
121.299
108.438
135.498
125.286
104.890
118.020
95.365
119.258
128.881
135.663
102.594
139.495
114.775
114.261
138.431
138.850
96.791
116.567
116.804
141.847
140.893
132.746
106.351
120.571
130.067
100.355
137.830
135.849
103.605
134.637
128.724
123.283
136.634
96.825
97.019
141.220
130.548
110.933
131.768
132.637
144.175
105.327
129.302
111.577
145.860
135.146
97.217
138.672
145.348
138.393
122.130
105.988
134.960
115.373
136.528
119.111
136.543
102.876
106.492
130.688
103.885
122.443
126.484
116.420
98.697
139.404
141.583
133.571
96.780
98.745
115.881
102.662
113.615
119.592
146.003
145.103
104.589
108.239
144.544
108.868
112.928
114.110
96.603
122.968
124.301
96.037
129.433
133.879
143.345
138.403
114.223
137.687
128.194
132.580
135.928
131.739
98.397
128.647
120.427
111.549
115.478
111.281
98.230
113.807
124.742
139.746
117.956
96.884
140.336
110.179
140.118
119.746
99.357
142.663
130.885
114.795
115.148
95.095
137.817
142.358
126.742
95.610
117.217
116.885
102.724
140.859
115.310
129.128
101.615
120.103
111.757
134.952
144.121
108.335
104.332
121.289
128.356
111.824
100.707
123.314
108.488
110.040
142.551
97.256
133.523
132.709
143.450
129.259
136.385
139.436
129.011
122.440
124.870
101.900
144.384
111.737
105.421
105.520
125.631
130.699
101.446
138.495
124.713
129.179
135.294
110.037
105.356
97.154
110.144
132.682
118.846
114.729
125.329
141.178
109.487
121.661
107.998
103.128
124.638
145.745
109.424
113.978
126.869
118.249
111.179
142.146
116.864
116.013
99.929
97.270
142.558
145.368
133.076
106.392
144.578
109.400
137.075
141.027
106.562
107.830
107.059
115.658
121.774
116.781
136.146
134.486
100.378
131.423
117.068
113.770
120.063
97.766
136.689
146.699
114.614
145.191
117.789
133.796
113.426
143.631
142.765
102.325
114.943
143.872
110.027
129.553
113.743
95.868
109.307
143.452
145.988
121.000
113.578
124.673
145.738
116.555
103.690
128.008
135.228
95.131
116.930
107.153
136.797
143.496
136.192
141.084
100.443
126.348
129.007
136.050
101.013
136.691
112.459
113.484
139.805
141.771
97.583
121.485
110.480
104.420
98.470
106.350
112.496
138.203
117.884
122.672
130.093
100.832
128.662
99.948
125.834
128.117
122.434
116.026
100.057
131.098
96.881
124.439
141.268
95.960
101.499
106.055
94.929
130.986
105.578
135.354
127.581
123.210
126.010
121.528
109.951
115.663
136.612
119.362
124.666
121.563
137.662
134.098
112.436
146.343
130.489
129.069
106.418
109.083
106.176
108.198
107.447
132.182
120.866
121.633
113.632
107.786
119.015
134.036
130.562
146.226
144.380
105.842
102.963
96.938
125.934
110.131
112.095
141.005
124.422
123.515
106.470
95.807
110.990
113.173
99.345
109.114
100.712
122.198
141.109
95.472
137.506
134.040
144.625
130.222
104.114
117.665
128.822
111.499
138.271
101.242
103.552
102.030
136.681
95.889
136.319
144.997
103.910
137.397
136.566
141.975
130.281
135.391
134.505
115.707
126.431
102.677
103.663
129.618
98.498
118.843
121.963
145.842
126.222
105.747
142.776
101.643
95.286
110.170
117.439
131.323
97.955
110.821
99.535
113.789
108.968
125.577
121.034
135.430
109.331
121.088
143.858
122.722
140.048
126.257
123.665
119.805
118.616
116.208
128.031
111.570
99.112
97.016
128.182
115.398
118.658
133.974
105.761
141.569
102.072
97.927
125.663
115.162
115.284
134.533
105.904
116.438
144.246
121.267
105.707
130.346
104.205
102.129
97.010
112.859
142.979
129.063
94.976
141.356
136.446
137.936
128.924
124.415
102.373
95.922
143.560
146.456
104.418
106.818
122.827
128.578
105.750
100.288
129.552
101.379
132.178
123.557
112.520
111.435
104.674
117.006
137.890
94.966
103.368
140.669
111.880
115.016
125.885
119.905
115.596
128.949
134.463
113.932
143.632
127.250
121.511
97.193
133.268
121.404
141.365
128.445
99.457
141.099
114.602
95.941
108.273
140.285
130.502
141.389
103.347
133.650
144.002
112.771
115.974
95.717
122.258
120.908
104.493
107.506
144.295
124.434
131.161
144.560
110.277
100.668
123.215
105.844
97.866
143.533
105.499
123.428
96.774
145.957
105.938
120.860
143.479
106.234
127.247
136.023
118.268
131.217
124.090
106.125
142.580
125.468
139.967
138.820
115.472
103.691
144.027
134.975
108.502
102.324
138.162
126.507
126.320
143.878
118.923
101.278
131.454
99.881
117.562
131.251
115.956
122.698
114.346
122.187
120.727
100.499
110.421
138.680
122.216
145.480
143.566
142.852
122.010
143.299
119.774
95.759
124.956
102.690
105.111
129.533
108.157
138.667
114.871
131.406
98.177
120.577
119.416
121.281
107.605
98.768
142.439
120.134
107.365
119.664
122.894
100.842
99.260
95.545
126.571
119.248
99.593
118.041
142.305
135.988
125.807
129.832
128.194
122.863
103.424
111.873
121.589
122.083
102.717
95.481
126.621
126.208
117.612
97.720
129.838
130.794
117.366
100.614
116.102
113.887
109.032
127.877
139.071
129.590
102.220
142.302
141.489
124.075
100.903
132.780
126.823
119.375
130.027
130.804
98.713
126.403
118.057
144.899
118.078
118.496
102.391
141.301
138.669
127.650
142.866
125.368
123.005
135.349
106.770
102.513
128.175
125.296
137.873
119.454
109.462
112.996
101.070
142.383
126.231
125.866
113.763
129.870
135.842
136.940
124.889
106.094
140.018
118.603
128.168
116.827
125.453
98.219
127.915
145.024
110.179
124.975
126.293
140.091
118.559
141.139
120.204
110.255
138.564
145.474
124.915
145.965
96.580
128.582
124.759
120.504
98.883
135.527
144.595
146.419
120.057
118.624
140.160
121.233
113.248
122.215
113.369
95.135
120.539
123.809
134.152
127.363
126.494
104.498
134.785
139.968
103.243
120.697
126.446
134.663
137.712
107.003
114.744
96.927
95.392
124.762
124.765
130.929
131.821
121.612
119.116
134.000
99.554
142.087
104.932
144.553
116.814
96.002
119.623
104.925
135.698
135.756
105.671
105.327
101.587
32.665
33.574
33.988
37.469
32.573
40.908
43.780
29.835
41.970
40.891
34.152
30.729
36.841
32.847
43.167
44.789
31.093
37.174
40.931
37.964
34.084
34.348
44.556
38.641
35.411
44.362
29.699
30.928
32.556
33.773
31.604
37.581
42.174
31.518
32.287
32.117
34.935
44.300
36.550
40.060
42.821
40.241
40.633
38.943
31.294
29.570
1414.059
1403.113
1415.703
1404.513
1425.907
1399.161
1420.733
1415.230
1402.671
1416.085
1405.326
1412.277
1406.509
1422.216
1398.722
1420.421
1421.952
1408.019
1415.351
1400.575
1414.260
1417.280
1399.799
1405.887
1395.361
1395.548
1399.694
1395.182
1398.981
1413.041
1402.624
1400.108
1399.151
1398.003
1410.375
1394.758
1397.642
1396.457
1389.275
1404.973
1388.667
1399.052
1399.123
1398.768
1402.284
1400.908
1395.277
1386.795
1406.846
1398.425
1395.093
1386.596
1398.518
1394.984
1407.351
1385.681
1386.984
1398.464
1396.385
1398.590
1398.095
1385.823
1407.157
1398.327
1400.676
1399.552
1395.079
1401.375
1407.009
1381.679
1397.257
1388.393
1379.133
1401.248
1404.823
1387.316
1388.665
1383.401
1385.484
1401.346
1393.132
1396.395
1402.750
1397.954
1377.551
1394.686
1381.829
1375.765
1399.149
1386.590
1374.565
1395.867
1397.206
1383.816
1385.572
1383.896
1388.963
1388.243
1375.667
1371.754
763.081
769.420
776.551
765.984
762.870
773.736
761.519
767.769
760.420
767.388
772.354
761.199
761.402
761.870
772.985
768.788
770.271
764.724
759.702
765.463
768.876
773.787
773.028
771.689
759.220
760.239
759.969
771.174
760.279
765.429
768.556
770.570
771.739
758.551
771.047
771.361
770.963
756.701
766.827
762.795
761.020
766.255
754.990
755.059
760.409
765.251
755.021
758.599
769.209
754.636
759.187
766.219
767.765
763.487
763.965
766.381
760.532
753.649
766.965
754.789
767.092
753.714
756.325
762.632
751.608
762.931
763.458
763.373
759.192
751.031
760.449
765.361
751.460
759.000
750.537
758.037
757.488
761.642
761.422
755.217
749.478
753.347
756.747
749.854
761.429
761.136
754.739
753.886
762.024
760.174
762.293
758.437
757.141
758.201
746.158
749.876
751.687
759.085
749.370
757.029
747.867
755.057
748.670
755.573
765.298
760.820
761.986
762.394
759.613
771.563
768.496
776.109
773.670
774.242
781.478
781.099
782.916
782.288
788.039
786.100
792.149
784.008
784.592
799.389
802.046
795.258
796.533
798.923
799.207
801.312
814.102
800.518
806.693
808.953
815.646
818.034
811.019
817.737
813.496
822.797
817.995
834.188
834.871
831.133
837.943
841.614
840.143
840.349
842.317
838.454
843.453
840.125
841.853
843.895
852.465
859.029
846.808
856.671
860.761
857.001
862.351
867.192
860.903
870.019
863.767
868.094
869.039
865.613
877.906
870.168
884.259
877.927
885.564
891.101
886.767
886.478
887.016
886.919
889.833
901.028
902.232
898.745
907.369
899.497
911.502
904.555
905.489
907.745
915.737
916.126
920.885
914.207
915.350
914.338
923.334
917.897
930.386
931.053
931.847
937.148
928.721
931.033
930.402
932.386
939.455
947.751
949.754
938.220
951.484
941.053
949.982
958.857
951.196
962.368
957.585
958.664
964.946
970.704
964.912
964.610
975.854
975.190
976.587
973.209
982.311
970.611
983.776
988.778
975.737
990.131
992.896
988.251
997.904
999.042
986.853
999.817
989.785
994.125
1008.502
996.664
1004.619
1011.171
1008.639
1014.132
1011.790
1017.998
1021.142
1010.043
1018.817
1018.146
1015.507
1031.674
1018.375
1025.447
1032.836
1032.208
1027.036
1033.166
1034.842
1043.756
1044.686
1044.905
1049.048
1040.102
1040.136
1043.025
1056.392
1055.232
1056.828
1053.895
1051.022
1053.569
1067.297
1061.253
1067.104
1074.489
1070.816
1068.120
1068.129
1079.014
1076.362
1082.332
1075.804
1083.452
1087.172
1082.175
1085.730
1085.281
1094.832
1097.745
1101.786
1103.726
1093.980
1094.352
1097.225
1111.001
1103.846
1104.399
1112.243
1104.264
1116.264
1106.622
1114.807
1109.674
1109.292
1102.862
1103.812
1096.605
1099.960
1091.203
1094.984
1094.062
1084.722
1085.026
1079.340
1080.851
1078.221
1076.651
1073.750
1082.986
1077.313
1077.146
1074.585
1069.670
1067.297
1068.324
1066.541
1061.136
1060.452
1060.141
1062.907
1056.204
1053.768
1051.973
1041.806
1050.375
1041.045
1049.437
1049.751
1047.015
1042.740
1033.851
1031.385
1028.481
1035.259
1033.706
1022.726
1025.940
1028.487
1014.622
1020.932
1011.932
1009.162
1019.751
1004.631
1016.172
1000.595
999.719
997.322
997.241
1000.911
992.330
997.449
997.248
987.406
988.445
985.993
989.871
984.228
984.017
976.035
980.075
985.958
978.110
982.217
972.285
977.505
961.769
966.966
964.923
967.782
964.449
966.228
954.935
961.648
953.838
948.572
954.590
956.084
947.331
940.079
942.298
934.883
945.700
937.093
940.197
927.841
931.402
932.361
935.531
934.667
930.089
930.949
921.964
925.486
920.345
913.251
921.136
910.578
904.902
915.119
906.649
901.502
907.869
907.700
901.988
901.630
893.657
895.321
896.195
883.746
883.142
886.116
887.127
881.704
885.152
885.809
884.108
876.822
865.527
869.202
862.273
867.464
861.696
863.624
866.918
863.595
857.347
862.144
852.153
848.222
856.525
843.980
847.901
839.976
837.796
848.973
833.933
836.775
837.114
841.463
828.029
833.352
823.128
827.766
824.073
829.543
826.269
817.635
819.501
816.210
814.645
815.550
812.386
806.792
808.637
802.146
799.424
794.292
798.611
799.327
789.726
799.400
783.618
791.878
794.717
788.249
776.889
782.878
779.710
771.068
779.447
773.952
770.535
770.658
767.479
772.440
770.317
763.778
758.455
759.942
759.319
752.244
749.624
751.313
750.006
742.476
744.569
746.548
743.072
744.406
744.549
738.603
741.282
748.885
753.102
750.543
739.819
750.123
751.839
752.859
747.101
750.105
757.193
760.119
753.156
761.820
759.498
749.877
751.023
764.128
764.843
767.543
759.524
760.439
764.246
767.187
758.658
773.544
761.381
765.315
774.079
774.583
766.610
768.404
766.613
780.083
783.218
783.943
780.905
784.031
778.247
781.313
776.612
786.268
785.151
786.878
778.622
788.069
783.262
790.940
788.922
787.317
794.799
793.831
795.313
789.423
793.252
798.765
794.381
793.907
790.024
804.009
802.550
793.407
807.957
807.663
798.385
808.222
800.005
802.350
812.051
812.424
812.294
808.311
816.795
803.836
819.077
816.443
812.585
810.195
822.440
814.963
823.875
824.314
813.667
820.590
823.848
817.218
820.446
830.342
828.618
829.380
829.460
821.483
825.529
835.226
837.887
825.633
828.194
832.771
831.037
827.686
841.771
831.173
836.116
836.339
839.865
840.257
834.684
846.733
849.663
848.070
842.265
841.330
852.837
852.516
853.235
857.924
856.693
853.347
855.368
851.984
861.361
862.090
856.715
850.491
859.369
863.325
863.844
853.933
863.946
858.993
871.301
872.359
870.411
859.365
862.655
870.891
862.762
877.418
865.282
871.346
872.157
867.119
870.012
870.248
875.523
873.058
881.715
874.657
884.640
884.567
881.450
883.587
881.095
891.057
887.148
890.534
894.279
885.399
886.484
897.057
887.313
900.816
890.271
900.793
898.025
890.506
902.101
897.616
899.153
894.659
902.824
897.668
895.599
901.079
910.386
905.758
912.489
910.683
905.267
906.520
907.685
910.663
915.291
918.578
914.755
916.178
919.896
920.406
913.856
912.530
916.453
917.563
915.864
916.206
925.945
926.614
932.677
923.762
933.072
934.027
924.574
922.955
925.569
932.452
934.232
923.483
926.291
931.403
932.678
932.833
933.846
918.145
919.387
932.332
921.961
919.933
930.741
925.245
924.064
930.434
924.565
928.705
926.382
925.780
927.178
919.561
919.487
928.063
926.429
929.219
930.677
923.646
929.743
926.734
923.328
922.292
921.238
931.590
923.780
932.127
930.536
927.384
926.551
920.026
929.937
922.103
920.220
929.500
917.884
931.906
929.621
926.886
926.047
926.782
924.180
920.199
928.643
922.152
923.019
926.146
920.979
920.552
931.297
929.843
924.607
