105.223
96.976
134.510
104.301
105.687
143.343
123.162
96.937
146.303
122.983
129.092
133.992
140.276
100.847
121.818
133.935
127.537
138.393
101.917
143.778
117.680
133.724
95.554
137.214
116.645
107.535
105.850
123.531
120.105
130.435
104.188
138.769
140.419
112.440
107.349
110.781
139.499
116.505
129.529
105.156
134.774
142.210
112.062
125.163
117.314
129.252
140.749
137.202
96.584
115.287
146.155
138.511
124.323
140.834
136.667
115.229
126.926
122.330
134.459
119.184
116.061
121.558
113.109
126.845
102.975
110.674
133.131
143.421
139.588
143.734
99.937
142.773
139.685
136.226
120.339
119.693
134.175
117.149
101.957
98.429
141.139
116.691
107.462
141.404
139.074
121.888
108.854
127.115
96.018
133.691
115.020
146.003
123.828
116.522
141.758
144.180
111.232
110.223
143.690
109.141
103.130
108.670
132.354
98.546
130.258
99.291
125.756
128.836
95.570
122.282
121.127
116.317
137.987
121.571
126.452
99.529
108.718
126.062
103.744
144.106
103.969
111.694
113.495
130.523
145.075
123.252
145.639
96.172
115.048
109.569
95.300
104.496
118.356
128.237
132.068
106.778
146.691
137.530
125.556
139.609
133.643
136.418
132.971
125.063
102.416
129.334
141.240
101.678
140.318
100.387
111.350
144.954
115.648
127.791
141.153
125.001
141.765
129.773
121.369
121.383
118.570
121.989
127.343
119.939
113.856
97.840
143.980
137.044
141.606
142.964
105.427
138.826
97.192
134.693
96.710
130.252
128.883
106.524
145.339
127.339
138.280
140.188
106.077
124.386
106.270
115.087
146.498
101.420
94.966
129.852
144.160
136.280
131.698
101.675
113.445
99.915
103.211
109.997
139.301
108.467
135.422
109.640
113.573
113.967
135.377
111.359
101.542
98.140
119.017
105.732
94.796
110.747
129.576
132.455
110.497
138.922
110.294
139.095
118.442
111.708
139.733
104.174
127.705
124.736
130.830
126.017
129.966
95.857
117.609
144.386
137.443
142.482
138.702
119.247
136.461
103.947
114.800
131.398
143.846
113.407
117.586
115.642
96.471
101.504
131.508
126.731
95.902
140.809
119.718
136.176
138.002
110.180
141.563
117.901
116.980
112.661
102.391
134.981
125.661
102.505
105.515
121.058
112.507
136.909
97.657
128.154
109.072
138.989
103.129
140.880
126.441
110.599
103.443
144.255
124.645
101.835
103.038
139.826
104.779
133.701
142.449
128.752
97.511
99.096
141.303
137.271
103.721
107.593
96.881
123.780
124.706
106.155
144.660
102.178
99.198
125.993
132.214
94.810
108.453
103.791
114.676
125.535
145.714
100.375
122.951
120.310
123.723
133.363
96.355
139.101
124.398
125.421
111.348
106.076
127.861
110.147
110.955
112.202
39.069
34.275
33.130
44.793
31.602
33.823
31.323
43.670
37.291
37.184
40.824
37.531
37.266
31.314
366.396
358.691
364.938
370.943
382.203
388.774
380.762
390.728
369.061
372.055
396.617
380.265
384.801
393.166
383.163
403.399
408.599
413.516
407.873
401.618
409.438
418.616
418.262
413.802
430.045
417.474
410.509
433.610
441.127
440.756
429.452
437.882
443.379
427.156
448.164
456.646
431.908
451.333
449.037
439.388
451.991
466.806
451.798
468.044
457.483
467.508
478.332
481.271
466.039
466.309
469.899
466.768
486.923
490.374
493.654
486.589
485.783
500.160
479.623
489.652
492.517
504.109
494.601
511.720
514.077
501.731
506.953
502.683
519.286
503.742
515.154
506.548
530.661
520.706
514.321
515.787
524.100
544.316
523.339
528.138
545.721
549.160
548.073
537.378
546.514
543.320
549.335
553.470
546.571
552.647
571.400
572.513
569.097
555.664
560.350
562.733
581.049
585.745
567.113
586.623
329.304
327.476
319.510
332.940
321.676
330.803
332.831
328.069
327.372
333.260
338.722
339.053
344.747
345.316
344.162
342.442
351.013
351.056
345.217
343.020
354.977
348.404
355.517
354.675
351.548
351.031
348.940
362.264
351.129
354.713
360.724
369.798
358.866
365.310
370.566
374.077
365.694
364.219
371.550
369.677
376.043
375.719
381.212
378.023
376.427
371.208
387.778
374.760
381.872
377.320
387.496
387.193
392.833
392.075
382.273
396.743
397.352
387.133
401.041
400.222
404.105
401.864
398.180
399.907
395.678
396.889
411.429
405.922
411.372
409.712
410.396
418.116
410.645
409.514
407.452
422.613
412.330
422.575
414.492
414.073
426.546
419.057
429.108
427.376
420.628
422.782
425.090
422.453
426.577
435.825
429.664
437.568
438.324
432.307
440.273
437.774
433.553
449.903
442.136
443.887
449.638
454.679
444.605
453.479
452.847
452.677
444.449
453.509
457.600
457.114
453.194
463.997
456.997
459.195
458.142
464.623
463.812
468.091
467.915
466.074
460.456
467.645
470.275
465.990
476.508
475.147
477.447
465.138
476.588
472.873
470.275
481.286
469.764
476.302
485.689
478.527
487.590
481.421
478.589
484.462
492.390
484.490
481.996
483.143
492.952
482.542
484.484
496.558
496.878
486.274
493.442
497.380
500.492
495.672
499.253
505.576
507.166
504.460
509.463
509.285
498.298
510.766
503.513
504.529
503.332
516.608
504.618
517.411
505.017
514.406
520.771
516.304
520.157
518.356
524.837
526.917
527.681
526.175
515.896
517.817
526.156
525.309
531.134
527.108
522.675
527.184
533.870
530.731
538.880
535.965
529.903
530.336
529.063
541.662
533.280
531.268
540.879
539.445
541.959
535.165
539.574
551.351
542.273
542.465
551.998
551.275
547.376
553.831
554.961
549.933
553.848
549.928
547.777
563.405
555.783
556.451
553.779
564.139
556.136
560.219
557.506
564.152
572.194
560.309
568.301
574.799
571.797
563.164
572.068
578.637
569.297
577.307
580.272
580.903
578.075
572.995
577.273
579.151
574.493
584.281
575.511
576.476
587.722
588.344
587.347
579.656
582.707
587.002
589.707
598.815
597.490
587.796
593.195
593.538
601.768
589.861
593.628
600.009
594.955
597.317
598.566
605.590
605.882
609.778
604.385
604.936
604.207
608.094
602.163
603.998
618.880
617.480
616.375
616.838
619.220
609.612
621.285
626.400
621.204
623.360
626.423
624.587
629.773
629.139
631.317
625.816
625.367
627.133
633.474
632.134
624.523
638.719
635.042
638.351
633.005
630.242
633.434
635.614
642.830
643.592
640.598
639.756
647.365
645.203
639.114
650.261
647.351
649.634
652.311
655.208
651.280
651.975
652.661
659.177
657.168
648.291
660.292
660.923
663.912
663.635
660.945
654.360
659.747
658.177
665.179
659.301
663.335
667.085
664.904
670.269
667.174
664.626
671.813
669.389
668.090
671.363
669.055
672.129
681.145
681.267
668.159
678.978
671.317
671.553
678.824
675.332
675.359
686.251
684.295
678.711
685.004
683.393
678.158
691.017
686.045
685.361
692.055
682.503
692.029
683.493
684.404
693.852
690.616
695.660
702.354
701.520
701.682
704.556
704.059
704.150
701.389
702.885
709.709
698.773
703.878
703.749
699.467
701.828
713.698
711.329
707.808
716.683
712.072
717.042
711.809
707.104
714.583
721.820
721.745
718.203
720.255
715.081
718.014
716.697
721.063
722.429
714.777
721.865
720.701
720.995
723.326
719.090
724.752
719.959
734.352
725.677
725.376
728.069
734.473
725.135
733.487
728.203
743.068
743.580
744.880
740.688
744.281
737.438
739.810
744.894
738.769
747.824
737.532
747.498
745.885
741.320
753.558
745.617
755.945
750.439
749.519
749.410
759.861
757.198
753.230
751.929
761.489
757.860
751.731
765.641
762.976
763.858
760.403
761.966
758.047
756.823
756.958
772.592
758.323
769.510
773.850
765.058
761.626
771.941
772.409
776.843
772.720
770.579
773.056
782.826
775.543
780.912
769.961
772.715
773.681
782.306
775.675
786.534
778.771
783.850
777.751
780.597
788.873
786.373
788.873
795.936
795.953
797.962
784.655
788.023
794.192
796.830
787.973
792.151
798.020
800.791
793.455
791.849
803.021
807.516
793.062
796.624
805.641
806.709
797.634
805.073
812.828
802.086
813.085
804.949
805.143
806.781
809.414
802.602
808.665
810.710
809.253
812.663
811.560
807.579
816.261
805.525
815.047
805.479
804.455
815.062
818.962
812.961
805.205
807.479
815.328
814.188
817.985
816.558
811.993
811.994
814.123
811.934
814.130
810.527
808.328
815.685
808.359
819.937
818.205
820.411
814.981
810.568
821.841
824.986
821.850
814.459
822.789
813.990
824.672
817.512
811.022
824.833
818.133
816.392
813.416
823.450
814.722
821.724
817.933
815.501
823.601
823.294
818.258
819.250
826.097
817.126
824.413
824.590
828.261
830.295
825.359
829.249
822.283
824.776
822.990
823.816
827.415
822.248
829.810
830.960
817.747
821.871
826.466
825.425
827.932
825.218
821.096
823.555
821.908
827.499
822.733
825.211
824.113
822.843
826.901
834.537
823.535
835.556
831.412
825.570
829.622
834.039
836.749
823.793
829.853
834.010
827.822
833.496
836.608
824.635
836.581
839.009
832.927
838.161
831.737
836.994
829.439
828.763
829.430
838.957
839.814
835.552
831.072
837.283
834.785
833.271
835.884
838.773
839.249
832.317
833.210
839.935
830.318
839.637
834.251
840.223
830.050
829.813
835.893
842.513
836.617
844.748
833.860
844.912
833.316
844.352
841.313
838.311
846.780
835.831
844.363
843.066
844.756
833.842
845.939
846.892
837.889
838.601
834.732
833.450
847.366
835.325
841.512
848.041
847.036
837.074
844.453
843.472
836.948
835.560
848.174
842.239
844.218
844.838
846.665
851.350
837.461
842.553
841.207
847.577
849.245
853.379
847.494
839.675
854.268
853.813
852.436
843.162
851.277
855.320
851.286
841.721
851.024
854.523
845.940
856.417
851.487
854.833
854.884
848.740
841.830
843.464
853.622
847.889
856.230
857.590
842.635
853.103
840.746
844.332
841.444
852.432
850.201
838.554
840.693
842.035
850.743
842.328
841.931
838.012
849.202
838.254
832.365
844.975
832.002
846.129
839.740
834.876
836.526
840.399
829.565
833.692
837.072
838.945
840.157
831.965
837.154
827.147
826.533
825.442
822.733
832.439
830.336
834.439
823.355
822.431
820.814
818.663
828.693
827.545
823.214
824.084
824.007
814.438
818.945
829.012
819.821
814.375
826.682
823.465
820.358
824.151
822.521
810.373
822.449
807.292
822.084
808.028
814.562
808.247
810.309
805.112
805.648
817.146
816.454
809.833
802.032
806.770
809.046
801.836
804.736
801.680
806.000
801.117
797.491
809.372
809.147
802.526
795.635
794.807
798.783
796.011
795.162
805.265
802.035
791.191
790.898
796.612
789.298
793.504
795.623
797.494
799.142
796.457
784.924
790.196
787.647
789.124
787.091
797.644
789.772
786.580
790.510
795.345
789.960
792.289
789.564
788.679
787.854
791.453
778.930
775.697
789.590
779.212
778.463
780.162
787.464
784.799
776.167
781.021
784.667
770.654
771.593
770.867
767.821
779.199
772.265
780.218
774.270
769.787
778.435
771.413
776.253
776.561
762.853
773.563
770.481
774.133
765.530
774.268
770.625
771.357
767.639
768.696
765.025
759.717
762.810
769.082
755.519
753.076
764.708
751.948
764.747
764.586
753.752
751.339
760.421
753.047
752.033
755.338
759.104
760.185
759.262
749.498
756.619
747.170
747.015
755.431
754.414
743.288
743.728
748.894
753.108
740.852
752.690
743.886
751.512
742.616
749.766
740.600
745.682
745.741
742.805
743.046
741.453
733.718
742.999
742.735
739.563
732.538
740.068
731.819
743.403
743.186
735.801
740.193
742.509
745.472
734.780
738.282
739.819
744.091
747.745
736.900
751.791
746.835
750.640
751.736
755.637
744.080
750.420
754.877
757.631
749.220
751.541
754.817
751.426
749.989
763.118
766.060
764.743
757.313
767.488
764.111
768.113
769.203
765.045
765.661
774.103
768.265
763.519
765.176
775.658
769.075
773.700
775.731
768.459
773.267
772.951
772.387
778.190
784.027
779.893
786.416
782.651
780.464
792.107
782.150
792.763
788.717
789.986
785.986
787.393
785.405
792.707
791.637
796.998
794.169
791.994
796.768
794.654
792.269
806.523
794.886
799.388
804.572
803.250
807.928
809.902
800.338
805.751
803.417
805.324
808.970
811.652
807.285
813.816
808.073
814.837
815.945
822.540
813.655
821.219
811.748
817.855
814.418
823.000
826.179
822.255
827.221
828.902
822.939
833.336
834.977
823.221
834.774
836.578
836.224
825.927
830.612
837.170
841.697
834.347
832.043
840.397
833.338
840.096
837.228
848.634
837.673
848.569
842.995
839.531
855.854
852.652
843.278
856.317
855.691
855.691
855.983
848.107
858.145
852.304
850.710
863.077
863.650
854.468
861.545
862.368
856.640
868.114
863.814
865.783
869.784
863.444
875.817
862.738
876.002
871.855
875.571
868.132
881.688
882.848
876.159
883.862
878.350
878.235
878.882
888.650
877.794
877.494
889.074
878.965
878.680
883.177
894.575
884.120
888.052
891.787
890.226
885.147
896.386
886.430
893.890
893.823
898.769
893.511
895.166
907.447
907.412
897.504
899.763
896.028
911.308
905.081
912.929
905.303
910.277
902.330
913.551
916.513
908.869
914.566
907.909
915.634
918.014
912.312
921.966
921.805
915.127
916.268
926.779
915.955
930.799
926.035
922.304
919.281
918.923
928.620
916.977
915.049
929.397
920.215
924.434
915.439
918.280
919.184
925.188
914.469
923.908
913.071
920.449
917.356
912.585
920.603
921.035
911.608
911.310
920.487
917.280
911.397
923.209
917.317
909.379
914.881
915.352
909.868
912.299
905.388
911.990
904.819
916.744
913.488
913.033
915.423
913.686
917.136
906.516
904.158
915.174
912.428
908.856
908.541
906.123
911.232
910.642
910.154
914.040
901.369
911.531
902.316
909.576
907.704
905.736
908.129
902.965
900.624
895.297
901.097
908.967
896.957
907.486
902.826
903.027
899.510
900.087
892.418
903.641
902.019
895.955
906.711
892.014
897.386
902.206
896.973
899.433
902.124
902.596
896.556
903.593
902.373
896.521
894.241
901.293
900.902
895.635
885.750
885.794
893.912
887.036
886.639
893.752
883.903
884.825
883.669
886.537
889.202
892.984
897.125
880.948
889.185
887.987
893.688
879.480
888.305
883.187
892.798
892.098
884.198
877.463
891.578
878.003
891.274
878.795
890.039
891.173
878.824
880.830
882.920
874.918
883.765
884.887
873.857
885.176
886.485
887.428
872.868
873.084
880.727
880.846
872.504
884.813
871.075
875.855
877.725
874.558
874.695
874.675
874.459
869.892
869.743
869.006
880.620
874.508
879.293
876.499
880.237
867.456
874.972
876.753
869.430
870.430
872.632
866.105
876.524
871.366
870.758
865.388
862.898
872.667
867.352
860.305
862.114
871.761
858.967
871.448
859.320
869.413
871.929
856.993
863.320
859.971
865.790
863.813
859.635
857.804
861.028
865.076
860.016
869.305
863.945
860.695
855.259
864.876
864.903
861.190
852.680
855.842
859.811
850.245
860.028
861.665
850.528
860.488
854.754
862.152
849.486
861.627
851.164
857.423
845.131
851.837
841.828
843.744
855.258
848.457
846.519
842.895
851.753
847.268
835.469
841.176
845.695
845.500
844.435
845.161
843.706
830.784
836.038
826.950
830.638
833.211
826.735
827.124
823.076
820.926
823.532
834.096
833.413
827.174
829.501
826.161
825.390
822.620
828.039
812.083
821.088
818.104
809.189
810.388
822.595
813.091
808.371
815.384
807.365
811.965
805.400
816.995
805.892
803.327
814.441
808.437
811.431
810.315
800.573
809.941
801.636
796.667
794.577
801.949
802.216
790.656
796.990
793.548
798.407
797.859
799.589
795.647
796.594
785.329
796.544
789.165
779.079
782.900
782.051
779.185
781.424
783.995
783.663
787.709
775.017
776.546
783.177
769.672
777.094
768.036
776.569
770.114
773.843
774.627
764.926
768.479
773.654
770.914
774.113
773.652
772.586
763.344
770.524
758.637
756.121
763.028
762.006
753.959
751.345
764.999
762.265
754.741
761.555
760.435
757.017
759.467
747.230
745.424
752.079
742.936
754.181
742.374
738.196
745.146
742.647
738.949
745.552
740.637
745.197
740.835
746.122
735.684
733.611
736.079
729.563
727.671
730.776
727.778
735.870
729.800
731.923
730.234
736.156
731.650
727.596
721.411
727.343
724.546
724.732
724.635
720.857
724.176
725.068
719.337
720.812
710.171
721.958
714.680
710.721
715.128
712.611
707.050
712.495
710.047
701.558
714.605
712.414
706.121
711.311
698.239
705.202
696.998
695.183
706.267
698.398
701.097
699.399
690.639
688.314
690.228
687.328
694.691
697.945
693.230
683.853
685.834
695.973
682.866
689.454
691.681
686.692
685.111
688.818
690.189
686.772
688.240
680.144
675.057
676.100
679.369
685.449
679.894
683.505
681.909
687.408
689.880
692.667
679.602
689.941
681.035
697.034
685.947
685.906
686.963
687.709
693.796
692.846
703.166
689.944
697.000
704.001
692.306
698.188
700.864
710.100
701.949
707.030
706.296
710.207
712.046
707.889
714.497
706.577
708.776
705.043
716.746
714.782
721.185
708.555
711.230
711.063
721.910
714.055
725.913
721.655
719.346
723.112
722.824
727.347
732.673
728.453
727.466
732.161
722.461
726.809
731.111
725.783
726.381
733.595
731.319
743.092
736.533
739.964
735.688
739.850
741.416
