101.438
123.241
97.987
91.900
96.830
115.783
109.301
124.660
119.158
126.023
105.378
96.341
85.737
92.438
119.345
108.070
94.035
110.985
115.097
92.893
113.348
91.747
121.485
114.210
124.065
98.392
93.737
100.384
117.091
110.893
126.737
107.907
95.041
116.086
117.571
90.083
118.397
113.770
95.339
112.487
114.874
102.164
118.559
115.989
114.846
85.152
119.537
94.135
103.139
99.034
112.167
127.900
115.388
114.174
115.347
97.800
122.310
95.414
99.796
103.472
117.413
128.748
111.682
84.671
99.233
99.678
106.387
106.398
86.019
1205.663
1202.138
1213.562
1220.315
1222.210
1238.774
1235.604
1226.048
1249.003
1261.902
1252.415
1250.885
1258.405
1274.295
1282.278
1283.367
1271.988
1288.198
1283.947
1291.621
1286.990
1303.990
1289.004
1316.553
1297.995
1325.065
1319.380
1315.532
1326.176
1325.684
1345.148
1349.762
1347.675
1347.095
1362.374
1361.736
1370.884
1363.935
1370.273
1375.788
1366.885
1377.410
1384.103
1385.549
1401.373
1399.602
1393.064
1406.976
1418.153
1407.468
1421.003
1424.207
1439.129
1432.004
1440.919
1430.693
1442.758
1442.122
1459.332
1470.227
1468.128
1471.419
1484.199
1486.897
1492.935
1480.209
1479.865
1496.958
1510.418
1507.276
1504.867
1513.116
1511.067
1530.122
1532.324
1530.581
1529.618
1520.447
1525.985
1532.933
1540.893
1552.681
1557.620
1572.172
1568.379
1556.500
1580.371
1584.783
1586.953
1588.352
1580.217
1605.088
1610.959
1607.451
1610.188
1622.710
1603.832
1604.976
1616.040
1626.422
900.134
911.832
913.435
907.975
918.112
922.616
921.634
925.419
928.983
925.181
931.840
939.318
935.049
942.743
940.062
933.314
939.268
939.008
945.400
952.558
953.498
950.243
965.389
964.303
969.676
967.015
960.361
970.971
978.620
966.108
976.861
984.809
986.947
977.164
988.387
988.709
983.169
993.777
992.803
1000.242
1000.664
1007.665
1002.456
1007.682
1012.735
1012.357
1014.659
1022.111
1013.838
1028.047
1018.438
1023.415
1033.940
1022.101
1031.001
1029.702
1041.643
1043.383
1035.946
1043.450
1052.752
1047.847
1044.328
1055.219
1051.537
1050.168
1065.015
1058.576
1066.175
1064.479
1066.062
1072.212
1072.729
1070.812
1076.121
1074.723
1082.461
1089.147
1091.934
1096.384
1092.811
1094.689
1098.431
1096.976
1109.064
1107.212
1110.569
1106.989
1110.531
1113.376
1112.828
1116.001
1118.039
1118.170
1127.962
1124.340
1126.469
1127.363
1136.522
1136.136
1137.099
1146.386
1132.686
1143.365
1133.011
1145.024
1139.382
1132.793
1129.510
1131.505
1137.924
1138.890
1142.739
1143.047
1133.066
1135.227
1128.056
1132.550
1136.909
1137.439
1139.041
1140.675
1130.801
1131.164
1132.495
1126.164
1139.006
1132.228
1138.166
1134.974
1134.242
1136.115
1122.395
1124.931
1124.557
1122.527
1134.948
1133.404
1125.133
1129.352
1128.999
1129.840
1118.299
1119.139
1117.318
1125.724
1127.098
1131.034
1127.518
1128.896
1120.953
1119.917
1130.103
1119.978
1129.587
1124.592
1113.309
1116.941
1125.256
1112.424
1119.448
1115.300
1115.236
1120.740
1121.717
1113.620
1116.900
1114.308
1123.359
1121.427
1110.146
1111.435
1114.000
1108.746
1108.144
1119.791
1116.810
1116.143
1108.044
1113.024
1107.546
1118.551
1105.929
1108.840
1117.932
1104.859
1118.952
1107.960
1116.486
1102.884
1107.778
1111.885
1107.177
1103.778
1100.872
1106.936
1106.947
1113.726
1113.972
1101.647
1112.850
1098.567
1106.311
1098.474
1103.666
1110.845
1109.955
1105.207
1108.741
1110.749
1108.331
1109.005
1105.915
1097.622
1099.667
1108.217
1100.142
1093.013
1100.495
1105.913
1102.518
1095.674
1103.736
1095.490
1091.766
1093.709
1105.766
1104.819
1090.154
1101.038
1102.437
1098.096
1097.300
1098.283
1089.281
1093.050
1095.931
1092.929
1100.312
1091.610
1090.940
1085.438
1087.206
1091.793
1096.761
1089.551
1093.204
1091.010
1085.583
1089.505
1089.468
1095.264
1088.429
1086.266
1081.646
1081.049
1086.439
1083.676
1090.300
1089.584
1086.370
1088.036
1080.796
1084.558
1087.991
1090.598
1090.489
1077.139
1085.854
1076.091
1085.048
1077.772
1081.978
1080.183
1089.029
1086.744
1087.507
1082.625
1088.147
1072.523
1083.748
1072.877
1086.593
1077.387
1070.663
1081.459
1076.471
1079.332
1071.647
1078.028
1072.118
1073.237
1078.395
1070.960
1074.288
1071.964
1075.667
1077.565
1069.231
1079.710
1068.129
1075.285
1069.993
1058.709
1065.210
1061.373
1056.567
1053.305
1050.370
1054.839
1053.168
1050.438
1050.085
1042.742
1041.601
1034.828
1037.358
1033.631
1032.844
1024.725
1025.279
1028.013
1018.462
1021.820
1022.905
1017.361
1020.335
1012.006
1014.175
1010.298
997.856
1003.091
1002.382
1001.716
995.318
998.363
996.466
996.008
980.376
988.579
981.874
974.558
971.335
974.735
971.204
969.028
975.028
973.231
956.616
957.336
955.446
957.660
947.246
952.371
949.919
949.342
947.057
945.088
947.759
943.932
930.185
937.092
933.245
935.114
923.532
924.599
916.132
920.558
910.313
919.404
905.555
902.543
913.466
912.247
905.955
904.857
896.787
896.145
900.668
892.434
893.385
885.844
886.684
884.993
877.862
883.839
876.383
870.839
873.632
865.771
863.825
861.168
858.244
864.137
857.441
861.248
853.753
853.623
854.676
851.160
840.666
839.205
836.738
830.321
841.174
826.406
824.645
829.568
824.845
823.410
817.346
817.373
823.313
813.826
817.670
816.766
801.761
811.285
802.192
799.836
802.276
797.983
798.729
794.554
780.588
779.310
778.961
777.570
779.445
778.569
771.056
775.232
770.356
763.159
769.494
769.157
760.856
766.050
753.935
755.341
759.054
741.855
750.716
747.182
742.779
738.473
737.081
736.115
733.416
733.060
735.932
719.211
728.108
720.859
719.438
723.566
720.208
716.057
717.413
712.801
700.123
710.760
694.447
703.558
699.579
687.722
685.729
688.401
685.572
678.486
682.284
678.656
679.641
675.524
669.613
672.042
674.654
673.320
666.106
664.007
659.909
652.742
655.438
649.892
648.491
654.262
644.945
647.169
634.792
644.620
638.179
634.815
635.040
623.619
632.131
623.732
623.572
616.910
617.280
617.598
618.146
615.635
621.262
609.542
615.044
620.405
613.095
622.655
622.428
628.352
618.892
632.095
623.065
634.707
626.302
622.724
635.127
631.942
638.852
631.929
629.662
632.409
642.412
639.300
640.923
645.723
646.253
641.720
647.734
642.345
648.541
641.848
646.901
640.581
653.230
656.099
654.195
649.125
660.034
650.130
657.979
653.531
663.599
665.718
667.139
667.597
666.716
658.317
661.114
668.092
667.352
671.009
667.896
667.110
672.925
676.059
665.196
669.232
668.527
674.134
682.149
670.484
685.249
682.891
673.479
677.168
682.750
684.276
680.861
685.742
680.606
688.273
696.117
685.921
686.850
696.936
689.029
690.087
691.788
689.129
691.125
702.187
706.079
706.455
707.750
702.068
704.250
710.640
700.813
709.367
700.366
704.215
704.311
705.047
710.256
709.028
710.395
721.976
708.823
711.336
726.438
725.167
714.945
715.597
727.119
726.134
729.584
721.064
719.955
730.332
721.338
731.398
727.890
737.931
737.356
737.950
743.081
734.958
742.521
743.131
740.081
740.078
745.021
734.934
746.673
747.136
750.849
741.769
743.598
751.955
753.049
748.376
748.850
756.074
761.137
749.033
750.484
762.426
750.653
760.532
754.586
761.517
757.801
760.381
764.433
769.153
772.107
766.034
762.725
775.818
770.665
778.354
765.630
776.249
768.106
775.235
772.817
778.688
783.419
788.098
785.560
783.113
788.153
786.208
782.495
784.469
784.827
793.099
795.016
790.071
794.686
798.369
786.751
788.276
788.885
799.329
798.066
805.383
799.776
801.922
794.545
800.376
796.922
809.352
812.024
813.366
814.848
813.148
816.014
814.815
809.509
814.090
812.297
818.085
812.980
815.803
825.656
825.635
820.004
826.358
820.222
819.977
828.240
818.798
819.579
829.631
825.188
819.547
825.487
827.696
833.150
822.306
831.687
831.672
828.283
827.738
841.077
828.558
833.397
834.013
839.845
834.323
833.808
832.981
839.551
842.230
834.456
843.539
838.172
840.546
840.827
838.260
845.885
846.162
846.189
847.630
847.258
853.260
839.516
846.856
848.288
845.247
846.942
857.666
852.754
847.779
859.792
845.735
857.141
846.871
852.810
857.579
859.473
863.176
850.993
863.331
865.083
861.383
853.885
856.666
857.519
860.301
863.771
861.670
871.595
859.832
864.796
860.322
860.073
869.699
860.958
868.455
872.196
875.179
869.919
864.833
866.088
874.046
865.699
877.771
876.075
872.871
871.022
874.197
882.698
873.347
872.584
878.921
873.475
883.323
880.333
883.913
876.639
877.626
890.087
883.569
886.422
882.747
878.804
882.974
892.628
894.010
893.382
890.417
889.620
891.766
890.017
888.435
898.582
895.290
894.723
894.999
891.895
896.619
896.809
902.251
896.138
895.680
891.127
896.978
907.133
895.113
898.612
898.098
902.882
906.949
896.727
896.762
905.289
902.515
909.590
912.878
902.915
909.985
915.074
904.003
917.011
918.029
908.790
903.423
907.268
907.119
909.396
912.857
915.059
922.962
923.552
920.717
921.244
915.733
925.720
914.225
926.732
914.208
924.734
919.538
925.255
924.716
921.698
922.629
931.392
920.892
927.789
927.718
921.033
932.147
931.465
930.089
932.574
937.579
932.478
930.897
938.471
934.003
930.906
929.377
936.277
943.484
928.774
940.233
937.868
935.381
937.439
934.310
946.050
945.180
945.125
946.664
943.379
935.861
946.691
943.955
949.637
951.596
941.494
945.163
951.855
952.418
951.464
955.945
950.744
950.412
941.955
940.267
944.028
940.914
942.334
950.064
952.564
938.998
939.452
948.322
945.556
938.349
932.751
944.435
947.034
942.450
930.193
943.764
942.104
931.195
927.550
940.791
937.085
934.807
936.478
929.281
938.221
925.445
933.950
921.150
928.048
921.619
921.702
932.035
929.432
922.411
930.479
922.533
919.743
915.162
914.448
919.338
926.305
914.374
910.231
920.997
910.073
915.835
922.892
918.534
914.840
911.786
918.337
905.812
916.984
904.119
914.736
901.865
901.627
912.324
909.643
900.486
907.121
908.223
900.785
905.126
903.735
901.099
901.058
894.310
896.875
907.157
899.660
901.308
889.510
903.754
898.478
887.402
897.993
899.763
888.465
894.532
884.581
887.906
898.298
885.310
881.788
885.613
889.447
892.098
889.194
883.137
887.718
888.734
878.933
875.064
884.735
889.039
883.235
881.633
882.934
879.976
874.756
878.668
882.878
871.370
867.897
877.477
881.486
875.345
875.068
866.793
875.729
869.674
875.985
862.388
863.397
868.676
859.285
858.329
871.908
869.984
857.771
863.314
859.761
858.256
857.590
866.734
865.207
862.007
853.512
864.263
849.627
858.759
853.804
848.847
856.637
847.438
856.328
856.808
856.447
852.159
857.963
845.128
847.847
843.344
839.437
839.767
844.091
838.933
848.255
837.769
845.591
844.539
842.862
847.989
833.847
838.151
833.031
841.614
845.184
836.327
833.031
839.173
833.686
839.561
837.947
837.460
839.125
834.962
830.779
836.912
832.717
828.587
831.999
820.310
828.205
819.306
819.405
820.672
821.421
818.187
827.410
824.533
828.725
817.919
822.288
816.521
822.693
816.886
816.952
812.579
816.480
821.177
817.467
810.092
816.885
804.997
807.718
805.832
808.991
811.397
814.924
818.643
822.123
828.761
818.988
820.371
827.103
825.671
836.281
838.855
829.263
841.681
836.089
833.001
832.957
842.407
839.153
848.751
839.951
841.687
846.707
845.362
859.298
845.323
855.398
853.674
852.346
859.789
858.580
854.667
857.505
869.253
869.592
865.097
874.657
872.626
870.498
873.798
879.904
879.292
876.751
888.811
889.760
883.432
883.609
892.054
884.745
888.458
891.428
898.002
902.985
893.801
900.603
902.021
905.709
901.881
911.757
902.652
912.631
915.435
907.504
919.091
910.110
912.128
911.965
915.544
914.239
920.080
924.401
929.659
932.199
923.036
934.298
926.300
925.978
928.488
939.699
934.499
931.140
942.714
949.236
947.549
951.791
942.136
948.880
950.756
949.195
945.628
946.623
955.916
951.591
962.368
965.196
959.181
964.471
963.026
959.702
963.586
962.858
968.043
969.770
967.009
972.489
984.038
981.366
981.371
982.313
979.658
987.161
983.720
983.761
985.681
995.573
998.535
1001.352
998.273
994.614
1000.701
1001.798
997.144
1008.717
1000.667
1014.571
1012.468
1012.006
1005.992
1008.869
1015.344
1019.376
1016.216
1023.020
1025.763
1024.912
1027.065
1029.358
1029.029
1021.761
1037.340
1033.431
1031.834
1039.862
1035.095
1036.173
1032.463
1040.156
1044.210
1045.384
1044.236
1052.798
1052.619
1044.478
1054.053
1051.810
1051.326
1049.012
1059.598
1055.049
1067.067
1063.306
1066.054
1061.490
1067.168
1061.533
1064.832
1068.203
1073.950
1076.884
1077.509
1078.604
1081.431
1086.140
1082.309
1084.474
1084.595
1081.984
1091.597
1085.995
1087.210
1098.170
1092.492
1102.443
1098.056
1104.959
1103.508
1100.302
1100.904
1106.449
1100.413
1110.924
1107.868
1119.556
1116.776
1116.649
1118.894
1112.100
1128.624
1120.147
1113.755
1114.448
1123.246
1114.837
1116.653
1111.597
1123.596
1115.857
1110.597
1111.251
1118.030
1120.059
1112.131
1111.108
1105.886
1119.002
1114.566
1107.434
1112.640
1103.672
1117.439
1107.888
1107.169
1108.933
1113.828
1113.923
1109.067
1111.173
1105.973
1105.170
1109.499
1110.830
1108.563
1106.856
1108.567
1098.915
1099.507
1106.171
1098.259
1099.006
1104.010
1089.576
1104.449
1096.073
1091.416
1101.803
1102.099
1093.616
1095.018
1094.800
1088.586
1098.310
1089.137
1089.155
1083.911
1084.577
1090.361
1093.077
1080.227
1082.809
1092.310
1089.464
1085.340
1080.796
1079.014
1087.165
1074.926
1087.109
1075.815
1074.918
1074.092
1075.424
1078.480
1081.535
1083.994
1073.300
1078.856
1070.799
1074.590
1079.714
1069.810
1078.751
1078.487
1067.631
1078.358
1073.145
1067.207
1069.825
1075.483
1072.317
1071.565
1072.079
1060.935
1064.995
1057.544
1057.209
1060.061
1062.618
1066.637
1058.015
1066.957
1067.265
1059.386
1054.120
1059.565
1059.423
1054.799
1054.604
1054.556
1055.738
1062.791
1050.155
1061.732
1055.971
1050.087
1049.243
1055.005
1045.603
1043.373
1052.055
1052.971
1042.609
1044.952
1051.356
1053.699
1054.879
1048.127
1041.204
1050.537
1040.799
1036.388
1043.597
1050.474
1043.594
1041.611
1043.171
1036.437
1036.552
1043.293
1036.571
1045.209
1043.803
1041.086
1036.603
1042.526
1027.186
1035.887
1035.169
1026.667
1028.232
1030.067
1025.006
1034.910
1024.515
1028.092
1035.856
1024.757
1028.867
1031.049
1033.151
1029.557
1025.143
1025.472
1017.382
1029.354
1018.964
1021.200
1027.781
1022.317
1016.996
1027.443
1015.773
1022.992
1010.528
1022.903
1023.547
1012.760
1014.990
1012.989
1022.215
1016.864
1020.049
1008.058
1004.643
1004.597
1006.813
1013.784
1010.759
1008.516
1003.511
1005.957
1002.534
1002.017
1014.056
1000.425
999.109
999.410
1002.221
1009.092
1009.715
1009.655
1004.555
1001.021
1004.083
991.781
1003.725
992.234
995.824
986.391
989.698
995.723
995.528
981.805
984.161
982.863
980.565
982.439
975.538
978.987
988.193
978.577
978.467
980.541
969.428
978.442
975.665
967.495
971.147
973.460
973.128
973.548
962.653
971.227
960.333
968.342
966.033
957.643
959.114
964.914
962.362
954.816
961.811
950.737
954.479
957.416
951.393
943.626
947.093
954.724
950.114
951.997
944.403
935.484
936.163
934.310
935.731
942.285
945.195
937.590
938.806
937.170
937.727
939.584
926.122
931.958
925.726
927.711
926.462
927.213
919.762
919.334
916.582
925.772
914.097
917.159
920.939
917.241
921.761
907.186
906.471
911.991
908.431
913.232
903.190
901.750
912.312
901.652
907.391
895.038
896.962
897.119
900.977
900.082
891.151
888.251
893.371
901.094
899.287
899.022
891.130
885.129
895.723
882.386
883.155
882.549
890.314
878.195
876.255
883.310
878.151
882.277
879.815
874.199
874.813
867.431
873.712
866.765
866.705
861.714
861.574
865.802
868.994
862.664
869.475
858.613
860.932
864.959
858.767
851.147
864.575
848.304
853.253
848.138
849.129
843.732
846.357
852.380
845.116
838.880
840.116
843.224
849.188
849.158
839.252
837.917
839.576
840.340
841.705
835.009
833.694
825.583
827.754
836.595
836.111
823.874
821.144
834.274
817.677
827.480
818.927
823.837
821.742
812.672
823.064
811.752
811.567
811.869
821.983
811.834
809.335
807.748
808.129
813.131
812.081
799.514
806.566
806.037
809.228
802.996
804.124
793.369
804.162
794.195
798.536
788.482
788.718
799.301
795.360
784.008
797.079
792.392
786.069
784.618
791.230
782.870
780.332
788.740
780.161
778.461
779.322
777.431
779.485
768.550
768.547
763.032
765.272
757.143
755.957
765.030
749.789
749.278
744.638
754.455
747.252
744.036
748.380
743.496
732.864
736.951
733.369
734.196
731.047
735.281
723.308
718.023
723.788
713.289
710.241
709.064
712.784
710.616
710.234
709.024
696.972
702.688
696.738
703.692
686.658
686.543
688.768
680.768
687.352
687.301
677.199
679.650
676.841
681.119
677.050
668.095
669.530
672.453
657.872
665.174
653.129
657.548
662.662
646.753
650.771
655.611
650.999
649.708
641.086
634.741
640.572
641.478
638.883
632.035
622.702
626.675
632.087
615.510
613.895
611.446
619.393
618.228
611.249
608.621
606.820
596.934
598.438
592.350
595.888
589.997
598.394
584.420
590.365
579.224
590.124
576.323
575.258
583.716
573.225
579.163
575.544
567.406
567.906
566.610
563.907
557.559
558.382
557.572
546.492
547.720
547.198
551.630
543.390
538.977
544.629
535.437
544.154
536.334
539.273
531.021
535.176
523.134
521.657
523.406
512.268
522.952
508.758
519.780
503.826
509.567
507.018
498.692
496.570
503.610
498.005
495.887
494.085
