123.695
125.015
132.183
142.150
122.345
105.893
97.307
135.301
139.413
134.986
102.573
107.169
109.309
137.460
141.250
125.641
110.857
98.485
132.780
130.195
125.267
146.495
114.582
132.964
96.072
146.090
125.463
107.346
108.135
96.268
144.630
124.110
105.385
95.962
104.900
139.678
128.533
125.849
132.015
113.326
124.393
128.666
126.710
114.771
115.753
126.322
118.125
133.761
119.147
100.384
145.312
102.205
132.221
138.156
105.602
122.443
130.660
100.689
145.130
119.664
99.191
124.259
100.869
110.902
108.368
116.354
144.942
132.387
145.113
101.161
138.593
101.660
102.486
135.158
111.509
101.927
142.509
96.588
114.436
98.837
131.891
118.522
139.913
119.497
146.134
110.182
126.886
98.014
96.913
125.992
113.021
124.023
121.913
118.868
120.153
95.610
127.305
125.126
111.922
114.596
117.857
113.821
105.837
133.522
138.114
111.379
124.391
137.521
118.131
95.376
110.775
121.144
95.663
144.047
102.880
125.405
137.616
102.862
106.461
100.549
110.906
132.819
139.123
101.256
135.067
105.317
122.205
107.137
104.869
102.317
123.256
135.882
136.721
99.986
110.608
116.987
98.707
96.144
131.693
140.725
101.304
135.020
99.045
144.197
100.079
140.525
106.455
114.946
100.331
104.933
122.389
97.568
112.578
97.591
108.128
97.174
139.946
130.892
95.364
112.590
128.633
130.374
100.842
137.506
103.482
97.301
143.228
123.253
102.679
101.238
116.543
137.212
134.301
136.526
108.162
131.880
109.650
131.471
126.619
126.692
135.575
106.221
106.117
112.141
139.783
111.484
120.556
108.792
101.517
146.452
146.466
144.241
144.213
120.827
120.986
112.913
138.571
110.976
124.184
144.200
132.880
114.742
99.724
127.287
111.435
135.676
118.743
142.847
118.479
130.700
104.426
116.115
139.950
119.599
127.198
144.337
112.156
144.270
131.712
109.085
139.811
141.402
109.924
115.441
138.705
115.475
146.185
108.052
140.187
141.186
117.363
131.585
107.115
121.469
139.675
109.082
112.104
137.234
114.708
96.166
103.376
115.372
108.730
132.390
96.521
136.818
131.809
115.312
106.157
143.766
120.859
106.340
141.676
99.155
140.002
107.948
101.485
104.907
109.140
127.940
140.093
140.909
105.775
137.367
121.574
130.991
114.586
123.462
98.657
117.680
96.387
99.818
119.374
112.137
144.124
126.540
111.218
138.034
101.375
139.845
96.963
94.883
145.954
107.384
134.060
125.375
126.513
137.795
145.563
144.496
106.192
134.751
144.517
140.419
101.607
124.871
124.022
129.719
133.030
102.231
111.019
120.271
121.219
132.540
102.452
134.307
108.963
110.901
123.731
125.125
104.174
96.576
137.160
102.753
135.472
119.062
143.200
106.528
100.538
139.629
121.863
136.480
105.676
137.445
116.332
118.469
140.078
105.654
125.012
131.741
113.704
127.741
126.058
131.279
127.322
117.198
107.824
108.239
143.943
143.642
102.444
142.115
145.313
143.331
106.284
124.752
116.969
118.247
99.680
125.118
137.247
112.027
112.896
125.347
116.391
112.574
113.176
133.460
121.039
108.367
99.989
118.753
142.464
95.266
137.679
146.593
126.050
123.885
140.677
107.362
140.683
108.372
102.517
138.120
103.201
100.821
133.249
115.832
100.014
134.960
104.515
99.583
132.719
130.342
145.394
106.713
145.720
142.062
117.950
142.638
119.877
110.361
131.531
139.872
130.628
126.713
138.421
98.609
101.992
117.831
140.850
117.190
137.760
104.683
115.098
116.971
753.299
733.971
804.368
822.200
847.278
238.318
246.725
264.465
261.485
273.368
266.404
259.780
264.771
278.702
270.094
278.738
283.003
298.073
285.068
286.108
315.521
309.730
303.149
309.471
311.292
333.808
313.998
341.471
342.929
349.879
335.580
332.755
344.465
359.447
342.432
349.786
365.671
378.445
378.503
365.315
364.063
383.941
379.810
380.135
383.081
384.884
392.883
409.626
410.764
410.802
416.912
417.211
430.319
436.761
418.330
429.864
428.833
443.103
443.859
429.904
453.585
437.260
460.955
451.643
453.454
474.081
473.574
477.453
469.893
482.748
475.650
487.039
488.812
496.211
492.841
505.995
497.038
521.382
510.891
525.903
519.764
515.900
529.287
525.533
545.283
523.572
555.152
537.872
550.794
559.921
561.636
546.741
575.487
570.308
567.901
585.995
569.992
582.419
588.607
585.062
327.890
333.079
340.094
333.327
338.951
335.147
338.175
337.992
340.218
340.148
341.595
342.707
359.588
348.856
352.090
360.862
361.487
354.819
360.134
372.412
370.399
365.584
378.623
380.365
373.523
378.547
375.493
381.047
381.236
394.069
394.578
397.266
399.964
400.051
402.988
402.267
397.207
398.613
406.266
398.264
402.525
416.339
416.194
406.996
420.435
425.838
415.436
420.313
431.396
431.663
429.366
435.545
427.679
434.960
432.876
435.579
432.984
445.407
443.242
441.569
445.439
442.787
454.512
461.300
450.841
450.990
456.453
462.529
456.559
459.208
466.146
470.278
478.495
481.546
478.977
470.135
486.267
476.622
478.077
493.894
484.462
486.032
488.464
490.062
488.606
504.552
500.640
502.980
497.363
507.466
514.025
511.815
509.004
508.713
508.445
525.606
512.808
517.164
528.228
528.978
534.303
527.715
530.068
526.043
529.968
531.589
528.883
537.744
530.966
535.908
535.347
536.861
525.870
538.377
540.413
531.061
527.149
534.647
540.079
532.396
534.898
531.751
537.015
529.678
540.211
535.427
538.292
544.500
541.693
543.419
533.079
537.293
532.559
535.390
548.833
543.589
546.973
535.904
536.408
546.779
551.169
551.227
542.387
548.715
549.956
538.930
538.866
547.931
551.909
547.199
542.478
551.601
550.543
545.836
556.587
556.135
555.497
548.159
550.834
552.180
549.780
557.760
549.781
555.345
548.924
560.607
559.972
558.483
550.312
557.852
559.139
559.640
554.985
551.969
564.204
564.611
555.789
562.224
556.071
563.642
560.879
557.216
559.741
568.179
553.052
557.167
561.145
561.230
562.160
561.580
561.696
568.743
571.656
568.238
558.622
564.092
570.283
561.297
568.769
571.716
573.617
575.011
568.983
569.932
563.087
570.482
561.912
563.132
568.972
564.824
563.352
565.502
566.523
570.621
572.777
576.390
568.381
569.749
571.860
571.971
576.159
573.441
573.325
568.312
573.961
576.600
584.914
581.149
585.250
575.197
574.006
584.983
584.106
578.391
580.234
575.272
580.869
575.109
576.815
581.368
585.975
576.065
578.522
589.594
588.958
585.048
585.118
590.389
588.530
585.877
587.693
594.769
590.018
583.384
583.767
591.123
589.358
587.008
596.022
594.465
598.146
586.465
597.753
595.490
599.722
590.210
585.169
592.277
588.652
600.037
587.818
588.630
598.868
595.658
596.663
596.212
590.892
599.791
599.229
601.370
605.536
595.703
591.426
595.042
594.542
594.205
601.582
595.404
602.429
608.418
607.896
609.289
603.296
610.128
595.967
611.796
599.822
601.684
604.517
599.589
603.409
608.174
600.516
609.807
605.503
616.928
615.187
609.460
618.849
619.182
608.381
620.878
618.733
616.939
611.449
615.308
616.680
614.331
613.449
621.750
616.273
627.264
621.687
617.481
620.928
627.786
621.276
631.052
628.572
637.564
630.698
625.885
625.504
631.073
637.317
628.816
643.247
640.854
629.013
644.455
645.204
631.436
635.600
644.728
643.149
650.062
647.500
651.239
639.663
647.379
651.823
641.154
650.195
650.276
656.670
656.182
653.074
653.248
655.528
657.071
655.529
659.188
653.912
651.230
653.963
656.002
662.492
663.898
661.372
661.971
656.262
667.181
668.746
669.162
673.874
660.504
666.207
660.592
676.340
672.831
665.981
668.777
675.163
666.399
675.042
669.973
680.531
682.967
684.073
683.306
671.128
673.334
680.790
681.366
688.893
682.812
677.819
692.761
678.562
687.617
695.159
692.649
695.068
682.063
692.466
686.049
693.788
700.076
692.744
699.901
691.905
689.337
694.198
704.502
706.064
700.916
707.602
705.721
697.248
699.400
704.767
710.500
709.197
703.296
711.320
708.480
711.549
701.662
706.309
716.818
707.261
712.963
707.704
720.958
717.447
712.299
714.092
718.693
714.298
716.104
723.011
720.631
720.907
717.637
724.317
729.864
717.877
720.191
728.648
719.818
730.410
732.368
723.736
728.983
724.821
727.284
738.179
734.611
738.956
737.524
742.206
742.933
745.248
730.313
734.401
737.945
741.118
746.005
738.464
750.274
742.079
737.633
746.592
752.193
752.177
749.538
753.127
746.379
757.037
744.758
747.677
758.021
753.046
757.537
754.103
758.265
758.849
751.832
761.298
753.265
761.669
754.834
760.458
761.103
764.037
771.811
760.763
765.602
770.755
767.300
764.117
763.089
767.510
763.137
770.452
767.374
764.225
771.502
769.672
770.636
769.667
763.741
774.056
768.540
772.174
762.619
765.029
773.872
767.638
772.160
775.237
771.512
767.021
775.181
773.376
766.981
764.730
767.638
775.026
773.798
771.763
767.029
771.167
765.296
761.868
765.628
765.124
769.398
771.058
774.065
773.023
767.662
761.752
772.767
767.074
771.399
766.740
763.860
761.133
769.566
764.604
767.712
766.539
774.163
775.001
768.951
761.563
764.241
764.838
766.443
768.370
776.048
762.825
766.876
765.348
764.139
766.801
769.165
764.267
767.111
767.571
771.995
770.624
766.758
768.607
772.309
767.315
762.182
772.335
762.778
770.751
764.854
767.746
767.939
772.386
766.189
776.727
773.982
763.970
770.727
766.949
774.699
772.911
761.707
771.926
769.107
773.008
777.178
775.853
772.189
776.329
772.029
773.147
775.532
764.777
774.336
769.260
773.567
765.010
766.884
767.683
763.995
766.403
767.756
762.896
762.263
765.353
767.815
763.209
770.993
764.886
772.567
769.764
767.585
768.258
770.857
768.352
763.679
773.911
775.426
770.390
776.421
763.626
766.928
774.145
769.988
771.633
764.446
773.223
774.341
766.115
763.787
764.531
762.393
773.786
767.810
766.549
763.505
777.662
777.068
768.533
768.327
765.779
771.327
762.099
776.981
765.607
771.792
763.695
765.534
771.219
766.856
767.236
773.099
768.950
774.595
763.229
764.358
776.298
775.050
770.129
768.609
770.713
774.879
767.440
764.351
774.185
766.948
764.184
771.092
776.596
775.999
773.970
763.352
770.524
762.376
768.438
773.713
776.310
774.738
765.988
764.592
774.611
770.871
772.373
770.567
777.076
772.753
769.191
765.050
776.689
763.584
768.730
774.262
776.523
767.366
774.065
776.816
782.768
782.618
783.317
776.760
779.279
782.802
779.380
776.583
772.068
784.720
772.948
784.431
774.844
779.755
782.919
775.986
780.654
778.722
790.167
783.213
781.024
792.426
788.740
789.377
787.568
790.851
794.351
785.187
784.030
791.895
793.365
796.917
795.101
799.069
792.891
801.202
803.060
790.654
803.548
797.435
793.686
806.818
804.714
805.868
802.295
804.348
799.832
805.796
802.848
810.832
811.795
806.844
803.696
807.438
809.944
801.047
808.638
806.817
809.265
811.637
807.755
807.491
818.610
816.636
818.387
819.741
817.198
818.583
818.396
820.494
817.280
814.464
816.371
811.873
814.717
819.123
824.196
822.130
820.450
824.885
823.736
823.539
829.322
818.097
818.031
823.145
826.689
830.327
823.372
825.015
821.095
822.782
832.132
829.983
826.433
826.000
829.796
827.168
838.209
834.764
830.650
836.506
830.345
827.647
828.907
829.516
830.648
835.752
843.418
831.924
840.080
841.286
835.681
839.336
837.057
842.764
839.843
849.728
838.937
851.402
848.233
844.816
848.792
847.412
847.554
841.869
850.580
857.003
844.093
852.407
846.686
848.715
846.876
853.924
857.534
848.968
861.695
858.259
862.484
861.333
859.146
856.517
853.096
858.215
854.802
863.461
855.432
865.983
869.369
869.601
863.490
868.887
857.866
860.639
868.542
873.454
874.298
869.717
868.936
872.216
863.085
864.807
868.350
870.816
875.836
871.848
871.137
879.235
876.294
870.707
876.804
874.585
879.482
872.273
874.867
877.753
885.318
880.910
882.021
887.905
888.081
888.362
878.667
889.644
879.765
884.729
882.222
883.781
883.437
888.770
884.446
893.007
882.755
895.297
881.163
884.291
885.690
894.995
883.397
885.409
894.604
889.830
880.759
892.004
880.324
889.583
883.811
890.241
882.877
884.037
889.221
885.356
885.968
895.467
893.096
887.027
888.699
893.488
888.303
884.369
893.855
880.180
888.735
895.742
887.818
892.274
894.099
884.310
882.973
892.113
886.684
891.321
881.002
896.268
893.183
889.653
891.670
893.235
883.065
893.267
884.280
896.163
887.606
896.493
882.148
880.765
890.296
881.538
884.841
883.925
895.886
891.718
885.277
895.741
885.662
890.458
890.140
881.194
894.109
887.729
891.595
881.191
882.172
890.975
890.925
885.488
891.297
893.208
889.211
889.591
888.498
893.124
895.746
892.276
897.169
889.291
883.954
882.273
887.419
891.622
895.787
887.640
888.246
883.244
893.696
890.789
882.675
891.990
889.312
892.412
886.698
894.388
894.491
886.765
896.616
888.732
891.694
886.138
894.567
894.105
890.896
892.434
892.204
897.012
897.268
882.364
897.196
891.446
890.793
897.749
890.971
891.730
883.708
882.924
889.329
890.955
884.384
884.900
891.594
890.144
889.345
894.700
882.930
885.370
884.376
887.937
893.001
886.689
893.467
883.883
887.880
888.593
898.111
885.753
892.625
882.661
886.283
894.787
883.105
890.279
894.631
897.676
882.749
890.247
887.778
889.765
884.847
889.610
886.270
886.725
892.345
888.599
885.766
898.001
898.673
892.494
897.938
898.111
889.263
886.828
889.352
895.900
892.208
889.940
888.684
885.933
894.873
894.180
884.876
894.758
885.266
894.919
886.018
896.073
895.135
898.606
894.194
888.528
887.607
896.876
893.751
887.173
897.199
886.512
898.423
897.200
886.003
891.648
891.299
888.361
899.313
892.635
886.238
885.098
888.076
893.272
883.856
896.012
893.326
889.800
884.360
884.450
897.176
887.313
894.573
890.532
898.820
895.390
894.559
895.304
889.805
886.918
889.914
889.717
896.325
893.421
897.553
898.201
893.664
895.475
895.831
892.073
885.982
897.610
889.351
892.542
884.861
891.536
890.795
893.127
891.215
892.100
895.499
886.346
895.035
883.593
884.690
893.152
890.171
883.859
883.170
888.846
886.884
885.334
896.584
893.463
894.610
898.063
886.837
892.540
897.832
883.996
889.119
890.129
897.014
895.310
897.068
890.132
891.067
895.150
892.050
886.524
884.731
887.162
898.150
886.354
892.420
886.635
887.650
885.590
893.645
892.409
890.583
895.891
886.940
893.092
893.623
885.091
898.199
882.835
898.434
883.966
884.692
898.219
893.438
894.711
886.129
896.755
883.492
888.254
883.196
897.628
892.755
887.976
885.456
888.986
885.239
886.782
886.247
890.847
888.820
883.386
888.591
885.747
891.743
889.438
886.869
882.923
893.823
883.353
883.507
896.606
890.811
896.660
885.167
891.484
894.171
893.259
884.245
891.038
889.873
892.570
895.235
884.222
895.052
890.430
889.604
894.330
888.734
896.976
885.158
891.936
886.222
889.820
886.424
887.767
883.779
885.222
893.378
888.913
887.900
891.494
894.802
885.842
896.473
896.314
884.202
891.630
882.601
888.143
883.845
884.133
892.595
892.765
887.532
886.454
886.723
883.928
885.940
883.649
884.250
882.059
888.733
889.164
895.285
890.420
894.779
894.409
890.574
891.145
885.328
891.664
882.232
894.988
889.803
897.240
884.975
886.772
887.554
892.371
885.792
894.811
897.643
889.209
888.429
893.666
895.068
885.371
888.477
896.976
891.699
891.892
886.690
897.570
883.640
891.199
893.955
885.438
889.977
885.295
896.290
885.951
892.716
890.652
896.426
898.814
891.916
897.774
888.262
897.197
890.416
897.680
893.451
896.311
902.194
897.353
901.003
902.810
889.907
897.010
901.551
904.715
891.557
901.920
899.677
894.319
900.023
904.555
907.400
905.645
896.685
905.315
901.466
902.870
907.839
899.981
897.635
908.358
897.967
904.573
899.267
897.778
910.210
896.766
907.736
898.313
901.758
901.657
907.197
897.630
900.532
899.911
898.840
910.659
900.112
899.586
902.512
908.168
903.246
913.308
915.873
901.106
910.799
916.054
909.044
908.020
909.316
909.543
911.936
918.380
914.289
912.875
906.903
903.912
907.531
909.122
910.726
907.384
908.999
916.850
908.521
906.126
912.421
913.527
913.813
921.685
920.817
918.995
908.541
914.081
909.706
911.653
916.785
919.646
920.921
914.070
922.363
911.718
923.062
922.637
915.069
923.215
922.953
916.711
920.042
923.329
927.727
919.231
917.139
919.055
923.682
922.743
923.576
915.127
916.232
919.694
920.268
916.636
927.672
930.321
930.599
928.480
918.805
919.608
931.298
927.470
933.915
927.282
932.438
934.040
926.811
935.021
919.922
932.371
934.009
935.097
921.168
934.473
936.532
923.018
931.738
922.581
927.261
936.217
931.189
927.220
935.175
932.390
926.943
924.666
926.547
925.568
932.236
941.121
930.496
926.528
940.597
930.691
930.260
938.365
931.583
941.552
939.771
933.866
934.850
942.366
938.830
930.939
940.400
934.368
937.790
939.763
938.674
935.143
947.338
933.971
940.831
939.788
935.376
943.747
933.248
939.246
944.200
943.759
943.417
948.035
