127.715
128.588
114.216
106.466
101.562
84.048
120.392
120.282
100.357
117.685
105.324
91.962
103.132
90.720
110.739
114.069
118.182
99.817
102.750
103.809
124.668
799.712
808.698
799.170
795.180
810.183
810.519
818.992
803.654
806.284
815.220
807.891
828.757
825.633
813.248
822.501
842.580
828.323
822.444
832.423
826.473
836.250
851.679
851.169
838.162
852.994
840.263
845.539
846.655
844.645
863.086
845.225
869.804
855.984
849.720
857.836
852.051
852.854
875.603
876.286
870.365
872.337
876.580
882.982
879.389
880.587
878.049
870.648
875.002
873.998
883.773
875.971
889.920
884.814
886.361
900.015
889.762
889.731
915.647
912.059
904.325
910.104
923.641
906.327
922.428
919.011
921.367
917.260
934.192
909.625
912.310
933.687
935.762
939.187
926.485
928.141
941.413
921.855
948.370
952.635
952.864
955.617
958.106
960.754
946.514
950.524
941.729
957.982
944.590
968.915
956.872
968.116
965.627
964.344
967.181
980.248
968.951
978.662
984.233
963.515
981.478
550.114
547.985
540.255
545.342
541.503
541.465
551.277
544.090
557.390
551.564
550.338
557.488
559.979
549.430
558.240
557.464
565.322
560.651
564.706
563.145
562.450
558.064
569.745
573.165
568.648
565.357
562.659
572.013
573.806
571.035
579.530
568.541
574.459
575.527
581.814
578.145
581.607
576.624
587.142
578.969
580.408
580.644
579.651
577.989
589.823
593.781
586.431
585.818
584.639
589.539
585.805
597.965
596.225
599.291
595.612
598.609
596.897
595.597
598.477
593.913
596.337
596.038
609.515
609.004
603.192
606.801
600.291
604.518
617.951
606.664
617.160
617.258
621.079
614.291
618.787
614.504
623.490
611.432
624.720
620.420
621.792
622.168
621.660
619.847
627.724
623.722
623.519
622.342
634.152
634.563
638.468
633.873
627.101
637.233
641.792
640.673
641.825
645.401
632.661
644.728
648.909
643.452
635.529
645.891
645.559
641.767
648.498
654.197
645.176
649.758
653.828
655.982
647.298
651.417
652.097
652.555
659.674
651.203
661.015
650.833
650.472
663.867
663.771
656.963
663.204
668.808
661.331
657.901
668.827
670.386
671.304
665.154
665.786
676.073
668.126
674.008
674.810
673.737
680.357
676.400
671.078
673.599
675.913
680.955
680.077
676.105
674.262
687.800
687.113
685.133
680.337
688.947
677.953
680.136
683.896
681.756
687.293
691.547
691.287
693.878
687.343
694.970
690.262
692.926
702.267
695.916
691.458
693.730
699.558
701.135
700.555
706.058
700.051
706.471
699.368
708.287
708.729
705.424
712.523
715.468
707.467
712.547
713.099
715.732
706.446
709.791
715.419
714.387
710.969
715.500
711.597
718.240
720.503
719.157
724.166
724.751
724.389
723.735
719.498
731.106
717.568
719.499
721.713
733.141
726.379
731.387
728.910
735.874
740.042
731.777
727.451
731.634
728.528
736.343
741.958
742.894
734.935
733.230
746.920
740.800
741.203
750.422
740.954
740.049
745.499
739.530
744.111
750.722
751.213
746.702
746.703
744.246
752.940
751.185
758.313
747.520
753.220
754.074
751.636
759.274
761.902
762.821
758.419
766.490
766.276
759.730
761.046
772.431
766.495
772.720
767.583
772.197
766.614
768.100
776.708
773.745
767.127
780.948
780.756
780.092
775.441
781.364
782.716
776.707
777.502
781.231
776.806
776.416
781.401
776.229
784.717
791.909
783.977
782.142
782.936
787.432
781.742
783.948
784.395
787.854
793.356
790.822
800.203
793.891
792.118
797.981
804.532
793.701
795.713
799.114
795.243
808.750
795.894
808.790
804.178
812.293
813.786
807.726
802.751
810.619
805.391
802.709
812.208
810.998
814.350
817.676
818.352
818.603
806.047
810.799
817.134
808.392
816.038
816.672
811.986
814.084
805.000
816.574
818.583
818.946
809.136
807.380
815.236
813.361
814.657
813.234
811.791
810.682
819.294
808.680
807.662
814.211
811.419
823.469
821.696
824.400
818.406
809.246
817.287
816.928
815.349
817.879
820.174
812.720
819.482
825.543
815.527
826.768
818.403
827.088
817.176
826.609
820.622
812.658
824.356
814.785
822.564
821.015
821.066
828.229
825.658
822.332
828.473
819.638
825.908
824.628
817.615
828.973
825.938
829.136
819.760
828.449
823.793
829.805
817.933
821.518
823.576
819.190
820.878
831.532
818.977
833.073
823.660
825.439
820.171
831.091
826.233
822.813
830.688
821.366
827.847
829.370
822.788
835.693
824.912
829.400
824.542
824.490
828.506
835.525
835.694
829.156
829.187
833.741
826.372
831.181
827.849
830.476
833.481
824.340
825.540
832.907
827.902
839.967
839.921
837.120
839.611
833.182
833.060
827.647
832.199
832.825
836.278
831.640
830.394
829.634
840.976
830.909
829.609
837.872
840.641
833.201
829.178
843.671
841.375
839.600
838.234
838.530
836.511
834.422
842.222
836.311
832.497
835.058
837.266
846.217
846.917
844.102
843.810
839.164
834.785
842.507
839.546
848.533
837.190
842.876
842.174
849.610
848.250
849.984
847.200
849.979
842.303
849.343
837.460
846.495
835.505
845.604
848.004
844.736
846.643
851.673
843.965
848.903
839.281
838.975
842.064
837.746
850.624
844.954
853.303
843.177
846.119
850.968
848.542
847.003
853.720
848.847
850.799
845.342
847.330
841.583
848.113
847.168
854.839
851.689
850.136
846.285
856.716
847.210
849.561
848.940
849.521
848.369
853.204
848.549
845.150
838.724
850.237
847.123
840.558
839.559
844.872
837.071
845.254
839.907
841.941
836.292
834.830
833.079
843.112
846.044
834.133
840.924
838.682
833.458
837.637
827.684
835.717
831.201
829.567
837.802
825.031
823.772
826.389
831.577
836.472
822.370
836.138
830.828
820.848
819.384
821.315
832.603
817.402
830.967
818.088
821.296
828.315
822.710
818.960
826.759
816.905
813.311
819.555
823.377
817.877
820.632
819.614
816.874
809.139
816.801
818.106
814.059
807.761
814.651
808.854
807.999
804.427
813.441
816.966
812.387
807.669
803.739
804.935
805.725
814.531
802.119
801.425
808.496
804.400
804.821
799.315
808.636
809.802
806.446
802.727
808.210
804.000
794.271
798.399
797.415
800.889
793.186
791.376
802.527
795.091
799.659
793.325
795.215
789.769
787.631
786.510
794.383
787.522
786.896
790.990
783.265
787.799
794.572
792.067
786.724
780.061
790.936
783.735
791.828
782.892
775.718
775.709
775.497
773.729
773.011
783.994
784.536
783.404
784.944
784.263
770.122
770.294
777.647
771.362
775.516
767.448
780.579
772.855
775.066
772.196
770.322
778.653
778.072
775.384
775.060
772.108
762.468
762.499
759.180
769.269
772.569
769.533
765.938
764.409
757.983
761.306
757.683
754.601
759.657
764.536
762.875
755.841
753.022
755.511
758.452
758.672
753.697
750.357
762.159
749.209
754.766
754.539
748.414
744.879
758.319
753.370
744.041
752.848
754.612
742.961
743.339
749.230
741.138
748.322
748.665
746.295
739.661
747.304
745.886
735.373
745.720
734.633
738.761
737.884
744.518
745.409
739.581
738.715
736.487
732.537
732.347
735.901
735.316
736.945
740.975
737.314
733.108
736.742
734.412
745.240
733.787
735.231
748.136
748.579
739.770
752.923
755.039
750.287
747.242
749.957
754.564
747.392
746.331
748.818
761.711
757.805
754.589
758.387
754.098
763.712
755.295
767.240
762.582
755.800
770.945
768.740
759.129
768.400
775.876
764.415
762.422
768.609
771.916
773.513
778.602
780.156
771.677
778.765
772.062
776.436
786.217
778.219
778.407
776.941
778.316
789.568
780.156
783.849
795.044
782.947
785.827
793.385
786.068
794.945
794.452
800.775
790.400
802.328
789.698
801.614
805.719
806.655
795.379
806.538
797.556
796.097
797.395
801.490
802.449
801.798
804.681
806.592
815.100
804.612
813.575
819.002
816.276
811.241
810.824
821.395
812.735
822.639
825.068
826.427
813.844
818.538
822.417
825.937
819.599
821.132
821.544
823.644
836.298
830.255
838.787
839.429
830.197
837.187
840.637
834.581
834.989
832.058
833.260
834.542
838.471
834.851
845.524
846.745
846.208
837.698
846.243
851.355
852.800
852.033
849.568
843.014
852.070
845.457
860.623
852.272
861.689
852.778
859.196
852.433
851.569
868.200
867.532
869.695
861.299
861.993
862.225
858.664
869.456
875.571
862.070
865.803
877.969
868.458
867.192
868.437
869.479
868.050
874.995
875.580
881.505
882.966
879.883
875.693
887.249
876.791
877.972
891.780
891.698
881.644
893.330
891.279
886.222
891.150
896.415
900.264
896.200
888.878
899.380
902.691
891.753
896.695
891.860
897.958
904.734
904.871
907.648
901.014
909.238
907.258
913.050
908.878
912.192
911.534
903.439
913.782
917.282
908.776
921.888
910.441
914.200
919.662
924.028
919.376
918.855
928.811
915.415
926.933
927.934
925.567
931.568
918.138
918.399
931.130
917.336
925.018
919.858
919.359
927.907
921.253
919.293
915.311
913.921
923.770
913.400
914.997
918.785
919.162
913.381
924.394
924.920
916.661
914.307
923.749
917.159
915.325
911.950
914.980
914.718
909.208
911.055
917.110
918.173
916.634
917.370
913.141
907.503
904.976
911.010
905.375
907.567
902.745
911.174
916.951
912.063
911.819
901.522
912.930
913.087
900.198
907.100
906.939
906.457
900.832
904.255
901.263
898.199
899.393
902.240
911.897
907.433
908.945
910.729
908.533
902.751
904.127
896.855
900.932
907.234
902.778
908.249
907.902
901.743
892.012
894.948
890.957
896.151
902.792
894.167
898.022
889.761
902.953
894.838
900.429
902.932
897.472
897.497
893.863
888.166
894.059
888.581
898.378
885.224
896.076
898.897
898.549
885.012
890.784
893.591
894.921
892.946
884.031
887.817
886.258
882.416
891.544
889.968
890.032
893.679
892.433
881.133
879.695
888.577
891.849
886.515
882.934
883.069
883.995
877.203
879.744
888.820
877.100
883.117
884.098
887.627
882.162
889.239
886.428
884.495
886.814
887.099
871.793
881.494
875.447
874.670
877.415
884.186
879.728
873.799
874.964
878.272
877.428
881.766
882.693
876.495
876.818
878.457
872.621
878.899
866.895
878.554
875.394
878.223
871.637
873.230
872.294
866.483
871.714
868.966
873.993
871.217
868.632
866.587
867.816
861.463
867.948
863.197
871.174
873.668
859.182
861.297
858.845
866.136
871.543
864.775
865.819
869.109
865.326
867.828
864.719
855.327
867.733
868.438
863.770
854.539
865.406
865.537
865.859
867.674
863.724
852.329
858.743
865.724
860.337
864.769
851.937
852.995
853.359
851.104
862.999
860.539
854.599
847.531
852.969
848.621
856.103
845.262
842.676
854.682
854.754
847.299
842.354
840.146
838.803
841.520
841.388
843.491
836.458
845.734
844.964
834.398
836.131
841.002
841.441
836.490
830.286
825.874
834.216
837.478
835.067
829.869
825.140
833.380
821.348
826.581
825.539
816.390
822.154
825.907
823.092
822.277
817.557
817.476
821.782
809.287
815.972
820.454
819.575
816.004
806.853
818.730
808.700
802.374
802.029
805.431
809.931
801.176
798.371
800.899
795.995
795.037
794.914
792.984
799.627
799.234
793.337
796.658
801.953
788.980
787.641
799.772
793.009
796.950
784.124
797.423
794.144
792.053
790.998
790.823
782.986
781.624
785.750
788.466
784.735
777.279
782.790
777.597
772.918
782.094
772.753
777.641
780.111
767.598
769.568
770.390
764.429
774.367
765.962
769.965
767.960
758.869
770.677
767.337
766.037
767.457
760.711
767.372
753.065
762.784
764.604
752.579
764.350
763.795
761.067
747.378
759.250
758.176
756.139
746.427
744.575
746.741
745.257
749.933
750.184
747.410
747.616
742.742
742.879
740.838
735.385
735.989
743.367
740.274
732.196
743.776
739.973
736.494
741.202
726.847
728.332
733.369
730.702
732.229
726.723
722.086
725.241
718.919
728.633
719.840
722.318
726.948
719.634
715.574
715.678
719.239
715.621
718.973
721.948
714.004
717.845
714.014
705.648
712.154
713.153
710.180
705.880
712.528
714.860
705.562
707.360
697.522
695.369
705.367
695.948
698.309
697.341
696.799
696.178
699.486
703.505
702.082
687.306
697.092
700.522
699.307
696.782
693.191
685.829
694.712
685.957
683.246
693.105
687.603
688.342
685.090
678.268
674.057
686.745
678.210
683.567
677.386
674.066
680.956
675.720
686.087
677.703
683.179
693.758
684.266
690.411
686.971
696.849
694.336
690.635
687.151
696.416
694.618
689.659
697.739
692.376
694.920
697.628
701.788
695.393
693.928
701.716
698.519
704.132
701.620
700.976
702.141
703.691
711.634
707.006
708.891
708.614
705.710
705.894
711.283
714.372
723.294
712.336
725.395
721.826
723.067
719.827
720.519
728.801
726.609
722.715
727.761
719.667
727.395
730.380
721.644
731.728
739.318
735.688
738.863
728.276
736.660
742.721
740.471
736.877
739.254
733.667
732.725
748.567
746.671
747.504
743.121
744.424
748.438
739.203
743.900
754.727
747.238
743.182
759.284
759.424
755.258
754.692
749.088
762.714
762.277
756.090
762.065
767.646
766.749
769.795
763.180
761.789
767.483
768.630
764.977
769.797
776.144
772.279
775.446
766.625
772.662
770.531
768.463
771.200
775.242
783.163
776.785
779.725
782.987
774.809
782.672
781.182
778.588
777.775
781.024
791.710
794.225
785.412
785.023
797.168
786.706
786.504
786.337
785.553
794.564
798.041
802.689
794.282
794.856
802.524
799.815
797.412
803.644
809.153
810.226
799.970
808.778
808.684
815.125
800.493
807.416
816.707
815.009
811.639
814.208
808.579
817.626
820.896
820.205
820.898
812.642
819.154
828.291
817.717
826.862
824.579
819.906
827.931
824.513
832.263
822.968
822.365
832.421
824.353
830.841
832.015
840.079
842.238
838.500
838.489
833.734
830.292
845.620
844.216
843.531
845.099
839.476
849.967
843.293
842.031
844.753
846.182
847.357
847.275
858.027
845.988
844.708
853.465
857.155
851.753
862.699
859.876
860.690
866.238
855.091
862.664
854.815
854.277
870.647
863.816
863.621
867.086
870.714
870.506
875.860
871.656
875.747
882.313
872.366
882.174
880.879
875.110
878.364
878.237
886.193
878.730
889.158
893.022
890.570
890.147
892.210
894.154
903.395
894.340
901.546
904.534
906.350
894.899
908.631
899.212
900.703
905.616
905.601
912.174
919.260
910.276
906.874
908.304
919.231
924.072
921.437
918.766
923.193
931.423
921.304
924.402
934.442
926.590
923.238
935.327
929.091
934.913
934.011
933.369
946.107
936.464
946.526
945.110
949.438
946.082
951.377
941.857
945.895
951.405
946.639
955.192
957.877
954.080
950.934
957.199
957.341
966.066
962.168
970.004
966.976
964.878
976.933
974.801
972.792
971.024
982.458
970.514
975.306
986.589
975.181
979.563
985.259
987.398
984.875
987.038
981.718
990.550
990.113
998.911
986.868
990.634
995.333
997.290
1001.082
1004.867
1005.382
1005.795
1010.504
999.709
1015.217
1009.499
1018.304
1009.671
1009.517
1020.581
1014.712
1025.271
1015.764
1024.360
1027.886
1029.840
1027.662
1021.555
1031.547
1027.262
1032.772
1034.654
1031.083
1029.115
1033.172
1029.553
1037.962
1041.289
1038.038
1045.460
1036.310
1037.811
1042.978
1042.559
1047.485
1043.837
1057.946
1045.679
1059.926
1056.756
1050.419
1050.619
1061.215
1064.345
1070.267
1071.274
1069.299
1069.696
1066.179
1070.881
1074.965
1064.812
1076.586
1075.223
1073.005
1077.502
1086.121
1081.324
1078.783
1075.808
1081.722
1083.971
1091.337
1089.019
1092.875
1091.050
1090.884
1101.569
1102.856
1092.104
1093.667
1104.122
1102.918
1101.139
1102.276
1112.791
1107.080
1106.858
1111.652
1112.682
1108.507
1105.663
1114.416
1112.250
1116.277
1119.818
1124.528
1121.425
1126.903
1125.475
1120.950
1126.683
1133.475
1136.691
1129.759
1124.423
1132.480
1132.404
1139.622
1143.329
1144.720
1137.453
1137.442
1131.937
1139.133
1137.731
1136.779
1136.568
1130.415
1127.607
1128.470
1131.479
1128.528
1118.702
1114.225
1119.069
1123.900
1122.225
1114.060
1108.553
1110.208
1120.281
1112.581
1107.191
1116.876
1116.686
1106.057
1106.577
1099.423
1111.747
1100.232
1109.014
1098.817
1103.430
1095.379
1096.255
1094.453
1090.947
1093.355
1098.218
1097.643
1093.802
1091.005
1090.179
1088.604
1079.971
1080.921
1090.281
1089.660
1088.288
1089.488
1082.251
1080.033
1076.111
1075.445
1078.025
1068.080
1079.425
1069.982
1078.746
1069.997
1065.134
1065.527
1067.357
1065.999
1069.784
1069.604
1060.133
1061.709
1067.556
1065.754
1058.617
1063.982
1055.155
1061.351
1059.575
1059.527
1059.253
1052.510
1045.486
1042.914
1054.678
1048.461
1050.731
1048.180
1043.900
1037.433
1040.180
1036.739
1034.857
1041.446
1039.033
1037.986
1030.140
1041.652
1027.911
1032.484
1031.378
1023.414
1022.294
1032.916
1020.486
1033.634
1018.662
1026.237
1017.238
1016.150
1016.505
1017.575
1026.088
1019.237
1013.796
1020.168
1018.714
1005.726
1013.345
1012.315
1004.640
1014.273
1004.345
1004.380
997.871
1012.039
1011.278
995.232
1009.117
997.978
1006.582
1003.796
994.268
995.119
1002.350
986.349
994.890
996.455
986.945
990.984
990.223
985.842
986.762
985.022
976.067
981.868
986.267
980.562
972.683
983.699
984.277
977.193
975.717
966.607
974.892
974.308
971.626
972.802
965.783
970.427
972.830
960.922
966.591
957.912
959.983
965.266
956.384
953.610
955.760
957.388
949.317
954.808
945.570
953.250
953.369
957.081
942.942
950.546
941.792
939.195
946.499
