122.485
104.902
89.613
123.757
123.753
87.488
114.255
124.350
85.257
89.224
120.577
116.734
106.583
112.014
120.072
91.180
120.965
111.839
112.994
126.505
115.019
94.418
116.070
111.712
105.312
109.512
101.804
97.020
97.693
119.688
124.903
123.882
124.868
105.803
98.482
95.566
122.638
111.078
128.000
88.267
85.133
127.404
115.159
113.137
119.507
128.440
99.725
102.534
84.363
116.863
129.763
117.332
123.569
116.160
93.866
86.930
102.406
122.096
122.122
85.138
129.454
104.608
127.808
100.356
85.562
92.619
92.054
117.917
102.111
89.609
129.294
125.103
119.332
92.392
127.741
87.975
92.422
110.907
115.858
110.408
128.406
110.930
93.119
84.511
119.575
101.484
94.283
97.244
122.523
113.616
124.705
101.764
963.851
960.165
978.187
973.378
976.984
959.980
974.511
981.390
973.194
971.124
967.462
972.349
973.399
980.468
977.307
989.631
975.485
991.781
1004.104
1002.425
993.556
1007.653
1006.423
1010.887
1015.820
1017.664
1001.452
1010.131
1023.515
1025.574
1017.270
1019.027
1017.935
1004.379
1019.399
1015.393
1030.672
1019.309
1013.957
1020.553
1032.667
1041.128
1026.889
1038.205
1038.945
1042.893
1028.602
1043.591
1042.896
1042.784
1036.339
1045.544
1049.223
1058.572
1065.464
1059.681
1070.016
1071.983
1070.382
1062.552
1057.129
1073.637
1059.607
1066.904
1064.976
1060.740
1079.354
1083.223
1072.696
1076.159
1072.112
1090.082
1077.819
1098.623
1101.844
1101.457
1094.213
1080.677
1089.628
1112.284
1092.200
1095.997
1109.770
1094.880
1102.626
1114.484
1114.423
1106.913
1116.394
1121.536
1117.624
1108.154
1117.551
1112.789
1115.774
1136.223
1136.017
1122.287
1124.795
1129.878
630.581
633.647
637.932
636.401
627.647
639.214
642.927
640.078
643.699
638.294
639.676
643.773
640.530
645.539
645.808
638.818
650.551
640.692
640.561
655.352
642.529
653.378
658.287
645.019
653.519
660.961
657.121
652.993
658.308
651.965
660.059
655.518
655.416
658.457
657.314
662.083
658.741
667.375
671.111
674.865
670.436
672.394
671.939
672.656
675.067
679.865
675.345
676.157
679.722
674.428
682.916
684.009
682.855
673.963
684.375
679.083
684.702
690.926
678.718
693.337
681.511
691.695
683.667
684.377
700.152
690.227
697.665
697.087
699.159
693.945
691.389
691.406
693.662
697.881
700.740
701.911
702.394
712.008
706.200
700.027
702.508
713.896
716.043
712.937
704.693
707.886
707.150
713.352
722.442
721.715
711.082
711.866
715.331
722.524
725.606
718.044
723.950
723.251
725.818
722.714
720.352
734.603
720.120
734.226
728.241
723.664
731.220
733.280
723.958
734.322
723.175
732.370
726.082
732.860
732.207
725.572
724.952
739.131
738.090
732.600
733.586
731.701
729.125
736.194
737.478
732.782
731.334
735.897
738.724
743.725
740.939
737.457
743.607
730.521
746.140
741.312
733.931
743.556
738.563
734.417
738.198
746.103
748.412
744.649
737.214
739.068
742.487
741.488
735.318
735.856
742.161
751.191
750.198
737.456
738.523
742.417
750.882
746.295
746.176
747.159
741.973
745.730
744.107
744.188
748.080
745.870
744.935
746.576
745.786
756.078
756.984
744.114
757.607
749.272
747.800
758.266
756.808
751.147
760.064
746.059
747.276
751.577
749.240
746.899
758.718
749.085
755.765
754.483
759.387
757.229
757.965
760.838
750.015
749.934
754.412
753.750
752.810
762.457
756.697
753.877
764.672
761.907
763.780
765.806
763.357
764.377
769.237
761.915
769.607
758.031
766.172
755.321
767.346
757.761
767.529
766.437
759.625
767.909
770.985
765.091
759.972
761.352
772.492
770.865
772.294
773.081
767.327
774.013
768.719
764.729
776.426
766.147
774.631
774.509
769.843
778.544
765.782
778.523
773.017
771.751
772.676
777.743
765.583
765.922
771.194
777.647
767.451
767.387
776.866
783.158
778.535
773.121
781.556
769.051
776.628
781.455
771.663
772.331
775.148
777.291
772.050
780.810
776.656
778.512
775.486
778.852
774.287
788.725
778.581
784.610
789.996
776.376
783.564
782.072
780.556
781.836
787.073
777.902
784.783
781.286
789.003
785.552
791.500
787.714
786.429
784.200
784.914
783.056
786.298
785.776
787.848
787.989
784.757
790.150
787.059
786.102
785.556
786.696
791.972
790.891
791.207
791.348
790.878
785.894
796.537
789.349
800.021
797.313
792.982
800.815
791.521
802.379
800.261
803.011
797.919
795.983
802.167
793.460
799.649
804.565
804.993
804.257
798.391
808.777
804.141
804.304
797.883
807.694
803.828
811.204
799.268
806.174
799.020
801.481
801.599
802.101
802.003
809.792
816.096
807.481
801.667
807.239
806.682
807.558
817.400
818.178
809.634
815.749
816.291
811.371
811.476
820.995
817.698
822.584
809.397
815.087
814.649
812.320
809.821
823.119
812.261
821.743
826.376
819.544
824.624
812.616
827.037
827.373
822.769
824.476
822.615
821.734
827.817
824.520
817.403
826.584
819.945
831.216
821.430
831.867
832.383
833.107
825.000
820.972
821.867
822.797
831.121
825.617
832.254
824.510
831.974
828.935
831.505
824.233
833.701
825.193
827.489
825.632
837.290
836.343
829.894
841.446
834.036
832.790
831.336
832.208
843.304
842.133
832.877
835.032
840.637
837.420
838.056
836.109
843.794
840.147
846.733
845.305
850.294
847.837
837.115
836.054
848.180
848.137
837.509
844.000
845.876
842.075
843.054
841.280
851.226
844.145
852.875
841.620
846.985
845.883
848.963
844.112
848.189
854.610
853.846
852.408
854.738
848.256
860.393
856.152
853.003
848.290
856.402
855.176
862.241
855.898
860.884
857.192
864.489
853.136
858.423
855.027
866.668
855.200
855.410
867.093
857.762
857.016
865.070
860.137
864.929
867.417
864.081
869.323
871.186
858.521
869.968
867.282
868.552
861.711
863.713
862.233
864.354
872.829
862.128
875.297
864.211
867.983
870.668
877.235
865.073
865.911
874.265
877.977
879.280
873.860
867.697
873.292
870.376
874.532
871.345
881.074
880.988
880.201
882.371
880.659
877.723
875.091
876.314
869.298
877.972
883.255
883.955
882.724
880.224
876.585
873.627
871.440
873.440
878.932
881.227
878.081
876.557
869.033
882.316
876.287
876.920
873.931
875.085
867.380
868.508
866.457
878.786
877.993
871.787
866.625
877.777
878.457
867.928
870.960
867.344
865.660
869.692
867.935
868.458
877.901
865.926
873.127
868.552
876.191
864.088
874.769
868.543
876.669
863.390
866.335
868.821
869.940
863.208
868.339
874.297
870.041
860.852
870.339
871.866
862.052
866.283
872.561
872.899
868.766
869.313
870.789
869.609
869.768
866.537
860.783
868.219
860.568
858.332
863.176
871.041
863.225
865.487
865.064
858.760
862.448
872.350
863.205
870.656
856.685
866.693
861.094
861.017
869.439
869.940
865.713
864.075
871.020
862.329
860.557
864.375
854.788
863.466
857.876
867.379
854.159
864.368
855.574
860.013
855.686
863.665
861.129
864.063
863.208
864.394
857.957
853.459
865.873
855.114
863.331
855.488
853.428
857.174
856.831
857.043
855.611
865.498
853.426
858.999
853.576
854.683
865.504
864.562
852.912
863.222
852.150
860.815
856.725
854.827
854.343
864.343
854.193
862.120
848.437
857.417
854.071
851.012
859.280
849.537
853.408
855.955
853.246
861.369
850.191
857.270
858.431
853.133
846.672
860.391
857.399
848.538
847.726
848.685
859.092
854.911
847.275
848.938
844.431
855.586
859.418
847.318
850.441
849.471
846.774
844.103
844.192
853.356
851.523
856.929
850.852
856.689
856.445
854.562
846.243
843.039
851.877
843.085
845.956
850.697
853.237
848.792
846.708
850.828
851.546
846.925
846.835
846.717
847.200
852.147
854.594
845.953
847.841
849.675
848.403
846.570
839.715
841.258
846.704
842.433
849.290
844.949
839.932
845.108
844.179
842.270
837.644
843.103
838.093
842.817
835.850
838.398
840.346
835.293
833.437
847.481
833.326
847.707
832.355
839.788
839.568
832.624
838.707
845.569
835.909
835.707
843.250
841.176
843.523
836.451
836.742
840.905
831.644
836.843
841.007
830.833
834.873
840.926
838.571
836.463
829.334
839.271
840.224
838.847
837.517
829.734
834.952
827.185
832.459
830.938
823.442
835.347
824.459
834.805
835.881
825.186
820.647
835.743
835.980
829.156
835.450
829.082
828.557
832.905
822.976
821.192
825.958
828.829
832.630
818.390
826.536
826.980
828.406
822.137
818.403
826.933
824.365
825.195
816.798
829.028
819.082
826.483
813.064
816.508
827.021
817.863
827.684
820.279
818.687
821.160
824.927
824.610
822.904
813.941
812.209
814.286
814.029
816.365
820.900
811.018
818.414
808.160
813.165
819.868
814.463
820.928
818.428
813.994
806.312
820.298
804.901
809.147
810.029
817.514
813.066
808.423
808.686
808.558
803.705
809.956
814.995
802.084
813.916
815.361
806.658
811.432
811.677
810.948
803.101
808.297
804.316
805.413
806.736
812.199
808.482
809.072
800.478
803.549
810.623
797.710
807.128
798.864
801.237
808.211
806.900
808.551
794.838
798.663
808.114
807.051
802.689
797.595
800.647
800.855
802.139
801.595
806.604
803.369
794.929
805.766
798.259
791.993
795.358
804.177
791.643
794.088
797.099
792.223
794.751
802.792
798.673
793.089
802.204
789.749
799.909
787.765
791.483
792.927
799.525
784.578
797.000
784.365
799.528
791.196
795.617
786.821
789.089
796.621
794.749
796.714
795.185
789.745
795.696
788.591
794.722
791.266
794.056
793.382
787.972
789.571
786.793
775.896
783.544
787.411
778.100
774.338
775.303
772.238
783.748
773.986
772.213
769.786
768.544
769.426
768.969
765.414
775.892
770.261
762.510
765.658
768.881
770.256
773.559
758.888
770.959
766.954
757.465
769.241
767.371
764.022
756.235
760.949
762.283
751.880
750.690
764.050
753.401
757.936
760.789
749.443
754.926
755.817
750.807
748.177
747.031
756.503
751.741
751.144
750.811
739.240
741.341
739.242
751.828
740.375
737.731
735.563
741.239
748.579
735.323
734.304
742.521
742.241
741.310
730.186
730.489
738.638
731.598
729.424
727.584
734.986
737.097
724.033
724.425
725.530
735.166
722.542
725.262
725.770
730.054
718.695
729.049
723.811
719.213
720.425
719.623
713.967
712.927
720.122
709.944
710.631
723.038
722.043
707.854
711.718
719.096
718.290
710.059
709.770
705.673
709.383
706.963
711.741
706.046
707.927
703.303
697.843
701.826
696.733
708.061
706.264
702.088
692.343
690.907
704.628
692.663
698.237
691.168
697.965
698.677
697.651
691.436
694.217
691.195
686.575
686.360
696.386
692.074
680.410
692.707
692.166
679.619
683.714
679.918
683.421
681.012
683.851
680.996
676.944
677.320
682.723
673.769
683.852
670.256
677.895
668.386
680.486
673.998
675.042
677.636
674.639
665.188
667.085
673.277
660.079
659.486
673.403
670.574
662.736
669.871
661.087
660.241
662.128
660.869
661.922
655.236
664.544
657.120
663.511
647.995
650.990
647.792
649.351
651.656
653.017
657.588
648.902
654.196
656.868
651.770
653.484
653.018
647.717
642.765
639.221
639.952
640.833
649.141
645.510
642.716
636.381
635.065
641.636
645.245
635.753
628.905
639.319
631.822
630.941
638.000
639.691
635.514
639.682
632.886
634.521
639.438
635.104
637.974
636.616
637.025
639.683
631.468
631.726
635.538
628.580
635.027
638.013
633.871
635.086
629.101
632.308
625.552
626.089
630.107
634.437
638.890
625.200
634.494
632.723
633.995
626.778
626.361
631.819
625.841
638.565
630.811
626.948
625.712
630.521
637.622
630.519
637.387
624.834
628.676
636.339
636.474
638.575
625.190
627.836
635.076
636.131
625.418
633.023
635.877
626.559
637.355
625.447
631.882
627.492
632.707
636.787
626.352
624.179
635.527
627.566
633.852
622.924
635.247
629.002
631.207
628.530
634.152
636.286
626.501
635.074
635.541
627.303
630.499
627.201
629.794
631.397
625.724
623.478
625.724
630.474
620.356
632.221
620.830
629.621
623.399
620.222
619.602
633.814
621.006
621.689
621.732
620.391
630.071
629.969
621.666
630.716
619.728
619.960
618.228
622.061
633.425
627.702
627.364
630.092
617.970
620.355
629.386
627.752
620.406
632.088
623.213
621.202
620.864
618.045
616.811
627.267
625.586
624.531
618.111
618.756
623.547
622.488
619.650
625.024
617.183
617.236
621.293
621.494
627.877
619.223
615.191
617.164
629.500
629.042
616.179
622.352
619.441
618.471
618.541
619.323
620.580
620.248
614.844
629.216
618.244
628.682
629.157
627.690
617.142
623.665
626.269
618.015
616.523
622.681
615.244
618.632
612.959
620.911
612.724
618.686
620.955
622.525
619.317
622.956
614.222
614.113
617.877
614.419
621.090
620.585
621.473
624.252
618.606
620.021
624.238
613.191
617.291
616.457
610.997
622.686
611.112
615.878
622.645
611.145
625.201
615.607
617.753
625.738
612.609
610.925
619.773
618.924
622.752
614.835
617.011
623.282
632.172
633.148
621.501
635.377
634.112
629.690
624.911
626.000
640.281
633.387
635.406
640.950
643.412
641.306
635.175
648.616
647.987
653.283
642.195
649.343
655.457
658.231
660.842
647.108
655.313
650.381
660.801
665.510
657.170
669.179
665.158
672.024
670.135
671.048
673.401
663.769
671.851
665.532
667.550
678.921
679.250
674.844
674.198
679.060
675.535
681.109
689.932
689.074
694.319
683.236
687.932
690.915
685.534
685.869
691.117
700.647
702.777
703.715
692.356
694.773
701.804
706.341
697.857
713.465
705.246
705.133
713.256
710.423
713.192
720.278
709.855
723.279
717.834
718.103
713.719
729.938
721.699
729.800
720.773
730.019
732.532
726.151
728.364
736.947
732.542
741.854
739.076
734.476
738.275
734.665
737.278
740.218
737.831
748.942
754.551
749.831
749.107
757.734
757.773
752.501
753.381
762.790
764.622
751.330
763.567
762.197
764.023
770.675
773.595
760.384
775.531
772.124
765.124
771.962
780.273
781.378
769.981
776.993
779.743
775.311
783.602
781.805
783.762
777.577
786.947
785.950
795.036
792.909
786.103
787.543
800.977
790.507
799.106
803.119
805.824
808.707
796.336
805.229
797.113
810.784
813.949
814.173
814.652
806.281
811.821
808.334
813.568
822.555
818.300
815.333
823.698
814.705
824.311
821.196
827.659
834.697
829.790
830.394
828.155
829.992
835.723
834.672
837.493
837.290
846.182
836.615
839.826
841.601
836.897
846.030
841.777
840.737
842.313
854.638
846.527
849.234
857.443
849.577
856.924
855.834
867.841
864.229
867.246
868.680
872.876
863.963
863.885
866.158
875.463
873.048
877.822
873.617
880.919
874.396
873.084
879.925
881.242
872.095
871.448
882.750
870.914
874.890
880.579
879.689
879.726
867.519
872.746
864.103
867.184
875.377
873.008
858.289
867.079
866.073
861.733
858.974
855.103
864.873
853.059
863.652
862.589
859.161
858.605
863.192
847.964
853.957
856.609
848.640
844.777
849.927
848.072
855.958
850.647
842.160
845.521
837.902
844.432
841.324
843.782
834.507
842.153
838.423
836.171
837.292
834.258
841.793
840.156
832.680
841.556
832.736
836.639
839.697
831.345
838.436
825.637
822.579
823.856
834.250
833.126
829.710
821.449
826.385
822.243
822.267
814.499
812.981
821.700
815.129
825.528
812.424
810.547
809.693
807.430
808.253
810.287
804.879
810.842
810.735
810.773
815.879
802.549
803.041
813.291
811.069
798.294
796.513
796.347
794.632
794.421
807.065
799.077
795.130
794.747
799.334
794.208
791.736
797.822
788.023
798.794
795.480
794.242
790.512
790.268
794.683
783.564
781.357
785.252
782.575
776.626
783.446
778.585
782.633
776.085
784.571
781.028
783.752
777.501
777.192
767.347
780.440
779.711
771.216
779.681
775.393
766.685
770.998
765.113
765.713
764.367
764.383
759.267
758.758
766.195
759.561
767.143
762.350
752.545
760.347
754.922
761.074
751.183
762.776
751.190
749.811
753.884
759.154
758.432
747.902
747.192
755.229
744.321
739.991
746.459
739.183
749.288
737.471
734.932
743.033
734.049
740.341
737.877
742.311
732.383
735.424
728.875
739.675
728.309
727.615
725.833
739.567
732.842
737.187
726.221
728.580
722.651
720.409
731.394
728.635
723.803
727.420
724.872
718.810
723.253
721.784
711.652
711.210
716.138
713.203
717.283
719.305
716.982
709.882
712.733
706.475
708.172
705.459
710.168
702.811
700.901
700.834
712.049
703.909
709.026
706.161
710.843
712.408
711.491
707.607
704.354
699.473
710.603
697.201
698.076
708.319
694.929
695.031
695.828
706.212
697.469
693.816
694.179
705.892
698.139
705.137
692.315
698.046
690.451
703.270
695.874
689.170
700.652
695.080
694.381
692.829
688.208
694.966
699.313
689.286
690.119
690.751
683.805
686.476
697.770
688.584
682.998
685.458
681.918
688.382
695.195
689.614
682.937
687.799
682.193
685.208
689.683
690.499
682.532
688.491
691.335
677.099
681.218
674.874
689.283
676.438
675.310
685.413
674.676
672.197
683.399
681.695
671.024
673.029
678.704
672.787
676.506
682.281
675.878
678.923
678.275
679.053
674.804
673.973
676.607
671.953
669.717
680.072
672.201
675.069
676.302
673.613
675.151
671.472
662.586
673.863
669.801
665.317
674.065
667.685
670.822
659.256
671.576
661.077
672.000
