116.033
104.424
110.819
139.468
123.748
150.629
117.151
116.302
144.413
151.565
118.263
135.654
124.341
143.640
115.310
150.867
146.904
135.560
114.106
137.596
137.661
120.885
108.548
115.133
118.154
123.866
121.076
117.119
126.847
136.787
124.081
114.548
146.340
130.167
122.797
108.267
137.940
127.489
129.051
141.022
141.686
114.166
149.575
105.772
120.522
149.143
147.012
106.840
141.253
131.721
121.036
145.222
152.637
104.164
129.070
136.033
102.936
110.091
135.340
120.125
146.756
124.021
144.476
147.644
102.525
114.990
116.696
137.741
150.696
126.657
134.575
135.654
128.226
152.590
123.517
144.670
112.641
111.459
133.698
146.843
110.739
120.838
108.551
112.724
116.380
146.059
116.061
124.239
31.259
35.298
41.324
46.440
36.149
40.847
46.996
40.968
46.202
42.895
32.667
42.096
43.803
40.585
33.982
39.058
43.179
37.791
396.876
408.833
391.782
414.087
412.355
405.839
409.799
400.971
412.871
414.282
430.214
414.813
421.192
434.006
430.742
448.300
430.110
438.963
438.831
451.801
445.167
453.749
444.185
454.918
454.729
461.409
448.039
476.182
470.771
482.873
470.649
478.708
489.473
486.988
472.562
492.648
490.831
483.900
477.803
488.059
484.047
485.680
501.388
513.770
506.204
499.820
505.669
524.029
523.130
526.362
533.641
530.447
531.899
519.404
533.073
523.647
535.967
547.355
541.957
543.884
543.034
560.094
550.072
545.327
547.567
572.184
548.250
570.319
565.808
582.946
568.920
584.454
586.671
588.146
568.676
577.859
590.510
574.736
584.400
586.137
583.883
596.045
608.790
611.760
600.043
617.765
619.017
601.094
601.853
625.307
607.458
630.180
620.730
629.839
621.432
638.008
634.374
648.966
638.183
635.252
361.864
366.731
358.248
361.803
370.886
364.341
373.692
362.144
373.413
368.996
365.185
378.142
375.137
382.155
374.621
380.842
374.688
383.274
386.191
381.938
391.432
394.221
388.593
389.547
390.891
396.862
391.343
388.362
398.759
402.997
406.290
406.972
407.584
396.874
404.448
399.626
404.777
409.958
407.014
406.141
419.135
414.288
421.081
412.833
423.631
422.405
414.883
417.486
430.164
418.728
424.982
426.933
430.121
432.431
426.508
436.973
440.870
442.207
443.659
438.021
435.258
448.706
442.733
441.786
452.220
454.967
452.993
453.758
444.831
459.463
457.871
455.215
462.694
457.094
467.046
464.174
461.577
464.233
468.951
465.553
475.624
473.488
477.622
472.394
469.333
476.687
478.814
484.159
481.373
474.916
487.319
489.441
485.157
486.332
486.592
482.987
490.367
493.993
487.508
496.735
496.813
506.267
501.535
494.439
504.138
506.017
513.455
514.467
515.044
508.466
508.525
514.090
520.923
520.092
530.462
519.126
519.705
523.613
523.943
527.415
537.924
533.194
538.965
532.509
547.900
548.800
540.885
554.206
547.419
552.782
556.373
550.435
554.741
550.324
565.360
558.873
565.157
560.398
574.673
570.418
576.320
579.507
570.034
575.320
574.591
584.568
587.087
584.158
579.849
583.814
587.942
592.257
590.695
598.834
597.559
601.047
608.355
609.794
604.615
606.034
609.206
608.284
609.329
609.467
610.521
611.259
614.190
623.859
631.145
628.162
625.280
633.254
633.769
634.304
629.385
642.755
632.426
644.337
646.493
645.102
652.836
642.965
651.369
647.385
647.528
656.724
659.009
663.173
654.864
669.027
662.492
666.461
674.471
666.209
670.317
666.734
668.212
672.126
674.517
682.371
678.104
684.734
679.720
687.981
686.986
696.741
701.386
688.376
695.056
703.069
702.541
703.140
713.592
702.410
712.122
716.132
706.189
708.818
714.347
724.904
722.749
728.071
719.073
732.668
736.048
730.953
735.296
733.518
733.049
738.888
741.894
741.308
739.435
739.858
749.759
752.539
743.787
759.346
759.386
763.553
756.003
754.732
754.795
756.505
766.513
764.170
770.529
764.099
780.561
771.983
782.812
771.222
783.917
777.017
788.518
784.580
786.195
796.963
797.189
799.915
799.307
800.175
802.918
802.022
808.436
806.708
800.860
801.106
807.773
816.183
808.656
813.154
824.211
814.430
826.399
817.445
818.281
828.011
834.843
833.508
837.686
835.874
831.975
836.168
833.638
843.175
838.423
849.102
850.688
845.893
858.615
855.968
849.356
854.607
856.073
860.365
861.447
867.036
858.855
860.415
865.185
868.119
874.884
870.635
867.189
869.900
874.469
872.125
872.523
877.959
864.246
869.124
873.422
873.012
865.891
873.595
866.665
871.506
871.986
875.880
867.154
875.632
869.435
866.164
871.697
869.702
881.298
866.864
871.153
878.362
881.478
876.817
876.849
867.332
878.692
882.452
876.881
877.625
870.281
880.375
880.894
875.527
879.398
872.357
870.935
879.054
879.052
875.923
878.802
869.324
874.654
880.184
880.692
881.402
878.846
872.339
885.566
884.437
884.103
879.516
877.686
885.941
871.206
885.079
881.758
886.137
871.874
882.093
884.123
878.250
882.158
887.570
875.117
875.176
874.342
887.937
878.635
887.391
873.831
885.752
885.173
882.554
873.485
877.324
877.266
881.843
875.547
882.049
886.446
880.693
881.786
880.949
875.627
880.960
885.953
881.456
889.392
879.397
886.577
886.045
876.535
882.742
887.955
885.160
877.410
880.735
883.851
886.059
886.673
883.450
879.049
879.622
893.180
883.100
885.502
892.250
889.091
882.633
890.888
888.506
883.276
886.263
879.656
891.401
882.276
893.481
891.431
887.251
891.485
884.362
886.790
886.282
885.489
888.339
893.847
889.145
887.430
882.907
889.214
896.176
883.009
889.804
891.661
891.599
888.982
897.528
893.037
897.516
896.857
898.176
894.255
891.073
888.666
890.674
895.897
893.551
891.698
888.255
887.853
888.033
885.140
897.295
897.461
893.875
894.165
885.914
886.067
889.403
890.444
898.938
891.447
890.928
891.229
894.472
895.786
896.784
889.853
895.609
893.902
898.011
888.397
893.557
889.304
897.642
892.978
893.460
901.394
896.220
902.270
888.858
901.408
889.221
898.318
891.092
899.762
892.821
892.621
894.514
902.891
897.802
897.682
891.750
897.855
894.068
885.128
883.923
895.767
893.280
881.375
891.848
877.075
883.550
876.094
881.695
872.611
871.479
884.022
881.415
873.146
878.854
872.592
863.655
865.656
863.524
867.103
859.531
862.080
870.434
861.872
857.722
863.801
852.968
856.802
859.605
847.980
852.319
859.316
856.090
843.143
845.960
849.378
850.363
839.379
842.328
838.216
833.843
838.791
845.128
837.859
842.095
839.226
834.815
834.954
827.249
826.024
822.539
826.423
822.042
819.058
829.724
820.306
819.012
826.804
817.130
820.617
814.803
809.828
820.830
810.622
809.471
810.009
812.428
809.396
811.431
812.144
805.320
801.652
800.534
800.025
801.650
804.274
790.059
787.477
790.084
787.587
789.024
782.262
784.103
779.957
786.594
779.934
789.989
777.624
779.384
782.489
783.924
780.622
776.989
768.157
773.686
769.198
764.923
772.000
771.038
769.871
771.201
765.528
762.497
766.043
754.836
753.424
753.034
763.673
751.772
755.596
760.308
755.833
747.935
753.104
748.999
742.304
738.733
739.461
750.427
741.223
740.058
738.969
733.623
744.318
737.503
739.906
731.733
736.463
729.417
721.946
727.976
720.635
719.523
718.314
718.255
720.345
719.853
719.401
722.232
716.578
723.024
713.272
707.978
705.824
703.641
711.994
716.239
709.845
709.420
711.743
696.108
694.213
703.755
695.851
696.428
694.250
695.858
702.136
686.425
698.473
684.759
686.299
692.591
680.293
690.462
679.974
685.476
685.197
687.288
674.005
685.549
678.357
676.875
677.893
680.764
671.723
674.967
676.415
675.042
659.874
668.146
671.495
668.142
668.371
653.543
660.660
650.471
657.727
651.402
650.338
645.746
658.432
653.415
647.192
650.964
653.435
651.933
643.776
650.103
658.243
662.629
653.950
657.033
654.703
654.418
661.948
665.073
661.485
665.574
668.182
676.556
668.524
679.702
682.511
672.927
677.385
677.169
682.693
679.092
690.858
689.624
689.492
698.217
692.149
691.136
693.337
691.826
704.011
703.604
698.283
700.552
708.659
712.554
709.097
714.102
705.063
714.185
717.003
717.229
711.987
716.824
725.528
725.753
717.969
719.771
731.389
730.823
723.760
724.275
735.177
728.111
742.435
732.483
741.370
736.367
748.509
743.017
749.962
752.255
746.794
753.748
753.424
747.893
763.684
764.317
759.254
756.022
756.742
770.107
772.545
759.763
763.068
774.853
778.896
775.553
778.015
783.934
782.346
783.155
787.740
779.912
791.043
794.388
790.649
793.486
792.746
795.255
798.707
798.023
804.315
803.085
796.057
805.826
803.971
808.722
811.010
803.897
810.164
810.296
817.285
814.597
824.030
819.099
814.807
827.725
831.075
822.788
832.455
827.464
834.339
838.397
830.224
832.265
839.025
836.441
832.588
844.254
849.401
851.763
844.201
852.237
843.668
846.909
857.860
851.387
862.610
862.788
853.948
856.566
856.819
859.073
864.909
868.719
873.749
866.153
878.987
869.123
876.465
875.378
877.556
874.579
880.493
882.187
886.494
885.191
886.588
881.406
897.843
893.958
888.825
892.758
900.927
902.303
905.228
897.389
905.147
910.606
903.119
902.518
916.577
915.684
919.985
910.976
920.646
916.798
912.226
919.223
918.710
928.765
932.556
929.397
934.569
932.067
924.642
926.856
938.619
939.563
944.956
944.243
935.522
936.904
939.584
951.912
955.033
950.607
947.399
956.656
947.160
956.699
952.213
959.615
959.848
964.138
965.398
971.765
964.123
961.125
962.638
957.828
963.902
959.893
964.328
960.931
958.708
955.642
957.664
959.595
949.730
956.311
954.463
960.671
950.808
955.371
952.705
956.645
941.370
952.059
940.227
937.486
943.466
943.036
944.632
933.981
947.001
942.386
944.374
944.581
933.768
937.822
927.075
930.753
938.306
924.796
931.880
923.420
933.711
922.996
931.703
917.600
920.040
928.450
923.909
927.394
923.194
914.404
913.716
910.522
909.976
917.913
914.705
912.853
905.554
906.863
913.704
906.317
905.715
905.271
904.381
910.998
906.563
911.301
895.395
899.557
907.666
895.167
901.135
896.263
898.074
896.930
891.446
886.194
899.726
890.476
885.249
897.161
886.375
893.140
890.120
891.982
878.868
882.513
885.166
876.554
877.541
883.295
881.740
874.083
883.645
878.771
868.141
875.141
870.479
879.140
877.766
869.976
872.065
860.751
867.090
862.178
872.195
869.469
868.801
854.136
864.393
861.204
859.214
865.167
858.608
861.911
857.013
848.634
845.907
846.531
851.589
850.827
852.495
855.881
839.570
850.394
848.749
836.824
846.082
836.596
841.832
843.229
836.468
830.988
838.419
841.657
835.623
837.444
830.850
839.822
825.868
823.151
823.589
835.260
822.391
825.787
831.511
823.364
825.005
822.518
820.195
816.442
815.382
815.065
822.812
821.439
817.306
810.799
811.890
809.408
809.998
809.838
811.708
813.626
809.081
806.079
799.393
809.805
803.091
802.831
793.991
795.754
799.174
799.589
793.645
802.917
794.493
793.905
800.677
792.290
797.749
784.745
782.503
782.867
788.691
791.371
788.038
787.228
786.106
789.865
783.676
779.539
774.193
784.242
782.876
781.858
779.730
781.617
781.470
780.879
765.900
775.720
769.982
773.059
769.108
767.681
769.239
772.902
760.278
770.422
771.073
759.825
766.183
766.023
756.978
760.919
768.362
762.054
763.188
757.245
755.162
766.246
758.372
765.370
766.447
759.760
758.116
750.857
764.154
752.799
754.591
753.175
750.561
751.113
749.736
757.544
754.163
759.927
758.690
757.272
746.227
753.143
748.458
748.860
747.775
745.164
743.503
744.453
752.668
742.765
753.917
744.968
747.003
741.200
753.079
738.928
740.592
746.833
742.262
745.951
740.236
745.133
743.687
748.503
740.976
744.646
740.604
738.593
731.882
732.758
743.096
744.183
735.675
740.407
736.500
742.498
736.610
735.531
729.905
730.400
733.966
736.314
738.049
735.896
732.274
737.884
728.606
738.284
737.421
737.190
735.534
724.840
726.256
733.004
724.065
725.824
728.975
726.087
723.495
728.643
731.529
718.085
724.578
717.351
724.178
718.358
720.562
716.118
721.565
726.277
719.841
715.550
711.619
715.625
716.837
725.082
717.903
720.401
719.278
723.078
707.527
711.531
710.820
720.844
708.379
720.468
707.700
710.216
719.028
709.108
708.380
708.235
702.665
713.633
706.970
715.130
702.927
712.857
702.694
710.767
707.535
697.709
697.163
700.986
711.347
702.277
702.989
695.645
703.311
697.971
692.865
705.497
700.331
702.123
695.743
705.537
704.216
702.786
700.830
691.777
691.906
689.770
696.089
695.556
697.565
689.234
698.277
700.235
687.990
698.544
686.607
693.388
689.791
695.220
689.156
693.174
691.585
689.977
684.353
688.353
680.932
681.175
688.131
679.636
683.329
677.769
676.606
681.197
681.910
676.147
681.790
687.260
678.379
675.680
677.036
680.992
680.208
672.888
677.387
685.247
671.779
673.766
671.378
676.060
668.688
677.432
672.969
665.136
671.158
669.135
670.566
670.406
657.421
670.155
664.162
667.747
651.750
665.308
650.309
650.371
648.594
645.453
649.082
645.915
650.256
648.412
646.145
649.953
637.505
641.283
637.867
641.491
642.187
645.234
643.687
636.435
641.279
628.970
636.634
628.476
624.490
632.160
632.812
620.606
627.656
628.082
620.835
627.729
624.352
623.620
616.987
621.632
621.919
618.017
617.332
607.981
615.331
615.327
604.333
604.973
601.610
597.879
601.410
597.391
593.244
592.133
591.450
602.151
602.932
595.420
592.255
590.399
590.608
584.247
590.219
587.772
593.449
591.703
581.379
577.264
585.889
578.469
584.503
584.934
568.796
582.970
575.312
571.824
575.623
568.284
570.670
564.376
572.900
565.371
567.235
556.215
557.975
565.713
551.742
560.263
564.026
554.132
555.716
559.154
546.472
544.662
551.553
553.129
542.969
545.990
545.227
544.920
547.256
542.217
541.804
541.784
533.445
537.578
533.758
541.297
535.315
537.618
537.453
521.610
521.339
524.447
517.251
520.127
521.689
515.957
526.657
525.501
513.280
518.446
508.137
514.713
508.999
504.887
511.272
507.569
503.725
502.121
501.434
504.546
508.295
502.500
493.454
502.982
503.349
500.949
499.942
491.814
493.720
499.417
491.883
484.624
493.166
483.544
483.283
480.474
477.767
482.467
488.317
482.430
485.840
481.428
477.496
481.858
473.551
475.304
477.097
469.544
466.745
462.098
465.740
471.220
465.191
458.975
459.428
452.800
454.288
455.730
458.870
448.999
456.292
451.361
448.751
450.275
441.546
451.699
440.821
442.152
440.774
451.017
448.051
445.430
446.735
438.943
440.514
439.396
439.458
437.874
434.689
434.086
437.703
436.965
441.696
434.274
444.151
440.797
438.694
450.139
448.328
451.261
452.493
450.377
448.900
459.863
456.260
452.168
463.862
456.614
454.046
465.688
466.034
464.173
464.160
473.087
468.705
467.231
466.576
479.881
472.951
467.354
473.037
479.457
475.967
473.600
489.218
475.958
486.526
484.174
484.505
486.476
491.815
498.782
485.969
499.948
499.311
496.697
497.183
500.227
507.575
504.228
511.285
502.861
499.798
507.151
513.406
516.912
513.766
519.936
521.247
520.809
512.064
522.665
521.499
522.418
528.993
523.928
526.111
520.394
535.004
536.832
533.222
531.380
542.748
537.622
537.759
543.493
544.212
543.899
545.521
543.286
551.084
539.319
555.786
552.981
543.743
546.910
550.261
550.963
563.411
552.984
564.916
567.213
556.279
556.852
568.616
566.495
566.715
565.769
569.966
567.276
566.547
581.446
572.241
577.162
574.935
588.251
586.180
581.126
583.283
585.894
592.266
588.886
590.281
588.167
591.886
596.254
602.608
601.296
598.047
594.640
602.570
606.357
602.482
600.832
608.554
602.029
609.572
604.546
607.077
606.645
613.725
623.054
616.035
624.022
622.792
618.095
620.736
624.091
621.414
632.295
633.208
624.412
629.495
640.166
635.307
638.253
637.118
645.256
647.417
642.299
637.324
646.310
646.566
644.667
653.181
651.338
649.598
646.411
657.563
660.134
648.964
661.849
658.906
660.541
657.346
663.720
666.169
673.666
673.887
676.491
665.987
670.097
677.419
672.587
669.891
676.050
674.783
686.760
685.226
681.905
677.893
690.603
693.810
691.302
697.191
683.822
686.347
689.604
689.387
693.163
696.348
694.744
705.976
706.462
703.116
704.512
704.728
706.234
706.276
713.965
711.507
694.608
701.153
696.235
695.950
682.959
691.659
679.251
685.730
687.274
681.072
680.790
665.475
673.396
672.741
661.551
666.218
652.823
659.451
659.276
655.797
640.716
648.075
637.492
645.268
636.333
640.090
635.570
629.699
618.786
621.596
619.574
609.044
615.391
610.922
610.119
600.421
599.411
594.393
596.530
590.104
588.511
582.641
589.232
578.792
575.196
576.208
566.814
575.929
570.231
570.149
557.954
567.736
551.023
549.389
550.963
546.222
543.549
545.871
539.431
545.160
533.587
538.470
534.760
527.106
519.402
523.947
515.701
523.518
517.933
506.472
514.763
509.347
510.735
505.044
502.843
500.875
485.851
487.593
485.744
486.171
484.009
473.790
478.326
477.661
462.336
471.707
462.484
453.679
462.525
455.312
449.324
