95.945
124.193
109.679
144.519
116.217
130.669
95.933
137.947
116.699
144.085
96.090
111.740
140.466
145.981
105.425
96.896
117.219
98.687
101.170
129.278
131.521
146.617
129.603
138.997
97.408
99.150
140.186
132.531
97.734
145.209
118.478
119.755
95.922
109.749
119.461
106.701
106.766
100.075
135.653
120.817
117.231
110.011
126.904
100.830
119.634
123.639
124.804
118.322
143.467
103.234
117.036
132.938
106.846
114.308
143.344
143.257
132.638
103.795
107.091
106.874
144.828
101.919
138.673
140.205
107.401
134.945
120.459
129.682
130.923
97.312
133.841
123.847
106.666
110.361
116.211
109.993
141.014
95.818
143.234
131.870
126.737
102.353
116.415
117.237
114.882
135.047
134.016
132.916
122.211
98.529
143.761
95.722
145.486
112.699
137.511
114.926
101.960
118.546
101.959
135.900
146.030
137.805
143.139
108.599
118.573
106.350
146.694
113.486
98.155
125.298
122.925
122.867
107.844
97.765
108.338
100.482
97.395
133.378
96.400
133.042
109.472
138.837
132.840
133.501
102.898
99.392
102.636
98.125
135.145
133.239
138.186
137.924
123.695
139.876
121.131
113.183
126.297
141.221
139.084
130.141
95.804
100.962
105.437
113.613
115.293
120.243
132.517
97.398
109.776
101.385
112.331
96.519
96.934
140.657
112.176
136.461
105.579
138.398
134.773
140.575
107.033
111.256
96.790
106.121
126.050
116.541
140.775
103.128
112.468
106.411
118.287
97.374
109.359
146.717
114.406
141.415
125.658
95.956
117.893
106.481
121.447
109.784
125.307
114.334
124.352
144.104
101.009
113.108
123.168
100.507
130.398
131.257
106.054
99.005
116.840
125.158
115.390
146.498
135.016
111.053
115.267
113.967
137.017
139.293
108.965
94.976
101.373
143.634
143.880
134.563
101.637
104.092
145.029
144.818
126.565
103.418
130.007
109.062
98.501
134.351
138.614
140.856
109.252
97.792
137.590
138.192
112.777
102.705
97.828
144.550
97.567
135.473
96.262
121.956
108.224
108.721
126.936
145.381
95.860
144.176
105.639
129.735
122.895
143.897
139.432
123.121
120.535
137.240
100.510
95.173
132.668
104.172
136.165
127.978
116.540
136.102
127.267
95.830
110.055
99.094
114.341
123.891
144.906
100.391
119.099
103.703
144.364
99.435
96.540
133.374
125.742
116.769
94.812
119.822
114.238
130.816
146.452
114.470
140.863
113.184
133.875
101.761
133.484
141.981
121.936
111.796
133.801
104.477
123.449
124.681
129.893
120.448
143.943
132.217
100.135
146.302
138.777
115.527
142.579
113.680
119.070
105.184
112.225
114.786
99.465
102.557
116.396
111.784
123.610
136.560
95.847
139.698
126.321
135.587
137.626
98.408
114.685
105.053
141.600
145.283
110.116
140.135
112.379
101.600
118.879
108.106
125.443
114.483
99.662
116.987
97.697
123.557
101.937
119.278
140.898
138.918
143.854
101.074
112.105
123.410
128.930
126.474
114.614
124.192
102.405
140.543
130.570
136.738
119.469
108.659
97.199
107.524
128.084
95.961
142.715
131.609
134.022
109.651
99.354
131.165
99.220
101.928
127.473
121.184
101.788
146.113
97.359
101.547
98.449
137.224
141.516
125.368
131.087
139.744
105.965
110.922
117.137
97.192
117.627
116.871
118.887
111.111
132.143
103.177
107.572
139.668
99.672
124.887
138.015
101.206
103.887
108.703
100.700
115.904
144.859
141.487
127.607
133.804
127.535
113.275
96.030
97.310
95.557
110.354
115.996
118.720
116.661
112.649
134.589
129.469
114.926
96.641
138.598
100.145
128.573
106.208
117.419
140.350
124.048
110.264
122.182
117.760
100.636
125.035
116.261
137.337
139.964
128.538
102.873
135.359
136.798
130.574
96.899
145.947
109.104
96.426
130.212
109.691
101.051
95.568
101.707
141.888
137.360
125.882
144.058
123.869
97.927
106.855
119.312
142.999
142.385
134.055
99.533
106.989
121.050
119.852
144.599
134.514
119.500
116.475
101.443
126.798
98.789
121.632
134.202
120.738
102.649
135.272
129.954
134.540
111.557
107.758
136.343
142.512
106.439
133.670
120.463
118.454
139.615
135.070
144.585
106.294
126.199
95.178
145.787
96.360
113.710
143.845
143.885
102.013
128.332
143.022
106.790
114.551
108.835
119.620
110.516
108.745
107.921
118.320
118.494
108.866
141.860
119.535
115.646
126.507
124.728
134.764
99.951
129.644
138.559
98.910
143.306
96.431
96.518
137.804
96.052
138.735
118.468
131.668
146.387
106.309
101.137
120.323
95.631
108.697
116.813
97.442
119.695
96.832
145.692
116.307
129.318
127.951
104.006
124.986
96.654
146.407
142.834
96.288
109.247
105.602
142.834
121.116
134.892
95.162
108.181
117.650
100.227
131.467
116.188
123.033
126.327
133.691
109.219
118.563
101.674
131.861
132.302
121.865
95.527
121.763
126.833
143.007
131.582
110.581
99.089
139.938
134.891
97.596
110.747
105.362
144.738
98.872
132.292
124.184
124.989
108.759
101.874
145.260
138.886
124.264
111.284
115.965
106.411
117.492
125.617
108.529
126.983
111.831
112.379
144.741
123.006
103.100
133.827
94.879
102.857
142.216
122.340
120.624
137.282
105.985
111.497
134.454
122.097
122.229
106.590
138.969
111.673
129.888
135.570
118.964
142.312
137.901
129.068
121.411
108.038
132.262
125.555
135.545
133.752
127.909
144.054
143.058
123.230
98.259
102.982
113.429
99.348
111.982
107.507
120.264
114.797
140.413
104.272
104.017
99.874
111.253
139.862
121.400
115.288
98.986
143.113
144.396
144.026
99.407
105.932
98.954
131.645
95.073
97.254
96.907
106.309
125.703
113.018
119.496
98.746
113.709
102.027
121.097
137.684
141.904
134.455
126.077
112.971
134.275
133.736
95.703
121.479
132.642
114.480
107.249
109.596
102.823
143.094
99.751
99.273
146.661
136.872
129.651
98.565
138.055
95.852
138.034
98.722
99.864
136.453
134.968
119.757
133.375
133.776
104.641
102.849
108.761
136.077
122.242
116.012
138.058
114.810
107.928
136.538
128.208
113.788
100.785
110.935
121.203
133.496
131.546
106.853
130.105
124.243
101.878
136.545
145.087
128.791
111.700
114.578
98.219
100.394
102.567
103.944
126.928
118.315
144.622
113.380
133.904
116.349
127.466
125.109
112.068
111.451
132.615
115.622
117.191
108.309
143.947
97.904
128.257
129.294
127.987
127.062
115.779
96.439
140.402
95.051
143.146
108.292
146.269
114.362
136.598
136.336
145.208
136.205
141.506
96.882
120.227
104.149
128.341
124.165
116.425
98.788
133.279
104.273
114.250
126.624
121.829
109.753
99.731
127.217
116.084
116.229
142.755
114.179
127.271
122.196
105.800
107.729
122.898
131.936
110.719
126.451
97.047
117.890
101.913
129.157
95.119
119.352
119.461
107.243
110.258
143.894
100.798
115.456
128.900
117.417
116.804
124.859
138.946
104.867
123.642
122.283
101.564
107.467
130.905
142.821
115.023
118.379
107.648
117.650
118.928
138.248
119.991
116.496
95.287
114.087
143.584
127.319
104.305
109.196
132.465
131.791
119.550
99.246
113.798
134.028
95.884
106.280
127.039
105.991
120.607
143.749
121.350
116.856
135.606
112.673
95.333
107.363
114.528
135.496
123.832
103.965
129.476
127.431
143.613
120.939
133.898
132.490
135.985
100.303
135.321
103.026
95.438
122.028
141.229
108.129
131.564
114.051
134.211
121.828
95.321
118.569
95.960
101.165
146.532
125.642
95.077
132.949
126.837
111.071
119.786
145.365
100.949
142.024
140.041
96.436
117.828
143.486
119.816
141.712
127.046
135.457
118.587
105.944
143.758
102.399
126.371
114.497
114.980
144.742
131.409
122.431
98.759
145.718
138.037
100.572
131.525
120.371
113.598
120.804
140.516
118.653
138.599
98.034
117.259
100.586
144.996
145.324
123.359
102.334
136.847
110.557
102.558
140.116
120.415
138.961
144.520
110.729
105.085
135.996
106.745
103.334
125.335
145.606
108.783
111.739
121.380
141.971
142.558
139.480
104.024
128.348
112.505
105.135
100.010
109.095
106.721
144.615
139.311
134.756
127.888
137.963
113.634
139.579
131.900
129.003
109.144
119.404
95.083
112.572
121.466
144.586
123.255
143.619
101.482
140.001
142.721
145.814
130.494
103.269
127.497
109.856
111.102
140.922
111.408
109.267
131.252
99.963
106.256
145.383
106.513
103.042
110.821
134.378
110.902
114.214
125.395
102.022
118.968
117.982
102.881
137.998
137.094
119.383
116.387
113.636
131.641
145.052
109.365
129.565
121.091
96.095
131.892
141.179
119.392
96.504
105.299
112.187
106.895
123.452
113.781
139.401
142.738
145.783
115.110
108.059
118.340
140.501
107.862
116.346
125.879
130.547
135.784
113.670
138.688
132.253
122.839
649.719
655.491
680.571
676.980
718.008
712.174
684.147
723.121
754.545
721.184
698.629
753.643
775.849
763.730
789.963
755.384
800.415
757.968
792.351
245.145
238.106
230.737
253.277
241.180
249.283
247.102
245.660
248.645
254.035
261.132
273.715
270.474
257.165
266.168
258.643
262.661
275.703
263.785
284.729
267.755
283.654
283.686
281.654
274.465
280.467
284.418
293.570
307.502
295.124
295.972
299.416
294.491
298.722
314.136
309.627
324.903
325.910
315.162
313.047
312.228
324.034
326.266
332.824
314.697
319.234
342.934
334.084
331.991
333.624
333.813
333.597
343.463
332.030
340.263
339.542
335.354
364.842
354.689
359.040
356.449
356.511
368.529
360.706
351.186
374.895
378.749
362.932
368.450
381.035
371.272
364.671
386.674
387.362
392.558
380.381
392.902
380.965
393.805
388.142
394.351
224.625
219.072
219.396
229.476
225.985
221.744
232.412
235.435
233.050
224.618
224.814
228.395
232.728
240.254
234.503
244.845
237.939
232.935
245.689
246.114
236.006
251.395
243.521
250.492
246.593
254.635
245.432
250.585
251.475
256.126
252.951
247.537
260.229
254.299
254.678
261.728
259.329
268.551
267.501
262.504
269.777
270.990
265.292
269.165
269.057
268.497
265.414
272.901
269.764
274.927
266.831
269.316
280.759
270.182
281.647
286.341
288.016
276.598
284.216
283.111
286.530
283.268
280.915
280.714
291.872
295.658
291.989
290.944
289.789
299.218
292.689
293.889
304.050
295.704
299.084
308.996
309.364
311.165
305.063
310.422
300.239
303.652
315.350
308.858
305.705
304.535
314.582
318.965
322.451
315.629
323.062
317.984
323.705
322.936
316.089
322.651
325.809
319.119
330.094
329.574
321.944
326.743
325.965
326.103
328.078
330.119
335.284
334.227
334.193
341.999
331.182
346.811
347.223
343.027
339.778
335.917
349.615
350.132
342.165
346.748
345.074
351.312
344.849
349.744
358.180
354.544
354.483
351.306
363.224
360.616
361.730
358.001
356.626
355.875
356.288
359.694
362.405
365.848
373.550
361.301
375.381
369.878
367.061
365.526
370.505
373.736
378.613
381.890
376.821
380.461
379.635
378.525
375.725
379.572
383.089
387.539
381.950
381.351
395.784
388.829
385.509
391.923
399.077
400.017
393.434
389.477
399.146
401.442
391.160
396.758
397.796
398.277
401.434
405.031
404.539
403.440
409.923
404.254
404.921
402.785
407.862
406.243
410.793
411.661
421.337
409.863
421.650
425.717
416.373
416.567
427.132
420.502
424.157
427.903
428.613
422.701
432.132
434.923
424.261
425.580
427.422
434.900
438.175
427.996
433.826
438.077
441.357
445.658
432.134
438.927
434.999
449.005
442.370
443.324
450.055
450.222
453.536
440.809
443.394
452.964
445.871
457.056
450.948
448.333
460.926
453.108
457.830
465.503
467.424
454.696
462.918
460.025
468.742
460.804
466.376
472.074
473.813
465.550
467.088
474.977
468.607
480.485
472.874
468.763
480.362
475.176
485.834
485.716
481.293
484.662
488.051
484.783
489.445
483.474
483.058
489.806
495.432
490.738
493.439
493.630
495.992
489.389
501.789
497.039
501.466
498.536
505.400
497.103
501.836
495.872
501.124
503.693
504.551
503.715
505.728
507.917
502.343
509.646
515.256
518.215
509.966
506.823
512.992
512.320
509.818
517.257
524.796
521.713
525.084
519.532
520.647
519.937
530.861
532.264
528.049
525.418
535.292
530.820
526.793
526.600
533.176
534.023
533.766
543.074
542.647
543.263
545.166
543.859
544.651
541.216
540.905
544.687
543.324
553.452
539.598
547.328
551.802
556.877
550.279
555.527
548.169
547.471
550.426
561.065
552.792
565.891
553.686
555.523
557.200
557.165
563.300
562.007
568.936
566.324
571.338
565.034
571.029
576.635
573.497
574.322
565.172
570.466
575.294
573.015
569.141
575.996
572.253
576.760
582.256
589.100
577.192
577.063
579.830
589.462
581.995
593.750
590.250
588.254
587.866
584.463
588.032
588.970
585.829
588.798
590.668
592.575
604.641
601.506
605.855
603.323
599.478
597.811
608.990
601.658
611.641
601.977
607.703
603.931
614.289
607.985
604.545
619.990
619.894
611.304
618.420
614.455
617.433
621.465
615.763
620.761
625.254
626.260
629.822
617.768
631.331
630.024
632.989
635.094
633.868
629.628
636.042
627.408
639.452
632.056
633.967
637.765
630.468
631.977
639.151
638.772
632.556
640.384
640.714
650.262
649.057
649.907
640.302
646.863
649.457
656.143
643.014
654.170
653.044
655.514
656.678
659.204
661.680
649.385
652.153
661.491
654.099
665.567
668.473
664.913
666.550
659.563
663.336
672.347
669.509
662.296
668.207
667.220
678.377
678.983
667.541
671.399
668.400
680.212
675.680
670.170
682.974
679.733
684.279
682.709
680.825
680.189
691.966
692.719
682.804
692.562
683.478
693.070
683.460
690.544
691.548
687.311
698.124
690.790
695.697
690.048
698.794
706.631
705.677
698.577
701.085
710.228
699.803
700.566
701.454
711.647
700.856
701.161
702.450
709.393
716.220
710.043
718.905
721.504
713.286
717.008
710.066
715.175
716.542
718.069
727.353
718.397
729.948
727.690
717.755
731.541
731.213
727.444
721.158
725.180
735.674
722.448
724.555
726.361
726.083
730.390
737.752
725.877
736.001
727.965
725.604
734.216
735.439
734.798
727.512
735.574
735.617
734.140
731.475
742.070
739.900
735.713
743.137
736.582
736.525
739.091
737.133
734.357
743.278
730.457
735.818
734.938
744.542
739.991
734.833
732.921
736.562
733.756
744.931
743.738
741.745
739.492
742.789
739.654
750.720
750.467
746.825
742.291
749.662
748.300
740.923
748.063
746.696
751.602
742.251
743.797
751.932
750.189
739.635
755.269
741.802
742.138
751.934
745.172
746.724
741.758
752.057
748.956
756.732
753.893
756.132
754.269
749.709
751.443
747.755
753.892
747.609
748.978
754.321
748.763
760.581
749.328
752.247
748.561
753.258
759.734
759.188
752.870
759.301
763.182
757.430
765.436
758.004
751.926
754.099
752.618
767.416
752.798
758.244
763.360
758.948
766.896
768.647
756.709
769.107
758.673
761.611
758.239
763.963
766.859
757.574
766.362
769.213
758.462
763.870
767.577
770.699
764.724
768.602
764.757
769.587
770.737
775.334
767.049
769.662
769.753
764.948
775.266
773.511
774.209
774.646
770.848
778.982
764.590
776.148
764.253
779.029
768.125
768.153
774.102
768.039
771.470
778.185
772.075
770.627
774.242
781.363
773.065
773.540
775.027
773.423
785.134
772.271
777.217
773.602
774.381
775.172
786.326
781.890
779.330
787.506
778.352
773.783
782.985
781.677
775.693
787.393
784.378
780.299
777.149
782.047
776.603
782.583
788.460
776.822
785.807
779.692
779.133
779.332
780.614
791.479
793.019
788.855
786.845
788.417
784.106
795.066
783.644
793.699
797.385
783.831
788.487
790.263
786.211
791.141
784.927
790.353
784.820
785.641
796.460
800.403
790.343
798.301
794.093
790.770
788.025
801.963
793.175
799.430
803.417
800.521
802.999
806.474
800.644
798.344
796.290
792.884
796.001
804.620
808.568
803.198
800.997
806.266
796.895
806.501
798.242
808.361
801.738
810.815
806.382
812.082
809.689
802.922
801.857
804.501
802.162
815.289
806.249
807.177
816.896
803.599
811.377
816.800
804.654
817.555
819.316
809.398
809.779
808.911
807.523
809.582
810.060
812.109
810.816
812.860
817.193
812.592
812.547
820.928
813.003
823.618
815.055
821.512
814.821
817.228
818.434
815.375
821.338
820.076
826.671
817.218
818.959
825.069
824.183
818.412
826.589
827.871
829.376
822.568
832.177
832.560
822.998
825.443
833.312
830.518
828.899
824.097
831.821
832.793
827.058
838.663
831.169
829.976
834.106
838.149
828.621
828.791
842.625
842.083
843.522
844.312
844.553
842.636
830.839
840.721
832.267
844.412
837.290
846.198
832.618
839.839
848.545
844.471
845.016
837.269
839.698
844.259
838.338
838.952
840.471
846.956
846.667
852.758
841.785
842.649
854.342
840.237
847.021
846.727
849.500
843.931
846.729
858.150
852.546
850.789
848.151
845.704
856.293
855.341
858.619
850.250
861.357
849.176
862.037
858.062
857.629
858.451
861.763
857.360
855.322
863.057
851.569
856.523
852.865
858.674
859.716
853.823
860.404
861.912
866.900
857.586
855.641
870.769
868.731
863.706
869.952
864.634
872.525
863.299
867.249
861.145
859.430
862.431
861.735
870.737
873.667
864.765
870.453
870.707
865.725
