116.421
84.797
106.841
118.293
98.255
86.229
91.166
124.999
121.107
92.478
114.342
93.144
89.752
105.937
85.079
107.692
88.453
94.338
109.584
111.840
97.541
84.053
110.429
127.438
107.301
115.016
91.207
115.967
110.932
94.223
90.290
112.961
124.769
119.563
86.792
87.022
109.181
111.645
92.106
89.298
124.249
94.758
103.153
116.328
105.469
120.069
124.773
98.135
118.795
104.042
84.634
117.294
129.363
114.750
114.119
112.200
105.116
126.839
104.038
88.772
111.818
84.318
120.112
99.737
116.299
85.848
118.033
86.232
113.005
122.471
121.083
84.883
113.394
87.995
94.163
107.577
114.046
118.684
102.068
86.129
106.334
93.709
102.313
111.587
110.002
101.778
111.721
104.351
100.490
120.609
124.503
103.686
85.852
107.972
112.978
101.128
115.535
86.102
98.691
121.913
125.693
85.714
193.959
179.485
209.908
196.314
212.555
217.338
218.319
220.302
218.915
232.111
247.616
244.382
261.662
245.042
271.478
263.791
278.927
277.740
277.878
271.856
280.171
305.933
295.866
298.161
320.194
320.191
306.800
338.716
327.316
328.444
343.221
356.542
362.957
345.114
354.648
379.421
385.161
389.247
367.892
383.019
377.025
409.789
398.384
401.351
411.265
428.956
410.149
438.166
420.388
451.076
434.889
444.254
465.084
448.473
464.103
458.840
474.701
472.632
491.391
485.249
483.196
501.365
501.886
523.120
502.808
521.744
528.246
526.391
547.834
551.237
547.029
541.142
560.280
564.472
569.525
566.026
586.099
571.306
577.845
577.260
597.893
604.177
603.053
608.179
620.080
623.024
637.711
627.606
637.784
627.953
643.016
655.190
667.873
666.017
654.879
684.513
692.045
680.554
702.642
692.661
386.420
384.232
390.444
398.295
393.706
409.316
410.464
406.199
416.561
409.362
420.439
423.573
422.029
425.624
430.795
434.838
429.598
437.739
442.588
448.602
447.692
443.922
455.730
453.505
454.206
455.353
469.605
463.519
460.336
468.600
465.872
470.053
474.743
489.361
486.949
485.647
496.819
499.747
495.315
506.572
505.075
498.951
508.431
517.774
515.388
523.791
511.942
515.833
525.574
522.570
528.020
537.887
531.241
542.905
543.400
550.211
543.112
546.000
552.233
551.919
565.121
559.848
565.249
573.261
564.938
575.696
573.960
578.676
575.831
585.606
591.939
590.516
594.750
599.665
593.006
599.359
604.911
603.645
616.628
609.848
613.403
624.194
615.437
617.512
623.735
633.484
629.849
640.222
631.909
645.904
641.263
653.995
644.933
658.212
653.254
663.248
664.535
667.887
658.842
663.212
674.212
680.651
680.144
674.997
680.516
687.374
686.505
695.047
689.643
688.407
688.281
693.245
695.459
708.787
702.417
709.499
703.256
717.833
722.242
722.090
717.007
716.658
726.300
723.728
723.992
725.984
735.083
738.085
739.115
746.899
737.368
750.834
755.130
744.586
745.626
753.274
757.849
763.014
756.362
765.304
768.236
764.341
769.344
777.058
777.617
777.003
775.637
776.448
789.442
783.960
787.960
787.836
786.274
798.490
806.267
800.359
811.122
811.527
811.736
814.801
806.182
819.323
821.066
815.863
820.645
824.620
820.648
831.250
836.107
836.026
833.668
844.527
844.284
850.594
841.801
842.171
851.164
851.327
847.664
864.218
857.613
857.933
863.898
872.322
865.454
866.253
874.301
874.398
871.199
874.882
880.928
891.120
891.400
890.765
891.720
900.220
893.582
891.807
898.997
906.969
899.115
906.521
906.046
915.379
910.131
924.922
915.685
916.521
928.906
928.391
934.081
925.752
936.710
931.403
931.348
946.845
949.389
942.394
951.727
951.245
952.255
958.525
956.514
966.127
965.866
964.529
961.956
963.401
979.464
975.052
979.180
977.337
980.485
978.824
987.808
982.526
994.340
991.184
994.054
1000.400
992.818
1006.032
1008.332
1007.156
1011.618
1004.585
1013.686
1014.462
1013.771
1012.920
1030.872
1028.750
1023.770
1034.665
1036.325
1035.794
1034.737
1041.509
1034.014
1046.650
1051.608
1051.170
1045.216
1048.704
1055.352
1063.127
1055.338
1058.216
1072.376
1065.118
1069.548
1067.322
1077.191
1075.952
1080.583
1079.351
1084.474
1087.235
1082.027
1096.244
1091.921
1089.540
1099.698
1103.046
1103.643
1101.662
1109.098
1116.956
1110.138
1112.624
1111.777
1117.241
1122.533
1121.083
1124.626
1134.323
1134.452
1138.588
1133.405
1138.728
1133.557
1147.377
1139.938
1134.722
1134.644
1138.943
1141.664
1141.749
1143.942
1138.867
1143.967
1131.333
1135.818
1140.025
1132.572
1134.445
1133.288
1131.002
1138.826
1129.936
1131.862
1129.903
1138.385
1131.082
1125.679
1135.595
1138.728
1132.355
1138.038
1138.013
1134.155
1122.901
1125.284
1132.785
1124.592
1134.338
1123.897
1127.714
1127.221
1128.391
1127.390
1124.652
1128.910
1120.309
1123.470
1119.187
1128.406
1123.035
1125.764
1119.808
1127.274
1119.369
1115.742
1124.872
1125.013
1128.049
1122.824
1127.350
1119.193
1126.021
1123.055
1117.377
1125.164
1114.453
1123.126
1114.417
1121.122
1117.073
1116.836
1110.690
1119.451
1111.726
1112.388
1112.158
1119.346
1119.419
1110.035
1111.277
1113.135
1110.603
1109.408
1111.625
1106.580
1114.317
1116.963
1119.523
1116.859
1114.528
1106.398
1109.268
1109.342
1113.711
1112.655
1115.977
1102.384
1105.690
1113.918
1103.167
1103.514
1106.437
1112.156
1111.365
1111.308
1097.961
1104.859
1107.570
1106.551
1106.415
1109.866
1107.104
1109.627
1100.444
1109.806
1105.173
1102.016
1096.510
1101.512
1096.164
1107.641
1103.232
1102.968
1103.653
1096.902
1094.629
1091.815
1096.342
1098.515
1095.457
1095.230
1091.848
1090.857
1090.390
1089.802
1092.020
1094.589
1092.622
1097.666
1094.045
1100.521
1090.857
1090.954
1088.956
1086.447
1096.229
1097.812
1090.731
1090.241
1085.420
1085.797
1090.452
1085.733
1095.405
1085.230
1087.585
1093.583
1090.239
1081.353
1087.589
1084.826
1082.850
1092.604
1085.339
1085.068
1081.141
1087.595
1082.932
1084.175
1082.682
1087.815
1085.217
1090.625
1087.312
1078.737
1089.863
1078.852
1087.713
1076.441
1088.411
1073.214
1073.048
1085.574
1078.563
1077.388
1074.915
1074.749
1076.364
1075.787
1070.391
1082.564
1069.158
1074.191
1073.988
1073.482
1070.210
1081.138
1079.511
1068.885
1079.790
1067.058
1071.081
1067.698
1074.626
1067.652
1059.343
1067.873
1065.594
1064.900
1050.848
1059.816
1051.208
1045.796
1051.215
1049.242
1042.794
1044.938
1035.742
1038.119
1038.936
1037.574
1037.138
1028.272
1031.212
1022.296
1017.453
1023.702
1019.723
1006.644
1014.249
1016.064
999.357
1012.234
1008.998
999.916
992.967
988.567
987.261
982.994
990.112
978.979
976.851
974.642
981.810
970.284
968.294
965.454
963.831
971.684
966.741
966.416
962.174
962.290
962.954
958.361
956.520
954.503
948.670
942.092
934.549
947.628
941.562
931.905
926.292
936.454
935.779
922.815
916.649
919.301
924.560
914.414
913.435
909.064
908.894
907.082
911.035
909.522
899.765
903.820
903.514
888.836
885.720
896.597
889.810
886.661
875.681
884.335
876.529
876.986
877.761
866.004
866.369
864.919
870.778
858.585
863.352
852.189
848.790
845.287
845.609
841.728
840.080
850.241
843.417
834.107
841.033
839.576
824.692
837.740
822.808
830.042
830.363
817.278
821.324
822.731
814.343
810.466
803.175
799.597
809.277
803.806
796.043
800.374
798.928
792.949
785.838
796.101
779.091
783.367
784.071
783.545
774.741
782.520
765.048
762.372
768.941
769.504
759.689
767.933
762.506
749.974
749.562
749.421
749.437
743.791
743.016
741.942
741.667
738.539
733.311
732.286
736.876
723.029
720.193
717.592
720.073
722.230
718.868
711.779
716.947
708.433
712.163
706.935
704.049
693.764
692.785
700.002
687.077
693.326
682.201
682.718
682.354
678.102
677.590
676.783
672.974
681.072
675.229
673.529
665.751
658.650
662.437
664.533
653.286
648.722
648.723
657.255
643.457
652.597
640.994
649.331
642.872
637.787
636.296
631.823
637.142
633.789
625.393
618.727
613.411
614.084
609.522
619.048
619.920
619.423
613.743
620.021
614.099
623.360
627.499
615.256
617.378
624.313
630.398
633.737
622.710
628.609
624.366
634.194
633.895
636.757
627.116
631.054
637.204
642.106
634.356
645.289
641.138
635.101
644.681
635.751
636.619
640.565
651.429
641.511
652.773
649.607
645.405
643.682
648.086
659.678
658.764
653.744
662.905
658.072
655.133
665.829
659.806
657.829
665.608
662.124
663.572
667.459
660.682
660.660
669.955
676.341
665.310
673.356
681.205
666.628
671.581
673.262
678.392
675.720
676.250
684.799
684.234
679.552
680.081
680.259
683.070
694.088
689.517
684.535
695.017
691.609
695.273
687.948
696.782
698.093
689.119
703.087
706.329
705.885
696.128
707.488
710.131
708.069
709.518
701.323
714.131
700.205
707.470
714.724
715.940
713.050
719.478
713.420
710.526
719.128
720.358
717.537
721.256
719.163
719.144
730.359
728.132
732.495
726.436
724.146
729.437
735.547
734.992
729.813
732.151
738.747
730.561
734.852
735.937
736.697
741.543
746.427
734.928
733.797
742.339
749.191
739.200
743.808
748.258
752.902
746.376
756.460
746.607
744.865
749.524
753.764
752.102
750.888
750.865
756.381
755.414
766.346
766.808
760.174
759.764
770.990
766.865
763.712
764.758
761.927
773.068
776.579
774.085
774.550
769.733
779.244
779.784
778.796
774.732
779.334
786.682
782.635
787.069
786.900
785.647
779.882
782.733
780.769
790.036
794.109
797.201
789.560
786.997
796.579
787.965
794.318
793.282
798.487
800.255
802.432
802.799
795.949
795.475
811.787
812.027
807.535
811.380
806.241
805.453
804.793
816.644
814.586
812.217
819.057
813.088
814.703
819.717
818.445
818.296
814.895
815.135
828.713
827.902
824.084
828.355
825.322
829.181
823.236
821.173
821.750
828.269
832.035
826.425
834.409
830.965
838.913
832.434
834.382
825.887
832.767
836.381
829.197
833.410
842.418
841.076
833.521
831.916
832.896
845.317
839.420
838.012
846.117
848.576
851.149
843.017
846.166
843.174
839.940
847.456
848.388
851.983
843.939
842.656
847.423
850.959
852.496
847.079
855.321
858.119
854.631
848.140
862.464
856.082
859.582
858.819
855.246
861.867
864.014
857.394
855.177
860.743
869.092
859.811
860.792
869.117
857.668
864.713
861.011
857.836
860.996
860.250
862.924
875.448
867.475
875.911
873.409
878.232
867.870
877.644
870.496
877.727
871.837
881.032
870.274
883.212
879.843
880.458
871.254
879.942
871.164
876.873
881.017
886.265
878.644
883.205
884.245
881.103
884.413
890.984
881.766
891.943
888.367
887.654
889.181
881.884
887.338
883.542
885.495
891.050
895.949
894.872
893.967
894.040
887.796
895.548
894.640
890.827
902.459
902.600
894.205
901.966
897.145
900.856
897.012
900.624
899.566
897.275
897.838
906.954
906.414
912.094
899.430
913.485
908.122
912.905
916.054
910.493
901.864
910.501
913.250
916.206
916.539
906.386
906.104
916.925
915.701
912.737
910.740
918.333
924.860
921.376
923.535
914.860
913.335
923.935
918.809
914.842
920.748
920.724
918.409
930.349
930.035
933.207
926.442
925.726
922.432
925.705
933.964
930.623
922.032
936.965
931.330
937.361
931.288
939.374
930.548
930.558
941.122
937.244
932.263
942.611
935.074
935.801
945.298
942.216
935.444
937.803
947.978
937.413
938.557
948.963
948.489
936.443
942.425
940.186
941.571
949.332
955.501
947.729
951.821
952.244
955.693
950.512
954.558
948.097
940.163
953.218
943.661
948.646
945.576
951.595
938.397
948.692
934.624
936.463
938.007
934.733
941.919
943.912
931.100
937.739
932.798
931.082
939.783
937.196
927.236
932.770
926.412
937.049
933.253
928.273
922.709
936.339
926.631
934.495
920.503
925.378
923.447
924.628
931.079
926.830
928.329
928.015
921.281
915.336
912.185
921.047
914.983
921.404
912.222
913.956
911.965
920.545
911.307
906.287
910.155
918.521
908.249
915.796
914.101
903.055
901.812
901.922
912.205
904.929
901.709
909.663
897.984
910.023
900.761
910.108
897.657
903.086
901.683
897.634
906.485
890.979
890.371
894.726
902.656
890.437
898.179
900.873
896.073
886.771
891.407
890.350
890.219
882.378
894.698
883.805
891.238
887.135
888.853
888.492
880.266
880.861
877.137
888.037
878.537
881.649
877.498
887.951
886.853
872.839
870.645
883.484
874.099
880.636
883.002
875.692
880.113
870.535
875.631
876.232
872.435
870.001
865.054
861.410
864.726
865.216
870.278
867.378
862.872
869.775
862.473
863.546
864.896
855.249
857.146
855.699
857.089
853.703
863.282
857.991
856.557
860.662
855.351
859.950
857.405
850.832
850.271
859.099
852.316
844.901
844.543
847.037
842.299
856.013
847.372
843.486
842.865
843.323
845.341
847.704
841.328
837.221
842.588
840.483
839.289
841.260
838.451
845.462
841.441
829.837
837.586
837.870
837.384
836.218
839.586
830.623
833.155
828.271
832.633
834.608
835.994
827.485
832.530
833.160
821.812
819.852
819.866
826.024
825.627
828.056
819.047
821.412
819.156
813.909
819.217
814.803
812.991
820.579
821.413
812.505
821.543
813.242
814.990
817.763
813.710
806.529
804.182
819.871
813.311
819.575
814.830
817.045
827.287
822.581
827.261
827.921
829.495
827.904
826.268
828.704
830.688
827.997
836.233
842.273
847.195
834.862
845.688
849.160
837.678
844.338
853.703
843.644
845.370
848.296
862.140
863.858
857.093
852.882
863.048
863.718
867.106
860.056
867.948
870.343
872.327
865.309
880.260
870.471
872.775
873.081
877.712
888.989
877.991
883.626
885.994
893.538
882.574
890.881
896.519
892.351
888.247
888.929
892.680
906.839
900.048
900.667
900.400
899.609
915.565
905.088
914.337
912.539
908.948
911.306
912.666
915.000
924.091
923.735
926.531
929.342
919.371
932.866
923.543
934.733
940.450
927.685
937.929
931.537
933.812
942.498
941.047
946.982
946.867
949.411
950.283
950.025
947.448
958.606
958.735
961.326
954.255
955.044
967.375
956.354
959.606
964.927
969.371
967.425
974.447
974.446
973.443
966.855
975.902
973.954
982.585
984.208
977.604
980.200
989.242
981.240
988.053
993.930
998.568
985.417
988.075
1003.680
1001.518
1004.744
995.519
1008.401
1009.681
1006.225
1002.134
1015.493
1006.109
1009.971
1018.871
1019.770
1019.732
1013.464
1016.232
1024.316
1030.610
1017.944
1025.785
1025.841
1027.367
1032.970
1034.880
1030.261
1042.866
1040.592
1042.090
1044.157
1038.924
1038.295
1041.476
1053.365
1044.776
1043.889
1053.214
1051.092
1054.016
1055.454
1050.009
1056.896
1061.300
1069.326
1056.367
1072.405
1063.580
1061.075
1065.005
1072.176
1076.163
1074.830
1083.054
1074.799
1083.594
1084.611
1082.494
1077.783
1077.505
1090.058
1093.985
1093.942
1092.450
1088.790
1088.083
1100.576
1102.745
1103.637
1105.752
1101.419
1102.819
1112.378
1108.484
1112.245
1107.066
1109.019
1112.225
1119.334
1115.019
1109.683
1118.256
1125.531
1130.002
1114.364
1118.228
1117.776
1123.051
1119.751
1125.811
1125.449
1112.784
1117.133
1113.289
1111.349
1121.003
1118.587
1105.874
1106.181
1105.416
1116.425
1116.693
1112.601
1105.971
1113.700
1105.604
1103.031
1101.440
1100.435
1108.359
1111.711
1099.756
1108.930
1097.530
1107.693
1100.122
1098.811
1109.494
1108.604
1096.113
1105.050
1098.589
1095.608
1095.238
1093.818
1097.559
1103.379
1088.280
1099.328
1091.487
1089.452
1096.651
1097.504
1095.098
1085.966
1087.889
1092.647
1095.529
1092.582
1087.076
1092.316
1082.916
1081.019
1090.267
1088.746
1082.435
1082.325
1079.969
1077.454
1079.898
1077.721
1082.470
1078.578
1082.147
1087.367
1080.373
1079.346
1075.654
1070.069
1084.527
1080.036
1068.761
1067.698
1074.117
1066.344
1071.970
1069.226
1073.564
1070.418
1074.977
1074.892
1071.596
1070.588
1073.606
1067.942
1061.071
1066.724
1069.882
1063.008
1066.547
1058.161
1068.122
1055.862
1062.083
1064.829
1063.141
1059.724
1067.722
1066.282
1064.656
1059.754
1063.110
1057.196
1049.861
1053.468
1056.064
1056.234
1049.517
1048.633
1049.163
1048.913
1044.155
1049.306
1057.771
1050.998
1051.960
1054.970
1040.494
1053.238
1053.687
1047.384
1050.192
1044.990
1044.424
1045.927
1037.792
1045.512
1035.541
1049.058
1043.541
1041.036
1037.442
1045.848
1032.773
1032.069
1038.188
1031.572
1032.280
1040.988
1036.188
1042.310
1030.523
1039.073
1036.413
1031.856
1037.041
1034.420
1033.238
1024.129
1022.547
1028.952
1021.868
1024.295
1022.269
1018.759
1021.411
1024.187
1029.581
1021.573
1024.300
1021.977
1028.085
1020.326
1014.844
1028.214
1015.470
1020.668
1016.813
1020.143
1018.026
1013.471
1008.496
1012.704
1008.742
1009.552
1011.619
1007.174
1015.396
1008.998
1018.871
1015.022
1004.701
1005.152
1011.615
1006.671
1008.819
1004.891
1013.949
1000.901
1001.733
1003.937
1010.969
998.956
1005.476
999.481
1006.865
1003.175
1001.737
992.625
1001.581
993.790
988.656
988.413
985.732
997.382
991.531
987.907
995.137
988.279
979.153
989.928
978.329
982.150
982.703
972.852
974.727
974.088
981.067
967.103
965.803
976.675
970.544
966.016
962.066
973.950
961.788
962.156
961.315
963.772
967.800
964.760
965.007
965.055
959.843
964.622
957.540
954.087
952.307
948.102
955.813
945.148
947.603
940.835
950.689
939.168
943.537
950.473
948.706
933.755
938.908
932.601
930.899
938.461
940.236
940.734
932.545
928.515
929.552
928.935
936.415
922.590
930.416
920.406
924.226
921.704
925.703
917.683
916.090
923.617
910.628
918.884
913.079
911.123
905.662
909.342
916.418
913.500
905.742
906.252
911.824
906.168
910.685
899.571
898.306
898.697
905.537
902.769
900.876
902.936
895.847
889.123
