143.282
142.619
114.976
108.763
110.219
135.788
140.895
138.473
113.959
128.499
131.121
111.840
135.573
152.442
108.481
136.076
113.983
107.536
108.855
121.591
119.082
140.588
134.742
138.522
114.545
149.076
119.479
122.420
146.249
129.769
140.262
123.807
115.895
133.812
106.248
135.043
133.065
151.405
109.708
105.921
104.849
124.375
127.576
119.024
110.956
109.961
105.697
107.013
118.974
134.378
110.616
138.462
102.297
121.170
111.815
127.917
105.134
145.444
110.943
138.017
103.321
124.601
143.562
134.039
119.668
105.513
136.711
101.588
151.693
108.627
106.558
122.332
110.210
126.842
145.970
130.173
135.980
101.320
109.929
113.835
135.340
138.354
129.214
107.008
147.514
122.966
146.886
145.907
137.817
149.955
143.500
137.736
119.449
108.634
105.008
132.439
104.343
119.847
138.861
149.506
103.852
146.979
120.099
133.273
105.875
119.703
130.873
114.997
116.055
152.717
151.838
105.279
103.410
102.603
104.271
112.884
137.023
138.166
131.641
115.847
147.185
109.303
139.925
103.651
125.233
112.206
139.525
147.487
106.077
111.513
124.097
132.532
152.880
136.601
103.192
152.399
126.317
111.690
135.891
103.182
114.314
121.462
149.409
133.514
138.667
131.036
148.177
152.922
147.806
145.466
135.235
127.618
112.305
118.293
144.579
145.553
104.608
101.617
149.896
146.413
134.877
112.265
104.658
138.592
138.648
133.095
142.386
123.061
133.012
113.175
137.309
127.406
134.557
116.595
140.006
137.113
115.602
144.806
131.999
113.857
140.310
114.095
142.760
104.793
152.202
139.662
142.336
133.506
126.515
132.791
138.121
103.010
144.537
121.925
145.291
146.992
111.363
102.761
120.121
137.796
107.673
152.284
104.680
134.927
105.819
150.725
139.824
139.649
137.971
139.073
145.099
107.544
104.741
152.342
122.169
104.275
135.948
138.942
131.500
139.774
131.551
136.398
104.599
142.058
118.846
111.248
125.785
123.886
130.225
148.619
114.544
105.390
132.961
139.703
142.137
113.440
135.208
147.093
128.745
103.832
149.707
106.981
114.802
115.960
104.189
114.451
129.625
134.144
142.798
112.923
126.962
144.723
123.286
150.718
139.431
111.492
111.351
122.916
124.529
140.180
140.159
141.302
146.266
146.761
114.056
148.592
144.541
151.030
102.581
112.973
115.570
137.228
114.544
117.724
116.952
146.693
144.074
121.761
113.327
101.432
101.924
124.922
152.498
112.765
149.825
127.818
114.659
151.881
109.444
138.913
110.943
152.458
103.487
126.968
126.801
123.823
132.375
140.696
107.890
127.649
145.929
113.287
135.124
150.769
116.208
150.799
146.444
104.957
121.620
107.915
149.155
152.530
117.629
141.503
142.827
142.060
103.463
147.613
107.054
126.458
105.988
141.138
107.180
115.197
131.851
141.084
129.165
133.356
121.129
137.683
150.104
101.488
118.966
136.065
114.922
114.332
153.010
102.550
126.925
152.063
148.126
142.947
130.293
128.173
131.998
106.909
146.426
106.002
118.884
152.219
152.762
139.956
118.425
144.956
137.889
125.003
102.639
142.510
111.377
149.343
127.650
121.503
113.508
143.294
131.933
109.369
103.366
116.930
137.228
126.596
149.184
135.336
146.114
126.818
124.743
149.306
133.988
137.783
112.345
108.275
143.801
156.849
155.966
129.682
127.281
146.335
147.006
157.064
158.539
142.030
131.505
148.592
121.629
128.768
128.916
125.943
155.627
137.973
156.564
120.099
140.240
116.417
109.370
107.489
109.910
122.710
113.077
123.443
124.385
152.995
118.736
122.442
154.525
106.822
156.378
154.470
146.848
154.221
138.825
151.225
123.519
115.820
145.398
154.935
138.572
152.326
126.966
111.930
139.918
129.320
155.511
125.743
132.408
143.911
138.206
148.838
135.458
108.718
115.247
129.064
128.638
117.946
127.761
124.019
121.685
108.031
115.160
106.635
120.784
120.856
154.175
116.456
145.092
146.892
147.187
145.171
118.046
144.657
135.956
120.556
105.188
116.479
146.291
115.447
135.094
139.615
135.800
146.829
105.685
153.243
106.686
127.120
111.544
112.169
104.427
109.130
151.393
130.005
115.294
113.926
142.724
117.569
123.388
125.101
108.582
152.191
112.884
122.784
114.233
112.070
118.715
126.076
143.885
125.725
144.187
143.320
126.013
113.650
117.151
101.882
130.032
123.311
151.325
130.393
101.651
117.152
122.068
119.858
103.350
104.461
99.371
101.067
124.751
117.569
133.363
131.512
130.669
135.880
139.954
100.231
143.563
125.575
113.702
127.675
123.607
109.567
126.429
146.067
136.775
145.256
104.392
126.064
123.716
139.168
106.593
114.116
121.390
128.040
138.285
121.763
108.820
103.123
142.300
120.567
118.890
107.529
143.401
105.318
120.115
133.181
129.789
100.812
98.641
124.654
106.652
96.942
138.189
123.450
130.015
134.455
138.404
122.683
116.247
131.756
116.442
129.579
139.373
104.100
107.215
124.873
114.683
98.046
125.575
108.553
113.622
126.304
122.683
104.422
105.542
136.949
131.428
99.873
116.722
99.053
111.428
102.629
120.739
112.824
130.869
131.799
132.599
124.060
121.849
106.399
95.200
114.322
126.264
141.478
140.419
127.340
128.551
94.837
139.308
113.155
118.121
106.454
127.454
97.718
121.086
129.510
141.262
122.792
135.368
115.191
118.272
141.251
106.243
131.614
136.869
107.003
143.213
96.302
138.514
111.715
124.027
144.450
135.970
119.265
124.328
101.734
137.791
125.868
123.046
124.105
136.546
136.818
112.087
124.619
126.125
139.245
110.025
105.194
128.687
102.481
116.172
107.870
136.335
130.420
96.561
103.557
133.291
141.033
120.314
137.578
101.521
97.085
111.708
122.206
98.382
133.241
118.336
145.786
120.006
105.957
103.690
101.177
145.294
122.472
104.799
129.496
116.120
122.200
107.110
125.672
110.557
140.786
129.837
126.251
102.475
129.684
115.727
97.402
143.020
100.618
110.362
133.548
136.362
128.422
128.426
120.347
124.514
115.011
98.126
98.736
106.310
134.650
122.105
110.816
129.724
120.105
129.926
97.208
100.973
109.964
141.995
124.163
97.829
111.978
141.266
136.811
118.647
137.627
121.004
135.428
108.278
124.340
105.194
131.680
131.281
112.938
100.068
111.839
111.406
117.952
142.319
106.565
136.930
140.229
117.232
124.418
115.937
100.432
131.235
136.239
120.130
126.539
141.415
123.797
117.493
140.300
116.905
115.443
141.010
96.371
121.734
105.943
112.137
107.082
112.615
126.294
140.680
103.991
123.472
142.375
144.223
133.841
123.123
118.794
112.341
126.633
145.876
140.666
118.332
108.555
131.195
142.957
115.753
96.632
108.161
144.866
100.607
142.220
102.966
131.579
107.665
111.471
122.916
100.405
121.280
357.011
364.510
360.209
373.815
354.956
381.753
413.159
388.603
386.752
419.024
408.843
424.244
456.975
477.040
490.265
458.864
507.092
158.727
146.846
151.906
152.654
159.957
171.682
165.065
166.730
172.873
183.187
176.931
175.541
185.877
191.913
198.565
198.167
203.501
196.914
207.101
209.189
208.635
215.102
210.540
214.924
226.952
215.378
232.142
224.370
230.434
233.390
243.486
246.647
238.127
252.420
250.858
251.415
248.778
255.306
264.962
258.692
258.295
262.688
265.810
273.583
277.670
283.617
290.227
280.315
294.685
284.274
295.627
294.821
304.568
298.282
303.537
306.415
304.548
312.646
311.726
327.010
328.439
330.304
334.533
333.781
332.819
334.437
347.243
342.562
340.789
351.882
348.920
351.768
362.436
353.731
368.541
361.632
372.716
363.529
369.209
378.448
371.746
380.701
384.146
387.547
388.016
399.457
390.315
406.622
408.098
399.551
400.113
411.348
419.182
422.307
426.263
416.010
420.509
430.060
431.123
439.482
441.066
440.515
436.986
450.706
449.630
454.230
459.482
458.052
460.100
469.071
461.882
471.579
466.191
471.584
478.850
471.796
486.603
476.840
486.012
490.565
495.964
494.490
498.831
501.622
507.204
510.292
505.966
512.099
519.173
517.775
514.802
525.136
535.364
530.792
534.943
532.298
535.814
545.448
546.246
545.577
557.367
547.851
558.966
551.737
562.590
566.892
561.723
576.016
573.502
570.594
580.232
589.076
585.583
584.156
593.404
594.001
601.352
594.332
599.969
611.889
607.262
602.508
610.429
613.758
613.121
613.659
626.924
628.752
627.665
625.188
638.282
643.403
640.450
648.017
641.652
650.847
647.455
658.776
653.551
664.135
669.996
666.111
668.950
679.853
682.280
677.136
679.424
679.787
687.057
679.562
684.692
688.016
689.367
697.567
706.076
707.630
703.639
705.918
714.593
715.516
717.368
708.303
719.780
719.804
716.491
723.665
725.293
726.188
732.077
733.902
738.156
743.378
734.158
743.559
737.523
743.761
742.229
758.655
750.796
760.625
760.916
753.334
759.268
761.009
763.941
774.772
776.619
772.536
781.987
773.388
779.596
785.681
793.253
791.161
789.786
799.443
802.556
798.196
797.714
808.214
803.783
809.292
809.911
816.384
819.410
809.393
813.794
825.182
823.294
831.573
821.295
838.511
831.432
841.933
843.553
841.990
847.677
846.695
853.184
851.470
847.960
860.426
863.908
860.250
856.354
866.371
869.148
866.847
875.617
865.947
871.222
871.294
875.676
889.299
885.052
888.347
894.628
894.119
897.156
893.740
895.560
902.500
906.856
898.529
906.703
906.647
909.017
922.329
919.858
923.194
926.370
926.788
920.211
936.714
934.744
933.576
937.284
932.400
941.006
943.518
946.550
940.427
945.699
955.388
952.051
961.414
966.297
963.200
961.891
960.110
972.190
968.338
981.496
977.255
978.433
981.514
983.959
981.369
992.138
986.695
987.713
991.202
991.039
995.124
1000.257
1004.130
1011.267
1016.739
1013.114
1006.181
1016.003
1023.009
1023.357
1019.858
1030.562
1020.537
1034.849
1028.067
1042.083
1034.145
1044.313
1044.596
1046.053
1048.920
1048.314
1050.894
1047.835
1051.626
1057.491
1058.132
1059.485
1061.726
1059.531
1074.329
1067.529
1079.803
1075.024
1076.850
1074.719
1082.565
1088.286
1087.449
1094.092
1090.713
1094.268
1105.673
1102.075
1095.891
1103.146
1105.702
1108.212
1119.499
1111.272
1120.623
1120.971
1126.423
1118.799
1125.431
1134.735
1126.785
1140.254
1137.453
1143.483
1145.835
1140.396
1138.418
1140.041
1137.943
1139.492
1137.418
1142.680
1143.502
1137.004
1130.580
1129.286
1130.180
1129.336
1128.684
1139.925
1134.385
1128.692
1128.493
1138.872
1134.013
1139.842
1134.080
1125.465
1128.971
1127.273
1126.831
1133.910
1123.351
1136.230
1136.704
1128.049
1131.453
1120.981
1129.504
1129.813
1126.029
1127.768
1129.015
1129.759
1122.131
1122.903
1122.222
1125.347
1122.862
1124.671
1126.774
1129.172
1130.188
1129.447
1128.161
1125.954
1116.509
1128.280
1116.215
1128.295
1127.392
1117.198
1123.786
1127.148
1127.252
1125.349
1126.959
1121.057
1111.922
1111.482
1119.732
1118.834
1121.088
1123.083
1111.400
1113.114
1113.009
1117.813
1116.197
1117.592
1112.233
1108.138
1112.296
1116.972
1107.175
1112.533
1104.717
1112.996
1105.523
1104.265
1118.525
1108.615
1108.921
1118.199
1115.339
1112.137
1109.536
1102.268
1113.739
1106.374
1115.445
1107.477
1111.225
1105.014
1111.866
1108.413
1108.979
1113.360
1105.786
1105.969
1098.628
1107.862
1109.708
1100.176
1105.834
1103.634
1101.163
1102.159
1103.484
1101.318
1107.778
1095.761
1093.209
1096.278
1104.567
1106.268
1102.689
1101.888
1097.312
1094.910
1103.275
1100.256
1101.488
1091.715
1100.516
1096.296
1089.801
1093.331
1101.617
1093.575
1097.000
1100.125
1090.833
1089.122
1098.722
1096.199
1086.463
1099.160
1096.137
1084.735
1097.658
1086.326
1086.591
1087.806
1087.403
1097.054
1088.080
1093.768
1086.367
1082.324
1087.391
1093.107
1086.812
1085.864
1090.356
1085.036
1086.448
1081.616
1093.251
1091.103
1078.232
1082.568
1089.431
1077.699
1083.306
1074.961
1090.290
1083.365
1082.901
1077.222
1073.834
1079.928
1077.930
1083.448
1076.010
1080.113
1086.382
1086.051
1075.206
1086.298
1085.822
1074.553
1073.487
1079.977
1069.536
1074.143
1072.383
1071.894
1068.806
1076.566
1074.349
1066.328
1081.468
1081.353
1080.975
1075.201
1071.528
1072.268
1068.020
1058.091
1056.664
1053.177
1053.446
1045.065
1044.606
1047.684
1050.132
1050.008
1040.361
1035.414
1037.419
1026.746
1039.445
1034.429
1029.839
1020.057
1030.335
1014.174
1022.438
1015.972
1012.891
1010.336
1006.892
1002.446
1009.312
997.115
996.749
994.279
996.828
996.481
991.320
985.129
980.164
984.742
983.837
982.822
978.197
967.884
969.779
976.040
960.393
967.634
956.746
956.371
965.172
961.347
950.537
945.572
946.711
943.986
937.954
939.798
940.384
942.915
928.729
927.839
937.620
931.220
922.670
931.061
927.942
918.509
916.074
912.466
909.730
909.264
902.457
905.023
907.604
894.678
897.193
888.978
897.395
891.022
889.779
890.435
890.441
876.839
883.353
882.421
876.947
867.265
866.186
874.124
869.304
857.839
856.234
858.669
860.248
858.051
851.715
853.940
852.074
851.580
837.092
840.787
836.004
839.899
827.599
831.090
822.094
823.307
831.899
817.236
825.540
815.979
810.599
812.885
818.417
816.484
802.381
798.101
808.103
792.518
797.399
793.178
793.334
797.327
793.658
789.776
781.302
774.939
772.872
784.713
776.892
774.454
773.490
765.971
759.655
762.988
756.180
766.072
752.996
761.189
751.019
752.224
746.222
740.167
734.820
741.056
732.267
739.505
740.459
729.840
723.388
728.633
726.988
727.263
722.016
724.328
714.184
719.347
710.957
705.180
698.553
696.461
700.101
703.369
692.953
688.247
687.425
694.648
694.582
691.483
690.549
680.179
684.812
671.780
676.345
665.116
663.393
673.846
670.368
665.169
658.411
662.185
655.854
655.474
648.779
648.125
649.561
635.911
648.104
638.880
629.685
637.025
624.937
622.908
622.379
620.260
623.364
614.549
612.901
612.519
610.512
619.755
614.573
614.959
611.074
614.729
621.518
615.894
629.246
623.127
621.720
617.561
631.240
632.380
629.222
626.214
635.975
638.772
635.200
628.030
634.881
636.806
629.861
641.078
640.342
641.653
647.900
644.460
641.336
641.156
652.747
653.372
645.919
643.278
649.648
645.106
657.918
651.052
650.518
657.864
659.783
660.501
652.012
656.587
660.822
662.304
655.268
665.066
664.111
659.260
666.634
662.394
661.740
676.848
666.422
664.333
672.450
668.498
679.264
673.743
669.725
681.256
678.811
674.705
679.728
688.585
685.121
677.808
690.968
680.427
681.855
685.524
684.215
694.091
689.193
689.109
691.309
696.192
687.780
691.601
699.103
706.587
695.898
697.994
701.409
703.210
698.869
711.529
700.215
705.438
700.045
708.845
714.996
714.244
717.116
715.732
706.578
707.502
721.062
722.149
724.906
715.205
719.267
717.913
724.341
729.952
724.253
732.893
728.837
726.521
736.936
737.647
738.256
733.360
737.869
731.457
733.439
738.111
742.466
739.131
735.079
741.589
741.700
737.672
747.724
738.887
748.731
745.549
739.901
744.395
746.249
752.353
748.779
757.940
752.355
759.228
750.250
762.582
756.241
765.321
760.832
761.683
768.467
765.580
762.057
759.722
771.173
769.929
761.327
763.811
777.038
770.661
774.398
780.702
777.962
775.709
776.701
781.700
779.103
772.643
774.901
784.382
776.712
784.890
791.141
783.437
794.736
784.158
784.932
784.518
799.236
791.726
789.839
796.862
789.025
802.782
796.896
798.915
794.341
794.170
805.194
799.318
808.091
800.830
804.846
808.886
811.758
810.500
812.133
814.220
815.821
820.953
815.268
812.333
817.564
822.128
812.872
822.441
828.592
815.953
822.361
828.582
818.904
831.816
819.679
825.348
824.506
828.250
823.889
826.048
835.152
825.363
831.694
827.430
824.980
835.377
840.746
826.269
834.333
833.617
840.265
837.469
833.178
829.781
830.998
831.215
833.453
847.802
838.694
842.377
838.451
839.008
844.968
850.878
841.557
843.412
841.236
849.844
848.221
840.756
855.906
844.058
856.410
846.681
854.945
845.249
849.583
855.551
851.223
856.310
861.659
848.608
852.006
855.441
852.656
858.559
865.596
853.691
863.463
867.794
855.030
865.547
865.692
858.142
868.171
860.889
859.367
865.959
866.019
874.121
863.550
862.074
868.499
862.954
864.820
868.457
868.729
864.190
866.293
878.388
874.116
871.316
877.598
880.651
882.396
879.989
871.649
876.545
882.740
872.914
885.267
888.663
881.750
883.178
881.112
886.592
889.031
882.617
877.619
878.839
881.241
885.810
891.439
892.815
883.614
885.146
894.292
887.930
890.948
889.376
886.733
890.122
895.858
888.864
896.781
902.879
904.354
890.578
901.856
893.558
906.090
898.242
908.045
904.472
906.985
907.571
905.018
901.983
911.206
899.508
912.235
905.894
907.935
899.909
905.542
915.287
903.886
913.880
910.355
911.800
913.552
912.316
918.358
918.106
915.029
910.671
915.266
916.094
923.229
915.568
913.575
921.273
913.921
914.009
925.183
929.119
917.249
929.710
920.744
928.443
923.114
919.532
933.726
927.764
927.509
930.657
927.504
923.593
923.232
927.278
924.846
933.541
926.724
936.357
927.945
929.374
930.120
935.273
935.091
930.361
941.639
942.446
943.749
944.410
938.925
934.491
934.473
940.895
940.412
938.063
937.052
942.749
951.679
937.872
948.200
943.256
940.056
952.662
954.815
955.499
953.312
949.819
944.774
949.142
946.017
941.072
949.808
940.341
936.722
946.690
940.892
937.149
940.607
939.240
941.601
944.530
942.802
942.320
942.742
937.089
933.163
