140.278
127.555
119.695
127.144
121.182
132.447
114.661
127.376
120.530
118.514
143.566
141.983
130.558
136.927
122.839
145.097
105.728
128.150
134.025
132.079
108.039
103.687
122.603
132.519
132.804
94.915
125.215
120.505
108.220
133.189
116.596
142.137
116.001
128.532
129.744
114.517
96.646
100.055
116.560
144.291
116.121
130.357
127.714
129.444
143.304
115.642
133.490
142.344
117.677
104.869
141.434
112.762
141.601
114.714
141.292
144.798
140.277
115.459
122.149
128.655
132.682
128.371
136.783
143.889
99.893
116.247
124.533
104.815
134.400
138.924
141.708
105.943
112.188
124.918
111.471
121.394
128.143
113.878
110.389
142.049
115.126
115.066
127.336
100.706
119.152
105.611
138.101
129.856
108.264
109.862
114.336
102.766
103.363
134.263
133.406
146.729
142.856
145.319
103.373
121.841
97.181
142.470
131.871
101.530
116.190
95.092
115.858
146.033
127.540
144.108
123.877
135.786
101.627
103.225
139.690
96.435
144.406
110.962
103.817
99.725
143.105
115.328
131.426
144.732
121.766
125.413
114.403
126.292
118.054
146.165
143.977
123.104
132.676
121.571
114.030
140.989
114.660
129.436
125.598
129.067
138.932
105.616
114.841
143.872
142.567
103.448
126.240
120.757
112.894
112.553
120.840
124.428
99.407
122.597
133.324
142.263
97.576
112.279
144.344
141.837
122.666
102.404
110.386
98.280
145.094
146.354
119.425
132.173
142.487
143.081
122.862
116.489
144.645
97.415
95.889
102.999
106.491
120.041
122.665
106.350
128.611
108.107
139.814
128.206
128.008
95.134
135.416
99.478
104.251
100.743
141.924
96.406
108.139
107.907
105.860
135.013
128.047
110.623
140.832
109.053
99.541
142.954
122.609
101.460
110.391
101.933
141.983
125.383
107.340
124.133
140.969
138.611
105.435
105.255
125.065
104.046
116.472
115.492
116.591
99.268
144.499
115.559
118.358
130.595
120.888
100.309
105.721
97.764
110.836
124.703
95.228
144.183
132.872
139.807
115.024
109.132
112.495
130.183
103.041
143.308
107.640
109.447
102.062
110.743
114.768
108.803
100.099
133.982
143.593
131.591
108.518
127.269
140.890
126.780
129.574
119.829
109.303
123.617
101.598
123.586
139.130
107.290
144.085
99.704
101.616
106.274
139.183
109.908
117.413
144.885
114.394
138.679
136.147
101.175
138.272
109.703
141.399
134.502
128.456
105.614
116.848
131.224
119.448
106.400
101.856
145.733
110.431
105.673
129.975
102.514
110.847
111.187
98.793
111.577
131.691
146.416
135.563
115.576
119.251
146.667
105.256
129.076
145.472
131.992
103.971
135.137
102.442
95.987
124.719
103.224
103.748
111.342
114.018
136.331
132.618
110.370
143.892
146.525
111.160
111.167
131.032
112.550
143.052
102.239
98.899
106.230
97.667
134.311
97.159
129.759
103.812
112.243
113.073
95.723
118.736
97.356
102.431
124.791
112.344
135.558
141.640
126.929
137.446
111.560
138.035
111.502
116.658
127.076
105.165
127.758
127.909
95.353
96.817
114.048
120.879
135.214
136.517
103.418
99.357
130.950
146.094
111.104
112.270
113.348
134.169
119.642
138.296
96.703
130.279
100.183
111.416
131.247
115.523
108.534
106.439
145.710
99.666
110.290
108.104
115.310
135.011
143.233
111.426
144.185
145.408
135.110
142.648
100.248
97.710
133.674
112.631
143.492
117.808
118.238
134.926
146.156
99.566
124.249
146.451
138.802
145.334
145.678
144.128
132.337
142.518
110.887
119.167
103.792
142.560
99.294
119.513
127.770
137.201
138.212
99.026
98.797
129.158
100.592
117.420
129.607
133.870
137.830
126.701
127.639
109.156
109.349
97.075
135.341
126.426
133.373
114.860
117.033
129.573
120.239
97.258
130.631
95.828
108.360
125.950
121.710
109.891
135.444
127.442
127.403
131.479
115.518
132.374
136.777
142.614
123.532
119.108
131.444
105.924
145.213
142.748
128.976
113.241
126.338
114.812
119.767
121.882
127.739
139.708
141.649
137.865
143.399
117.648
107.123
100.134
97.868
109.501
142.624
107.611
120.175
111.386
123.008
126.608
101.642
140.376
146.369
121.055
125.661
101.180
123.129
113.381
37.070
30.867
29.430
34.557
40.372
29.804
33.340
32.788
41.679
36.829
37.257
40.761
34.992
41.170
31.962
39.177
44.648
42.645
32.069
39.769
33.705
32.563
41.990
30.116
42.558
37.362
40.702
35.886
33.782
33.647
38.747
37.873
40.730
32.224
37.957
29.374
38.726
43.455
31.218
30.812
41.451
35.200
34.387
31.160
954.032
966.203
955.305
955.368
955.368
982.156
968.663
983.685
986.089
967.322
980.639
980.069
972.650
995.787
976.340
984.446
990.639
1000.852
993.695
995.607
988.743
988.797
1005.100
1002.240
1015.678
991.881
1019.659
1012.893
1020.248
1003.827
1007.124
1006.513
1012.238
1028.949
1032.099
1009.843
1016.970
1024.264
1014.265
1015.270
1041.810
1029.569
1026.281
1044.370
1041.885
1045.531
1035.132
1033.927
1036.776
1036.231
1049.697
1042.482
1065.586
1058.781
1053.968
1063.700
1065.633
1068.819
1048.608
1064.070
1077.814
1062.392
1069.608
1063.859
1071.258
1075.268
1062.653
1087.472
1086.984
1070.686
1072.586
1087.919
1072.953
1079.607
1103.526
1082.229
1101.235
1093.128
1103.299
1092.503
1092.026
1091.540
1108.826
1108.749
1098.014
1113.391
1123.037
1114.406
1112.458
1111.646
1104.251
1133.091
1128.453
1109.830
1125.656
1123.107
1115.760
1133.120
1142.535
1139.559
628.925
627.780
629.227
641.023
631.366
633.567
643.643
643.216
638.014
631.253
646.914
643.143
646.778
638.955
640.266
643.097
652.839
640.949
642.849
650.160
644.914
647.722
653.837
652.698
657.651
649.829
650.739
660.424
651.116
657.596
655.197
665.411
667.887
665.378
659.991
658.662
666.396
661.324
674.959
674.918
669.054
674.939
673.796
666.245
670.626
666.144
673.691
668.606
679.091
670.351
682.090
683.658
683.013
688.658
677.274
677.176
682.902
687.276
691.966
687.857
695.024
683.469
685.266
686.649
693.773
686.661
700.476
703.336
693.952
698.592
699.889
700.870
697.271
694.790
702.057
707.296
708.869
698.509
699.981
713.157
712.165
713.533
709.189
703.144
705.025
707.314
707.454
707.974
716.044
715.828
720.901
723.523
716.421
718.938
728.591
725.797
718.162
725.797
721.229
732.611
722.685
729.569
722.535
722.938
734.463
723.433
729.639
728.528
731.386
731.145
734.039
732.237
729.626
726.770
735.938
727.710
725.766
728.960
730.393
730.170
726.650
741.354
728.871
737.955
733.224
736.937
727.775
738.078
729.050
735.213
742.581
730.329
744.244
743.462
741.688
741.848
742.130
746.231
743.892
747.797
734.705
733.461
745.893
735.489
740.759
738.901
736.616
743.287
737.310
741.643
744.448
738.060
741.277
738.466
751.924
747.929
742.370
753.166
748.424
749.323
745.971
748.827
739.625
754.420
751.587
753.576
755.670
751.986
749.624
745.079
750.499
755.709
746.455
750.849
754.763
757.435
745.517
753.219
749.999
758.123
759.174
759.822
752.142
751.947
746.878
747.669
754.535
757.908
759.676
753.744
751.029
762.864
759.721
755.814
751.038
764.792
753.256
763.309
757.683
766.241
755.619
755.791
760.901
762.538
766.367
756.543
762.507
757.007
755.105
759.511
758.094
763.720
762.746
765.822
761.013
769.576
761.156
767.897
761.713
763.689
770.535
758.534
766.335
760.717
768.610
775.242
771.810
776.078
763.881
761.516
767.164
767.035
771.902
766.695
772.315
778.222
772.110
770.748
774.490
768.541
774.773
768.138
772.456
772.703
766.648
769.403
772.972
770.613
779.684
781.898
768.723
782.403
770.429
773.730
781.308
784.024
773.557
781.189
775.557
786.443
777.492
771.754
779.035
782.648
777.321
775.331
784.590
783.825
781.771
779.003
782.601
782.030
789.428
775.300
784.081
782.990
790.512
790.529
777.956
789.251
780.818
780.802
790.908
783.407
784.258
786.813
783.533
780.192
792.304
785.887
792.877
786.724
795.564
794.761
788.517
797.409
792.727
790.913
793.475
793.916
785.273
793.818
797.378
792.934
791.779
788.648
789.264
800.584
792.592
800.355
800.515
794.700
791.608
804.760
804.791
790.657
805.698
801.232
795.747
795.259
800.281
798.924
806.275
796.204
804.961
797.049
809.867
804.278
811.214
803.015
808.157
801.968
805.444
803.022
808.954
807.733
805.242
806.155
809.564
815.865
808.804
817.343
804.486
803.658
816.526
815.348
816.154
813.579
804.457
811.649
817.711
821.424
806.171
818.113
807.469
820.751
822.310
812.111
824.731
816.242
822.835
816.258
826.385
824.863
811.692
821.036
819.706
814.172
824.913
823.531
820.756
814.432
825.743
822.171
825.238
818.120
828.334
826.618
819.755
827.961
818.757
819.646
831.211
834.511
827.609
825.038
834.021
821.532
832.417
832.534
835.700
828.018
829.907
829.141
827.725
832.689
831.062
835.433
829.153
832.130
841.776
835.584
834.738
833.151
829.370
842.564
840.201
832.836
841.803
838.070
831.578
834.980
846.005
840.134
839.366
844.087
842.307
845.918
840.138
835.939
841.429
839.364
841.975
851.510
843.859
852.618
838.312
852.415
851.462
839.797
854.444
841.571
846.825
850.781
848.803
842.197
850.548
850.634
857.111
847.667
845.987
845.828
849.621
855.700
848.773
851.704
857.597
859.760
854.397
862.323
860.350
849.640
859.934
860.523
864.241
852.071
861.042
852.483
858.442
855.793
854.154
857.886
855.341
865.332
862.221
857.264
859.023
865.501
862.250
864.072
869.910
869.003
864.560
858.747
872.142
867.229
871.384
865.174
869.391
861.510
870.997
865.772
873.997
867.864
864.337
867.670
870.182
880.133
874.881
876.773
867.106
877.781
878.145
882.391
879.279
880.994
869.247
872.695
872.390
870.977
870.711
875.052
879.829
872.923
877.474
877.288
875.470
884.227
881.633
880.703
882.388
878.961
874.438
873.102
879.786
872.383
872.745
872.843
875.416
871.507
881.137
871.542
882.232
867.917
866.728
866.924
874.408
873.802
881.051
875.386
870.563
867.530
873.227
866.587
869.275
875.040
874.466
865.286
869.329
872.518
863.671
879.195
874.508
866.705
876.381
864.916
870.501
867.907
872.159
865.790
876.362
873.683
871.138
873.206
864.306
865.406
867.724
873.358
864.899
866.317
862.385
863.297
873.115
863.997
863.020
866.167
861.988
863.639
861.103
861.460
863.524
869.615
863.740
863.902
868.495
858.821
864.424
869.702
870.006
863.886
873.183
870.938
863.916
872.270
862.254
869.151
867.221
871.890
868.918
869.284
870.132
863.108
862.430
869.725
867.421
862.776
860.720
864.097
857.343
869.535
859.400
867.948
854.985
867.827
863.184
856.045
861.096
857.278
866.579
856.685
852.651
861.701
860.694
853.188
865.723
855.985
864.761
861.159
857.105
852.139
865.747
857.856
853.947
864.558
863.445
860.611
863.654
860.195
859.574
855.606
863.305
854.347
862.107
856.173
850.347
850.894
850.413
848.533
854.265
853.940
851.231
850.625
855.171
853.361
858.872
849.581
857.858
848.379
855.360
853.263
857.224
857.515
860.876
846.028
853.151
858.924
849.647
857.375
848.058
849.654
860.415
857.237
852.169
860.129
854.358
849.432
848.572
857.466
857.042
845.502
856.157
851.354
855.075
857.713
853.091
856.801
851.335
854.334
857.263
846.522
845.888
842.961
854.467
849.509
845.661
850.091
846.619
856.068
850.578
851.837
853.181
853.174
851.053
849.079
849.487
845.937
847.220
840.584
845.625
848.714
841.722
846.502
850.249
847.704
852.278
840.902
852.337
846.623
848.618
846.707
841.276
847.429
841.651
849.027
834.571
838.024
843.938
842.025
842.740
847.356
837.806
847.459
840.837
841.411
837.832
846.835
843.300
839.706
842.762
833.228
842.957
845.241
843.587
843.849
837.121
835.890
837.084
831.539
836.525
829.856
832.677
829.874
831.853
836.116
836.386
840.959
827.825
829.031
836.619
829.963
836.949
833.468
830.669
822.995
823.747
822.423
829.272
824.505
825.843
828.849
831.709
827.712
835.182
834.089
826.044
832.777
830.122
829.751
827.507
832.332
828.460
820.245
828.717
829.362
817.806
827.000
830.424
823.607
824.496
822.027
820.744
817.853
829.384
815.364
828.736
823.969
815.517
813.396
817.802
824.755
814.073
825.830
826.741
814.793
812.347
814.491
818.273
812.244
817.636
817.796
824.021
824.262
819.200
818.211
823.021
823.240
816.841
809.069
811.388
820.634
812.242
806.251
807.327
815.366
812.696
812.160
820.117
805.207
804.805
811.272
816.588
810.840
815.282
815.903
808.642
808.229
816.118
807.467
808.618
805.215
812.576
808.209
805.176
805.200
801.349
814.258
801.100
812.136
809.304
800.209
811.794
797.680
811.241
808.418
807.445
809.468
801.460
800.991
800.788
796.324
800.565
801.752
809.786
804.708
800.967
803.854
800.332
797.140
792.517
797.362
800.646
796.848
792.455
802.632
798.794
793.755
803.350
794.750
796.830
801.370
799.218
793.663
799.553
797.687
788.776
788.411
801.622
791.190
798.687
795.255
798.976
787.156
790.100
799.553
787.112
797.514
785.827
791.068
786.121
784.412
798.182
794.751
790.391
787.064
788.953
793.194
790.904
787.784
783.319
795.539
785.289
781.259
780.048
790.766
792.310
778.595
788.898
785.573
783.099
788.622
786.074
778.940
774.514
784.534
779.970
772.786
770.271
767.530
767.803
769.169
773.378
773.439
773.622
778.246
765.343
765.580
775.804
772.035
766.363
768.814
761.568
761.881
763.296
756.608
756.111
760.977
760.240
760.263
755.092
753.476
757.745
757.885
758.111
747.302
757.185
754.748
758.751
745.979
746.306
754.302
741.767
754.272
743.592
749.812
745.645
739.193
742.630
747.871
737.286
742.319
745.624
739.796
747.347
744.710
733.936
740.034
740.665
735.599
733.118
727.738
740.998
731.251
733.194
730.443
732.953
729.029
728.535
727.056
724.362
728.981
731.055
720.960
722.339
729.424
717.491
729.302
725.268
728.044
724.819
715.132
715.729
720.582
724.607
722.087
723.501
718.030
716.414
715.999
710.286
718.185
708.922
705.669
714.575
710.587
709.143
714.973
700.850
702.253
703.576
698.634
708.112
706.474
696.139
702.058
696.999
705.094
698.531
705.008
705.256
692.608
691.317
697.725
698.308
695.788
692.382
693.670
689.638
695.752
692.923
694.822
681.837
695.963
684.020
680.292
693.422
683.916
686.684
681.183
681.655
682.353
674.168
681.889
682.711
684.490
673.785
676.323
676.970
676.288
669.869
670.703
676.729
671.701
669.085
677.336
674.875
671.487
672.884
674.200
673.023
664.858
658.908
664.638
665.642
662.081
656.995
669.233
660.596
658.117
657.300
656.478
660.927
664.251
655.995
654.851
660.580
658.994
650.967
658.664
650.439
653.344
652.426
642.252
644.620
644.598
642.064
648.733
639.826
649.162
643.771
645.458
636.903
642.073
638.123
633.465
636.304
636.072
646.110
630.321
641.480
638.370
635.230
631.458
627.583
638.447
631.179
636.785
631.019
637.717
626.875
629.857
632.992
632.313
635.322
626.940
641.603
628.921
634.288
632.163
637.427
627.623
628.083
636.942
627.440
640.848
640.012
639.648
630.837
638.267
640.275
639.011
631.922
629.412
628.204
635.100
633.861
631.856
637.418
638.799
639.393
638.625
637.607
634.562
631.204
633.122
625.995
623.476
624.356
638.548
626.854
625.441
632.452
630.031
625.370
626.752
629.197
628.011
625.168
627.108
628.917
624.711
636.807
637.781
633.769
636.622
631.371
626.347
633.708
625.377
625.923
633.788
630.099
627.869
626.626
627.409
629.660
621.213
629.173
627.727
620.657
631.055
623.985
634.720
628.738
631.306
634.404
628.119
620.323
631.806
633.879
628.970
634.503
628.574
630.794
634.618
620.255
619.384
618.992
634.382
633.163
624.368
621.078
623.721
627.940
627.464
627.924
628.691
623.893
628.009
618.457
627.886
625.687
617.728
630.313
629.530
625.934
617.315
632.082
624.293
629.676
617.943
622.294
623.957
632.290
626.830
627.926
623.431
631.914
621.028
616.987
625.197
630.460
621.928
621.609
617.214
625.284
631.387
621.329
624.582
630.486
621.545
619.354
626.188
618.086
621.327
619.471
615.554
618.961
614.854
617.237
625.817
617.362
624.199
621.029
618.913
622.702
619.272
615.204
615.785
623.682
617.214
622.216
621.777
627.900
614.727
615.197
622.991
620.417
626.293
628.425
619.145
628.412
621.901
613.970
621.355
614.694
618.781
614.523
617.124
625.469
617.472
614.742
615.166
615.248
626.136
614.469
616.814
615.135
624.128
625.880
622.433
618.027
613.686
613.643
623.566
613.323
617.355
614.852
624.895
624.954
614.421
620.858
614.542
613.473
625.258
615.186
617.655
632.087
630.219
622.944
628.041
627.247
631.152
626.545
636.091
630.428
643.813
636.608
645.347
642.564
635.208
636.686
647.151
641.953
648.276
649.569
646.557
658.285
658.944
647.844
653.782
664.724
666.000
665.702
655.098
665.045
655.928
667.717
662.382
665.089
672.213
676.688
677.239
666.719
677.262
671.642
669.470
682.475
671.439
688.340
686.115
683.424
685.861
690.191
690.619
692.966
696.427
696.670
688.846
692.614
688.891
690.624
692.983
703.333
705.767
697.147
698.773
696.622
700.072
703.556
703.979
717.100
