119.236
100.074
95.842
104.451
122.460
122.349
133.820
145.628
107.221
107.636
123.159
146.050
114.155
103.276
133.084
104.209
142.257
116.387
132.670
122.559
138.873
97.607
98.748
112.075
123.341
110.893
130.828
140.028
128.809
145.988
120.404
134.175
127.875
140.630
99.020
94.837
119.785
95.388
142.986
114.391
111.382
110.150
135.442
119.197
115.578
102.096
135.129
109.490
127.961
110.756
135.578
140.670
125.464
136.184
106.834
111.194
124.481
138.530
118.766
120.266
137.011
142.283
129.739
99.928
125.989
138.496
113.104
108.935
143.233
108.566
136.563
133.391
126.626
127.762
127.830
140.749
110.269
95.936
124.213
123.754
126.513
124.226
119.526
136.337
135.925
102.242
132.481
127.540
145.019
115.123
112.731
140.801
144.356
112.312
98.648
136.417
101.211
143.089
122.851
131.721
138.505
135.143
98.115
115.059
102.631
142.414
96.636
119.915
121.691
123.900
121.649
136.090
105.713
101.119
131.294
113.860
103.869
142.666
95.617
95.129
107.279
108.905
144.115
102.957
115.392
128.610
141.094
99.922
114.396
115.887
97.652
135.409
115.040
108.430
108.727
146.025
94.835
119.315
126.839
103.451
127.430
99.643
111.810
127.669
145.494
100.836
139.341
97.876
96.442
128.538
125.592
120.496
103.173
129.130
118.223
117.920
122.544
133.663
95.437
96.521
141.105
101.944
133.005
95.230
109.222
104.802
114.020
134.832
125.095
134.541
142.892
114.959
116.034
122.068
120.322
134.253
122.764
102.405
133.743
124.894
96.753
139.266
141.420
122.939
140.124
99.430
126.451
137.013
102.772
132.003
130.737
142.632
110.657
111.719
95.508
96.297
138.681
107.076
124.020
127.395
136.698
117.912
121.851
104.694
97.652
104.437
101.907
103.048
138.727
124.694
122.241
110.091
96.200
137.955
146.101
125.439
130.914
142.334
127.131
139.692
134.900
120.130
111.109
135.424
132.821
110.770
140.772
109.069
96.477
136.555
111.124
135.706
113.187
131.468
108.021
111.366
134.566
135.943
110.479
105.334
144.689
133.810
104.121
126.009
124.631
94.895
100.681
144.880
140.538
146.144
114.817
144.505
110.872
124.488
111.204
109.716
140.858
136.120
97.463
94.860
139.718
109.237
143.235
95.561
123.165
35.296
41.417
36.139
32.673
39.308
44.184
33.468
41.948
45.062
44.082
31.915
36.242
42.193
29.280
32.145
42.078
31.098
32.962
31.969
41.817
37.834
38.737
41.666
39.054
37.478
33.913
38.111
31.642
44.448
35.375
36.439
40.073
35.358
29.416
32.227
41.252
40.433
35.241
37.533
44.995
35.261
39.740
882.565
903.815
896.682
910.984
897.081
923.326
924.254
920.267
913.432
910.026
935.483
923.502
935.134
929.940
945.681
949.364
955.756
957.628
962.934
946.616
957.842
960.118
980.892
970.054
974.100
979.596
990.888
985.374
999.211
994.557
1008.102
1006.303
995.963
1012.083
1006.457
1003.969
1003.555
1031.233
1010.575
1035.632
1038.625
1044.106
1034.087
1050.792
1028.654
1050.602
1041.216
1053.005
1066.727
1049.982
1058.318
1054.489
1060.713
1073.177
1074.057
1090.205
1081.456
1090.568
1081.468
1080.840
1104.464
1089.433
1092.670
1101.839
1101.527
1104.827
1104.544
1114.684
1120.779
1134.625
1117.603
1119.232
1126.854
1132.325
1139.141
1159.028
1139.979
1162.599
1168.843
1172.877
1170.015
1174.282
1176.090
1178.788
1183.837
1169.998
1173.718
1190.519
1196.911
1190.276
1184.752
1203.770
1199.802
1211.507
1200.048
1219.778
1202.086
1207.677
1233.092
1217.698
685.951
689.598
685.339
687.620
697.567
689.588
701.009
704.111
693.386
697.139
701.182
705.258
704.346
700.802
706.430
707.887
712.562
720.744
721.219
720.609
725.144
715.471
717.642
718.472
729.863
725.871
724.213
737.317
741.519
732.318
744.989
735.338
750.070
742.450
743.577
752.862
755.247
749.172
749.584
748.627
758.195
752.304
755.236
768.733
758.854
760.360
765.581
775.559
769.667
774.359
774.826
778.892
774.895
782.825
787.643
782.985
783.470
793.939
790.145
786.741
795.870
790.106
798.885
806.002
796.730
804.348
803.933
808.055
818.042
818.185
821.424
808.945
824.331
812.201
815.246
819.218
826.812
828.082
822.935
823.874
830.279
828.832
841.439
841.480
840.979
835.513
843.251
841.423
849.906
854.534
845.080
848.113
860.480
858.296
862.416
857.876
857.506
865.965
871.833
864.974
870.551
876.106
863.212
865.909
873.260
874.794
868.487
869.158
865.915
867.432
869.117
874.511
875.164
877.372
877.069
864.467
871.445
870.382
878.747
878.049
879.491
872.841
865.483
867.255
878.385
874.758
880.485
870.726
871.286
871.971
873.652
880.283
870.987
872.979
869.546
876.955
879.600
868.892
882.547
869.323
872.901
870.394
881.178
874.954
877.135
873.504
878.382
882.535
870.234
883.896
871.055
872.051
870.272
877.270
873.386
884.764
882.013
879.203
877.613
878.011
876.530
878.657
874.341
877.432
882.291
875.424
885.652
876.512
878.717
880.441
887.053
878.643
876.435
884.906
880.846
886.319
885.773
881.073
881.206
876.310
888.813
880.680
875.023
873.827
879.158
877.158
889.317
888.157
879.479
876.544
885.381
874.511
875.046
878.112
884.330
879.898
879.636
885.740
888.111
883.203
886.902
881.217
888.640
884.412
888.312
885.273
877.287
879.562
886.697
890.269
891.112
884.493
878.816
881.717
880.724
892.123
882.562
891.380
888.988
890.487
891.367
878.868
879.682
889.448
887.235
883.929
889.630
891.659
886.007
882.095
884.969
886.186
893.287
880.414
882.892
892.513
880.666
893.545
888.350
893.820
893.386
884.769
893.643
883.083
890.500
884.688
884.247
885.207
892.335
892.127
891.234
887.484
891.466
887.896
896.063
883.442
889.609
896.947
892.007
884.904
886.095
892.445
889.360
898.008
899.127
894.070
889.168
886.737
895.261
893.002
888.524
886.793
897.642
901.059
899.028
891.278
888.909
889.991
900.314
893.338
894.011
897.280
893.190
898.532
890.481
895.071
897.687
893.661
891.945
888.400
888.435
891.184
895.556
902.112
888.849
893.586
897.659
899.907
892.146
891.684
904.650
902.450
897.247
892.269
898.270
885.503
884.495
886.300
893.444
881.706
881.864
880.728
875.566
883.753
880.328
882.308
869.900
873.030
878.968
879.159
868.957
867.547
873.809
868.854
860.204
871.418
870.818
858.381
860.159
857.501
863.743
865.512
858.790
849.929
856.784
850.454
853.700
850.480
855.405
841.786
840.567
848.119
846.529
846.707
838.191
838.290
831.966
837.915
839.131
835.997
840.436
835.594
831.759
838.397
832.977
826.406
824.658
830.289
823.934
820.343
828.063
813.706
817.804
825.635
810.799
819.591
811.464
818.889
805.393
817.546
808.976
812.303
808.599
809.044
804.243
798.271
797.325
798.470
802.716
795.890
803.137
803.992
788.183
787.359
800.205
785.906
790.678
782.784
792.077
779.593
778.298
786.451
776.404
782.191
775.980
774.243
779.157
777.290
778.806
769.139
768.066
765.037
766.929
763.817
766.527
771.682
766.597
757.782
764.087
764.133
760.054
764.011
756.268
761.027
758.173
754.279
750.141
757.672
751.730
742.726
742.652
752.385
743.028
744.900
745.975
741.272
737.979
741.377
736.047
742.632
730.541
736.447
728.227
727.058
728.234
733.067
730.469
726.381
717.072
731.386
723.031
728.032
723.118
716.557
719.342
713.349
721.698
716.133
706.567
716.180
704.915
710.683
710.991
703.518
697.111
709.878
700.908
697.154
695.838
698.474
703.452
702.602
690.906
692.234
690.224
689.804
694.448
691.946
685.937
682.998
679.027
680.097
686.964
683.605
676.250
671.390
677.326
673.554
673.335
667.870
676.899
673.530
672.951
662.427
666.861
665.292
661.243
659.363
663.833
667.393
663.417
653.748
654.444
651.507
653.604
660.677
652.947
650.644
651.900
641.424
652.830
648.289
654.982
658.327
655.530
656.539
658.171
665.814
658.701
668.689
669.442
669.558
660.417
675.220
666.218
677.156
669.566
671.996
672.807
683.487
674.757
674.510
684.695
689.778
679.131
681.975
690.356
696.904
693.385
693.371
696.785
700.725
698.501
694.328
703.542
696.675
712.192
704.433
707.547
709.130
715.208
717.799
720.233
711.306
712.144
711.492
715.103
727.091
716.412
731.269
725.030
734.876
726.580
731.549
740.928
737.367
732.102
743.578
739.674
748.446
737.373
744.250
748.256
753.743
755.437
750.253
750.292
757.548
761.285
751.841
754.827
764.106
754.583
768.531
765.116
768.635
776.119
768.733
769.506
771.146
771.029
778.203
781.577
774.668
778.475
782.414
792.278
780.811
788.069
794.616
798.837
789.254
791.755
799.288
796.513
801.353
796.834
799.448
798.278
803.918
809.580
816.748
814.435
804.967
813.362
814.758
815.630
820.442
820.851
824.751
822.069
823.301
819.470
825.346
836.885
825.950
826.675
834.368
840.075
835.101
846.421
842.136
840.934
843.152
852.764
844.216
846.829
850.234
853.793
861.503
857.706
858.530
861.574
858.128
859.472
862.532
865.789
865.169
865.633
870.430
870.737
878.135
870.031
878.597
882.980
885.491
879.785
881.914
887.110
886.605
882.708
881.942
892.143
884.697
887.669
890.090
902.368
903.922
907.461
903.040
904.382
901.071
910.520
906.682
911.372
913.844
909.084
914.094
914.532
918.184
919.065
925.849
918.393
924.120
928.398
934.463
934.382
933.937
936.477
935.149
930.785
941.473
937.302
943.328
943.468
947.698
940.202
942.287
944.069
946.690
952.056
958.179
959.225
958.375
955.564
966.677
958.936
955.923
964.096
961.637
966.200
973.362
966.934
971.722
967.843
960.124
965.444
967.140
960.748
950.979
963.478
950.436
952.680
956.631
947.210
952.073
959.805
958.281
957.536
943.410
951.859
951.863
941.871
943.827
945.648
946.968
946.416
938.207
942.604
932.338
930.421
935.485
932.735
941.720
942.127
937.782
939.026
937.548
927.553
936.171
931.163
935.007
921.732
931.791
929.623
926.280
917.642
923.758
924.633
921.901
915.322
921.357
916.162
913.715
910.016
913.186
909.524
904.308
914.778
904.016
901.856
907.872
906.472
908.897
905.686
897.171
903.127
899.827
892.738
902.169
897.146
901.609
888.837
900.827
900.276
901.556
898.987
891.336
898.482
888.731
889.962
887.097
888.925
890.524
890.593
879.846
884.183
878.008
877.233
884.731
873.532
878.781
882.795
878.063
882.850
872.422
867.759
870.577
878.079
863.078
868.746
866.102
873.561
868.829
864.122
856.927
862.900
858.141
863.606
856.480
864.555
861.559
864.291
858.627
851.220
859.369
856.847
848.240
856.104
857.951
850.090
845.449
846.528
850.561
843.843
839.835
840.357
841.004
848.220
840.259
844.041
842.681
843.889
831.725
832.804
832.777
839.089
825.406
829.425
825.319
825.830
832.768
823.525
829.776
826.280
823.014
816.977
815.038
813.781
813.440
825.920
812.010
815.107
818.496
820.575
809.586
805.810
812.078
807.259
811.918
807.056
806.726
812.724
812.325
809.573
806.055
806.132
795.963
803.059
799.086
806.621
802.336
795.059
798.278
802.564
792.868
799.010
792.489
797.147
784.526
796.098
787.542
781.239
789.105
786.706
792.231
789.169
783.391
785.041
788.203
776.651
773.165
772.200
773.605
777.939
781.111
766.717
776.918
774.759
775.823
775.835
766.046
768.539
761.172
771.112
760.326
764.109
767.607
773.823
760.179
759.060
770.651
767.029
760.231
768.044
769.565
767.439
756.701
762.378
761.376
768.071
761.930
757.900
754.746
755.707
756.346
754.298
753.321
751.686
761.236
748.900
748.525
750.039
762.220
755.554
756.669
751.582
755.938
754.005
754.489
747.515
745.027
748.294
753.252
745.587
744.835
756.164
752.411
749.331
740.737
742.441
738.734
743.081
745.330
748.534
736.983
751.864
739.379
739.966
735.055
744.014
735.774
733.400
738.439
732.264
743.536
746.490
737.244
738.499
738.113
739.029
741.981
735.223
737.066
739.151
731.415
729.321
741.995
733.876
725.371
739.533
737.584
737.040
726.209
733.688
729.532
733.331
732.431
732.840
729.241
722.632
733.811
721.393
723.612
724.771
723.645
726.165
728.752
719.178
728.005
723.009
728.837
723.233
719.528
724.111
724.846
722.985
719.660
717.078
712.298
713.744
725.462
719.898
722.691
713.302
716.744
711.474
716.417
714.807
708.841
719.743
720.533
707.902
714.913
717.753
706.113
704.716
707.264
712.260
717.250
717.129
706.094
704.097
709.032
714.534
699.534
711.642
711.398
706.326
707.251
703.385
711.728
698.411
707.946
700.386
701.446
693.972
705.682
693.011
692.513
698.769
700.546
691.873
692.141
702.981
699.300
696.036
704.069
697.223
693.550
699.972
692.026
693.394
687.999
691.562
697.505
695.088
689.599
687.011
698.273
693.057
697.958
684.501
696.443
687.206
694.381
684.394
686.797
687.319
687.587
691.645
678.741
679.285
691.598
685.497
687.608
679.974
680.816
682.981
680.269
685.338
683.620
684.256
676.140
676.248
671.826
674.752
680.537
669.517
676.725
680.127
670.083
668.274
668.041
670.325
672.515
671.966
667.180
669.746
671.787
659.241
657.341
661.283
662.016
656.388
662.879
653.926
660.046
648.129
648.287
653.289
643.955
642.062
652.124
651.616
648.150
649.412
644.228
635.829
648.066
637.926
633.681
635.281
632.657
637.288
627.331
624.737
626.098
625.282
632.981
632.657
632.603
631.124
626.396
625.126
617.842
614.637
618.763
620.550
619.507
615.721
607.344
614.288
607.948
614.618
614.238
601.612
606.919
602.263
602.162
599.770
594.497
600.083
594.470
596.868
589.735
598.579
597.426
600.727
595.178
585.574
597.683
587.264
591.303
581.769
581.210
586.257
579.936
581.631
575.745
573.989
572.964
577.869
574.340
580.592
579.007
574.228
575.283
574.415
569.512
560.840
565.643
558.896
570.786
554.845
556.626
554.310
562.422
562.463
547.691
556.496
556.558
545.993
549.805
545.413
540.710
548.113
553.105
546.007
549.155
549.188
542.824
545.701
535.124
540.582
531.965
535.918
534.889
532.010
530.936
537.138
521.108
520.618
527.570
529.669
521.758
528.044
520.329
527.162
520.735
515.409
522.978
514.529
511.638
515.480
503.514
515.376
507.487
500.805
508.590
502.470
510.998
496.390
494.560
499.837
505.749
504.151
502.274
501.687
491.777
496.008
484.627
484.428
482.276
494.562
491.259
477.870
487.337
479.205
483.918
483.786
482.013
473.716
482.590
470.966
475.784
474.436
469.549
467.317
470.519
471.014
475.192
461.049
462.937
460.684
456.514
455.307
466.678
453.445
454.184
455.663
451.030
455.622
454.647
452.682
447.365
455.254
445.907
449.538
440.991
442.145
436.515
438.312
438.848
446.770
445.650
433.738
435.649
435.882
440.471
427.064
439.331
435.991
440.818
440.738
441.116
445.721
445.982
435.245
439.402
439.100
441.654
449.821
449.733
447.360
444.940
449.047
456.377
455.789
455.856
453.216
459.431
455.723
463.994
457.401
470.594
461.293
469.739
476.482
473.134
466.983
476.367
479.899
473.469
480.066
475.145
489.755
487.364
479.821
479.918
488.877
485.382
485.515
487.493
489.727
495.444
502.265
490.809
498.589
492.262
498.661
498.993
501.435
510.570
504.982
503.323
505.544
515.789
508.283
521.696
516.073
516.971
520.825
517.277
528.112
519.244
529.266
524.869
525.684
522.723
531.899
533.727
525.454
528.050
526.851
530.257
530.219
532.483
540.985
546.872
548.646
546.073
540.476
552.474
544.920
548.420
547.041
550.196
558.201
563.112
551.580
560.819
556.950
560.766
569.247
569.493
568.705
568.839
562.823
569.574
577.643
567.173
580.537
569.347
569.809
580.071
583.980
575.978
574.192
580.726
577.780
584.002
589.125
588.980
585.530
583.780
599.432
596.754
603.351
594.047
599.662
595.980
596.477
602.538
598.081
610.013
605.409
607.814
614.192
609.043
611.809
611.131
610.153
620.949
625.136
613.629
618.051
629.887
622.961
619.788
621.622
623.423
625.298
628.462
638.677
626.641
638.142
628.285
630.525
646.239
639.059
645.166
642.600
643.207
643.983
649.531
650.511
643.140
648.713
646.973
661.132
651.096
654.867
650.998
656.776
666.238
656.866
670.778
662.791
666.425
671.676
670.766
669.668
675.994
678.931
669.451
674.148
670.901
676.684
685.540
689.532
691.000
686.537
679.190
684.060
691.717
692.552
689.530
699.119
692.349
696.496
701.515
704.285
697.404
706.505
698.726
705.235
708.908
714.873
700.305
708.325
709.622
704.457
703.281
691.549
703.150
688.994
694.397
690.579
684.047
689.801
672.957
675.390
666.208
672.866
672.886
663.710
669.978
653.546
664.364
651.430
652.896
655.106
652.734
645.185
635.025
634.583
642.601
628.861
627.692
634.756
631.250
620.446
618.422
615.299
617.256
613.643
602.596
600.752
603.669
598.388
590.155
592.961
593.841
595.589
585.704
575.302
581.339
578.554
580.164
565.325
569.672
573.244
566.502
559.060
562.622
562.451
550.887
543.431
543.687
541.083
545.653
542.289
530.577
540.203
536.978
532.282
531.470
529.690
522.616
524.292
508.096
513.900
508.946
505.526
505.685
508.090
492.392
491.994
493.689
484.454
493.160
476.960
482.640
484.048
469.972
472.983
466.505
466.739
466.026
455.101
457.410
449.497
