131.863
128.747
102.669
115.607
124.135
126.259
143.130
136.106
147.824
135.980
135.851
128.254
150.786
143.484
141.275
105.484
151.249
120.459
126.839
144.495
152.001
151.750
141.214
113.175
138.895
107.506
111.310
110.061
118.840
152.216
144.700
132.116
126.930
106.486
116.072
146.212
131.650
121.936
140.083
126.764
133.185
143.274
102.310
129.740
120.993
131.004
123.051
127.574
136.134
136.840
113.185
107.540
116.885
118.991
107.075
114.702
139.900
104.731
105.195
101.893
116.844
120.664
108.732
147.056
124.559
150.914
136.194
145.931
105.644
102.175
132.028
135.935
129.382
122.473
135.970
112.391
131.408
152.442
136.397
108.230
107.054
125.481
111.545
138.086
137.708
126.111
144.151
102.406
145.069
108.034
116.205
124.628
129.103
113.923
130.898
146.518
108.155
152.818
101.613
106.101
120.474
141.738
103.688
152.195
102.037
107.493
117.464
107.589
109.762
126.599
120.944
152.160
141.040
130.823
149.012
104.444
127.361
132.386
116.504
106.503
144.315
117.643
111.775
112.688
137.417
129.360
134.991
151.626
149.423
124.418
135.017
106.267
125.519
136.835
117.474
144.223
102.723
111.061
147.312
107.621
113.967
119.221
127.653
102.341
145.132
118.751
142.115
102.307
145.757
103.645
147.965
144.834
140.265
131.113
146.303
133.403
104.092
135.006
132.804
126.061
112.032
139.587
103.364
128.250
116.897
109.854
118.713
112.061
126.794
129.321
152.387
112.992
139.825
128.492
102.370
148.912
123.568
137.266
114.361
106.200
120.085
149.583
143.076
115.143
106.127
101.872
128.436
123.467
109.881
131.526
105.762
133.723
141.396
139.844
111.046
106.077
150.950
126.744
111.438
134.304
127.532
150.282
113.833
148.289
121.485
107.396
139.524
136.060
107.297
141.256
134.421
122.154
104.055
121.952
102.053
116.511
137.624
138.738
152.270
116.913
120.619
120.656
131.388
150.376
114.184
102.069
143.494
125.730
134.477
121.007
121.748
137.812
111.268
121.678
122.188
132.401
136.776
114.055
118.984
134.898
139.140
133.517
117.936
114.100
127.839
106.958
123.100
113.404
152.874
104.679
140.036
117.904
101.235
125.724
147.657
138.659
133.222
140.300
111.219
142.303
102.478
130.451
137.974
134.880
121.459
146.975
102.276
109.157
137.269
103.601
120.646
131.231
141.503
105.136
132.611
152.474
130.137
134.598
109.450
144.187
130.126
139.059
108.668
101.737
142.867
140.072
132.839
143.184
116.793
153.030
126.417
116.536
114.731
127.332
106.553
117.208
148.277
149.960
118.070
111.863
117.628
113.867
146.863
137.922
107.396
107.705
122.385
137.178
127.543
143.662
102.124
137.842
107.943
138.568
104.445
135.278
105.730
110.694
117.708
139.561
147.853
117.105
106.540
126.016
142.714
117.118
110.500
143.253
134.278
102.849
146.157
132.444
109.384
145.738
117.611
119.892
148.331
105.807
150.876
104.360
116.148
117.696
127.311
133.919
114.440
111.474
131.656
124.991
147.238
127.285
130.622
132.010
149.208
103.004
145.784
147.143
153.041
118.851
116.784
134.920
113.346
151.473
121.728
113.238
147.354
142.928
116.932
129.771
105.499
126.035
152.339
134.733
134.201
110.083
137.974
123.361
111.841
133.836
152.745
136.724
150.831
114.776
133.918
133.773
106.760
103.639
133.049
102.211
151.956
148.702
127.966
145.604
113.825
146.035
131.394
137.614
121.239
147.969
137.638
151.689
113.929
106.350
131.914
137.117
104.742
104.313
107.623
124.903
131.609
108.196
132.343
151.124
120.672
129.624
136.463
151.171
132.975
111.682
104.174
109.814
127.203
141.605
137.151
151.310
108.461
129.081
131.440
103.568
150.563
144.004
120.871
112.725
140.543
140.957
144.464
112.952
103.592
142.420
111.411
112.622
119.915
147.961
133.846
115.763
151.672
130.841
130.574
103.132
122.142
106.047
137.467
122.621
102.278
114.866
123.286
140.785
108.462
137.388
126.449
101.190
131.690
111.791
103.704
115.370
122.446
117.120
117.818
135.335
107.433
152.018
139.365
143.329
115.103
143.059
103.926
149.769
111.218
125.353
123.015
122.330
110.976
107.162
129.369
149.704
104.586
149.448
138.992
105.295
120.211
116.289
119.703
117.910
108.515
114.809
148.065
129.221
123.827
144.664
117.624
101.901
148.660
151.467
107.174
147.364
113.143
111.251
106.595
123.461
138.876
111.722
130.788
112.130
144.541
116.925
144.032
101.467
141.758
148.601
115.950
139.911
106.955
112.887
119.151
140.640
143.136
141.156
114.216
101.685
152.787
126.203
112.763
152.298
134.852
104.379
143.305
149.942
110.718
129.452
151.803
110.437
152.939
105.533
139.517
103.422
115.375
118.929
119.886
124.315
128.861
117.666
115.710
104.171
108.044
151.576
145.498
151.548
139.400
134.558
139.205
126.505
129.227
150.497
115.420
117.677
144.581
126.773
125.003
104.998
152.905
108.368
122.385
126.363
121.104
112.790
121.917
108.857
132.406
128.262
150.879
104.626
111.598
133.610
101.558
150.049
139.327
113.258
130.207
115.313
137.572
122.425
107.859
121.060
101.626
151.218
153.071
104.909
126.074
138.599
147.453
107.497
146.067
150.905
151.514
104.582
104.513
117.395
103.431
114.023
129.078
129.930
140.504
113.919
120.449
123.670
135.672
148.988
115.616
129.366
147.105
151.949
114.772
150.179
149.980
106.603
111.429
137.250
126.579
149.795
136.945
116.671
142.751
139.654
122.880
146.745
121.121
116.614
146.140
141.617
152.999
133.191
120.879
109.899
112.866
111.925
124.319
151.927
140.696
147.467
108.750
124.347
150.373
114.978
147.969
129.470
135.845
107.204
150.104
113.196
129.224
135.699
106.180
150.819
105.315
112.266
139.446
103.227
145.930
146.332
125.189
140.773
116.153
114.686
150.322
101.619
149.848
114.426
147.827
149.648
134.271
132.921
135.258
111.546
123.760
115.234
134.505
128.582
141.614
151.883
107.935
114.317
152.164
125.957
149.384
130.017
127.968
150.535
124.437
150.553
105.148
134.579
112.225
130.740
102.617
131.169
111.704
141.685
145.839
150.042
132.471
148.459
139.526
116.788
104.995
133.226
119.588
127.790
112.904
138.077
114.400
118.428
110.338
137.429
105.570
105.588
150.786
116.241
148.967
104.604
140.582
138.636
110.366
130.190
126.464
105.419
111.664
144.295
149.293
145.997
113.432
123.803
119.695
134.514
130.719
138.485
132.732
145.541
130.246
121.891
147.184
108.632
136.221
143.195
139.671
133.717
121.410
107.025
135.249
135.737
121.408
140.208
110.816
129.279
152.428
128.673
141.763
140.041
139.484
101.615
115.752
152.049
128.815
112.755
148.034
110.626
146.169
131.132
141.206
139.964
150.946
103.277
121.994
130.139
151.134
109.258
105.150
148.083
129.458
139.542
149.146
144.312
148.546
132.615
130.082
149.886
101.777
103.736
108.115
121.227
147.128
101.614
142.985
135.439
125.183
150.674
146.783
139.456
122.200
112.907
107.925
133.900
126.923
105.600
102.067
106.714
139.639
135.910
133.804
139.886
109.033
108.037
128.273
110.203
130.585
126.281
151.709
102.825
150.329
122.587
106.678
140.685
139.193
115.423
105.849
131.265
124.427
144.125
119.458
152.044
124.436
131.971
127.480
129.907
110.165
136.096
119.077
113.297
115.472
102.707
126.497
133.242
109.339
125.754
123.188
102.100
142.958
104.458
147.086
138.229
143.626
132.842
132.829
117.214
107.526
121.513
140.086
116.427
102.156
115.881
108.258
141.584
149.655
134.743
108.015
146.805
143.345
116.452
143.453
133.655
116.917
129.951
107.997
121.376
133.587
152.784
128.310
128.257
111.123
126.268
144.946
116.499
125.047
105.045
136.933
150.577
134.230
116.896
133.111
106.656
152.126
124.278
139.654
133.632
144.864
138.105
116.214
136.730
146.769
126.355
125.035
133.876
136.017
137.201
121.334
101.669
134.223
130.036
137.494
131.593
140.822
141.589
105.715
146.596
101.305
148.260
136.674
145.368
104.604
105.983
111.835
114.824
110.175
106.875
109.960
112.770
109.740
119.046
126.589
101.702
114.557
106.199
135.903
106.979
112.588
145.417
150.138
123.807
116.526
137.236
124.430
106.956
140.524
137.042
106.336
117.885
130.056
143.668
101.252
107.345
113.734
146.198
138.081
132.935
131.887
105.117
117.518
139.364
142.149
130.303
132.812
114.213
137.426
138.449
118.164
118.805
138.466
127.019
147.562
112.714
108.205
112.543
125.540
141.294
130.197
135.404
131.224
145.477
117.102
131.007
124.237
122.760
144.664
105.685
147.632
126.696
130.654
142.079
151.656
133.085
133.069
146.360
125.108
112.212
142.935
141.258
119.956
134.607
113.468
144.639
105.953
134.809
102.760
126.976
113.124
132.006
113.865
103.816
119.268
147.749
113.158
149.722
142.124
141.894
102.615
144.362
127.862
144.842
108.383
105.350
135.490
131.705
127.957
106.273
124.128
153.032
114.326
120.934
108.584
131.382
130.058
126.692
146.420
109.576
107.352
110.813
119.235
107.725
144.970
124.588
104.628
127.864
108.602
124.337
138.874
106.424
128.281
141.068
119.929
133.077
134.207
134.128
108.403
118.169
103.900
102.661
113.029
141.058
144.696
103.026
145.291
151.079
115.649
129.161
110.704
109.473
108.919
149.580
102.071
102.331
117.764
106.691
128.789
117.865
133.142
148.882
120.019
126.678
102.036
103.695
143.760
139.550
137.893
130.923
109.668
142.717
115.497
112.291
126.158
128.062
122.393
130.417
125.488
114.532
118.489
121.166
151.617
151.776
107.133
145.670
148.533
122.374
110.784
109.670
144.694
131.414
139.013
140.772
121.177
112.630
110.984
142.769
128.364
142.926
147.592
119.673
131.993
104.794
151.646
117.347
120.985
117.179
131.254
102.895
131.548
111.612
114.990
109.412
134.635
129.245
147.613
152.272
112.086
124.489
109.822
132.483
135.521
106.502
124.425
125.374
129.704
114.720
106.523
119.999
140.044
106.398
152.674
109.702
133.939
103.772
151.618
108.158
119.962
121.340
104.501
134.668
152.453
125.998
128.970
118.855
150.888
145.294
137.391
119.784
120.877
115.167
133.391
122.830
124.764
135.569
132.621
129.431
110.564
124.411
149.253
122.043
133.801
122.628
115.111
127.462
102.234
112.814
118.977
134.874
108.790
110.355
137.494
124.964
142.393
126.359
141.230
127.654
112.156
140.123
126.489
137.674
136.273
148.013
113.219
126.924
123.693
150.821
139.532
118.330
143.703
108.983
149.842
150.081
126.944
127.313
126.435
134.578
103.910
145.813
102.407
143.444
147.717
139.511
103.848
128.153
112.169
137.741
116.233
110.132
130.327
119.288
130.403
137.953
124.192
145.695
123.956
118.794
129.861
150.703
122.944
122.849
147.000
114.649
109.319
127.378
113.448
106.915
125.300
106.605
138.502
138.611
119.412
146.815
152.527
133.188
115.407
130.474
134.022
117.890
130.918
109.129
102.587
108.500
131.874
135.715
150.984
107.678
107.966
136.343
115.816
117.317
131.312
124.778
115.825
137.859
149.965
105.717
126.910
135.751
103.597
122.989
121.705
101.322
114.045
101.282
109.498
118.590
107.738
140.878
124.151
115.572
153.076
124.471
102.848
118.552
136.497
135.316
135.417
128.819
127.751
151.534
151.687
116.220
133.074
122.885
148.111
119.529
116.854
141.405
150.634
134.237
136.694
104.697
134.505
149.909
110.544
104.636
116.338
141.886
126.002
129.649
125.582
136.469
113.705
112.037
126.571
133.228
116.907
137.444
147.708
132.184
104.445
115.136
123.007
149.294
144.848
114.567
118.124
116.591
126.972
149.392
145.631
146.394
144.584
110.598
149.194
151.593
150.689
118.926
106.442
139.883
107.342
103.871
101.733
143.687
103.486
138.559
134.480
122.025
143.315
116.216
130.517
131.458
105.427
132.210
127.538
105.591
152.244
101.803
149.279
113.151
123.624
129.466
108.180
129.896
117.698
128.594
142.093
107.865
122.808
99.270
109.016
138.445
133.957
117.618
95.028
122.135
131.521
144.871
97.105
146.522
129.979
130.636
120.094
127.154
118.732
127.009
109.700
109.894
117.169
109.407
105.797
132.511
133.007
106.945
97.175
117.154
95.223
97.015
117.100
139.394
120.289
145.132
118.201
101.170
117.668
138.358
101.316
112.937
125.659
139.859
146.204
124.081
145.631
117.659
144.308
135.795
113.430
139.292
107.291
118.484
137.492
120.524
114.569
140.779
114.319
101.616
132.371
95.162
131.797
97.699
108.966
138.610
141.035
111.046
112.052
96.116
101.359
104.631
101.570
123.041
113.587
108.848
122.602
131.903
124.602
125.016
129.535
120.437
133.919
139.038
102.595
138.917
131.509
95.327
127.470
105.034
126.397
142.384
122.223
135.045
106.093
115.552
135.233
124.364
124.853
121.039
117.349
138.999
116.708
126.573
96.478
104.045
107.997
121.907
104.570
114.846
109.903
137.478
98.317
133.450
140.047
142.717
127.291
101.128
109.079
137.084
114.355
107.822
123.896
131.060
107.529
140.741
145.510
126.294
115.003
102.230
120.972
127.077
97.484
120.103
103.177
124.505
107.987
109.893
100.877
132.392
116.619
127.555
127.562
142.321
126.462
136.561
124.783
139.328
100.150
130.456
110.468
108.300
110.854
115.811
121.389
121.126
100.567
118.355
111.468
98.114
131.429
120.197
110.275
145.468
133.677
115.147
116.721
103.694
108.341
105.707
128.035
108.530
123.623
102.662
110.864
105.611
119.084
139.341
142.865
139.470
141.311
136.785
137.401
118.724
138.712
126.994
111.677
120.854
129.080
142.770
107.899
109.324
145.552
123.967
117.209
104.410
100.339
131.360
143.810
107.429
131.612
134.003
131.141
100.138
97.193
119.859
107.884
137.355
135.770
103.487
110.659
105.805
116.859
111.969
125.516
127.771
104.237
118.610
106.994
135.582
122.973
132.174
138.726
143.042
102.247
105.743
96.605
140.987
115.889
96.478
114.379
119.835
138.634
109.272
139.083
95.199
142.196
142.911
141.039
118.401
132.712
124.179
138.784
120.849
113.911
106.032
120.776
101.436
95.318
135.174
118.253
121.230
130.758
128.702
143.179
136.371
109.410
143.416
132.552
102.376
137.031
134.127
123.675
116.149
119.603
130.144
119.039
129.457
105.639
100.209
131.259
123.438
131.082
128.410
132.748
123.421
117.741
121.008
135.664
117.440
132.299
108.446
108.181
133.394
137.419
137.499
145.286
137.019
138.951
100.242
131.445
107.234
135.034
142.479
125.929
113.048
133.783
139.586
114.323
110.897
117.642
130.415
119.887
123.400
115.210
99.487
95.518
127.156
131.064
117.536
130.198
105.816
106.006
118.938
143.218
100.457
117.499
145.148
103.417
125.991
98.154
109.776
130.595
112.957
113.130
103.591
134.255
114.174
102.483
100.365
118.213
100.013
124.331
140.428
139.283
108.431
103.532
122.085
107.893
139.477
126.570
119.521
129.433
119.702
120.247
131.304
125.714
124.680
143.302
96.053
114.039
98.864
108.410
103.702
128.907
144.840
118.756
125.045
145.785
98.393
125.355
118.621
100.627
107.272
105.672
128.004
96.226
112.971
30.086
37.454
34.713
41.023
41.340
43.790
38.095
45.018
38.496
31.809
38.256
30.546
39.828
44.346
38.391
40.656
35.024
33.844
34.360
37.364
42.843
32.408
37.534
43.188
35.657
45.001
44.895
31.595
29.707
29.973
30.162
245.881
268.812
249.757
255.739
261.476
263.018
265.681
278.393
282.444
274.173
305.731
296.190
300.314
294.885
303.296
307.755
322.817
332.619
309.251
329.951
336.369
345.215
349.699
351.090
334.821
349.544
353.118
345.959
372.619
357.388
379.013
379.917
372.920
370.019
380.246
399.142
404.678
392.306
409.747
406.517
422.255
406.835
415.653
409.677
427.948
427.250
429.816
422.777
450.239
438.533
454.722
454.018
450.346
465.972
477.752
454.887
468.479
475.045
489.765
476.933
491.480
496.810
501.412
511.763
499.492
495.160
504.590
507.073
521.979
532.911
515.378
516.796
537.006
538.061
546.747
530.908
543.805
538.808
562.383
570.708
577.950
578.697
571.113
566.235
569.719
598.245
591.393
590.299
608.848
593.696
602.398
597.060
613.605
621.646
614.557
634.556
637.276
639.290
633.882
634.467
350.197
363.673
356.688
365.343
372.355
374.357
362.086
373.770
377.503
368.481
375.890
385.621
379.674
384.531
380.751
382.847
388.685
388.765
400.671
400.931
397.901
405.561
409.944
405.345
407.787
412.716
411.521
418.554
420.417
425.658
429.531
422.347
425.817
424.627
426.140
429.852
432.101
430.652
440.381
448.513
438.470
438.727
454.301
443.772
445.402
448.062
461.902
452.681
463.691
461.511
457.339
465.660
470.015
473.819
480.436
470.885
471.717
485.862
489.155
489.380
486.827
487.997
495.298
497.646
497.833
498.458
504.583
500.773
499.185
512.532
504.697
505.854
518.766
510.152
516.613
511.352
516.902
517.196
527.159
528.268
536.662
537.267
529.113
529.268
532.397
541.191
538.154
541.836
549.652
554.903
558.219
549.924
558.916
559.293
566.425
554.949
570.417
565.539
570.337
575.119
566.858
571.940
581.450
574.113
573.209
569.656
573.764
586.172
575.302
582.265
587.392
585.355
580.241
581.312
592.138
592.707
585.834
581.554
580.146
594.618
586.897
