97.271
137.965
139.266
97.258
107.078
122.281
135.904
126.183
124.531
143.463
145.068
137.062
129.201
136.304
132.927
109.181
116.939
93.697
130.553
138.564
108.085
127.661
103.830
109.418
107.520
104.688
132.711
127.784
129.307
103.774
127.231
102.864
114.601
142.087
99.541
134.985
128.236
129.321
109.638
95.279
132.168
141.348
110.255
115.201
134.013
138.336
135.413
94.752
97.358
109.825
118.554
99.801
129.832
142.219
115.493
114.950
119.800
101.880
129.430
142.760
139.316
123.061
121.185
96.506
93.167
137.039
130.826
105.246
115.210
106.836
96.489
114.676
99.196
119.753
98.127
102.498
91.236
121.329
104.381
93.641
106.461
140.265
95.571
139.340
106.018
134.471
123.734
123.385
111.960
101.737
92.137
114.087
128.642
132.854
109.055
91.946
116.360
119.961
139.044
126.381
128.843
105.714
114.140
92.388
93.627
93.158
120.231
125.591
131.894
107.160
127.871
99.345
94.157
107.636
91.377
118.075
140.098
113.042
138.015
130.136
136.049
111.402
89.894
92.478
99.270
109.814
103.455
131.489
106.844
102.033
132.441
126.953
105.278
128.232
94.426
111.170
107.803
114.115
114.423
128.355
111.318
101.601
112.238
94.126
131.862
102.405
120.761
114.649
116.709
90.256
110.452
130.764
122.702
108.067
97.945
120.246
130.665
139.145
93.264
109.226
139.481
116.474
116.585
103.086
134.346
118.120
117.677
101.271
131.265
95.612
110.918
125.544
121.518
120.038
135.255
126.656
118.978
133.761
93.919
100.566
100.682
114.900
94.784
132.077
132.832
124.112
139.827
132.410
104.916
97.469
104.444
93.239
132.342
98.684
124.374
108.929
112.413
115.602
111.209
93.137
111.825
126.821
99.139
135.420
106.554
124.278
137.459
113.429
119.046
105.111
120.010
125.452
96.611
93.915
133.885
104.680
118.786
128.121
143.200
104.219
133.112
136.613
105.822
136.610
101.334
99.658
142.518
135.418
111.048
97.706
113.581
142.891
120.085
137.768
113.657
96.012
141.515
120.320
145.836
101.616
122.201
135.133
120.616
129.864
129.091
119.299
111.934
113.170
130.212
119.979
101.911
142.060
116.505
136.996
135.424
144.473
110.877
129.339
140.147
122.620
108.414
122.317
105.656
132.833
99.207
143.996
150.168
145.307
123.325
139.256
141.783
131.032
145.154
118.523
116.496
129.233
117.496
140.070
124.379
115.618
131.117
120.102
109.338
113.060
119.093
148.728
105.429
128.892
132.229
141.313
108.422
108.204
121.745
120.682
135.448
101.914
134.810
110.323
109.155
124.281
114.001
140.408
112.430
122.231
130.442
116.807
123.188
133.542
109.277
102.737
104.697
108.106
149.988
113.363
121.184
103.206
146.010
126.452
127.452
147.422
140.967
155.244
141.321
152.985
135.307
125.077
142.954
155.606
114.296
109.560
120.711
116.337
119.560
129.003
148.755
143.501
115.497
142.750
130.946
119.236
151.178
127.411
112.627
140.901
151.431
146.881
109.455
144.721
122.418
120.431
138.858
131.202
119.190
157.678
132.966
136.090
120.994
135.766
132.233
156.811
125.065
116.230
156.298
133.287
153.518
141.671
112.265
143.442
147.634
125.159
115.379
128.783
150.351
128.579
106.849
151.373
136.296
129.088
144.738
112.486
149.504
143.110
156.896
150.714
129.601
112.061
140.735
132.184
141.776
127.853
133.046
156.150
143.891
119.659
106.995
108.357
127.289
128.774
127.565
112.466
109.877
119.310
141.179
151.420
108.534
113.298
154.356
142.742
141.768
118.864
130.268
135.050
152.596
152.695
133.075
142.591
138.648
143.005
155.474
128.596
135.512
126.481
110.673
128.436
124.405
151.445
132.887
113.610
106.997
153.493
138.610
150.621
148.987
108.470
143.832
110.272
153.473
134.305
125.749
116.846
109.454
141.214
112.949
117.263
120.418
104.811
142.532
103.977
105.207
147.604
120.198
136.451
152.317
139.385
139.230
138.251
124.471
128.182
141.757
120.504
128.687
133.974
109.830
109.262
118.432
134.642
116.850
136.853
134.641
138.469
129.274
145.895
145.125
114.200
110.516
121.853
123.068
105.483
132.814
138.439
107.189
109.747
123.927
146.622
132.006
116.774
109.282
149.218
130.082
148.781
123.094
120.303
129.704
143.045
126.028
105.079
148.679
109.883
147.336
109.087
133.338
112.957
112.058
144.303
147.470
126.244
126.933
100.369
116.077
136.093
137.246
147.743
149.237
124.507
123.451
139.642
137.940
131.086
134.224
136.722
143.111
135.601
119.038
124.240
106.506
138.025
106.342
103.279
127.200
105.132
132.462
105.298
121.367
122.076
107.914
139.102
116.966
113.180
116.421
136.144
119.635
131.741
118.918
113.312
107.193
129.615
118.857
99.120
112.814
96.163
140.092
103.956
118.239
145.590
140.375
137.253
135.913
124.078
115.148
95.756
143.116
144.992
133.360
100.964
108.144
103.717
131.472
117.581
145.188
99.363
117.367
142.035
114.810
102.885
131.994
110.780
104.591
102.059
95.578
108.304
113.800
145.212
139.927
135.857
126.030
102.987
134.992
123.995
144.979
96.161
143.183
111.768
105.909
106.122
141.320
110.326
126.080
103.203
103.483
115.830
139.376
137.165
127.789
122.863
116.566
143.186
120.550
101.160
119.368
132.860
143.021
96.096
139.745
97.312
106.626
112.777
103.897
120.015
95.408
127.737
122.609
117.085
101.912
133.650
143.453
141.326
109.575
112.589
111.277
97.847
110.222
117.190
114.324
140.280
96.898
106.056
146.236
146.039
133.913
129.543
99.249
145.377
139.567
127.410
136.873
129.735
138.599
121.801
125.810
120.689
112.786
110.180
125.214
139.749
100.190
103.379
102.031
124.656
134.999
143.132
112.306
144.187
113.207
117.803
121.413
142.157
135.793
132.862
126.096
101.408
99.141
110.835
106.632
121.600
144.459
145.200
141.828
113.568
132.853
136.308
101.904
109.841
120.391
144.151
117.194
106.989
104.504
140.738
111.275
107.863
103.059
105.396
123.063
128.991
94.889
131.194
102.828
136.209
95.693
118.510
112.282
96.119
114.311
130.264
139.125
108.187
94.877
118.789
140.678
119.529
95.472
124.686
128.007
114.739
128.269
101.616
143.908
130.437
117.790
41.103
35.147
37.459
31.238
42.994
32.381
34.897
35.801
40.792
42.815
37.623
31.585
41.450
30.727
40.226
42.018
40.829
41.330
44.623
33.892
34.162
36.630
40.548
29.912
32.724
30.842
43.226
39.709
35.455
32.929
38.885
32.891
31.137
41.699
42.691
42.362
34.003
38.911
34.250
32.004
29.489
35.740
1037.212
1045.887
1036.995
1022.705
1036.981
1044.536
1029.330
1048.967
1046.841
1041.125
1047.489
1039.246
1043.293
1049.149
1059.426
1067.668
1050.759
1062.704
1071.790
1063.565
1047.850
1058.308
1052.471
1075.371
1079.644
1075.323
1081.799
1062.589
1081.536
1085.572
1067.492
1069.937
1078.612
1071.317
1080.832
1089.316
1096.435
1091.520
1101.763
1093.761
1091.653
1080.269
1091.375
1086.391
1093.923
1089.834
1099.796
1096.622
1117.432
1117.578
1112.432
1121.817
1117.448
1116.678
1114.904
1104.808
1110.681
1109.162
1131.355
1134.377
1127.412
1112.439
1114.870
1131.856
1122.859
1125.965
1125.232
1124.578
1132.905
1144.102
1150.120
1138.504
1142.438
1155.612
1139.641
1156.392
1156.884
1146.504
1154.390
1145.612
1155.142
1145.082
1163.977
1170.809
1143.976
1168.007
1169.613
1171.509
1161.795
1169.538
1155.788
1160.872
1166.030
1180.166
1179.314
1180.656
1176.427
1182.188
1181.753
1180.135
655.651
653.275
653.447
665.871
665.134
667.548
665.517
662.766
658.470
662.948
670.134
668.697
672.853
675.059
667.262
676.115
674.410
669.579
670.769
674.267
671.480
677.197
667.803
675.312
678.463
683.141
685.809
677.285
674.533
676.210
680.349
680.618
681.399
681.555
691.075
684.265
687.164
692.060
684.643
692.847
684.622
688.258
691.775
685.809
696.993
701.524
694.430
702.720
697.506
705.167
704.557
705.438
702.259
696.016
707.300
701.859
708.902
699.739
711.096
714.410
714.122
700.972
710.491
707.986
718.057
705.239
711.573
718.363
721.454
721.641
718.802
710.573
719.768
722.490
725.432
725.473
726.780
722.721
715.486
717.207
723.538
729.701
728.442
724.128
720.975
731.397
724.665
722.180
734.270
736.677
736.716
732.335
732.477
742.261
739.440
736.650
731.282
737.338
738.814
743.840
747.768
740.518
744.764
740.629
739.433
741.025
753.678
750.617
761.324
756.481
761.115
750.772
754.852
763.544
760.179
759.212
762.408
761.681
773.009
766.633
776.721
774.054
773.380
777.701
774.120
779.165
779.920
779.054
790.467
785.371
794.243
782.840
791.585
789.716
800.987
791.716
798.528
793.323
808.235
802.752
810.728
810.949
802.654
801.897
814.721
809.949
808.873
810.005
813.834
820.189
827.131
822.895
821.453
821.803
820.168
832.722
830.145
836.179
829.013
828.786
829.974
842.885
832.594
833.850
838.879
837.305
839.306
841.505
850.982
846.738
844.939
845.605
847.811
860.399
859.212
864.073
862.308
869.368
871.738
873.348
872.387
873.226
864.749
870.200
873.828
883.047
880.094
875.296
874.315
889.109
878.938
892.544
885.016
892.364
888.079
896.794
899.160
888.712
894.648
902.731
898.070
908.118
898.331
902.936
906.681
905.708
901.027
913.126
914.642
916.489
910.520
923.252
925.063
916.039
919.667
921.285
920.963
932.957
920.851
928.665
938.370
934.611
928.468
928.643
936.519
932.991
939.354
940.967
949.591
945.037
945.157
954.350
945.834
956.646
959.502
957.630
949.697
952.603
953.822
961.186
959.208
958.004
965.777
970.761
973.880
963.217
976.368
973.757
979.798
980.597
984.872
974.674
974.658
978.173
988.749
987.771
988.053
989.406
994.673
987.450
990.874
996.480
998.395
992.812
1002.071
1000.656
999.451
999.673
1007.641
1016.260
1013.322
1010.852
1008.676
1013.361
1017.052
1025.268
1012.477
1016.460
1015.383
1031.237
1018.471
1023.910
1034.613
1031.997
1027.982
1027.227
1035.692
1041.572
1032.592
1035.384
1041.757
1050.820
1050.512
1054.044
1047.403
1048.885
1050.004
1051.586
1049.491
1055.893
1052.870
1057.948
1060.316
1053.621
1054.494
1063.216
1055.424
1057.343
1062.122
1065.509
1065.717
1060.285
1050.404
1063.922
1059.070
1063.966
1059.535
1055.622
1057.712
1064.821
1058.119
1053.557
1051.111
1062.246
1053.723
1059.827
1064.545
1054.522
1056.019
1065.692
1052.893
1063.443
1058.538
1052.251
1065.087
1053.889
1056.534
1062.571
1054.565
1056.866
1062.198
1059.714
1064.853
1054.898
1060.490
1061.360
1064.069
1054.611
1061.973
1063.877
1057.139
1058.133
1059.748
1057.241
1059.738
1056.469
1065.916
1068.758
1064.135
1053.727
1061.612
1059.599
1060.493
1063.231
1067.330
1068.195
1058.967
1059.009
1056.646
1054.652
1065.114
1060.124
1065.539
1066.009
1055.935
1060.826
1067.550
1069.679
1059.683
1069.238
1060.855
1062.567
1063.862
1065.974
1067.838
1069.272
1061.697
1066.390
1070.264
1065.498
1067.052
1059.895
1062.995
1060.328
1059.803
1067.131
1062.641
1060.945
1065.086
1058.641
1067.735
1058.760
1056.054
1065.661
1060.049
1068.636
1069.067
1061.175
1068.046
1064.847
1066.013
1060.531
1060.318
1065.453
1071.436
1057.915
1061.458
1057.879
1069.910
1068.295
1067.415
1072.428
1058.827
1064.371
1058.323
1059.795
1063.618
1072.111
1063.811
1064.470
1069.000
1058.409
1069.287
1064.899
1067.063
1061.169
1060.592
1065.735
1068.673
1069.629
1060.042
1061.228
1060.957
1069.643
1062.225
1063.116
1058.487
1073.410
1061.682
1065.301
1069.844
1065.550
1074.199
1073.621
1058.809
1070.589
1059.249
1065.531
1068.524
1059.725
1061.358
1060.032
1069.507
1066.647
1067.001
1072.631
1061.823
1065.136
1066.210
1064.525
1066.340
1067.042
1063.827
1072.523
1071.414
1068.793
1065.860
1063.034
1069.469
1062.805
1066.775
1071.121
1069.667
1072.336
1073.148
1067.175
1071.964
1060.867
1069.251
1070.117
1061.879
1064.201
1074.465
1076.179
1061.385
1062.715
1073.552
1068.868
1064.377
1073.466
1062.164
1064.596
1065.529
1066.773
1059.411
1059.534
1058.209
1059.354
1058.350
1053.373
1059.738
1056.355
1062.076
1061.013
1052.834
1049.226
1053.658
1054.725
1055.028
1054.303
1050.554
1044.644
1053.441
1036.712
1044.386
1042.934
1038.109
1046.182
1037.485
1032.468
1043.064
1028.041
1029.508
1032.798
1033.115
1031.173
1033.238
1031.058
1028.216
1030.511
1025.752
1027.862
1019.234
1016.814
1014.079
1018.485
1021.832
1012.025
1009.358
1022.143
1017.215
1017.339
1014.134
1019.519
1015.352
1003.859
1001.473
1006.110
1002.030
1005.193
996.659
1002.628
998.214
994.608
1002.760
1006.864
1005.764
992.517
992.851
994.524
992.612
994.617
993.512
994.074
995.842
983.885
984.059
985.573
981.985
980.516
988.530
984.074
977.016
985.682
984.159
973.643
975.148
974.518
971.907
977.443
964.541
970.095
963.081
975.000
960.033
970.089
970.194
969.431
963.092
969.524
963.161
951.820
961.914
953.929
958.272
954.154
958.684
951.098
953.012
955.317
947.984
950.786
943.274
953.815
939.961
943.172
950.811
948.659
943.198
944.524
933.284
942.871
929.125
939.188
928.467
938.675
933.781
931.977
924.677
929.634
927.969
921.288
920.475
929.060
923.395
928.584
922.817
913.259
923.826
915.447
914.536
917.200
914.386
907.014
909.033
914.124
903.574
909.959
911.627
910.773
903.207
906.207
897.432
901.888
899.075
898.809
900.522
906.550
893.392
904.339
900.920
899.492
896.570
900.117
883.548
898.281
891.818
891.304
894.854
878.428
889.377
877.177
890.094
881.058
880.906
874.910
872.492
879.376
870.786
873.317
879.128
878.416
866.853
877.122
870.101
873.361
865.275
864.797
860.794
871.075
862.254
861.745
853.469
852.818
858.511
865.005
862.046
849.852
849.566
853.834
856.097
859.470
853.391
853.175
855.847
848.576
857.345
855.094
863.053
850.143
852.137
856.719
855.496
853.306
860.594
856.887
858.467
851.935
864.715
851.572
855.159
856.877
864.722
859.256
864.705
855.456
865.040
858.289
869.302
859.118
867.429
856.466
862.867
860.303
864.448
871.628
860.383
865.591
862.885
859.790
862.432
875.158
874.876
873.787
875.466
875.001
864.258
873.276
872.203
866.122
869.390
868.605
870.524
879.124
876.437
868.167
872.914
874.283
865.907
876.901
875.734
877.913
876.313
879.817
879.399
869.480
872.576
874.214
882.608
874.317
878.980
875.345
873.259
879.088
882.972
875.260
875.570
876.139
872.691
878.819
883.814
888.339
887.999
882.429
884.439
877.697
879.383
878.564
886.545
886.544
882.722
889.353
883.665
888.177
890.257
887.473
881.726
894.700
883.820
883.290
884.458
890.433
884.115
890.060
886.427
890.320
883.930
888.501
887.482
898.674
899.690
893.453
890.955
898.711
894.041
895.347
895.976
894.446
898.638
890.752
891.748
902.951
901.270
901.454
898.145
895.480
897.036
893.567
899.819
899.773
893.392
897.618
902.606
903.312
896.613
907.926
903.784
906.431
908.141
904.993
906.395
900.443
902.178
907.645
896.475
909.579
898.496
907.547
901.367
911.814
910.220
904.262
907.181
902.457
913.753
905.878
901.188
907.573
905.643
914.157
917.425
904.985
913.030
913.226
917.918
910.779
915.427
906.128
905.167
907.755
907.309
908.848
915.821
921.984
911.307
915.827
922.121
922.239
909.045
925.061
910.069
914.507
915.348
921.295
911.799
920.546
926.625
922.078
913.758
919.318
918.010
915.056
922.058
922.167
928.400
921.988
917.042
916.404
923.187
931.448
931.969
931.714
919.130
917.129
921.533
924.995
915.648
916.178
918.534
917.018
916.644
923.757
923.321
926.024
914.481
925.368
921.520
923.945
917.946
917.707
913.345
909.284
921.319
907.442
909.668
917.210
916.516
911.476
910.051
909.412
905.121
907.840
912.141
911.488
907.836
905.380
914.907
902.481
908.796
910.032
904.608
898.630
905.887
911.209
904.402
900.368
907.603
908.540
900.528
900.514
903.501
905.799
903.095
898.917
897.318
892.942
896.919
892.621
899.004
892.809
896.426
890.350
900.336
893.190
889.684
900.792
899.666
893.246
893.910
895.295
885.071
887.357
885.665
882.074
883.365
886.099
888.028
891.793
880.385
887.046
883.772
882.370
878.594
883.966
878.007
881.077
885.856
878.375
875.861
880.548
883.876
874.736
876.412
881.521
878.403
872.527
884.210
869.898
872.739
869.018
883.359
876.095
875.833
870.925
872.073
879.230
877.880
868.671
864.912
871.274
873.563
866.467
872.867
869.663
871.766
860.837
860.905
863.388
873.786
872.367
865.928
862.836
870.998
856.761
856.495
869.060
863.806
857.537
864.859
864.058
861.264
863.431
855.301
857.857
863.504
864.056
855.374
858.742
856.119
861.667
858.474
849.963
860.922
849.810
858.263
859.405
854.038
846.132
847.141
848.788
850.607
855.256
847.617
843.502
850.194
842.319
846.838
853.304
853.979
845.795
853.608
848.418
852.131
840.619
845.391
845.161
840.006
838.737
840.082
834.154
834.579
848.979
845.163
833.215
845.383
842.587
836.557
844.264
833.231
830.397
834.560
841.729
841.407
829.400
832.662
831.896
841.473
826.232
825.461
828.385
836.366
824.448
833.837
835.158
823.183
822.705
828.364
830.914
824.009
822.015
821.054
823.131
822.727
823.291
828.445
831.382
834.416
834.574
832.696
825.296
833.133
831.019
824.282
825.842
832.499
823.985
830.851
834.189
824.722
827.743
833.301
830.585
827.124
831.776
827.778
828.022
833.286
826.502
827.321
832.971
833.181
838.214
837.618
832.833
837.441
837.621
842.680
830.558
842.370
