119.197
106.055
97.947
115.034
136.695
127.796
97.370
124.299
146.363
135.058
111.111
133.743
118.650
114.583
123.623
100.580
105.619
122.911
118.224
115.217
118.457
128.781
142.723
117.980
139.878
98.982
137.068
135.661
143.032
118.382
132.659
95.868
101.348
114.408
140.220
103.680
131.356
124.409
128.078
144.618
145.681
108.485
142.799
100.319
143.350
102.112
136.445
127.944
142.413
123.234
137.143
114.100
133.706
116.526
129.363
106.897
96.912
99.701
136.198
102.300
142.857
108.647
121.864
132.762
113.116
121.182
121.805
128.569
132.802
114.290
118.799
123.254
107.815
127.915
106.543
120.187
125.589
112.874
104.650
118.921
143.782
111.635
145.867
138.851
127.216
99.602
136.153
100.012
117.667
121.396
110.429
111.555
129.760
117.427
123.049
137.900
102.492
123.586
95.349
101.918
106.447
124.394
134.501
123.765
143.300
131.337
144.637
106.656
134.825
118.566
125.497
137.673
124.192
135.960
126.523
138.666
128.584
103.151
125.163
140.155
110.151
101.052
97.895
106.142
100.217
107.146
130.410
122.991
127.115
126.624
115.264
142.685
105.285
112.366
101.005
123.878
122.532
117.273
126.419
134.922
131.051
101.950
145.990
144.437
130.696
141.806
143.902
115.129
95.332
111.198
144.836
127.488
115.132
108.068
136.407
106.884
138.310
128.625
113.704
134.009
104.294
116.037
111.393
105.922
131.069
140.553
122.268
145.792
125.273
99.852
120.051
142.017
129.667
133.812
101.245
116.698
117.166
123.268
136.164
110.913
96.193
118.270
122.713
140.524
129.366
96.623
144.260
95.072
107.614
103.596
97.091
130.544
144.569
124.630
102.802
126.246
101.205
142.403
101.524
101.800
99.697
118.229
104.876
143.267
127.805
116.235
121.662
130.690
110.744
116.495
96.568
122.927
121.843
109.447
110.147
142.817
109.548
143.861
105.906
103.840
132.389
110.776
113.417
112.669
116.968
133.471
118.100
146.616
137.892
146.175
103.759
142.748
107.143
97.529
123.442
116.930
115.277
124.877
111.055
134.783
131.824
104.354
136.344
122.585
128.596
124.925
131.749
124.415
104.260
141.240
110.986
110.278
110.371
143.853
107.347
110.075
107.228
108.883
136.698
132.104
112.925
106.979
138.418
95.051
146.557
121.355
101.372
136.203
146.463
121.775
95.908
130.626
104.721
145.736
114.064
137.953
132.870
121.278
122.122
112.390
108.987
144.118
113.151
109.140
132.577
109.728
103.277
98.845
127.131
119.108
114.624
139.702
137.451
117.374
116.008
120.768
142.822
130.314
111.077
100.503
137.286
128.398
134.268
126.605
129.919
96.230
144.169
109.919
118.704
142.992
95.389
114.882
127.929
133.040
146.498
111.865
122.689
108.940
115.973
135.057
143.145
139.706
140.451
136.949
100.868
95.691
125.440
109.185
140.825
116.449
111.044
111.203
145.435
109.346
135.633
118.463
126.049
145.139
125.987
124.140
139.705
140.735
132.917
122.293
139.709
142.395
142.657
126.871
108.363
108.782
126.870
114.859
137.178
110.731
124.325
134.699
146.687
126.301
113.644
105.059
132.448
108.535
104.300
125.706
127.371
139.018
104.665
128.967
118.447
143.376
127.127
127.336
138.551
137.913
125.224
126.300
130.995
106.719
105.489
132.680
105.978
96.439
123.110
105.475
145.876
144.780
110.146
123.820
98.319
123.882
124.496
114.443
110.656
123.962
125.172
144.068
113.236
116.218
120.286
132.777
97.116
145.035
144.581
115.246
124.657
143.743
103.233
101.019
144.833
107.260
124.961
96.557
111.719
105.640
131.960
105.608
107.064
122.847
125.605
119.187
103.371
102.781
135.186
122.433
113.545
114.728
114.339
115.792
141.086
108.513
117.508
101.361
131.067
133.451
99.133
116.657
126.173
107.328
135.357
116.476
101.078
115.822
133.263
101.522
121.826
102.879
109.955
99.949
132.835
102.254
127.194
105.486
117.332
104.646
99.541
145.910
127.129
145.166
145.864
40.636
38.690
32.525
43.687
41.366
43.544
37.447
32.139
36.163
37.565
40.329
29.698
35.036
37.662
34.984
44.127
40.320
42.690
34.485
43.688
40.092
34.232
44.221
43.896
39.609
33.900
44.239
32.084
36.932
35.855
40.102
43.086
41.244
36.969
44.762
35.020
34.003
40.139
33.191
34.456
36.612
39.499
36.111
39.918
42.922
43.627
29.262
1574.604
1563.330
1564.643
1554.306
1566.333
1576.360
1557.544
1562.778
1558.636
1554.160
1580.377
1573.578
1575.384
1556.727
1580.935
1583.445
1560.603
1563.861
1578.446
1566.479
1564.199
1584.036
1575.857
1564.942
1564.989
1568.093
1585.350
1586.452
1574.904
1583.659
1583.576
1560.164
1571.192
1574.990
1566.440
1562.952
1579.959
1563.633
1566.270
1566.024
1576.341
1575.654
1577.174
1583.215
1590.989
1587.171
1564.159
1587.201
1572.540
1565.457
1586.018
1575.245
1588.119
1592.786
1592.921
1592.659
1566.664
1588.675
1575.139
1578.934
1575.473
1579.210
1589.777
1588.839
1592.407
1583.296
1576.302
1591.267
1593.955
1588.259
1572.210
1594.496
1576.367
1572.247
1583.138
1596.150
1589.908
1575.433
1584.244
1580.316
1579.495
1575.028
1576.618
1596.328
1579.128
1584.803
1592.401
1597.460
1599.199
1590.311
1580.775
1580.066
1590.837
1576.467
1595.573
1600.235
1595.549
1586.304
1587.639
1600.105
882.921
882.400
886.437
885.788
884.195
886.138
888.840
886.355
888.526
890.546
890.991
884.802
885.442
881.036
889.338
888.219
887.477
886.150
889.778
886.352
892.523
881.384
881.779
881.268
881.451
889.138
891.762
882.288
891.639
885.268
892.273
893.770
881.120
895.006
893.220
891.750
883.879
886.388
886.112
891.184
892.422
893.706
884.736
884.503
892.707
882.222
883.994
886.966
891.155
882.515
897.303
886.271
890.416
890.994
886.873
884.478
887.453
893.943
889.930
893.679
897.431
893.231
897.637
898.902
886.867
899.942
891.913
898.922
893.551
895.992
898.222
897.588
893.484
890.361
901.773
886.487
899.933
892.784
893.390
891.037
895.209
889.477
896.366
899.282
890.333
902.812
902.830
890.578
891.240
899.640
890.842
889.175
897.462
892.800
889.527
898.327
897.242
890.126
900.072
891.298
903.445
890.463
891.222
892.840
890.654
895.871
888.176
882.036
882.523
886.262
892.734
884.386
875.004
887.209
883.446
876.313
869.416
880.351
868.899
868.772
871.988
869.528
871.626
864.052
866.051
860.955
865.423
865.144
869.975
853.238
867.779
862.979
855.379
861.243
852.085
853.777
856.661
858.386
853.023
849.045
843.776
838.098
852.631
837.879
847.409
845.272
847.052
845.595
831.160
830.380
835.996
826.052
832.367
828.168
835.034
823.697
821.266
832.408
826.758
822.345
819.379
825.686
821.210
810.535
810.408
821.810
819.891
821.044
814.093
811.290
807.252
815.490
807.549
803.559
808.370
802.934
802.346
793.263
804.354
801.846
797.071
788.937
787.129
791.566
794.006
792.622
783.430
782.647
792.932
793.459
790.557
781.927
788.776
777.005
775.567
775.757
781.111
769.260
767.626
775.582
779.229
768.435
762.403
774.707
763.748
770.113
766.961
765.803
766.504
766.996
764.081
762.127
753.243
760.787
761.815
749.536
754.114
752.771
749.632
741.173
742.794
749.311
747.782
749.023
735.079
747.786
745.900
745.076
736.815
728.385
729.873
726.839
735.374
737.629
723.637
723.189
720.495
718.925
722.495
721.239
714.343
723.286
725.048
719.282
712.698
723.516
711.241
706.825
711.662
714.924
716.236
709.791
714.949
711.860
699.609
709.472
697.880
701.607
702.251
702.722
694.059
688.684
699.776
686.786
698.786
690.799
684.565
693.208
692.830
687.381
686.823
683.695
682.723
685.920
674.910
679.035
669.556
681.152
666.761
675.246
675.514
672.020
663.706
662.066
674.240
673.678
664.638
665.182
656.971
658.670
662.569
659.934
649.911
654.095
661.648
653.327
644.733
654.825
654.900
653.508
648.861
652.984
648.851
649.968
656.942
662.823
650.165
655.322
659.514
660.113
658.979
670.030
660.240
661.735
666.820
663.434
668.352
681.144
676.207
677.336
686.116
682.698
677.307
682.097
687.482
682.722
687.510
691.645
691.328
699.430
694.446
700.729
690.921
702.929
700.288
698.730
710.362
699.945
713.687
710.021
710.779
711.106
718.780
713.771
719.000
715.289
727.421
729.463
729.097
732.596
722.502
728.231
735.573
735.781
730.624
742.010
743.417
743.232
733.595
736.367
746.215
741.488
753.679
753.803
744.350
749.576
752.421
755.142
751.599
756.058
760.968
763.979
762.356
763.648
769.095
773.872
772.854
770.156
768.123
766.747
770.900
770.851
777.799
781.496
782.547
778.709
783.120
779.870
781.911
796.269
786.016
785.722
795.230
797.225
795.338
802.637
806.674
809.882
810.267
800.892
812.666
810.648
814.110
810.190
818.988
808.202
818.892
818.280
814.540
826.720
818.585
824.399
825.021
836.142
835.590
830.090
825.411
834.664
841.512
833.640
838.693
834.722
844.250
846.957
849.882
855.104
847.282
855.049
855.240
850.530
856.180
853.641
850.983
866.074
863.100
860.515
872.638
866.133
875.915
868.965
874.922
876.436
873.653
873.218
873.679
880.149
880.390
882.218
883.902
888.062
885.346
887.026
888.876
891.530
899.543
900.767
905.216
897.701
906.789
899.889
905.902
905.296
901.456
902.027
912.976
912.420
905.775
911.178
916.115
910.390
917.064
922.476
915.394
919.459
922.960
932.525
924.960
928.993
931.094
936.365
939.459
940.984
933.839
946.100
935.592
943.456
948.109
939.501
951.838
956.534
956.465
956.624
959.623
951.073
957.018
955.931
956.962
957.366
958.677
963.908
974.513
973.370
970.470
964.526
956.380
959.555
965.375
955.139
964.317
965.695
953.036
957.455
960.222
957.092
958.833
947.227
949.527
945.522
951.692
953.907
940.655
944.991
949.241
945.040
941.900
946.028
936.376
943.435
934.956
944.262
935.954
934.510
931.429
927.316
940.896
931.535
929.323
927.546
933.999
932.625
934.049
934.092
933.203
924.880
918.744
924.646
916.343
928.805
915.665
925.211
913.499
920.039
914.431
920.958
909.736
906.052
910.805
905.026
908.987
914.817
910.373
911.119
910.328
909.313
900.146
909.083
908.303
897.014
896.945
894.727
894.055
903.551
903.933
900.677
890.379
892.094
900.217
896.805
896.760
887.644
889.259
882.833
892.959
891.177
882.620
885.900
887.310
880.117
886.952
879.692
886.188
885.522
874.864
869.984
873.146
873.441
869.388
871.751
866.197
863.661
862.456
870.265
866.413
861.730
872.085
860.988
862.153
854.436
857.699
867.298
859.701
851.096
864.070
861.180
849.518
860.538
849.213
844.805
848.128
843.002
855.369
844.063
846.721
849.761
838.616
837.426
837.853
844.542
843.970
837.375
845.882
840.673
840.934
835.410
829.833
839.590
830.989
829.268
836.747
828.334
831.020
825.521
819.968
828.862
826.663
827.517
816.149
826.923
820.716
823.924
819.516
816.464
819.266
817.247
815.363
822.507
806.800
810.987
815.412
807.147
804.769
804.435
811.070
813.733
799.376
809.365
801.570
809.089
794.093
794.420
794.153
798.473
798.971
802.129
803.794
798.069
799.455
794.139
785.659
792.465
791.122
796.297
786.824
786.381
783.327
781.710
785.449
780.291
781.365
780.259
788.107
783.619
774.498
781.007
780.692
768.957
780.546
770.489
771.362
766.251
768.206
769.464
776.217
775.626
772.041
773.300
763.082
762.801
764.162
771.398
764.730
770.788
767.747
761.079
757.766
760.466
769.764
759.079
757.137
758.959
759.799
759.459
761.054
760.061
755.943
755.891
750.853
762.281
760.923
751.221
759.507
750.572
754.323
747.277
752.936
750.257
749.216
745.694
759.438
754.717
745.334
746.063
751.607
753.404
751.486
750.129
755.901
745.558
755.384
754.231
743.078
738.385
743.655
739.416
738.782
752.032
744.250
743.744
740.081
742.699
744.633
742.207
745.926
745.734
736.056
741.498
741.735
738.254
736.686
729.959
739.045
744.561
736.088
743.863
735.009
739.436
732.693
737.242
734.518
741.038
739.724
727.303
725.946
733.083
730.758
726.063
735.568
722.347
724.606
726.681
725.645
729.405
733.500
724.624
718.469
718.332
730.011
725.404
723.260
724.244
717.549
727.499
722.340
729.064
719.824
717.566
713.398
727.696
723.200
720.111
719.007
717.285
723.881
719.980
711.379
715.705
716.971
707.684
717.469
709.577
710.988
713.756
709.142
715.370
713.904
717.564
707.618
714.639
710.580
711.237
711.929
715.807
710.295
703.278
713.859
712.454
703.720
706.242
707.393
698.673
697.622
707.032
703.541
708.070
697.812
705.579
701.945
703.350
699.467
697.860
695.338
706.099
693.543
696.175
702.066
690.482
693.160
692.242
696.392
696.500
702.051
697.582
700.663
690.741
701.054
691.151
687.579
684.323
690.231
691.954
684.046
683.806
692.199
693.887
681.416
694.577
682.358
691.465
680.583
685.280
680.337
678.742
692.192
691.841
691.638
685.964
680.923
683.707
685.855
687.300
681.951
688.366
681.526
681.503
672.667
680.303
677.514
670.364
674.822
672.196
673.754
679.275
677.680
673.078
667.837
675.931
668.161
664.288
663.059
672.004
670.561
665.261
667.934
664.914
666.549
660.319
663.627
651.703
655.094
648.238
655.626
644.507
648.678
647.032
654.634
648.846
644.276
649.628
645.810
647.753
633.241
642.481
638.460
642.625
627.998
632.861
636.720
636.060
624.823
632.722
626.301
630.297
623.943
629.393
629.976
620.010
623.774
613.089
613.004
617.174
615.924
618.162
614.326
614.034
610.316
604.787
610.774
602.268
607.431
608.884
607.166
598.997
595.026
591.793
595.629
597.892
595.993
597.055
599.440
588.149
595.951
583.890
595.312
590.838
578.164
591.155
576.454
586.847
584.689
578.679
576.081
574.181
578.419
575.711
568.670
578.989
578.499
572.731
564.344
560.708
560.440
564.393
569.422
567.701
560.889
562.465
553.398
559.117
561.173
549.985
557.190
552.534
550.169
544.999
542.631
550.006
540.063
539.686
542.817
549.052
549.024
547.713
537.618
534.028
540.980
530.571
526.979
528.625
537.149
531.338
535.083
528.854
533.902
527.344
521.383
521.348
523.335
514.144
514.074
524.817
523.194
524.170
518.754
510.223
516.489
504.275
504.712
501.833
513.267
504.117
499.826
508.802
504.154
505.584
507.986
497.680
492.962
503.048
488.857
486.954
488.281
492.982
483.117
493.954
495.780
493.741
483.078
480.145
478.226
485.582
474.068
486.904
477.233
475.292
473.103
473.041
480.759
465.487
473.661
463.831
468.026
465.132
463.728
459.921
462.253
466.606
458.554
457.277
463.936
458.199
461.038
449.629
458.009
451.780
449.752
445.553
441.890
448.769
443.722
443.844
444.877
435.083
438.994
434.141
447.340
440.128
432.818
430.014
435.006
436.203
427.517
426.287
430.299
441.063
437.977
435.255
444.307
442.011
436.899
443.254
438.104
453.056
453.706
457.336
456.187
450.786
458.139
457.234
452.965
455.968
457.940
459.715
462.941
459.393
464.606
459.734
470.899
469.306
467.943
467.745
467.234
469.555
483.648
478.413
475.810
481.656
485.115
475.663
478.692
492.868
482.929
486.737
495.935
494.406
499.567
492.937
494.674
499.940
502.363
506.783
496.540
497.181
500.807
505.553
508.453
512.423
507.923
507.531
518.535
519.602
517.457
519.669
524.836
520.501
521.988
526.665
516.521
519.362
520.406
523.731
527.579
536.556
528.803
535.931
528.474
530.478
544.794
538.301
545.020
535.510
546.944
538.589
546.064
550.348
549.502
551.403
549.237
547.171
559.862
553.794
560.102
561.316
556.447
563.090
555.538
570.074
568.343
563.550
573.547
565.422
578.733
578.410
567.926
578.717
573.907
575.269
577.239
587.225
576.623
579.252
586.864
593.105
586.033
594.699
585.331
584.818
590.019
588.690
593.412
595.818
602.385
601.470
596.864
600.364
603.272
610.184
612.298
611.497
607.956
613.553
613.556
619.434
611.337
615.229
614.279
612.934
624.737
621.066
620.472
631.858
634.198
626.135
630.427
625.302
636.269
633.022
633.346
642.156
641.082
641.589
635.296
640.453
641.423
638.660
639.047
643.900
649.440
642.743
647.217
658.937
660.388
658.901
664.685
666.108
665.917
665.728
662.543
662.126
666.539
663.458
674.381
671.009
671.832
670.879
672.734
681.349
672.576
682.176
686.385
673.927
681.504
687.653
692.238
693.052
684.311
694.842
689.095
698.379
689.056
694.309
693.666
690.806
697.813
702.532
705.058
709.679
708.338
704.354
700.219
708.204
708.423
708.247
696.280
700.082
701.272
701.446
696.621
696.031
689.968
692.539
674.778
681.192
683.765
674.747
665.484
673.409
672.682
655.601
660.075
655.339
659.904
654.598
654.992
639.970
648.502
646.853
644.239
632.132
627.109
625.021
628.945
623.873
624.132
624.088
622.610
618.275
612.289
599.716
607.678
596.993
606.888
592.627
591.933
596.828
580.902
590.124
586.498
572.500
584.414
570.506
579.005
562.089
562.188
558.867
568.576
564.662
551.809
554.784
552.932
543.930
541.901
543.736
533.334
538.303
540.296
529.641
529.256
525.922
528.399
513.048
517.619
510.187
507.165
513.842
513.402
506.571
502.927
505.040
498.148
490.013
481.401
492.061
486.049
473.826
481.309
470.849
472.150
464.843
459.470
459.545
465.403
462.392
452.562
452.787
