103.512
127.152
138.714
105.210
144.839
121.053
133.161
119.922
108.806
143.269
97.932
140.325
105.376
121.311
112.442
139.068
95.694
124.624
141.756
126.569
121.529
103.282
136.330
127.377
114.110
134.062
108.741
141.847
138.872
145.009
115.609
107.983
100.141
108.511
134.879
108.389
127.350
117.181
140.418
105.688
100.726
135.012
107.215
132.850
132.040
104.628
116.898
109.073
108.812
96.094
132.059
145.589
133.264
97.573
117.565
128.567
95.242
114.596
145.541
145.285
112.113
137.390
140.402
145.844
116.058
100.291
117.950
140.101
103.516
104.470
131.504
130.258
145.838
107.763
106.098
116.606
119.878
106.038
98.327
140.549
142.758
124.428
135.545
117.373
123.777
128.574
141.671
144.094
95.405
106.523
120.405
113.855
114.982
139.935
99.965
145.547
140.800
108.990
120.378
129.703
113.445
122.179
94.841
119.866
105.005
144.358
114.988
140.450
99.141
126.612
140.001
98.931
98.679
118.054
102.250
104.592
124.044
122.441
135.795
106.960
125.526
130.011
123.177
118.888
120.297
111.128
127.277
135.839
123.504
126.584
104.968
143.378
116.832
145.151
117.771
141.854
137.526
143.443
133.637
113.857
95.544
109.330
111.262
115.992
98.044
146.727
140.431
95.722
119.454
120.398
108.966
103.756
126.510
120.349
115.029
118.115
94.936
108.368
97.374
132.480
106.202
136.744
126.910
124.866
124.060
143.905
99.944
134.205
144.152
130.867
124.627
140.990
128.578
113.090
111.563
120.802
121.168
116.707
134.000
113.990
128.802
144.801
115.134
110.417
108.356
121.523
134.928
140.755
125.372
120.959
99.955
122.093
142.821
116.374
118.047
100.615
111.356
118.821
101.598
114.481
110.223
128.380
111.109
116.534
116.714
118.066
96.949
108.226
146.264
133.270
106.208
125.383
130.582
136.761
99.997
146.545
139.827
129.460
104.132
128.460
117.764
132.067
121.793
128.569
146.578
98.720
111.674
131.631
108.045
97.619
97.531
112.856
138.018
97.975
136.440
110.178
136.758
119.269
97.536
143.745
145.353
120.220
111.264
115.004
130.907
124.502
133.706
110.668
123.639
107.848
99.519
99.421
130.967
108.634
95.282
135.803
120.115
117.095
106.056
95.226
129.302
119.284
112.128
139.554
103.005
97.863
98.620
116.085
134.390
114.745
144.925
119.194
117.439
105.406
142.237
115.524
131.013
128.210
120.221
106.418
117.653
112.945
141.025
134.997
119.949
117.964
143.724
146.115
109.295
95.520
113.600
108.488
114.820
121.401
116.948
117.986
119.660
139.753
144.569
122.324
129.713
118.936
110.885
134.929
135.626
114.275
111.038
125.922
105.647
135.983
140.946
134.786
101.143
133.758
131.691
144.514
142.195
113.167
136.827
124.811
113.286
95.216
135.053
138.952
140.707
118.641
120.375
130.956
103.616
144.292
130.789
118.817
137.118
142.604
129.626
137.775
144.120
104.400
140.058
114.634
126.113
118.382
109.360
141.847
100.020
136.592
103.893
106.325
122.251
141.483
102.414
118.969
143.286
133.675
115.827
140.753
128.899
131.968
109.589
121.083
105.439
131.880
128.798
143.897
122.927
134.330
134.086
119.353
132.069
96.651
125.333
106.218
97.930
121.846
127.163
119.633
114.048
116.106
118.377
127.450
129.960
123.890
100.658
100.558
130.860
102.452
105.035
138.548
110.634
123.309
115.093
122.167
110.255
115.160
125.955
99.264
99.812
140.390
100.986
109.239
133.069
112.460
113.574
135.637
124.736
99.762
103.522
108.714
133.449
130.479
110.537
146.494
124.284
140.653
105.645
121.480
96.870
121.351
113.165
133.049
106.689
133.461
123.952
128.251
117.564
127.965
118.243
116.627
98.531
133.562
141.229
130.290
97.053
133.795
121.601
102.031
135.377
116.578
112.423
133.423
100.691
146.736
125.882
125.922
103.973
135.563
125.947
144.725
139.189
130.664
106.613
109.537
102.471
119.454
139.951
104.230
115.293
115.220
103.932
126.505
114.198
118.288
144.789
98.023
137.494
143.376
119.624
103.653
144.565
136.740
137.923
129.316
128.128
97.227
112.661
144.030
103.072
110.411
145.564
138.242
106.977
97.241
100.982
117.291
125.731
124.486
137.594
116.697
127.513
106.246
104.146
143.991
114.135
138.327
137.944
132.983
126.770
105.076
122.123
108.155
127.237
114.512
108.837
137.183
119.097
113.195
122.656
144.984
142.357
113.507
115.571
100.455
143.585
97.850
100.893
113.731
104.207
145.275
107.545
141.004
115.865
114.549
114.582
103.759
111.708
113.587
132.162
105.595
99.986
116.662
96.689
135.516
114.094
112.548
142.294
121.958
120.910
102.041
112.596
124.598
107.009
115.297
134.234
108.258
99.863
138.298
117.749
103.128
110.744
100.278
121.435
138.393
133.439
114.019
124.776
107.058
124.979
111.827
126.421
113.058
107.465
138.914
127.198
114.928
130.816
99.700
97.868
122.427
132.729
95.257
135.766
126.691
100.851
132.956
105.810
140.367
107.222
139.078
139.813
111.063
132.210
106.528
128.673
127.027
125.194
115.005
104.775
119.097
96.969
97.956
108.765
97.573
114.110
116.699
124.210
102.412
122.966
141.172
141.426
112.156
101.741
106.238
102.118
145.603
121.784
127.970
105.512
100.978
122.490
121.923
102.426
137.575
124.950
129.219
104.758
145.418
141.955
103.628
97.685
96.182
115.845
125.349
123.697
123.673
118.424
116.518
103.899
112.921
129.613
121.291
144.168
127.510
103.155
94.975
95.192
141.770
108.353
145.564
105.253
112.043
115.821
120.939
119.838
94.924
100.119
144.153
124.039
138.482
109.739
118.582
140.380
136.462
143.972
102.459
106.571
128.414
116.213
145.932
129.780
111.575
120.374
130.160
133.284
115.667
137.386
111.571
97.993
142.596
138.051
113.203
111.252
122.283
120.858
141.332
126.464
134.315
141.479
120.659
107.993
126.506
120.732
118.412
130.921
136.833
132.185
134.932
142.684
122.379
107.231
108.964
107.183
140.934
120.565
141.816
120.516
138.255
135.833
109.969
105.483
118.110
114.174
94.932
95.297
115.858
143.161
144.140
126.104
120.509
113.505
120.732
113.187
97.496
135.908
141.138
107.464
145.220
115.319
112.329
124.177
105.534
115.319
117.586
124.774
138.430
118.651
97.375
140.253
124.111
111.157
129.282
125.303
138.525
133.562
108.577
137.673
105.282
127.540
137.499
114.396
117.497
111.267
107.569
102.157
96.992
131.091
106.041
133.403
143.463
136.725
135.030
113.436
99.469
116.792
144.687
128.202
130.155
140.585
116.784
129.887
127.901
115.298
130.346
102.921
110.849
100.171
122.101
135.874
141.433
116.282
109.651
100.583
129.613
108.420
114.988
112.496
131.627
95.098
129.151
137.957
126.218
100.594
107.090
116.414
120.253
117.403
135.144
134.932
127.919
128.998
136.235
131.631
114.960
138.011
101.289
111.934
116.503
116.299
145.778
97.386
110.469
99.824
126.612
145.376
97.047
135.179
139.696
119.065
95.459
145.461
124.641
129.113
107.236
108.062
143.886
137.740
106.818
130.380
122.449
102.834
114.453
119.715
97.895
101.500
106.427
133.252
95.424
96.769
101.941
142.713
134.663
114.003
124.666
114.305
102.508
102.428
142.585
124.011
145.199
110.323
133.789
136.423
139.998
122.906
103.326
134.552
136.993
108.919
126.511
105.548
143.789
121.460
98.474
142.850
103.569
137.311
111.931
118.965
122.505
106.421
142.179
141.106
96.184
141.954
108.899
96.788
142.099
111.602
114.776
104.014
125.995
122.272
109.149
134.139
118.223
123.006
131.482
100.064
120.742
124.444
137.531
132.567
95.701
108.484
115.901
145.494
109.125
141.173
127.298
133.560
121.637
136.411
96.968
138.790
126.363
118.626
131.492
109.030
99.636
142.529
106.526
98.304
143.442
128.683
122.898
144.333
137.686
133.858
142.872
145.687
146.361
114.467
127.062
101.126
113.056
129.749
111.542
95.848
108.773
121.707
106.887
120.089
101.554
133.441
128.243
143.073
140.319
133.124
139.032
109.160
143.328
96.084
95.447
115.937
103.296
127.270
116.011
104.364
95.077
140.478
101.238
146.047
107.404
97.331
110.736
137.652
136.048
118.884
139.585
140.936
97.072
98.540
102.515
116.106
110.605
118.969
107.485
144.263
139.347
124.986
95.319
108.642
132.483
103.022
136.773
137.156
112.355
141.552
136.614
95.548
110.578
139.214
120.768
97.054
145.509
139.189
110.455
119.369
146.386
145.639
102.113
112.091
108.625
117.554
99.850
117.413
97.839
105.518
125.130
106.012
121.881
131.444
127.715
146.460
137.234
104.009
132.037
111.578
119.161
121.845
104.016
138.262
141.459
120.149
137.383
118.250
101.955
135.495
145.773
112.999
125.502
146.335
144.883
104.438
118.316
122.788
105.526
142.978
128.197
125.598
143.436
100.812
135.637
96.872
113.947
142.805
100.313
97.701
120.237
118.533
105.312
107.907
95.149
136.789
117.791
116.278
95.751
123.336
136.372
119.490
107.961
119.752
129.654
106.597
125.750
96.509
107.245
103.177
131.993
132.546
125.652
120.931
98.614
141.827
112.774
112.879
145.960
118.003
100.620
98.040
118.471
103.224
144.580
135.767
97.203
98.515
120.436
97.669
111.842
117.166
96.008
144.484
125.134
114.775
140.894
107.224
98.925
143.105
99.787
105.418
102.534
99.928
117.094
102.361
116.715
120.357
131.073
140.954
102.232
134.486
123.227
126.999
139.397
118.577
144.352
126.302
109.458
99.240
95.872
143.143
94.827
140.918
107.332
100.236
130.856
109.547
133.070
102.782
132.594
96.683
115.912
133.384
107.579
97.141
97.986
133.364
146.691
118.613
143.167
111.442
136.323
109.295
101.096
99.579
129.821
136.883
136.832
132.816
122.315
141.217
142.257
138.928
132.431
132.464
145.179
139.287
95.998
146.227
111.139
102.290
131.362
106.219
145.142
145.666
94.787
108.025
134.363
134.942
108.902
128.395
96.611
130.586
109.336
115.240
126.228
129.236
126.342
127.543
133.333
111.346
121.659
98.897
108.405
97.027
104.144
139.589
146.075
104.876
115.287
103.855
102.376
133.044
146.415
103.265
117.764
134.444
116.203
128.318
128.854
137.372
137.896
100.827
115.623
135.536
109.607
103.114
111.428
134.840
106.478
129.124
108.386
122.039
132.762
102.233
124.487
128.634
127.256
110.566
95.305
120.218
110.035
138.956
117.537
120.410
145.402
99.776
121.564
107.773
108.288
124.156
121.521
113.884
132.907
100.604
120.981
111.622
95.775
120.199
136.404
113.347
138.891
113.382
106.201
100.210
146.740
117.445
141.615
116.116
122.988
129.752
121.778
96.371
106.017
124.674
96.957
137.353
145.053
96.039
106.943
120.717
113.034
119.065
108.751
104.450
119.175
95.303
139.527
142.452
116.556
115.055
95.860
128.433
136.038
133.998
95.163
132.260
124.737
104.231
97.787
97.784
135.244
126.420
119.294
113.844
111.018
104.150
144.459
123.396
140.379
101.824
116.323
115.429
144.012
139.661
116.828
116.043
125.707
110.987
114.595
98.959
106.538
109.916
136.198
143.354
98.620
97.755
146.148
103.787
145.070
127.644
125.045
102.951
111.022
137.459
128.897
138.626
117.615
118.822
95.672
117.794
111.254
138.214
120.496
113.077
96.932
110.086
120.498
113.768
136.206
137.593
113.217
137.670
141.304
115.865
137.408
145.515
112.508
136.694
129.622
116.469
118.885
124.060
131.635
127.463
110.663
124.712
109.783
114.623
135.511
105.828
102.256
101.257
95.468
114.500
117.173
121.609
116.201
97.346
115.431
115.338
102.937
118.135
100.180
103.531
95.090
129.427
119.562
144.723
123.415
138.708
132.853
109.581
114.278
102.351
119.839
116.006
120.416
98.415
128.561
114.731
116.763
117.976
139.754
104.875
98.886
117.961
137.593
124.381
130.473
134.459
141.071
111.942
146.199
132.906
128.192
99.357
97.445
145.912
125.037
124.588
143.192
122.108
118.624
131.926
106.845
117.039
101.558
114.677
110.211
143.877
141.822
126.303
116.543
125.528
132.046
102.132
104.749
125.716
101.417
103.670
100.785
134.668
135.607
127.228
131.489
136.997
106.625
135.490
106.308
128.298
104.753
136.907
122.162
102.345
134.549
97.074
95.910
114.149
113.841
131.971
135.868
134.397
104.303
146.547
117.892
106.019
114.333
111.044
119.838
121.658
108.546
130.326
140.384
95.133
112.282
97.083
113.624
129.171
111.762
130.146
136.594
120.607
98.355
131.751
128.782
136.965
146.042
129.459
125.320
132.309
115.361
101.170
139.679
116.607
139.733
142.334
135.763
127.055
99.484
130.368
109.783
143.409
105.515
99.763
101.943
103.922
119.025
129.600
128.688
130.609
134.782
110.218
137.083
128.227
98.532
103.590
122.745
129.143
116.262
116.162
97.349
115.445
129.816
120.569
109.830
111.684
114.202
112.547
119.804
131.280
115.284
112.699
139.372
116.566
146.367
118.928
109.403
125.487
101.228
115.948
103.594
123.310
127.906
97.795
110.767
145.329
108.676
125.791
99.362
146.686
96.900
100.808
119.197
124.355
146.189
133.482
152.643
101.676
140.128
103.479
150.506
116.098
149.187
145.234
112.090
150.001
106.208
136.120
137.904
111.518
107.184
137.809
112.440
133.640
108.713
131.128
116.407
127.273
129.829
131.982
127.560
106.539
128.811
149.862
117.875
144.756
135.341
114.930
137.809
121.735
153.104
120.552
118.206
106.241
122.478
115.644
124.936
144.799
150.267
105.829
136.850
119.989
103.959
101.382
106.053
120.178
136.609
134.818
126.373
132.510
122.196
143.071
111.618
134.597
134.587
143.150
117.550
129.475
137.175
113.615
105.897
101.184
142.480
137.340
119.073
103.442
107.934
143.563
129.683
137.757
114.347
149.922
123.953
128.768
111.866
143.800
122.143
126.045
129.794
133.536
129.732
134.499
106.949
106.968
127.716
122.044
139.358
109.161
139.773
131.033
109.255
139.327
105.796
105.668
145.525
147.201
143.342
147.302
151.772
150.446
111.323
139.383
118.910
146.336
124.076
133.652
136.646
116.315
127.948
149.580
133.493
125.101
136.590
148.193
142.227
132.591
134.497
109.394
144.127
122.173
106.783
126.244
105.564
143.524
136.798
125.251
117.496
109.789
118.844
133.808
137.187
132.079
116.379
129.588
135.833
119.400
143.716
139.576
144.077
113.853
134.286
130.091
143.899
153.113
111.971
109.451
106.345
135.203
32.288
34.028
43.252
38.160
35.863
44.686
39.034
35.121
31.292
33.866
42.273
40.990
40.679
33.287
32.020
42.773
38.042
46.217
31.658
35.533
35.110
43.384
33.474
33.181
46.167
39.659
45.150
37.685
46.883
31.145
36.635
45.192
46.979
34.311
34.139
36.323
46.057
36.721
36.752
31.562
33.686
37.121
45.112
43.357
43.970
44.274
39.000
1553.811
1566.127
1565.742
1563.419
1556.345
1574.364
1574.397
1557.528
1562.517
1557.687
1570.958
1577.138
1573.626
1582.806
1569.096
1558.118
1581.150
1572.975
1564.547
1573.916
1567.025
1558.746
1567.418
1582.100
1572.515
1581.855
1564.368
1560.771
1580.313
1567.303
1570.409
1578.131
1581.400
1572.981
1561.495
1574.711
1577.716
1584.870
1582.516
1576.699
1562.599
1562.375
1582.691
1581.285
1564.264
1572.336
1581.310
1569.079
1567.308
1572.860
1574.071
1568.564
1583.186
1568.284
1566.383
1589.849
1587.553
1567.451
1591.544
1593.062
1575.628
1579.740
1568.632
1567.901
1594.769
1584.931
1576.426
1596.250
1575.192
1577.901
1574.213
1572.001
1584.865
1582.451
1577.334
1592.976
1579.483
1571.931
1586.104
1580.541
1593.699
1574.773
1595.641
1589.576
1598.593
1588.021
1600.067
1597.935
1582.400
1596.615
1592.365
1581.096
1577.004
1595.800
1592.565
1578.399
1595.396
1589.507
1584.481
1599.228
883.240
887.915
891.586
889.356
891.086
878.927
884.626
890.539
880.319
884.704
889.581
883.173
881.070
881.007
890.227
882.927
887.967
888.878
887.531
892.669
891.500
885.347
892.660
880.228
888.752
887.806
884.037
890.123
882.413
883.160
880.999
892.604
885.886
888.186
882.638
888.108
881.660
887.037
881.360
895.733
895.925
893.658
891.635
891.740
884.789
892.008
886.125
885.575
893.408
890.364
887.601
898.485
884.362
891.065
893.595
886.335
898.856
894.413
889.726
889.220
899.409
896.202
890.812
889.861
890.407
890.548
897.166
887.684
895.310
889.479
885.960
899.435
892.737
894.538
892.145
892.705
889.315
900.653
898.931
890.574
890.429
900.585
898.948
887.524
901.695
903.006
895.067
889.283
896.984
894.476
894.263
894.736
898.308
889.727
903.138
903.209
898.050
891.971
900.007
903.033
891.699
895.633
893.382
890.544
886.217
897.111
884.599
889.932
889.424
880.124
877.924
881.480
880.371
877.075
880.069
876.596
871.719
874.626
875.155
874.732
873.115
865.852
871.296
864.698
868.104
862.894
863.441
863.336
859.816
867.329
860.462
857.702
859.772
848.611
855.585
853.183
851.949
858.290
851.980
854.433
855.024
844.894
849.779
849.556
847.171
834.474
835.909
843.167
830.518
832.237
829.104
835.602
824.438
837.489
823.789
823.717
831.568
821.749
820.005
827.811
828.563
823.507
820.769
817.706
817.573
822.580
809.540
818.662
814.684
809.345
805.271
805.130
806.970
810.682
802.877
801.578
803.165
807.872
799.611
793.749
796.070
803.719
793.684
788.305
788.622
791.457
