108.236
114.193
93.375
99.094
112.212
113.247
113.421
117.339
120.207
101.875
120.182
111.032
104.234
126.554
115.233
89.726
125.927
122.770
111.184
91.174
105.030
128.450
116.812
122.738
119.036
88.602
128.441
85.556
91.936
92.870
113.208
96.312
116.201
97.845
112.750
108.536
96.454
89.230
106.212
106.416
113.323
116.233
86.378
125.382
126.966
99.265
116.949
88.389
104.341
111.853
111.956
98.632
111.843
98.504
120.570
125.318
104.382
110.036
122.096
124.274
119.955
117.171
118.871
117.576
115.972
118.033
123.587
122.000
87.787
97.657
85.365
124.623
109.483
119.234
129.349
106.650
110.893
106.308
113.401
111.309
118.152
86.807
97.755
109.152
126.057
124.698
97.655
126.675
117.831
112.225
110.911
121.196
103.451
94.278
89.011
83.894
88.075
93.963
103.561
89.387
100.580
128.254
103.608
128.488
105.817
123.791
104.183
90.877
95.027
117.655
91.173
88.407
124.529
99.785
113.617
108.793
114.653
101.824
109.563
123.434
107.881
116.897
91.978
88.641
115.446
125.344
127.896
85.254
122.851
105.732
86.751
118.183
128.788
127.877
114.065
105.946
109.055
128.820
124.334
97.366
119.365
92.917
121.527
85.996
124.918
87.553
120.113
88.430
115.360
105.975
126.138
109.615
107.997
118.697
107.535
84.730
100.668
125.408
106.593
118.971
102.294
101.264
125.769
111.937
112.060
126.716
102.117
90.015
90.129
129.649
127.025
129.440
93.696
118.872
114.683
96.175
119.443
100.012
88.407
114.599
124.685
103.141
85.368
85.754
114.002
85.060
120.078
125.463
91.423
96.652
111.168
126.496
88.586
91.884
109.852
108.993
111.302
102.583
126.833
113.815
107.866
124.271
87.691
93.022
99.878
120.078
101.768
123.574
122.449
88.477
124.594
88.627
125.232
96.954
114.704
91.465
104.548
101.737
109.845
104.978
124.429
114.392
99.694
121.052
90.713
108.002
104.393
129.721
99.169
113.975
117.280
93.572
86.200
97.635
108.231
87.889
122.461
107.267
112.185
93.949
125.514
101.818
92.379
123.358
96.326
121.838
120.063
98.866
88.540
124.517
93.599
105.719
121.056
123.090
115.518
111.967
85.056
86.781
121.531
128.985
104.881
106.047
126.566
85.041
100.118
121.010
106.182
110.579
121.148
89.692
99.811
101.887
103.136
101.353
125.757
128.023
110.098
94.527
84.353
86.197
92.255
126.376
86.026
117.502
96.578
103.721
91.560
109.386
108.388
91.264
103.633
106.473
97.470
89.310
126.551
112.856
112.562
100.190
90.696
117.140
90.788
96.787
89.914
100.762
99.547
119.124
120.136
109.538
105.745
100.788
112.504
114.094
92.826
128.357
85.280
109.240
92.549
128.628
100.328
105.719
108.374
121.822
107.185
116.409
88.314
84.371
107.079
90.860
95.713
90.766
88.130
96.485
122.576
90.770
89.991
97.624
100.123
96.511
104.667
110.562
129.522
122.367
84.759
103.553
99.533
121.591
99.199
125.346
96.255
102.989
123.516
112.407
116.448
103.088
104.720
116.339
108.879
116.917
102.534
128.054
94.120
117.259
120.967
122.552
129.260
101.037
88.001
90.942
105.817
91.627
89.284
97.761
86.885
109.113
122.250
108.566
108.998
118.611
119.114
117.868
107.083
95.848
93.268
121.503
113.688
128.142
119.598
117.189
120.998
107.988
91.879
121.514
115.791
89.245
127.836
125.315
118.089
120.493
95.347
91.086
128.206
125.103
102.904
101.567
95.565
122.711
87.590
106.709
128.467
121.679
86.846
104.231
102.347
124.610
93.063
96.506
86.049
109.795
120.889
119.949
93.831
108.799
112.055
119.517
101.336
124.041
109.076
124.349
111.609
84.299
99.531
113.437
104.642
106.047
120.688
98.447
119.095
115.311
89.491
126.418
112.707
90.984
108.566
110.409
104.890
84.721
92.145
121.112
117.303
112.672
127.740
87.650
106.212
99.885
96.799
116.802
105.558
117.148
108.810
108.898
101.604
95.872
125.338
99.771
90.603
112.186
126.723
122.990
102.151
113.357
115.406
105.228
124.064
122.661
123.512
123.980
88.410
104.538
125.322
102.295
129.093
117.730
106.932
119.058
125.646
121.357
92.416
86.549
101.260
93.438
115.156
129.199
90.588
117.289
95.467
97.517
124.506
99.745
117.689
99.871
95.482
110.582
105.098
127.600
93.937
100.120
121.253
118.946
126.288
125.842
95.754
114.469
101.324
105.697
95.520
86.775
84.567
120.569
105.493
103.268
101.852
100.949
120.476
98.785
103.717
91.250
118.441
126.811
102.204
127.288
117.517
113.641
95.145
102.933
128.297
85.798
128.217
87.993
126.252
110.321
109.390
90.270
129.614
122.154
93.080
122.297
93.976
118.901
103.275
124.208
105.068
99.071
99.638
125.277
87.521
112.228
124.108
92.228
116.521
86.235
104.216
118.532
123.244
111.070
126.779
119.366
108.660
121.686
122.404
105.330
95.055
95.113
85.631
127.548
126.886
120.568
120.476
128.690
129.440
127.953
126.031
122.791
88.899
114.887
117.634
97.932
98.378
118.785
118.064
86.097
116.194
122.512
95.407
110.885
111.699
121.766
116.723
101.345
126.147
89.837
126.686
97.989
117.889
102.888
107.308
113.996
125.510
107.750
92.083
106.378
97.541
119.552
92.596
96.041
116.313
121.831
112.047
119.616
98.651
127.469
119.151
129.549
104.588
129.027
115.024
120.828
126.525
117.027
93.684
110.150
129.434
117.566
116.799
115.270
98.784
85.168
112.686
87.271
98.152
119.208
99.454
104.157
94.266
97.277
84.111
107.755
117.369
108.559
119.909
121.239
98.102
88.875
110.475
110.601
85.860
100.174
84.410
113.866
110.650
125.433
89.699
92.923
112.969
129.046
122.795
114.192
113.926
121.479
110.707
118.130
89.066
115.446
101.231
116.977
98.209
89.735
123.151
85.177
106.890
109.122
107.576
86.599
95.874
122.949
99.006
126.105
102.223
95.998
105.771
86.955
96.468
85.311
85.321
99.681
86.433
123.426
108.737
103.424
123.527
86.777
98.877
123.404
108.753
89.689
123.730
102.350
121.900
101.841
96.946
106.242
118.958
85.892
96.478
94.827
124.269
89.286
106.218
106.643
86.014
107.254
115.463
109.349
112.230
106.612
117.320
111.856
100.863
124.625
90.076
98.805
121.412
108.522
112.491
96.151
99.569
122.049
125.313
118.564
85.148
90.673
118.338
85.286
83.851
97.809
104.149
112.017
119.001
101.442
123.505
117.360
116.898
102.400
87.030
122.726
122.001
95.150
111.954
115.611
124.842
92.301
95.286
100.297
108.156
102.687
94.259
106.508
101.356
1333.674
1335.254
1328.351
1347.662
1337.814
1342.773
1337.953
1367.645
1350.904
1357.910
1373.389
1376.348
1359.893
1363.930
1372.631
1380.417
1393.090
1392.595
1394.930
1388.693
1378.170
1398.096
1406.494
1389.565
1411.743
1415.166
1415.885
1408.360
1407.487
1406.533
1415.322
1423.377
1418.240
1429.963
1434.002
1420.723
1439.804
1452.152
1453.169
1436.888
1455.950
1443.329
1466.224
1457.605
1472.126
1459.731
1451.785
1468.733
1458.306
1480.156
1488.421
1471.006
1488.547
1472.455
1478.361
1501.003
1506.031
1482.869
1507.844
1513.809
1500.351
1495.146
1496.354
1524.445
1509.496
1524.215
1513.321
1518.726
1522.602
1519.467
1538.078
1544.097
1552.703
1548.611
1551.293
1545.218
1553.144
1556.371
1561.201
1547.825
1567.541
1550.383
1572.129
1559.746
1559.677
1564.606
1590.683
1568.941
1598.566
1592.362
1598.230
1590.702
1605.530
1602.566
1604.617
1591.533
1606.440
1597.048
1599.714
1609.328
895.019
896.193
900.580
901.312
907.513
903.235
914.441
917.213
911.370
915.909
907.197
924.073
911.094
913.549
917.637
917.536
917.754
930.806
934.673
923.786
938.671
927.302
941.709
934.594
937.337
938.637
938.208
948.934
938.837
940.422
950.502
944.851
956.924
959.199
947.399
948.172
961.029
964.622
957.945
962.011
970.186
966.199
961.466
974.842
964.187
973.312
964.489
973.436
974.568
982.298
985.692
978.106
989.364
988.106
982.335
988.688
989.849
987.251
992.397
999.210
999.009
992.510
994.382
994.845
1004.394
995.591
1001.180
1006.059
1013.790
1009.874
1003.941
1007.079
1017.213
1017.591
1024.161
1021.555
1022.281
1016.079
1016.123
1028.992
1023.732
1030.765
1023.313
1033.759
1026.651
1026.802
1032.875
1030.715
1035.926
1037.626
1043.012
1050.677
1041.460
1041.351
1042.046
1049.463
1049.898
1050.985
1060.820
1058.228
1058.475
1057.542
1059.700
1055.090
1056.851
1060.134
1052.357
1062.432
1051.771
1060.875
1050.548
1058.941
1053.992
1060.647
1053.196
1066.515
1053.953
1063.394
1057.384
1057.697
1066.242
1062.942
1064.541
1066.051
1052.243
1056.767
1054.487
1059.729
1060.994
1065.216
1063.699
1051.716
1062.890
1057.072
1054.397
1066.071
1062.081
1065.614
1064.747
1054.978
1066.395
1061.484
1065.427
1052.609
1058.878
1058.295
1060.097
1056.113
1056.577
1054.753
1062.858
1055.124
1059.077
1058.107
1062.141
1068.799
1063.460
1057.109
1061.937
1058.629
1055.146
1059.569
1054.723
1061.327
1066.098
1053.869
1066.078
1062.687
1068.088
1066.270
1056.533
1057.531
1062.850
1060.388
1060.768
1060.588
1063.935
1062.573
1059.461
1062.357
1067.266
1062.938
1055.887
1059.887
1063.637
1056.479
1068.812
1058.958
1055.113
1060.851
1067.635
1068.099
1063.305
1057.421
1062.042
1063.936
1071.082
1069.667
1062.004
1068.963
1071.477
1067.560
1071.486
1066.564
1062.321
1057.141
1069.096
1057.725
1056.325
1064.573
1065.380
1059.741
1065.038
1071.586
1061.292
1061.258
1063.413
1065.193
1066.317
1065.407
1070.797
1064.903
1058.342
1065.603
1062.008
1069.625
1065.795
1063.558
1059.366
1061.851
1066.358
1058.339
1064.689
1060.506
1069.054
1063.899
1068.789
1061.516
1073.291
1068.313
1060.665
1061.958
1071.470
1062.575
1060.535
1067.812
1072.359
1070.931
1067.931
1072.082
1066.334
1067.330
1063.422
1073.618
1067.842
1058.903
1060.431
1060.615
1073.613
1066.568
1071.207
1066.847
1074.296
1070.436
1072.879
1059.800
1064.278
1062.999
1068.056
1071.487
1067.550
1072.669
1067.226
1064.730
1074.588
1070.819
1074.749
1063.787
1069.760
1073.969
1074.302
1060.702
1061.175
1072.720
1071.413
1065.682
1076.042
1070.348
1065.455
1060.813
1062.482
1075.465
1071.465
1075.860
1073.964
1067.813
1062.160
1069.610
1066.539
1074.483
1065.386
1074.544
1062.327
1068.288
1058.217
1065.027
1064.097
1062.002
1066.374
1056.336
1059.788
1053.285
1063.989
1047.967
1052.128
1050.265
1059.577
1058.450
1052.916
1053.989
1055.232
1048.415
1042.051
1043.358
1049.722
1045.792
1039.744
1045.006
1042.979
1035.917
1030.162
1042.173
1033.637
1028.910
1031.932
1025.997
1026.988
1035.632
1032.831
1034.704
1026.388
1031.186
1027.333
1024.171
1015.870
1012.793
1017.908
1014.110
1009.571
1018.568
1008.198
1013.706
1017.709
1006.057
1005.363
1014.716
1006.658
1011.806
1004.370
1001.707
998.082
1000.252
997.156
1004.313
1004.953
1006.267
1004.203
1000.470
993.239
990.596
995.030
996.737
984.724
992.286
984.016
985.425
983.936
986.927
986.404
985.371
989.823
975.237
973.669
982.108
982.267
976.637
974.750
976.402
971.045
967.905
977.928
970.504
965.228
967.739
973.608
972.795
959.727
966.839
959.120
956.874
956.097
954.457
963.280
954.810
955.854
959.568
949.920
955.286
955.776
948.062
955.966
947.336
949.535
954.243
953.351
947.965
937.483
938.792
943.421
946.739
935.499
936.645
931.725
933.092
935.651
928.734
933.269
939.468
928.425
931.384
927.367
931.221
927.060
930.914
930.800
919.152
915.832
917.960
921.732
920.566
919.240
915.203
913.513
911.088
905.366
906.502
914.340
902.445
907.919
914.230
905.378
907.363
911.893
908.164
901.466
897.591
893.372
891.552
895.803
892.568
893.354
894.932
901.447
885.331
895.715
885.185
882.225
889.332
892.463
879.350
884.873
887.357
885.379
882.839
888.346
886.295
875.972
879.064
878.978
876.726
866.533
873.215
864.682
869.632
866.312
862.261
875.459
864.440
865.082
866.582
868.594
867.841
862.559
861.698
855.530
855.148
854.045
862.281
851.285
854.934
855.036
848.515
854.434
859.252
847.542
854.049
860.561
848.984
855.815
851.571
860.488
855.246
863.521
860.114
864.929
860.714
865.573
861.233
861.438
866.260
865.300
867.641
854.195
854.039
860.877
866.951
858.932
859.700
855.305
867.540
860.197
867.420
858.929
856.886
863.227
870.498
871.742
860.541
863.980
871.898
865.977
873.869
865.503
867.140
875.920
873.773
864.926
874.604
869.808
876.912
868.256
871.471
869.881
868.102
874.934
870.682
865.477
870.715
868.932
872.833
872.770
881.822
875.956
872.140
882.129
877.545
876.367
884.149
875.264
873.132
875.023
876.267
879.571
871.938
873.348
879.696
885.624
885.390
887.362
880.603
888.182
875.980
886.835
877.524
875.184
885.430
881.560
889.713
880.025
885.684
884.473
885.639
879.353
886.909
880.432
881.825
880.188
885.162
890.647
895.981
894.606
884.374
894.550
895.402
894.795
895.636
898.349
885.122
897.392
898.342
888.639
888.318
888.699
886.007
900.991
891.076
888.193
895.615
897.354
894.036
899.503
897.885
891.720
895.427
899.517
899.149
890.725
894.135
901.551
891.675
902.483
907.400
892.769
902.075
907.567
907.551
894.294
902.225
898.440
901.262
907.828
902.993
904.646
901.176
902.946
909.099
909.767
907.358
912.148
910.438
913.217
899.152
910.517
907.253
901.798
900.924
912.206
912.885
903.315
905.921
911.812
914.397
914.501
903.361
919.272
919.393
918.968
913.879
906.578
909.188
915.239
918.174
910.130
917.612
911.548
909.600
916.733
912.478
918.150
923.266
922.971
925.603
923.541
923.985
914.251
922.703
917.539
925.695
926.093
921.468
928.788
917.105
918.700
923.416
919.870
915.560
928.219
926.275
931.136
919.876
917.786
921.384
916.948
924.370
922.306
921.323
919.566
924.861
920.493
927.733
918.556
926.147
911.033
911.923
925.529
913.995
920.277
916.895
909.416
909.364
914.683
908.464
919.033
921.360
917.572
911.862
906.432
906.524
917.939
904.167
913.427
912.397
916.993
904.229
903.861
907.607
910.760
906.873
910.877
904.405
897.486
911.560
897.409
902.008
909.742
896.861
902.516
896.581
905.020
907.428
902.920
899.472
896.892
901.220
894.283
905.440
904.127
903.266
904.053
889.765
890.612
900.082
895.862
892.504
896.329
886.101
885.779
897.978
893.257
890.215
890.002
892.191
885.462
894.989
892.848
888.669
886.003
894.742
883.881
884.181
882.206
880.974
880.748
892.016
886.732
879.804
876.097
876.812
883.332
886.138
875.484
875.662
885.780
878.458
885.035
874.087
882.778
877.583
876.689
876.432
874.464
868.828
873.801
876.172
876.653
880.820
873.152
875.366
874.921
865.764
877.582
864.305
875.034
869.953
876.985
861.372
875.085
868.598
869.235
868.103
870.071
858.018
872.110
868.727
862.641
863.890
868.786
863.611
856.872
861.226
857.152
856.419
864.457
860.147
854.490
864.033
865.539
864.447
862.715
855.795
863.912
854.834
856.891
862.009
854.107
860.008
855.438
849.769
848.395
851.265
851.864
850.807
854.543
846.098
852.808
855.109
847.013
846.945
855.031
851.263
851.860
853.873
848.438
846.114
849.889
849.370
850.155
838.952
838.114
837.228
838.052
844.256
847.271
843.672
838.836
835.752
843.156
833.633
843.965
833.148
842.624
838.799
834.641
832.942
840.275
833.465
840.082
839.462
825.287
828.369
826.393
832.735
832.458
827.681
826.434
833.190
827.796
822.451
830.663
823.400
825.487
828.500
821.782
823.888
830.148
825.931
836.207
824.236
828.879
830.028
823.702
832.804
830.097
827.702
824.416
837.341
837.961
834.502
838.694
834.080
829.619
836.013
839.850
831.155
833.033
830.282
827.045
837.702
826.662
827.223
828.737
839.066
841.356
836.006
830.617
837.036
844.175
838.531
844.819
834.048
835.581
838.901
838.082
836.651
840.401
843.316
839.869
837.897
839.585
847.983
838.572
834.549
841.156
834.151
847.837
849.277
841.186
845.158
837.493
837.386
838.482
841.616
848.367
851.802
846.721
848.595
840.524
847.465
839.650
841.267
843.304
849.419
846.447
848.682
850.865
851.776
849.068
855.968
855.355
841.182
842.128
849.618
854.776
848.496
857.559
852.453
848.563
843.790
843.072
848.135
849.155
852.366
844.683
846.927
849.814
847.453
845.417
847.503
854.372
850.618
854.677
860.802
857.054
863.048
849.163
850.042
853.660
852.643
855.293
860.972
855.700
864.310
853.528
855.060
861.170
859.998
860.403
853.770
857.972
866.796
860.189
865.780
855.927
859.113
867.462
857.830
866.099
854.236
861.693
869.666
869.749
869.450
858.833
859.573
871.075
863.679
867.420
862.610
864.085
867.529
866.741
869.196
864.994
865.775
871.308
859.865
865.779
873.291
864.201
863.822
875.358
862.111
864.841
874.790
866.224
863.267
864.876
873.021
869.953
867.272
875.605
869.718
870.921
870.979
864.654
871.053
878.420
865.527
865.469
877.822
867.164
872.730
875.352
880.301
874.987
872.020
879.754
872.703
878.161
874.784
871.892
868.559
870.269
878.609
873.562
872.639
881.298
871.930
883.196
881.764
873.866
873.294
879.178
876.698
888.006
887.197
885.589
881.901
882.651
884.161
887.965
880.538
887.441
878.649
876.991
890.980
882.086
885.791
888.788
880.031
886.712
895.204
890.178
890.213
893.970
893.883
889.058
886.886
882.968
897.998
889.634
898.321
896.024
898.377
901.004
894.372
900.340
896.035
890.753
892.061
889.507
889.719
895.883
