107.609
109.163
146.227
134.584
108.420
145.776
104.757
129.309
142.236
117.541
126.521
104.220
136.983
121.185
106.702
127.177
134.164
104.307
142.150
116.634
138.681
121.804
100.505
101.600
97.128
114.634
126.877
99.446
120.046
103.677
98.181
141.001
120.243
99.753
118.349
97.374
136.250
144.933
134.096
141.293
118.985
107.514
120.137
141.541
132.352
108.579
98.728
144.459
111.939
122.961
127.102
101.246
141.703
108.811
139.955
103.554
140.500
107.198
136.802
114.624
118.804
141.610
119.205
118.124
95.791
106.458
105.612
119.217
145.116
136.305
110.907
139.993
99.245
97.286
124.705
99.460
116.692
140.839
99.750
124.582
107.104
129.515
142.747
105.204
106.848
104.052
142.641
144.763
117.317
107.835
137.778
134.922
95.835
118.300
97.780
131.278
136.700
102.948
117.535
131.647
108.335
143.580
100.695
106.100
133.861
127.789
105.289
97.481
124.430
119.242
136.241
140.077
145.951
142.302
117.221
128.679
100.104
127.628
100.665
115.742
128.238
134.479
121.275
100.533
131.543
115.216
141.093
110.996
110.097
142.558
125.033
132.764
137.768
131.191
101.971
131.032
106.250
98.769
102.622
99.246
109.585
132.800
122.265
96.356
100.938
144.029
139.329
139.855
101.423
116.659
133.422
137.960
112.038
114.220
123.926
131.953
136.928
114.213
110.954
111.919
145.258
109.617
140.854
99.748
110.360
112.347
126.785
145.334
123.352
125.100
98.680
134.334
128.651
140.938
101.956
138.805
100.614
105.481
113.052
134.565
128.078
96.020
120.743
118.430
118.531
138.843
138.852
100.109
116.465
96.628
94.882
95.133
96.379
144.840
106.291
112.218
134.832
137.280
120.298
98.679
112.201
126.760
137.342
131.925
103.007
140.315
142.659
103.818
122.850
113.749
104.582
100.363
111.684
124.204
104.368
120.179
126.806
106.154
141.860
99.594
107.392
113.366
116.366
143.484
124.909
102.513
137.720
125.692
122.210
116.311
109.872
103.532
135.022
133.568
124.545
128.446
104.124
135.357
126.464
134.578
121.107
139.252
117.843
111.014
119.832
120.451
113.643
115.183
141.068
118.114
139.913
112.690
107.624
100.546
132.225
136.955
96.616
136.732
102.310
122.535
112.874
99.223
103.837
136.799
114.825
115.332
108.919
97.280
129.562
117.595
96.589
123.232
136.607
108.761
96.178
143.497
106.663
144.253
118.278
129.545
145.944
117.660
130.059
118.636
135.648
124.573
109.500
140.444
114.486
124.615
114.011
142.505
105.074
128.176
119.178
112.873
110.369
109.399
98.355
135.305
116.675
94.782
96.221
129.902
140.573
119.619
133.029
141.162
98.320
143.530
141.648
145.468
99.979
124.174
110.889
143.167
114.994
146.403
129.584
97.981
102.460
138.745
133.427
106.854
131.978
128.809
121.319
136.344
115.264
129.563
131.342
104.471
119.349
129.782
104.678
134.128
130.123
100.058
110.341
99.790
130.202
133.073
100.941
133.250
146.314
109.487
116.586
103.585
101.698
135.503
133.372
104.405
137.584
143.818
110.659
110.433
116.824
143.030
110.553
146.491
108.600
113.042
143.851
117.547
105.287
142.675
109.169
113.004
143.167
119.039
113.021
143.493
103.216
96.867
97.826
105.226
103.287
143.235
127.950
104.255
123.066
94.994
96.438
99.926
116.975
104.477
124.703
130.362
130.164
111.284
96.987
116.889
137.106
103.396
103.475
111.121
100.957
143.347
112.842
119.187
96.855
102.439
105.898
135.493
117.797
96.419
124.970
135.110
102.858
129.724
101.474
115.651
105.500
126.135
106.135
111.058
110.360
142.409
106.583
132.113
95.316
124.507
122.783
133.728
142.829
124.311
115.930
118.751
130.319
112.724
138.127
130.183
122.183
128.786
97.280
102.701
94.874
124.593
133.100
104.091
101.119
121.843
141.790
134.116
98.015
136.775
142.484
122.865
141.896
139.789
114.718
115.433
96.629
113.005
142.702
115.307
140.990
104.628
136.135
135.520
95.804
104.697
138.903
138.836
144.181
146.036
120.039
139.455
127.456
122.439
129.305
96.037
120.451
121.236
138.858
141.711
119.001
106.654
144.753
110.486
130.634
145.964
130.616
131.497
119.998
134.694
106.793
119.882
101.526
103.783
142.610
116.936
132.008
111.167
97.870
136.581
96.384
121.701
111.235
108.768
109.697
136.091
121.629
129.506
120.578
120.188
145.992
136.863
110.356
138.325
126.469
110.413
136.220
112.056
121.453
127.170
97.450
112.188
110.705
142.531
112.247
146.142
136.893
128.498
106.319
100.937
95.320
124.181
120.055
132.574
107.617
146.717
133.443
118.895
101.105
137.606
129.587
124.067
100.106
131.596
136.052
122.502
145.108
138.733
123.366
105.864
121.305
117.187
133.779
122.230
132.655
104.230
134.183
114.928
121.176
126.601
124.711
108.848
124.750
132.658
103.966
115.088
122.725
118.664
96.999
140.589
112.537
131.775
121.344
110.139
138.133
131.252
127.986
132.642
123.764
124.015
103.575
121.891
114.070
127.771
139.287
144.984
129.292
134.040
124.902
144.429
102.291
122.655
126.926
140.790
121.534
140.602
112.179
116.967
107.042
137.713
106.293
116.409
129.436
132.286
114.687
115.486
136.261
124.682
130.184
117.251
110.011
138.229
119.212
114.017
116.927
94.675
95.297
132.020
129.555
90.390
129.238
123.057
114.633
132.992
99.285
114.983
139.873
123.637
133.218
138.164
96.662
131.426
115.682
93.351
92.174
112.791
121.235
107.537
130.857
98.070
104.033
100.664
126.768
133.098
140.385
128.928
140.118
118.792
100.801
90.991
92.216
115.820
141.271
90.962
139.291
122.381
124.208
94.982
140.899
115.248
127.010
140.399
118.514
119.866
131.276
98.032
96.158
129.463
121.076
99.098
113.151
92.475
111.107
108.600
103.957
127.972
116.109
92.124
120.515
116.917
136.708
120.779
122.818
99.641
141.257
97.422
94.839
100.827
99.602
91.416
141.942
120.584
112.292
138.955
137.458
140.066
120.918
126.018
103.112
101.705
128.042
137.859
115.790
135.942
132.286
98.183
100.429
124.619
95.953
102.634
106.401
112.388
121.399
142.517
139.303
137.424
112.454
130.559
114.545
102.857
128.693
120.024
98.769
124.578
140.369
110.930
141.247
100.341
109.818
106.468
142.717
143.841
104.393
101.358
142.913
94.250
96.541
136.405
105.091
144.268
127.793
127.453
108.626
112.320
138.861
122.226
139.187
124.815
134.336
138.049
141.910
120.082
98.632
118.330
135.860
114.595
135.700
119.155
142.119
116.976
137.443
129.699
122.791
132.284
97.610
126.333
133.088
106.062
119.517
108.231
100.511
113.522
140.492
97.805
105.417
124.483
143.163
101.315
111.308
131.018
120.562
118.126
118.516
127.009
143.684
126.628
121.059
122.719
132.835
113.450
95.748
107.590
98.524
95.232
137.986
131.847
127.411
132.886
141.640
112.469
129.952
137.866
116.546
117.040
98.688
134.634
116.808
116.754
96.763
143.850
142.682
113.992
108.293
131.261
129.745
110.229
113.715
103.752
134.524
140.370
100.539
119.480
127.083
98.450
141.460
128.775
136.128
104.036
110.668
112.413
94.839
146.492
101.108
108.082
109.386
143.751
100.821
145.549
103.080
132.565
97.881
111.989
126.766
145.738
131.008
99.361
135.269
127.240
122.970
128.331
137.164
134.317
143.808
99.734
124.957
136.005
142.550
101.656
146.285
146.518
103.315
106.089
107.604
101.137
133.381
126.908
113.615
105.624
123.184
131.372
120.344
108.344
131.710
103.135
112.696
102.094
95.110
106.797
136.180
108.229
96.284
137.758
100.184
119.741
107.677
139.991
128.235
134.805
133.437
139.510
141.123
126.563
131.958
141.783
130.915
146.547
133.664
129.524
125.919
141.699
97.209
121.128
145.943
118.591
138.090
128.578
109.087
122.743
132.449
104.536
128.232
120.232
103.350
102.727
127.882
103.196
97.347
96.364
123.017
144.329
138.441
111.814
105.300
126.484
96.064
128.936
120.458
113.266
110.143
143.050
119.384
135.793
134.671
131.561
121.259
116.062
104.478
115.830
117.704
105.080
95.794
120.694
143.833
116.735
102.949
107.025
123.025
119.669
119.109
99.479
109.178
118.117
145.276
137.678
138.957
103.465
138.234
101.814
138.777
101.645
128.861
96.467
127.180
105.527
117.100
136.508
113.286
126.548
134.276
120.833
97.833
142.867
129.938
121.216
113.117
120.989
125.273
132.567
135.434
101.189
113.760
131.664
118.698
130.655
138.073
131.761
96.529
101.020
100.596
99.713
121.599
127.741
98.495
145.624
97.976
135.754
124.588
132.317
142.076
132.013
122.982
124.501
123.060
145.089
125.864
140.591
115.868
136.125
122.449
113.648
136.686
112.695
121.633
128.675
94.852
123.287
145.926
98.622
143.654
116.397
123.347
116.673
144.412
138.254
107.928
106.443
137.220
104.835
128.074
107.210
114.189
131.334
123.144
139.399
112.237
134.271
123.799
95.524
99.413
100.046
145.363
140.282
129.623
105.854
113.165
124.463
109.099
96.522
99.706
95.004
100.498
128.395
133.435
123.261
138.487
130.314
95.323
104.014
109.545
113.219
137.618
110.013
132.865
123.851
137.687
95.543
105.376
141.135
105.370
100.228
98.629
140.911
96.059
144.989
133.463
139.822
138.584
128.041
136.510
140.906
102.367
103.478
138.268
133.891
123.900
120.849
115.049
138.023
104.393
145.884
132.801
97.495
127.417
144.613
145.647
100.548
139.791
124.885
145.011
95.134
135.835
144.956
133.845
111.347
133.578
128.688
131.436
125.552
100.028
145.875
105.952
125.346
116.905
139.291
112.625
146.039
102.848
100.194
106.070
136.782
146.546
124.832
144.228
117.312
137.894
125.089
117.288
100.647
114.964
137.113
114.564
126.666
104.332
102.145
103.651
140.537
115.361
123.995
126.526
128.853
132.699
109.226
140.631
102.085
98.365
145.541
136.836
110.744
101.969
141.045
111.030
132.393
102.085
98.757
113.687
138.242
96.228
106.364
94.968
112.703
121.962
95.466
135.639
96.097
101.611
107.776
42.100
32.585
43.245
30.669
29.237
32.541
37.516
29.184
29.542
40.290
43.421
37.401
35.460
42.399
41.930
43.749
39.974
31.811
38.017
40.138
40.930
44.939
30.385
29.370
29.821
42.015
30.610
38.305
36.557
39.351
34.055
42.489
36.034
38.397
29.639
41.815
34.487
37.957
39.631
32.240
31.796
32.923
31.408
45.005
44.218
33.255
35.993
1566.666
1565.743
1561.749
1574.887
1558.962
1581.079
1561.489
1556.126
1558.219
1577.228
1574.608
1568.077
1572.756
1562.199
1577.395
1555.758
1558.070
1566.268
1579.057
1584.780
1564.955
1571.864
1562.590
1572.244
1570.364
1560.634
1573.768
1580.558
1581.160
1562.587
1585.989
1581.485
1564.684
1571.842
1576.906
1570.987
1574.701
1586.632
1574.889
1561.680
1588.023
1569.561
1582.541
1572.011
1587.649
1568.221
1589.110
1578.740
1564.827
1585.764
1590.537
1572.236
1578.335
1576.571
1585.029
1574.877
1582.191
1584.209
1590.433
1581.506
1592.181
1582.364
1567.053
1568.041
1578.801
1587.153
1595.272
1592.124
1581.005
1589.103
1573.898
1589.761
1594.999
1594.114
1583.984
1580.105
1583.051
1572.582
1594.910
1574.513
1588.093
1571.843
1595.581
1579.709
1585.263
1577.457
1573.913
1583.023
1587.398
1577.579
1577.672
1579.437
1593.351
1599.337
1578.919
1592.644
1593.177
1594.438
1593.448
1590.305
882.001
889.621
884.084
886.372
883.090
876.521
883.678
885.616
887.489
877.189
877.048
886.101
886.549
893.255
881.308
889.361
883.632
887.422
885.181
893.158
890.417
891.328
884.780
891.268
891.298
893.145
888.297
886.586
889.619
879.869
891.421
881.816
895.574
881.930
890.995
881.227
888.174
890.194
887.037
894.640
886.950
895.321
889.193
888.729
890.075
888.083
883.831
896.647
884.827
894.758
896.134
895.916
883.338
886.785
888.827
895.032
887.321
898.008
897.798
899.073
897.680
895.365
894.804
884.418
890.725
898.466
900.529
885.812
899.880
896.610
891.871
898.687
894.524
900.256
888.444
899.667
889.075
894.176
893.735
895.111
890.838
892.768
898.581
890.041
895.352
897.156
891.077
891.519
889.492
889.549
902.637
894.027
899.821
889.081
900.616
902.680
894.526
894.361
889.092
902.377
895.510
902.632
892.702
901.164
885.102
891.332
894.468
887.326
891.270
892.709
883.165
883.533
885.943
876.351
885.357
874.962
874.796
875.350
870.437
880.377
878.888
863.127
863.903
862.959
867.201
862.062
871.135
855.716
860.669
865.444
858.995
854.321
859.723
852.760
856.442
859.272
854.369
853.765
847.969
855.195
842.841
852.248
852.580
845.916
840.866
834.206
844.190
837.627
835.054
834.081
838.231
836.925
830.590
829.795
828.198
832.734
832.155
821.233
820.861
819.987
826.752
819.800
824.703
824.682
821.732
813.766
815.783
821.171
810.605
803.496
812.235
806.239
809.109
810.545
800.577
806.257
808.281
802.363
805.106
798.274
792.433
793.017
788.978
791.095
794.281
791.587
790.410
791.855
786.161
779.516
790.878
778.158
779.821
782.032
777.836
776.825
769.295
770.347
773.754
770.334
775.682
774.952
775.613
775.955
773.872
758.022
761.928
762.235
760.427
757.539
758.322
760.011
757.761
750.921
758.104
755.555
748.257
743.331
752.633
751.848
746.197
750.751
742.437
746.154
747.879
738.476
733.836
732.724
739.692
728.995
727.933
737.118
731.900
738.205
730.615
734.399
730.733
727.259
726.242
719.903
721.724
721.855
726.065
721.049
723.914
720.636
707.594
705.682
709.183
712.355
705.619
709.455
705.610
705.792
701.662
700.653
707.621
705.890
698.807
693.823
700.455
696.419
696.715
693.487
685.907
698.618
690.332
694.336
681.442
685.414
689.731
688.918
678.821
682.962
675.956
684.370
683.419
678.976
674.612
673.044
674.383
676.022
676.116
663.812
674.943
666.002
663.883
668.265
670.028
667.046
666.139
654.375
663.697
660.118
647.603
660.198
655.838
648.368
644.421
655.319
647.811
648.369
643.149
647.117
647.129
650.622
658.162
655.723
659.986
656.674
662.824
659.243
673.987
674.170
668.721
671.025
667.330
671.367
669.951
679.106
679.429
680.455
686.705
689.836
687.026
687.659
689.707
683.178
694.204
692.337
687.448
694.216
705.505
699.744
705.595
703.401
708.484
709.414
706.140
708.400
704.897
706.233
720.289
722.674
711.534
712.167
713.944
724.977
725.504
729.647
726.923
726.554
735.301
733.796
734.115
741.561
736.696
739.663
745.026
737.133
743.723
749.368
745.918
746.559
750.782
746.866
755.470
752.774
762.786
758.488
754.266
757.291
755.442
757.454
761.559
766.355
768.609
774.752
765.039
773.976
778.504
779.443
782.104
788.037
782.225
775.839
784.350
792.149
795.153
782.268
794.976
790.802
792.625
800.941
801.241
798.826
801.734
797.699
801.136
798.102
806.949
816.516
816.889
819.740
814.759
810.558
821.501
819.810
824.368
824.030
824.238
820.715
823.761
832.688
825.501
833.120
839.488
830.892
836.320
842.742
834.383
835.218
841.299
851.377
844.137
839.897
852.427
851.161
854.628
854.000
858.925
850.437
862.815
853.775
861.000
864.372
864.444
863.040
872.273
865.146
865.850
874.403
880.540
870.663
881.086
881.070
880.809
883.710
878.490
884.473
886.417
881.633
883.104
896.867
887.612
890.723
890.284
901.468
895.771
908.565
904.754
899.317
900.346
910.786
913.551
912.007
910.702
921.897
918.549
913.881
921.541
915.614
927.905
923.061
921.917
929.869
927.363
931.984
937.186
928.848
932.878
942.793
941.837
934.705
949.631
936.390
944.151
945.059
950.002
953.226
953.318
954.869
950.036
957.158
958.524
954.959
962.278
967.808
971.885
961.090
972.249
972.437
959.112
961.550
961.609
967.746
961.031
965.688
962.062
960.741
951.498
956.481
963.562
956.401
948.014
952.883
953.150
946.270
956.402
952.547
949.728
941.418
952.264
943.502
950.972
937.890
941.399
936.164
934.035
939.499
931.898
929.814
934.526
928.650
936.091
937.030
933.393
937.341
936.458
934.778
925.812
934.750
923.876
917.548
918.552
919.334
918.848
925.167
923.496
919.722
923.115
909.774
922.217
912.627
914.110
915.578
915.358
911.625
902.560
904.165
905.960
910.925
898.709
899.742
898.771
904.327
905.694
896.181
907.752
903.707
897.894
898.673
896.161
891.916
898.967
893.101
891.472
890.667
889.420
887.681
883.547
889.918
881.499
892.857
880.530
884.896
875.214
879.487
883.756
884.782
879.490
885.015
870.798
871.917
877.080
878.453
873.450
870.607
877.031
863.608
874.442
870.166
859.051
873.418
857.116
863.105
855.666
855.712
863.314
856.833
852.809
850.984
858.814
854.231
851.628
846.223
856.248
849.544
856.660
849.465
854.285
855.941
849.937
849.965
839.727
849.240
835.949
835.620
833.465
844.217
842.080
837.771
830.699
840.701
841.030
840.388
831.849
832.780
837.599
829.184
834.674
827.003
822.177
831.785
831.582
820.950
828.247
815.647
823.313
827.146
812.255
816.879
819.243
824.071
819.848
812.071
814.611
807.740
809.599
807.138
811.048
801.993
805.273
813.634
798.453
810.140
805.998
796.076
806.454
799.236
798.772
797.779
803.344
798.159
788.174
792.837
786.151
788.344
785.137
792.419
783.459
783.722
792.468
789.885
781.784
792.022
780.889
788.637
785.750
783.937
788.072
