114.248
118.605
107.722
112.987
124.287
106.343
147.321
114.561
146.749
107.607
106.680
127.615
110.226
103.651
141.609
115.320
115.379
115.517
116.736
150.734
113.479
146.987
143.884
111.900
103.855
123.409
110.126
137.615
141.410
111.409
149.139
148.093
136.928
127.131
111.255
121.958
137.939
132.328
101.286
141.774
120.138
113.913
120.361
114.912
123.708
142.538
143.484
129.956
146.123
134.715
139.623
112.643
127.556
103.951
120.303
124.182
108.667
137.281
125.704
152.940
105.546
135.047
151.063
121.931
118.419
109.707
136.509
118.247
103.268
134.207
109.803
123.442
101.227
127.467
103.956
112.975
129.085
125.137
114.898
125.623
105.996
138.823
121.463
124.152
140.648
142.256
107.115
117.683
129.821
108.485
110.122
111.584
112.082
119.364
108.954
134.999
112.946
130.815
143.839
111.728
144.971
110.866
140.817
151.965
115.083
147.134
134.552
124.778
103.100
115.097
129.713
136.385
118.780
147.089
153.037
151.726
142.776
149.579
120.297
118.301
144.168
104.166
121.832
126.941
110.824
126.727
110.222
109.057
124.864
106.314
145.355
105.393
135.433
110.831
106.453
111.147
121.056
119.940
106.277
132.603
144.677
150.739
109.726
122.459
145.563
144.893
104.511
136.618
104.993
135.454
151.816
128.637
132.805
140.363
114.946
143.253
149.746
126.973
117.989
142.034
150.077
129.427
122.776
113.593
137.466
136.325
142.010
101.192
114.585
116.336
118.772
107.401
109.397
118.336
142.018
146.378
102.805
106.595
106.122
114.740
115.644
119.888
114.772
133.737
115.566
145.905
132.680
108.490
145.583
145.015
106.741
114.852
102.804
106.868
105.065
134.125
124.787
147.147
128.684
143.180
147.832
132.011
145.916
117.960
145.373
133.069
125.886
131.219
136.193
130.432
113.516
118.702
122.697
142.166
123.530
143.927
133.838
145.162
132.455
151.540
146.915
124.550
142.796
119.441
131.955
127.333
152.156
124.914
151.324
101.266
129.781
137.326
122.762
126.916
109.146
131.939
102.662
115.157
121.494
137.652
130.242
108.588
126.880
115.386
105.451
146.431
145.386
117.445
111.116
119.046
113.036
119.566
146.657
113.691
125.415
114.551
140.557
105.327
107.080
133.259
151.981
120.302
127.179
103.576
111.759
145.508
135.389
134.904
138.353
148.699
115.161
140.326
151.107
116.716
112.046
102.218
102.014
141.971
132.343
143.954
120.384
110.594
149.273
112.585
106.156
150.537
142.736
140.555
115.913
102.429
103.185
148.444
134.985
128.405
101.187
105.259
104.247
102.020
124.327
111.669
108.633
128.942
125.643
112.509
108.387
108.866
122.943
119.196
134.126
121.839
146.097
115.047
148.806
142.926
126.392
146.566
110.254
141.686
122.297
111.606
142.731
128.402
125.366
132.290
114.706
124.885
148.733
136.386
141.205
122.732
112.992
123.088
151.295
105.013
150.413
126.120
103.595
146.148
129.922
145.003
140.127
106.994
151.728
125.992
117.025
149.821
149.355
103.699
116.570
151.716
113.746
128.982
136.920
147.512
149.163
142.488
128.562
147.358
111.197
141.902
118.216
131.907
128.300
131.332
121.077
131.713
108.972
144.844
146.885
135.242
124.571
115.471
132.818
142.211
108.264
149.177
139.000
140.735
149.534
111.285
128.278
131.459
130.312
108.808
132.894
140.685
107.584
129.576
140.040
131.860
133.542
152.310
114.374
107.797
105.464
138.208
121.977
139.830
122.881
102.503
132.774
118.951
139.169
137.308
131.804
133.579
125.004
108.570
111.205
125.192
129.049
144.904
112.862
140.924
136.511
135.147
107.353
119.400
112.512
105.301
150.187
115.965
112.439
135.007
151.683
143.928
118.789
133.629
138.415
128.543
106.506
118.951
148.993
150.035
130.738
152.651
133.178
147.496
120.757
127.864
134.705
148.681
124.966
135.441
147.463
136.295
127.317
104.651
141.878
145.418
119.606
122.083
113.582
150.645
120.238
101.558
103.206
149.954
118.094
111.656
119.285
112.306
127.620
130.664
130.225
118.470
125.790
141.360
104.785
124.995
132.330
112.362
111.145
119.153
132.063
136.512
120.128
114.438
121.816
146.996
111.647
141.516
138.360
141.440
110.782
119.441
129.241
126.141
109.139
130.063
106.492
119.677
141.340
118.015
128.488
120.342
115.551
134.135
126.632
106.492
122.458
104.594
113.463
108.391
147.473
133.656
124.665
130.123
124.197
104.195
146.638
124.624
128.142
138.697
112.381
149.182
134.860
124.471
129.297
130.081
102.570
115.487
145.890
123.377
101.885
108.091
133.521
144.558
123.633
143.118
123.539
126.277
119.664
142.034
137.838
144.939
140.796
114.673
140.579
121.277
137.448
144.556
131.729
119.021
112.632
130.263
117.098
116.072
152.762
129.210
120.078
140.683
131.952
149.549
143.760
111.575
109.488
113.222
121.484
102.309
120.151
107.854
139.150
134.042
124.219
147.994
151.724
129.648
151.809
108.643
114.886
150.123
135.527
121.855
140.916
118.096
109.506
138.713
116.119
113.047
113.875
135.265
122.480
128.344
152.153
135.096
105.810
113.985
124.620
144.223
129.472
122.138
129.966
103.811
114.758
149.639
141.754
118.879
145.393
132.267
133.532
117.795
103.884
119.192
118.676
151.594
126.695
108.665
129.198
151.456
125.192
150.521
128.460
109.385
152.285
109.603
129.130
101.877
141.169
127.695
140.223
124.000
110.910
141.000
102.494
152.479
139.775
124.566
121.707
102.827
127.452
115.829
105.566
150.669
120.859
144.175
136.917
126.822
128.129
144.409
115.402
119.652
123.771
141.147
137.072
128.327
137.353
109.699
129.031
138.261
130.151
108.557
141.636
152.006
117.511
135.153
147.298
125.240
117.739
120.865
148.468
135.570
103.642
105.279
143.033
152.785
132.916
106.513
141.509
135.288
135.334
108.818
128.735
147.736
115.119
135.753
150.030
127.900
114.247
126.096
133.668
130.781
139.532
111.769
142.882
140.856
119.579
131.691
135.515
126.803
131.633
149.440
119.663
123.743
112.954
110.516
124.081
145.479
145.416
111.094
150.075
123.247
143.525
125.091
106.236
140.383
134.391
119.553
108.105
136.290
115.956
118.259
116.149
127.670
101.341
150.518
111.842
104.867
109.389
146.317
146.782
125.656
134.538
103.553
105.247
142.966
128.353
130.185
145.320
118.264
109.739
103.916
101.595
110.084
140.851
150.886
118.279
144.751
149.709
109.023
122.333
116.581
144.476
151.557
103.252
107.841
118.800
112.100
152.053
148.122
131.710
134.092
121.165
134.399
130.352
122.186
112.738
132.755
102.083
118.429
129.117
128.549
144.562
129.943
118.093
132.403
122.155
120.590
151.796
102.482
116.043
109.842
129.360
104.929
119.760
146.737
117.829
142.439
150.502
110.127
130.967
106.702
125.429
123.876
110.759
121.136
116.869
105.063
148.369
141.913
124.896
152.026
137.474
138.985
117.286
140.017
150.435
104.981
114.808
144.423
114.098
143.374
152.314
152.281
147.815
151.441
138.802
140.650
137.286
147.520
123.871
119.779
151.012
111.623
130.899
128.898
126.513
139.850
139.202
109.286
131.366
151.364
113.277
121.284
134.625
103.624
117.695
120.774
149.643
109.289
143.857
126.274
114.494
144.158
133.278
147.615
116.103
121.270
130.606
118.231
128.914
146.337
115.911
122.710
118.176
107.387
138.434
132.845
103.652
141.565
103.576
119.759
120.587
106.637
133.871
108.500
116.577
139.130
129.043
128.747
124.340
106.267
113.199
150.003
151.920
115.244
103.006
110.259
128.147
120.619
123.317
138.102
123.673
151.668
132.120
134.737
106.467
125.704
105.923
140.845
129.102
136.990
104.668
137.867
107.588
146.684
118.199
135.022
143.374
152.969
125.434
151.566
120.666
146.861
149.044
102.413
143.496
129.488
141.057
117.040
149.863
136.794
116.894
119.511
107.277
127.239
151.593
131.842
118.726
115.954
123.108
137.430
132.496
128.455
148.273
144.751
131.356
104.040
101.564
134.997
103.914
140.859
105.110
145.546
112.621
144.218
122.629
126.871
148.317
117.608
141.866
116.811
108.490
114.999
101.613
142.783
138.226
133.654
133.557
116.369
130.162
142.518
133.897
148.629
123.139
148.505
120.447
106.255
144.910
115.194
142.312
146.448
131.262
148.874
105.420
114.882
126.880
113.407
102.315
125.673
124.616
107.846
130.423
145.129
114.490
112.674
142.838
113.976
144.359
110.323
150.253
101.635
123.378
105.618
139.233
123.321
113.946
132.980
116.733
118.709
118.178
122.246
121.567
119.082
102.526
123.376
112.570
143.617
142.676
136.738
144.828
149.402
114.108
111.070
129.047
150.747
101.307
125.108
140.669
147.537
140.499
119.770
118.692
111.381
132.416
133.793
115.500
118.887
136.876
147.063
102.609
109.134
119.252
129.273
143.553
119.019
111.564
120.115
139.048
148.555
124.735
144.809
124.439
141.498
118.138
108.491
138.341
151.824
126.943
117.755
134.556
118.070
115.655
152.562
137.276
111.526
151.101
151.818
140.349
121.717
126.390
102.996
142.330
123.228
108.616
142.213
132.230
111.189
101.268
118.979
146.148
143.419
107.172
107.673
144.082
108.072
117.343
111.227
112.801
110.662
115.925
140.364
107.931
107.537
120.768
99.071
99.204
108.825
97.456
113.548
112.017
146.624
124.471
96.484
143.875
129.557
118.965
130.628
97.618
131.235
143.241
110.349
98.326
98.615
96.484
136.199
105.188
108.930
125.193
128.100
109.945
121.214
114.924
96.128
118.054
115.218
128.173
137.263
123.960
111.042
108.016
101.651
113.414
115.226
100.238
115.284
141.924
131.969
134.164
122.136
101.361
144.001
130.772
143.400
124.432
142.236
101.542
113.614
137.194
138.222
106.447
120.347
116.646
108.190
106.488
132.327
99.786
115.921
133.430
139.609
102.825
98.753
123.972
112.902
139.516
120.622
110.708
130.699
103.591
101.321
121.666
121.369
95.652
127.237
122.732
103.540
110.134
103.311
122.777
96.076
95.996
143.525
96.776
133.155
111.184
142.253
122.759
132.889
119.172
142.017
145.431
110.749
110.528
125.737
131.172
104.785
104.286
104.978
142.574
123.969
140.222
131.674
126.891
118.933
102.818
125.277
144.084
109.459
141.801
116.458
140.792
95.539
144.995
144.213
142.090
140.414
132.567
137.129
128.905
130.848
112.783
120.974
102.286
100.739
137.800
117.746
95.274
116.115
106.756
116.034
132.258
139.258
112.176
111.894
124.474
135.016
127.366
138.081
123.392
114.181
118.381
127.636
98.813
145.411
126.835
102.317
138.491
114.079
34.165
43.136
40.475
44.261
31.613
37.629
39.253
37.307
35.210
33.560
42.557
33.438
40.464
42.584
38.021
35.262
35.071
40.044
36.987
42.869
31.136
35.035
31.456
36.682
32.804
36.376
40.969
33.859
35.052
42.055
42.442
42.111
33.305
33.269
32.873
32.577
35.595
33.221
42.657
43.457
38.762
34.484
39.891
911.967
919.745
913.353
929.284
928.307
943.183
943.761
942.998
964.735
953.788
967.643
975.537
962.486
971.293
967.768
983.577
980.243
1000.874
988.540
995.673
1002.031
1009.453
1005.410
1021.006
1021.197
1034.275
1017.256
1020.257
1036.170
1023.990
1048.460
1049.962
1052.735
1042.537
1055.742
1055.676
1061.500
1069.640
1077.399
1082.926
1079.404
1074.517
1102.767
1105.752
1092.295
1116.286
1119.567
1121.985
1103.014
1113.348
1123.726
1142.806
1136.827
1141.291
1149.887
1138.306
1148.644
1157.480
1168.590
1158.010
1166.453
1159.239
1175.834
1166.130
1168.579
1197.400
1202.872
1202.964
1184.126
1196.459
1209.010
1219.242
1202.994
1232.290
1216.590
1216.349
1229.283
1233.648
1252.888
1240.047
1260.855
1265.506
1267.448
1254.700
1261.293
1270.797
1265.388
1267.628
1277.168
1298.427
1295.315
1287.474
1293.823
1315.660
1312.141
1317.144
1312.992
1328.528
1315.307
1324.141
740.279
735.451
739.401
748.995
756.070
747.337
758.958
749.122
754.795
763.056
754.003
767.519
770.867
762.363
774.676
778.651
781.955
778.398
781.927
775.765
779.476
782.544
790.488
797.893
799.104
791.385
794.601
803.183
796.534
810.062
812.220
804.932
818.217
813.248
824.100
813.639
816.613
831.203
819.653
831.215
837.373
830.636
836.570
840.835
834.070
847.811
841.725
848.327
845.831
843.270
848.305
858.033
859.041
859.130
867.901
857.854
861.550
871.163
867.473
875.263
871.589
879.815
880.949
888.252
890.404
891.819
883.588
899.032
898.824
895.330
899.484
900.699
904.290
901.862
911.554
913.205
916.585
911.959
911.926
923.029
915.591
930.983
924.316
922.459
927.667
933.340
928.772
934.046
937.427
942.426
945.814
939.277
944.753
946.743
960.431
951.485
963.023
968.414
960.822
966.836
967.760
960.093
966.450
970.966
968.007
966.914
964.832
955.150
956.838
958.716
954.674
954.218
946.249
943.809
951.280
941.318
947.234
947.904
947.946
942.241
936.874
932.732
934.588
926.305
932.927
937.774
929.612
920.186
921.867
927.038
918.572
929.242
921.068
926.111
915.603
914.480
917.327
920.625
908.780
912.200
914.735
905.999
903.851
907.820
900.825
906.339
898.742
896.709
899.962
903.785
888.867
897.459
889.233
893.806
885.208
882.263
882.671
884.418
880.259
888.841
876.051
881.336
875.373
875.759
866.357
871.362
874.154
861.650
865.182
874.522
872.529
857.325
863.210
868.104
863.398
858.188
853.065
853.710
848.240
846.895
849.708
856.450
851.030
844.920
840.545
849.150
847.246
846.167
838.560
840.677
836.483
835.208
829.269
837.611
822.639
828.690
820.838
819.469
831.671
821.822
820.087
814.493
815.861
818.653
814.471
820.232
813.739
818.836
810.723
804.891
813.003
802.029
800.691
796.923
804.745
794.606
799.169
796.665
796.341
796.408
796.018
795.318
790.043
790.057
780.967
790.430
775.559
777.564
777.058
772.009
778.009
782.487
777.427
778.727
768.859
767.185
776.211
767.693
766.252
762.427
765.951
754.477
762.656
761.823
752.952
753.547
752.585
754.446
757.923
746.421
742.357
741.847
741.849
742.402
749.242
739.952
743.983
734.026
743.801
728.725
727.144
734.592
723.771
735.323
732.922
720.808
726.821
720.561
720.324
718.717
715.124
711.405
721.388
706.330
713.125
710.137
717.189
712.626
709.909
700.399
709.293
708.549
708.806
703.658
703.334
695.497
689.658
696.663
688.685
691.109
681.157
689.742
680.815
679.447
679.183
687.555
681.979
683.507
680.681
674.210
680.884
675.680
679.762
681.581
676.684
679.782
681.036
686.500
688.864
680.548
684.445
691.263
681.707
688.196
684.298
686.382
682.460
684.798
693.934
689.029
695.605
691.227
686.665
685.355
696.932
696.830
698.177
691.669
693.558
699.726
692.974
704.886
694.146
702.510
696.861
698.611
702.198
697.035
703.681
709.230
712.078
708.854
713.659
713.615
712.184
707.785
711.573
706.683
718.781
717.279
715.413
708.425
709.649
715.904
725.954
715.265
722.977
718.876
725.850
729.872
720.481
725.999
726.491
718.750
720.966
723.220
722.733
727.566
726.164
736.754
728.866
739.874
725.298
739.167
733.839
728.066
729.892
744.310
741.976
738.140
746.115
741.017
737.740
740.282
746.902
751.381
743.145
751.894
751.413
753.580
741.349
753.267
751.221
753.424
757.874
759.457
748.888
745.676
753.234
759.678
751.153
757.317
757.715
758.002
753.950
765.439
755.104
767.354
768.178
763.156
767.652
763.598
771.716
760.444
769.324
766.723
761.596
773.187
766.043
770.897
772.408
768.321
778.159
781.320
767.983
782.604
773.413
785.099
773.273
772.664
777.952
786.078
788.616
778.203
779.822
779.262
778.306
792.219
786.523
794.500
784.151
791.824
784.778
784.208
797.613
793.482
790.301
793.767
793.135
793.909
794.488
804.452
793.556
793.375
793.362
797.869
798.529
795.047
806.578
809.149
798.708
811.305
804.194
805.486
808.340
812.679
811.128
815.816
812.059
804.830
817.697
819.844
816.375
822.525
821.479
822.599
821.612
815.224
820.627
819.058
819.040
821.983
821.820
830.153
818.719
818.517
822.038
819.962
823.741
830.394
822.382
821.628
836.383
824.360
832.446
827.726
840.482
828.098
830.603
831.411
842.197
839.523
843.293
845.583
842.102
839.274
841.142
832.768
836.984
842.644
845.773
833.865
836.545
837.320
842.440
843.551
845.901
842.586
844.296
839.632
840.384
842.461
838.408
850.149
839.292
847.660
844.884
847.438
850.975
845.187
844.451
847.615
847.091
857.781
843.657
845.276
858.928
846.996
858.911
860.204
856.796
861.971
855.231
850.737
859.638
852.121
848.751
852.739
861.867
851.562
858.847
851.511
851.558
858.837
856.544
859.934
854.083
854.060
858.495
855.823
870.517
857.770
861.945
855.906
866.273
863.184
861.035
868.292
863.039
869.319
859.090
867.512
860.930
871.748
874.817
861.337
871.476
870.684
867.881
866.146
873.706
868.175
870.943
879.295
877.233
878.381
869.980
870.094
873.210
872.809
881.557
880.571
880.643
881.767
877.041
871.283
875.309
881.749
883.716
883.810
880.425
874.803
873.595
878.239
875.030
879.998
887.933
881.852
879.644
879.427
880.639
880.189
884.133
891.151
884.029
891.182
892.729
883.546
891.680
889.073
888.924
891.922
897.099
896.916
890.104
891.968
894.547
889.039
884.837
895.260
892.935
887.039
886.220
895.389
894.075
894.556
887.284
897.464
896.270
