95.367
107.894
109.382
123.320
133.413
146.276
110.513
102.919
133.995
145.620
128.050
133.090
121.372
142.827
118.584
135.332
127.552
129.418
110.299
114.817
99.875
135.853
97.410
138.597
119.753
97.673
110.256
139.316
139.185
122.328
118.010
114.039
106.786
140.999
97.725
122.851
101.803
114.543
125.508
144.637
109.651
98.041
97.039
96.881
101.935
111.352
144.234
138.569
132.267
122.331
143.804
128.237
141.808
141.409
138.156
99.738
129.425
117.905
128.470
134.602
107.339
123.319
102.258
98.252
117.801
139.353
98.621
97.852
101.100
116.693
139.898
122.318
135.110
109.819
139.947
111.705
122.654
127.960
142.801
109.196
126.823
144.954
108.292
96.267
95.546
107.344
140.014
123.334
98.361
143.628
125.256
121.944
114.730
138.235
143.158
104.822
115.643
107.922
128.999
140.641
121.727
119.289
133.438
112.758
120.757
109.294
134.583
137.539
101.310
117.569
105.150
114.014
143.724
105.954
142.466
105.278
141.293
129.070
135.701
132.056
140.299
127.782
135.882
109.101
95.919
128.876
132.764
128.869
110.032
119.818
124.306
117.832
98.486
117.920
109.842
98.691
97.467
121.252
146.451
139.698
119.305
119.546
121.163
142.037
123.765
103.803
130.238
126.320
111.359
142.465
128.043
113.015
141.086
127.712
96.392
124.047
124.309
99.793
122.279
96.890
101.292
135.464
106.263
99.170
112.387
108.370
98.785
95.195
95.778
126.084
111.272
106.944
139.053
118.392
123.137
145.347
103.897
106.722
133.553
121.898
130.995
97.341
94.936
140.546
120.488
104.508
120.558
129.555
124.926
145.391
129.862
120.882
110.316
134.774
128.549
114.938
108.087
100.419
135.222
107.079
133.408
137.419
109.644
111.161
143.005
128.268
99.254
122.092
98.535
104.047
123.838
100.658
117.529
119.631
135.391
105.101
119.493
117.605
97.750
98.757
99.670
140.708
135.610
109.662
98.685
134.338
139.686
115.286
112.538
110.256
123.643
132.382
122.816
105.855
107.522
118.847
100.818
96.971
98.805
107.042
99.130
109.724
141.946
106.455
100.420
112.544
144.803
112.879
141.651
143.947
105.633
110.483
113.414
116.555
120.654
141.406
101.076
104.234
117.789
118.039
136.386
108.944
115.918
115.466
110.071
144.245
131.488
119.834
129.424
101.887
127.571
114.420
100.583
99.515
102.499
121.828
127.172
145.884
94.947
105.080
110.913
108.104
123.314
113.258
102.950
114.490
143.047
142.716
114.338
123.160
105.065
97.635
144.027
104.135
129.650
94.877
134.249
117.577
134.097
111.438
119.805
134.294
104.550
99.564
96.805
96.436
141.947
133.585
124.427
103.829
136.582
116.817
102.571
100.593
138.091
114.105
133.463
144.767
138.179
97.002
142.695
137.762
134.098
130.615
103.910
122.953
113.232
101.426
101.788
96.150
131.022
122.996
135.343
143.006
95.360
96.335
142.749
117.922
116.001
142.596
119.590
123.447
95.645
135.258
102.106
132.116
130.479
141.865
144.923
107.329
136.603
125.404
122.426
144.000
142.073
127.421
118.131
116.604
141.623
129.994
97.786
131.706
102.353
102.029
100.981
129.525
106.667
141.596
124.925
105.792
143.995
115.947
96.381
109.795
124.257
109.052
106.590
142.396
129.747
129.719
115.274
113.021
107.020
144.938
144.980
129.984
98.919
132.329
114.877
133.761
95.166
133.224
132.606
142.675
108.033
125.126
126.277
144.806
142.286
144.737
112.744
129.328
140.658
112.994
98.408
146.674
95.833
129.832
96.043
145.863
134.377
99.662
140.822
112.742
124.582
143.770
133.423
135.795
145.090
142.821
131.533
110.562
128.571
126.013
118.233
119.066
123.384
123.121
111.656
126.082
98.965
99.226
144.389
107.845
104.628
100.900
121.535
127.924
97.088
137.918
105.590
107.104
137.423
115.648
102.962
125.954
128.831
139.500
145.490
114.351
125.688
107.411
95.665
143.566
121.007
134.273
112.193
124.316
113.372
113.448
133.892
144.190
103.724
96.355
136.413
96.204
135.121
125.206
118.031
128.178
115.861
138.155
99.640
118.414
121.056
138.973
114.475
113.473
133.146
124.211
121.755
97.490
128.442
124.630
142.206
116.871
107.859
127.599
116.832
129.785
127.993
129.725
96.678
121.277
115.806
105.610
140.564
113.708
95.852
110.778
119.348
123.182
130.901
108.728
141.316
132.628
105.162
141.498
135.985
132.625
112.601
131.340
138.184
121.252
133.557
144.098
109.170
126.368
143.830
111.366
97.869
144.979
116.147
145.008
117.020
104.286
115.244
136.351
142.323
130.253
106.838
98.426
135.229
146.346
132.380
123.352
137.848
95.994
142.138
131.221
97.200
120.011
112.992
133.031
135.583
111.255
120.005
128.728
113.367
139.452
125.781
127.107
141.135
124.902
97.860
125.877
134.645
112.777
132.451
124.600
133.441
115.277
111.407
125.647
120.469
113.601
102.579
138.830
110.561
117.963
117.201
95.343
109.259
99.206
122.787
107.753
142.256
102.174
120.456
142.256
127.855
126.668
140.620
119.887
110.835
101.262
125.440
125.285
99.921
103.674
108.312
109.912
114.950
136.060
97.702
115.378
96.541
109.208
127.050
137.180
99.184
127.395
131.355
144.079
145.074
135.924
124.664
108.216
124.494
123.644
101.611
133.595
131.087
102.576
96.425
120.262
143.187
126.971
129.956
144.503
138.916
97.781
118.112
134.155
101.725
96.831
123.596
144.625
101.086
136.763
111.451
94.797
121.873
120.777
113.998
127.534
138.822
95.796
113.145
133.203
119.508
101.737
107.761
126.038
97.021
140.879
99.231
106.369
121.616
127.268
103.517
106.618
135.215
134.243
120.234
125.186
138.721
102.595
113.402
132.482
122.294
112.169
132.670
134.924
127.979
141.055
107.764
144.353
138.518
114.139
140.764
120.167
116.175
110.619
139.007
109.256
145.503
109.277
119.053
120.579
98.743
95.021
140.247
106.156
112.029
109.236
112.476
101.917
118.969
125.948
95.563
111.830
121.095
136.202
117.841
141.967
126.796
142.511
142.615
137.847
97.621
119.432
132.103
144.565
129.479
106.483
131.249
98.197
98.683
141.394
133.930
146.289
94.821
112.284
100.941
145.462
129.512
120.322
129.180
138.551
97.389
145.682
134.157
94.913
139.484
130.190
96.208
116.700
109.193
125.895
130.200
134.503
99.920
108.020
112.915
134.337
95.857
130.644
111.998
144.539
129.129
116.878
140.139
126.745
122.202
131.368
125.059
126.128
120.645
136.215
135.741
114.927
130.242
116.749
142.278
95.280
145.599
126.873
97.345
133.353
107.918
136.635
102.064
95.414
97.091
122.724
124.058
146.033
120.178
115.638
128.676
107.972
103.588
125.860
119.949
140.015
115.330
137.898
104.546
99.720
133.146
109.869
142.058
133.998
124.770
146.184
132.741
95.472
140.918
96.612
109.585
131.473
120.133
113.722
117.674
113.020
102.336
105.502
101.910
109.202
98.407
128.624
104.634
146.134
114.548
118.339
143.105
98.578
138.719
136.551
145.668
129.671
98.781
99.019
144.226
136.761
100.912
143.949
120.859
144.907
143.350
143.971
109.151
107.720
140.001
95.880
111.835
101.905
126.400
110.190
124.841
96.042
144.228
135.305
131.958
112.898
141.315
101.218
133.760
136.516
97.157
96.319
102.916
131.623
110.046
103.503
113.391
141.543
126.502
135.244
138.236
136.016
142.359
127.387
94.948
124.024
101.867
98.562
144.304
140.040
96.377
113.264
126.288
131.893
123.658
132.175
121.150
141.664
140.279
114.722
112.534
130.024
101.406
140.109
137.255
112.761
125.059
125.136
131.151
128.565
127.185
116.335
112.223
98.761
134.617
122.085
144.894
97.307
107.266
129.236
127.976
134.873
145.926
141.767
115.546
131.366
120.354
106.509
98.850
118.556
122.220
138.856
127.527
119.302
115.443
120.668
99.314
105.585
140.377
125.249
126.142
140.503
142.895
125.111
118.015
100.620
134.125
132.176
111.187
128.127
101.904
146.705
146.174
97.755
137.268
132.346
105.422
119.066
110.778
144.659
119.530
112.128
106.271
100.232
135.225
142.026
127.754
105.238
146.390
134.318
105.695
108.199
126.439
107.233
109.497
139.561
110.574
144.414
105.916
133.130
103.199
107.974
133.872
119.596
120.829
110.659
139.618
100.129
131.507
118.909
120.777
128.731
96.081
127.807
107.442
122.784
131.136
105.672
114.717
137.879
125.989
105.626
112.557
108.223
128.406
123.195
131.058
143.796
116.806
103.299
109.784
128.721
116.329
120.808
132.244
128.320
113.385
115.273
94.889
105.879
95.957
34.313
41.918
40.422
29.259
35.908
32.817
359.855
365.964
350.407
370.696
370.540
372.928
373.944
390.910
370.183
388.843
390.197
381.606
385.807
405.189
390.282
411.430
395.815
404.841
423.348
428.592
419.723
432.434
416.173
422.891
429.354
444.063
447.003
459.057
463.513
453.562
444.170
451.318
460.001
480.924
475.507
479.961
476.834
469.509
499.628
477.844
481.677
510.487
500.121
511.167
502.767
500.341
500.641
526.418
525.617
515.886
535.741
531.156
541.410
542.702
533.528
545.002
540.868
555.767
554.092
562.701
568.640
567.454
583.485
588.185
576.425
594.854
598.158
583.995
604.769
602.153
591.523
599.315
620.030
607.981
612.619
621.171
628.027
636.868
613.606
623.101
648.179
645.058
650.441
639.615
642.854
645.379
667.686
645.349
662.991
673.768
663.446
672.757
679.695
674.269
671.712
684.827
697.197
696.664
694.942
709.269
384.365
398.789
400.123
397.783
399.130
394.644
411.305
407.151
406.500
409.200
415.012
414.794
408.830
411.334
412.529
427.621
427.025
420.712
421.739
429.711
437.710
431.322
437.561
441.431
437.060
441.783
435.410
442.043
446.446
443.780
457.721
446.357
458.067
456.391
457.623
462.287
454.927
456.701
471.489
475.221
468.830
478.239
472.003
468.781
473.359
472.889
487.668
477.474
490.609
494.103
488.941
492.170
498.928
504.070
494.115
497.123
496.699
496.055
500.325
515.199
510.172
518.079
516.858
517.108
511.681
511.771
523.108
519.757
525.403
521.706
530.181
537.544
533.836
531.941
540.614
539.797
540.305
548.013
538.694
539.504
552.351
554.244
558.140
555.936
556.668
558.528
565.504
556.422
570.352
569.952
568.809
570.480
573.084
574.885
577.057
582.970
580.992
589.729
583.769
593.070
594.872
595.704
588.005
597.307
593.006
595.235
592.982
602.094
594.270
594.496
604.756
593.237
595.393
603.769
598.111
608.402
606.990
613.154
599.416
615.231
612.379
610.331
613.999
605.854
606.144
610.799
611.224
609.188
623.947
621.450
616.328
619.106
625.140
616.061
623.285
617.988
620.571
631.790
630.759
622.667
631.211
621.590
622.185
634.534
635.080
635.068
639.178
641.157
628.490
631.670
631.876
635.417
642.281
643.156
638.214
641.521
650.210
649.481
642.797
652.373
641.758
647.132
643.268
652.641
653.294
658.689
653.380
648.327
662.403
663.179
661.023
658.936
654.168
665.627
667.158
657.154
669.656
656.996
671.570
666.534
664.458
663.366
661.695
664.046
663.995
666.092
675.518
679.245
673.405
679.156
677.664
677.481
672.622
685.897
682.021
683.585
688.388
689.729
681.021
680.770
681.964
683.768
696.829
683.742
694.834
692.548
691.450
701.468
694.394
695.211
697.863
698.382
697.472
700.000
702.204
696.237
704.333
698.793
712.335
702.873
701.526
712.654
709.917
714.933
703.759
716.172
718.491
713.712
717.319
719.545
720.489
712.372
720.387
726.236
725.611
714.960
727.747
719.219
719.236
721.606
730.652
725.076
736.342
727.864
737.867
736.439
727.159
728.964
726.914
730.231
744.320
737.851
735.515
739.649
736.914
748.871
738.199
744.089
750.638
743.300
741.686
744.826
754.465
749.520
745.106
749.654
747.996
759.564
762.129
755.496
763.892
753.812
751.299
766.312
758.035
757.955
758.332
757.757
766.781
762.213
763.378
764.928
760.339
775.157
772.110
767.410
767.484
768.874
774.341
769.897
779.140
769.181
785.848
780.785
781.256
784.661
780.447
788.383
776.246
786.908
792.397
787.229
786.259
785.040
779.473
787.186
785.397
789.244
780.817
785.709
776.371
783.878
783.266
777.492
776.300
776.895
785.928
780.749
776.391
781.590
781.233
788.637
787.971
780.163
783.993
785.580
786.294
784.990
774.678
785.138
778.834
773.706
778.324
788.296
784.840
781.705
775.808
775.235
777.787
784.450
777.118
773.536
773.170
772.801
772.760
784.766
776.179
778.662
784.374
771.299
780.558
782.367
780.403
782.527
783.991
780.551
770.279
773.615
769.787
770.520
771.078
770.596
772.177
772.655
769.158
780.927
779.141
777.589
777.770
768.842
770.967
767.861
780.156
767.139
769.792
776.862
773.727
768.742
775.301
767.176
769.742
777.450
768.039
774.664
764.253
770.349
770.545
764.801
774.391
769.458
767.292
775.490
766.661
775.772
767.384
775.649
774.381
767.467
767.171
775.352
769.922
762.312
767.169
773.155
767.522
769.733
773.059
761.046
763.165
761.240
772.306
773.693
772.772
761.436
762.588
764.375
760.427
773.247
763.461
766.417
771.121
767.526
761.025
766.014
763.348
763.361
758.077
761.584
756.790
760.341
769.907
771.592
771.431
764.082
763.555
766.878
766.333
758.881
764.737
770.659
764.311
763.138
757.038
756.604
764.765
762.072
761.047
761.654
762.256
769.062
768.758
759.599
753.912
758.957
756.243
760.153
767.628
752.928
757.530
754.585
756.535
751.483
753.301
761.497
758.578
757.540
760.901
758.310
756.018
764.696
762.138
751.558
763.551
755.387
758.386
752.816
751.558
753.602
761.947
748.704
753.389
758.520
759.293
755.448
758.046
749.366
759.767
750.654
752.076
756.941
755.661
754.505
752.403
760.786
759.067
746.002
747.956
750.533
746.484
750.745
750.985
759.199
753.842
752.767
760.379
754.676
762.448
771.267
774.835
762.864
764.080
775.809
781.506
779.667
770.640
785.844
785.686
789.568
788.162
791.825
783.161
794.967
797.457
794.606
802.144
795.477
797.402
800.899
805.724
807.927
804.380
802.704
805.631
815.335
809.863
808.495
816.899
812.347
821.399
825.688
818.771
830.632
831.113
823.664
826.316
827.429
828.781
835.280
846.618
841.271
838.423
847.826
846.623
843.231
844.852
850.641
859.976
853.788
852.491
864.853
867.041
858.081
857.488
858.361
870.511
873.358
872.322
871.576
877.015
880.654
883.214
883.415
875.801
886.422
879.079
888.017
894.989
897.643
900.021
889.940
901.497
898.539
901.510
908.866
904.759
898.532
905.510
915.790
909.657
914.259
909.625
919.365
915.800
918.977
918.899
923.725
927.994
927.917
930.724
926.881
939.888
940.546
939.167
939.539
936.497
946.439
945.427
939.272
944.920
950.541
952.933
953.662
960.855
955.397
956.665
957.034
965.291
958.414
962.170
969.172
964.409
965.859
979.885
978.430
975.711
979.458
974.827
984.806
984.684
990.865
991.354
985.135
988.828
997.291
987.358
1001.505
1000.512
1006.722
998.693
1006.348
998.721
998.822
1007.475
1016.946
1017.477
1020.790
1014.426
1020.765
1023.266
1019.084
1029.398
1021.166
1020.367
1021.464
1032.631
1027.743
1038.048
1028.237
1029.356
1039.543
1040.985
1038.700
1050.803
1046.699
1049.871
1056.690
1043.720
1059.927
1057.067
1064.572
1060.719
1052.564
1061.204
1066.279
1071.089
1065.178
1064.591
1072.077
1079.497
1078.045
1081.139
1083.887
1076.554
1085.899
1085.727
1083.477
1089.311
1085.172
1085.999
1096.821
1091.867
1099.527
1092.536
1100.230
1106.665
1103.977
1100.000
1107.953
1105.876
1103.808
1105.101
1103.237
1115.420
1112.921
1109.018
1095.557
1100.692
1091.750
1102.290
1100.022
1088.435
1086.246
1085.272
1089.438
1080.351
1085.856
1086.372
1073.269
1073.633
1069.437
1082.861
1073.008
1076.741
1075.178
1065.912
1067.301
1068.747
1066.059
1055.803
1063.019
1051.597
1051.816
1059.096
1052.020
1046.404
1054.586
1044.896
1035.866
1036.907
1047.574
1043.830
1038.661
1041.303
1029.924
1038.086
1025.244
1024.417
1029.233
1027.945
1020.374
1025.634
1013.852
1013.050
1013.828
1015.621
1018.140
1000.976
1009.125
1008.372
1009.956
997.528
1003.522
1004.519
1000.584
993.893
999.172
993.974
988.503
978.447
983.067
984.799
975.935
980.629
983.549
969.942
972.538
975.489
961.905
973.416
967.356
963.662
957.063
958.823
951.168
961.692
954.737
947.420
958.103
948.539
939.826
938.380
942.764
948.387
931.772
934.214
928.125
937.652
931.071
922.800
936.476
920.345
925.833
917.212
916.106
925.419
913.009
920.139
914.279
906.376
905.631
911.587
909.663
898.133
902.708
899.556
906.317
895.369
901.662
888.561
896.640
892.839
891.472
887.373
878.462
882.757
887.673
872.407
878.906
880.138
866.113
864.844
865.033
872.901
869.297
864.957
855.541
859.034
859.176
848.581
857.983
852.449
845.410
855.756
839.681
848.412
841.810
837.309
837.091
837.091
828.144
835.322
831.364
831.449
830.747
823.668
823.710
824.915
817.412
826.108
816.916
815.469
816.991
810.755
805.634
809.146
800.416
797.077
794.299
805.864
792.208
801.377
794.269
795.704
794.227
790.675
789.272
785.789
784.572
779.974
787.863
784.616
777.024
775.544
771.617
766.458
763.793
765.148
759.459
768.959
757.226
766.450
756.255
757.036
746.341
748.805
748.664
740.505
748.617
749.400
735.826
733.424
741.016
739.732
