45.153
43.219
41.192
38.237
43.831
35.583
35.801
35.899
30.972
29.215
33.730
43.533
38.576
40.008
34.335
44.785
31.541
29.381
36.307
41.287
32.980
44.297
35.693
42.772
43.430
1313.081
1291.779
1294.696
1305.511
1308.635
1313.359
1292.761
1296.582
1290.705
1306.104
1302.718
1290.946
1313.764
1291.295
1309.214
1308.772
1305.485
1297.571
1295.928
1285.191
1289.110
1310.890
1284.651
1283.344
1284.719
1285.180
1298.911
1283.177
1308.456
1289.204
1283.150
1292.370
1284.268
1295.530
1281.175
1294.188
1305.189
1283.315
1281.356
1305.917
1299.026
1289.921
1288.316
1285.372
1301.985
1288.894
1289.985
1290.107
1297.977
1302.416
1298.426
1286.440
1290.648
1297.897
1284.131
1300.475
1288.545
1299.771
1297.963
1290.933
1280.254
1300.617
1293.669
1297.011
1293.685
1293.437
1291.458
1300.831
1280.377
1285.152
1290.379
1284.581
1283.342
1283.234
1297.755
1281.216
1300.151
1294.210
1274.389
1280.014
1281.929
1289.597
1280.655
1290.003
1284.152
1287.773
1278.917
1273.450
1294.321
1282.375
1286.737
1291.197
1278.454
1282.205
1282.587
1278.322
1293.159
1285.759
1268.803
1274.046
712.542
711.013
705.432
713.164
718.260
707.680
716.211
705.041
719.502
705.355
706.971
712.249
717.234
714.393
714.435
716.315
714.028
705.465
707.472
716.889
713.561
705.381
707.414
702.591
714.147
707.839
704.710
713.109
717.475
708.956
710.522
709.533
705.192
702.126
713.008
714.810
715.650
708.246
709.104
701.036
708.844
712.097
702.780
703.462
706.751
705.313
708.460
708.137
701.446
709.956
702.323
709.737
704.214
702.877
703.173
705.737
707.676
709.399
706.166
701.536
707.506
698.703
710.256
700.761
705.363
698.705
703.957
704.525
710.094
700.026
697.281
710.732
711.780
701.631
703.851
705.045
712.400
710.357
705.063
707.081
703.653
696.785
707.499
707.197
703.278
697.140
709.127
707.750
701.795
710.350
705.297
710.286
708.847
700.186
708.875
695.284
705.373
709.612
695.533
705.340
705.938
702.897
696.027
704.725
695.940
693.771
704.421
705.211
708.781
708.135
696.494
696.202
700.870
704.977
704.981
695.331
699.882
694.494
699.306
695.350
699.971
702.491
700.626
699.865
703.487
699.371
694.939
697.171
695.436
706.504
705.405
700.340
691.379
696.097
697.666
701.917
690.335
691.194
699.279
701.934
699.820
702.584
700.441
694.937
697.089
700.675
696.872
695.380
694.127
701.413
699.691
698.328
688.962
700.507
693.574
690.666
692.737
699.477
689.814
689.674
698.952
703.041
689.982
689.820
702.208
700.050
697.278
688.648
694.518
701.128
695.200
694.276
696.575
699.404
689.414
698.144
686.754
694.078
687.369
701.066
686.513
696.608
698.351
693.539
690.909
693.971
697.559
700.516
693.397
692.575
700.951
693.277
687.543
698.511
693.501
687.421
685.153
693.690
696.662
690.935
693.550
697.963
695.421
696.572
695.991
687.719
686.419
697.207
688.004
694.007
688.436
693.391
698.719
694.011
695.420
690.312
689.499
688.378
689.676
691.644
694.453
687.558
691.722
696.466
682.463
686.716
681.580
696.323
683.269
695.497
681.802
688.501
686.626
681.221
685.052
683.715
682.070
682.789
688.027
681.737
686.918
690.514
695.524
689.642
679.984
681.032
691.729
685.546
687.533
693.838
691.133
679.551
679.178
687.817
686.152
690.855
691.083
680.019
690.233
692.830
692.785
686.020
688.800
681.211
681.337
680.655
679.589
685.485
679.195
683.604
692.003
682.609
688.495
686.531
687.387
691.789
681.049
683.043
689.561
681.278
681.414
676.627
689.528
684.507
679.535
675.832
691.260
684.699
686.004
675.429
687.050
677.032
689.035
690.680
683.846
683.812
689.716
687.651
688.419
686.675
679.733
677.705
689.785
679.299
693.427
689.920
679.664
688.309
685.452
684.403
687.837
686.841
685.442
689.492
687.270
696.787
703.536
698.686
692.865
706.921
702.366
694.490
705.915
699.665
706.154
701.184
702.534
699.587
712.882
707.810
706.597
713.212
704.139
704.562
714.291
713.186
707.474
711.795
718.126
710.083
712.127
720.693
720.040
715.651
721.340
721.428
727.654
722.615
719.366
722.217
728.287
721.442
724.318
721.818
723.870
731.612
728.382
728.027
735.698
727.878
728.646
729.297
735.353
735.195
740.908
746.130
736.712
738.539
749.872
743.641
750.495
753.030
748.900
752.009
740.531
752.758
756.973
744.863
749.243
754.753
746.818
748.223
753.425
757.314
757.692
757.589
756.582
752.100
757.517
769.349
765.798
765.380
766.478
761.394
763.193
773.972
770.309
771.263
767.504
768.354
769.823
773.675
778.243
770.484
777.708
783.032
773.771
775.135
773.838
773.265
774.584
783.704
786.333
776.343
786.491
791.231
788.728
791.484
785.540
786.242
793.516
790.188
783.356
799.498
790.500
787.620
798.162
790.285
789.770
803.512
803.681
801.674
806.376
799.967
802.610
803.420
809.606
803.991
809.284
806.261
808.456
808.032
801.285
801.691
812.858
812.774
813.359
809.852
810.213
813.603
814.702
819.281
811.688
826.026
821.366
816.619
822.590
818.111
817.209
828.368
820.515
819.191
820.960
825.703
825.960
835.208
827.768
838.603
835.667
836.622
838.766
837.040
837.565
842.255
838.775
831.254
834.938
836.199
832.914
846.303
843.500
845.944
843.749
842.111
851.277
840.302
841.269
851.949
845.938
850.471
851.424
850.814
858.763
849.583
849.257
856.936
858.129
852.356
853.892
859.920
859.770
854.357
860.480
854.503
859.855
855.846
860.209
854.600
852.380
857.375
852.152
855.707
862.132
848.880
857.224
859.808
861.129
848.915
854.913
853.126
855.237
851.112
848.428
858.193
845.178
851.199
855.514
848.096
844.650
857.613
850.962
856.699
850.668
842.955
844.055
852.624
846.359
850.708
852.042
842.561
853.599
840.782
842.189
840.980
851.290
844.593
847.108
845.671
852.787
845.828
846.047
841.299
838.466
850.762
844.903
843.966
848.700
843.525
849.717
834.333
849.262
842.851
832.925
843.355
833.139
833.088
844.414
840.716
831.792
841.473
836.371
833.235
842.802
838.879
844.228
842.665
838.496
839.957
843.698
828.242
837.103
834.011
841.264
834.087
840.163
838.339
827.354
833.509
837.696
836.525
835.124
838.089
824.883
833.081
838.327
828.342
836.083
834.902
823.744
828.010
823.788
826.524
835.584
826.100
824.142
828.384
832.522
823.916
831.563
822.104
828.572
821.671
828.013
825.085
827.937
823.128
831.418
820.757
830.633
815.054
819.712
829.318
824.107
822.754
815.606
826.913
819.355
827.434
827.908
824.439
813.171
824.147
814.852
812.170
817.643
811.265
817.932
817.129
821.694
823.838
820.144
812.301
811.314
819.282
808.041
821.722
820.740
814.660
814.700
809.827
820.941
811.784
817.234
817.749
811.981
812.717
810.242
804.483
817.313
817.265
804.727
803.841
807.609
801.221
806.695
804.182
809.974
809.231
805.097
814.674
812.619
811.566
803.581
808.966
802.341
800.111
798.253
811.850
809.752
800.354
800.502
797.521
808.460
797.033
803.721
801.423
795.963
804.873
798.435
802.679
807.663
801.405
806.685
803.271
801.293
794.357
802.871
791.578
791.066
791.837
804.457
791.126
791.741
800.014
790.377
797.357
794.038
798.700
793.022
796.521
784.872
795.967
786.060
797.034
786.742
791.949
792.347
782.816
793.207
781.169
790.468
779.309
783.860
788.743
792.450
782.552
775.540
780.744
781.936
780.927
788.213
780.622
774.709
780.603
774.243
784.364
772.894
784.562
773.705
780.910
776.691
778.874
771.278
777.408
774.847
779.617
771.095
768.755
765.902
776.781
763.174
761.920
771.804
772.768
763.124
768.146
764.248
773.590
764.629
757.683
762.194
762.722
767.472
767.149
756.826
760.367
768.592
765.281
761.508
761.636
761.925
753.528
750.511
764.658
756.749
761.426
753.407
758.020
748.155
753.313
758.566
755.190
750.640
749.840
752.608
750.119
744.814
747.204
742.774
746.120
748.072
755.635
748.812
743.178
739.539
751.892
744.909
740.554
747.847
740.938
746.536
743.635
737.374
735.428
740.330
736.454
738.861
744.515
745.070
745.896
734.918
729.152
741.435
736.836
728.047
729.351
730.479
738.647
736.381
736.847
736.845
724.728
735.594
729.485
735.725
725.425
733.594
728.819
727.544
731.204
722.236
726.139
725.903
720.788
716.446
720.512
720.718
721.006
719.695
726.023
713.189
722.281
722.268
717.468
722.326
711.784
717.009
725.100
712.683
714.171
712.634
720.255
708.939
717.715
712.328
711.581
718.654
710.488
718.132
716.473
710.418
710.885
704.071
708.067
700.900
705.550
711.207
708.866
712.952
699.929
699.647
708.584
702.141
709.579
709.805
696.004
708.719
697.216
694.455
702.424
701.156
695.566
697.411
692.819
693.601
691.532
689.834
689.758
689.009
698.081
693.141
693.168
686.869
697.470
694.084
694.066
695.324
694.157
693.731
683.732
689.352
689.311
695.103
691.621
691.755
698.640
692.534
686.742
689.739
699.253
700.502
692.769
699.088
695.623
707.530
696.598
695.296
707.219
709.358
696.479
703.523
700.698
706.286
706.467
702.294
705.773
717.707
712.653
713.357
713.038
717.617
716.578
716.076
724.106
721.585
712.272
716.855
727.359
722.651
727.985
719.511
716.965
720.939
725.129
726.896
731.188
732.197
731.625
725.878
727.258
724.477
737.867
733.848
734.327
728.082
729.896
734.996
738.133
735.635
744.311
736.172
738.827
740.988
742.160
743.755
746.466
751.372
743.725
748.203
753.124
743.175
747.386
744.730
753.425
756.905
752.336
755.769
754.018
748.496
748.613
753.027
760.582
752.411
753.494
762.934
768.159
764.313
763.002
764.409
771.435
757.442
761.393
764.057
772.714
774.913
769.795
777.452
776.792
777.889
779.107
767.009
781.640
778.348
769.465
777.526
777.083
783.749
773.519
779.761
776.782
782.091
787.520
790.630
784.781
792.077
786.739
788.151
779.921
791.288
787.964
784.474
791.974
796.655
786.954
786.227
799.553
801.120
791.663
803.300
798.720
790.978
800.833
795.167
803.284
806.924
795.053
798.494
799.572
805.922
810.737
807.044
807.767
812.405
808.267
811.052
818.114
806.450
813.587
815.157
812.988
811.891
814.763
818.122
822.446
812.216
812.425
822.879
819.738
825.465
824.522
821.783
827.155
824.610
830.553
827.792
827.213
827.790
832.573
824.878
825.734
835.150
839.767
829.715
832.810
840.120
844.721
832.142
845.601
844.660
845.290
845.435
849.552
836.927
848.990
837.042
840.997
852.270
841.637
852.554
856.459
851.582
843.671
845.456
846.402
860.777
848.014
851.750
863.264
864.213
857.950
851.098
856.376
860.365
848.683
852.994
852.605
844.790
848.643
850.173
845.541
850.041
838.712
843.230
843.998
843.296
844.439
842.766
826.837
831.455
835.261
824.236
826.003
820.030
825.880
831.244
822.372
823.429
813.487
825.933
819.669
818.798
817.180
805.162
814.558
810.201
814.909
811.191
798.668
799.635
803.587
796.090
801.071
804.395
798.629
788.582
791.154
788.571
794.209
792.788
788.159
791.946
790.280
781.204
776.260
774.073
778.485
783.950
781.245
775.661
771.297
764.185
771.235
773.447
771.179
758.769
766.009
763.131
769.318
764.342
758.212
757.021
757.025
760.877
746.296
746.548
752.436
745.973
745.215
742.643
751.897
751.174
748.273
746.185
735.300
733.782
738.422
740.992
728.529
738.921
738.046
729.934
722.072
720.726
729.400
724.272
720.360
717.862
714.492
718.619
712.119
714.730
710.685
717.962
718.060
702.910
703.091
704.636
703.290
710.136
708.016
698.653
695.592
691.916
696.367
691.846
685.124
691.640
687.070
683.347
689.161
682.682
682.517
689.874
677.529
685.913
671.761
682.503
676.237
672.346
677.248
666.107
672.781
666.770
667.726
671.100
661.033
655.934
666.648
656.827
661.152
650.146
662.038
656.263
647.948
654.021
645.519
646.801
645.954
648.080
642.222
648.314
642.793
633.114
633.775
630.172
632.284
640.106
625.007
638.454
626.550
621.914
623.502
629.194
624.200
624.236
613.287
617.619
619.666
617.602
611.236
618.258
607.383
615.537
606.013
615.855
606.777
611.517
598.828
602.923
607.864
604.351
602.911
596.876
595.502
588.159
591.579
585.585
594.110
583.412
586.930
588.732
587.128
587.052
581.402
581.659
570.161
571.747
574.958
578.772
570.033
576.952
574.300
568.807
565.065
573.887
578.934
569.678
571.479
570.836
579.686
574.124
580.254
573.833
576.049
580.282
579.060
575.447
580.280
572.558
568.329
573.787
572.482
572.590
572.741
569.892
570.052
577.830
570.966
575.767
569.136
569.608
572.955
580.678
579.391
571.859
572.114
574.916
583.550
573.847
581.102
580.389
576.558
581.108
569.162
568.905
579.063
573.335
577.212
578.159
573.638
580.991
575.902
584.039
582.615
573.038
577.340
578.649
585.190
584.584
578.009
580.285
576.684
585.740
579.759
583.717
581.544
573.709
578.145
572.797
578.477
583.475
575.499
577.907
584.141
586.976
587.753
577.528
579.557
583.978
581.755
574.452
584.909
582.785
585.238
580.521
582.863
589.629
588.958
581.891
579.778
574.648
580.709
583.148
586.009
578.281
579.314
580.487
578.928
590.501
578.237
589.507
577.441
583.527
578.299
583.736
580.739
579.809
577.346
592.384
585.055
589.768
586.582
590.298
591.996
582.569
593.407
591.489
587.994
578.341
580.766
588.114
582.915
582.026
579.085
589.134
584.075
580.430
589.342
579.832
592.129
587.945
587.396
585.445
583.411
593.836
595.517
588.964
585.385
592.267
590.928
584.460
585.374
585.029
592.187
592.985
586.852
585.680
584.117
590.194
583.572
583.554
583.921
595.660
585.411
585.288
588.839
596.245
597.567
598.041
589.280
592.114
594.445
585.398
595.703
589.259
598.126
587.689
599.318
596.415
599.579
590.005
592.848
587.613
589.652
598.701
591.065
598.692
595.274
599.429
596.414
586.275
591.400
599.509
589.862
598.191
600.796
596.233
595.060
591.279
602.459
599.576
599.486
591.568
594.670
587.944
590.500
591.336
590.248
591.200
589.026
591.559
593.348
586.630
595.967
594.425
589.558
583.527
581.033
572.440
583.880
570.240
567.878
566.214
560.971
565.819
571.465
555.557
563.952
560.701
548.854
560.351
546.561
544.299
541.345
548.871
541.084
537.410
532.442
532.230
529.352
537.151
527.156
530.421
532.383
519.358
514.745
514.604
520.885
511.394
514.613
506.613
517.643
513.753
503.626
499.432
500.067
502.566
494.825
495.657
497.703
498.377
496.486
488.581
487.788
477.519
484.015
471.425
469.543
473.396
467.306
467.977
464.212
459.763
461.288
467.437
455.551
463.937
453.594
459.915
457.014
453.411
450.541
441.779
444.820
438.648
445.779
435.049
436.523
435.362
428.381
425.639
423.229
419.694
428.096
424.600
413.540
409.233
420.635
403.534
412.047
407.333
412.741
395.443
401.630
397.143
404.091
400.008
387.455
391.407
386.961
382.480
385.190
378.987
380.186
378.326
373.020
372.467
376.630
367.022
360.039
359.311
368.022
355.678
356.818
358.097
354.974
347.377
357.323
350.128
351.027
344.822
347.096
341.976
341.289
338.532
332.081
330.828
334.834
333.314
321.481
319.298
328.567
311.356
320.433
313.466
319.649
312.003
315.710
304.830
302.255
301.372
296.841
304.961
302.051
295.054
284.951
286.889
282.278
284.331
289.689
286.895
275.982
278.463
279.968
276.393
274.696
261.388
263.176
269.611
257.130
257.948
261.211
257.086
250.782
252.996
250.916
240.432
239.213
245.825
240.070
235.232
229.376
232.259
227.372
229.945
225.448
232.836
220.487
218.794
216.531
223.710
218.410
216.120
205.293
212.029
205.843
206.058
203.087
202.217
199.341
190.873
194.923
188.530
187.410
186.432
190.336
191.309
174.936
185.797
180.749
175.152
179.156
174.280
166.476
180.243
167.681
164.903
167.257
167.217
164.689
167.054
169.791
168.653
164.208
165.342
161.357
161.159
172.633
168.015
164.063
162.082
170.836
168.409
165.912
170.467
168.630
170.225
167.313
161.795
161.699
162.294
165.957
160.805
160.193
165.190
158.371
151.173
162.985
155.748
150.265
159.211
151.636
150.910
150.047
148.593
150.181
154.639
156.708
156.080
157.807
150.181
153.356
150.733
146.086
144.739
144.167
149.185
146.175
144.579
142.096
147.543
137.644
150.694
147.113
146.196
140.739
135.835
134.946
143.723
146.967
133.026
144.997
133.409
136.172
139.300
134.855
130.685
134.922
133.223
129.581
128.037
134.908
139.064
135.907
137.693
133.851
126.075
127.348
129.249
121.205
126.421
132.623
126.883
120.867
120.927
126.546
398.480
401.370
395.157
427.037
415.629
420.182
421.070
394.778
414.102
394.887
374.413
408.921
368.306
396.643
406.086
370.293
381.534
360.291
390.543
400.418
389.984
384.284
363.729
348.282
351.152
342.161
378.853
336.644
353.218
367.888
376.348
340.901
361.791
339.070
374.522
356.620
365.390
340.860
334.438
345.432
349.534
314.350
330.532
354.024
328.135
306.903
323.094
310.802
323.994
298.884
328.735
323.954
335.026
326.717
335.670
288.144
320.284
301.131
329.068
324.133
291.661
314.987
315.081
274.435
323.110
297.613
277.699
312.374
272.151
301.169
273.356
302.110
285.887
260.969
270.465
299.166
260.688
249.697
261.760
