124.170
101.218
115.122
111.658
111.296
98.911
92.500
96.523
101.095
107.606
117.841
104.205
91.651
109.828
128.982
114.568
129.729
90.477
127.184
120.214
126.857
123.434
123.888
89.619
124.851
112.212
120.092
93.386
84.939
94.886
126.842
85.339
102.795
128.050
101.313
110.279
109.685
129.476
88.062
104.725
87.565
87.239
89.578
122.919
114.868
110.092
103.034
102.460
91.736
84.389
113.437
104.558
100.828
128.998
98.338
98.084
91.181
106.380
101.150
95.268
101.342
107.879
126.566
91.564
101.614
106.710
125.306
104.773
124.624
127.836
115.661
111.377
105.545
89.631
92.081
113.886
121.107
99.092
122.122
93.590
87.280
118.097
99.005
121.877
110.040
114.475
100.910
125.236
83.890
86.447
118.083
126.613
108.440
95.957
124.295
97.728
90.419
108.762
87.615
93.309
97.524
117.986
101.161
120.778
95.784
95.985
108.026
128.421
95.400
97.144
105.491
86.851
94.505
112.023
124.559
98.945
91.132
120.674
126.379
113.707
96.394
84.853
101.934
128.073
89.213
96.444
125.707
89.916
113.150
102.166
100.926
110.118
96.600
111.299
112.562
86.085
90.014
93.300
120.031
85.438
117.185
115.017
122.897
111.812
113.272
112.183
116.852
100.954
103.281
115.378
92.597
110.569
93.301
107.385
86.880
111.844
87.562
97.603
99.231
97.237
92.495
102.436
120.533
87.218
119.562
128.165
112.812
101.460
108.764
92.649
124.273
108.796
88.335
88.677
127.236
88.366
96.564
94.758
119.246
110.249
103.943
114.278
95.016
102.361
123.227
100.101
129.669
105.662
121.694
115.372
127.532
113.120
118.665
98.162
91.673
95.284
90.917
95.148
114.809
123.513
96.405
91.117
124.300
121.441
119.388
114.735
102.147
86.898
108.169
86.930
118.732
98.524
112.563
98.830
123.005
127.376
118.005
92.899
105.868
97.017
122.605
108.688
106.760
85.783
94.138
95.533
123.121
113.279
129.680
101.005
128.356
84.619
88.531
99.546
111.067
122.200
122.636
112.550
96.489
110.270
125.273
123.227
88.841
111.602
87.814
86.860
83.981
85.225
97.037
115.859
118.951
96.150
84.612
109.378
109.229
87.717
113.989
99.502
119.819
100.745
87.647
108.398
127.518
101.340
109.581
114.987
96.378
107.998
123.547
109.886
93.237
84.276
109.224
98.552
99.495
101.863
98.580
129.582
108.289
125.233
119.079
110.029
127.853
124.486
93.907
91.082
102.606
103.647
118.327
114.127
94.613
105.902
91.661
111.405
114.460
120.047
93.390
128.187
100.950
98.698
96.647
111.279
108.678
125.827
126.046
111.408
110.970
108.417
92.677
100.215
100.396
95.889
89.309
89.467
96.003
84.846
105.190
96.667
125.221
119.254
106.542
95.822
87.909
102.415
128.726
83.839
116.430
116.444
101.602
124.883
109.516
97.829
88.491
103.921
113.115
99.998
119.098
125.893
91.046
90.673
105.102
114.566
117.221
101.979
129.265
101.337
94.053
105.342
103.395
85.978
94.300
100.784
109.937
85.308
128.303
99.183
91.172
118.266
97.517
117.261
93.372
126.121
103.412
110.715
115.217
114.631
109.936
129.305
95.452
93.146
97.385
124.698
96.096
99.289
109.953
108.623
108.366
112.391
105.173
85.568
103.268
100.635
88.474
106.365
119.088
84.447
114.291
113.008
101.252
110.281
120.393
88.677
106.779
100.327
125.674
90.739
104.695
102.825
88.210
108.586
86.121
101.275
97.799
112.986
95.014
122.698
86.298
112.423
85.268
92.727
97.883
124.465
87.931
104.258
108.604
93.121
103.077
84.867
114.498
100.831
113.266
90.541
109.010
103.012
106.098
100.724
106.928
121.464
89.019
118.602
112.312
87.615
101.644
93.088
116.872
118.834
88.963
116.837
121.084
87.377
102.293
117.497
121.347
116.979
105.732
108.899
90.655
99.320
96.926
113.163
102.792
102.300
118.344
103.032
127.614
117.481
119.457
111.134
85.837
100.014
89.714
122.115
85.049
100.640
116.082
89.406
107.416
124.812
105.715
105.239
122.038
100.590
114.839
86.763
115.011
104.770
104.004
122.013
125.237
106.348
88.597
109.596
115.169
109.441
115.729
84.340
96.099
85.296
128.418
127.307
97.427
118.485
88.848
114.925
85.978
104.467
95.001
127.966
86.420
128.768
121.189
129.022
100.266
112.213
121.273
95.667
114.429
120.724
92.448
113.767
116.366
105.449
115.284
129.337
84.582
126.421
113.535
85.503
127.975
108.503
126.549
90.770
108.872
104.664
95.654
103.026
99.473
102.750
121.194
122.155
127.517
91.243
127.279
92.005
100.161
109.659
122.587
97.988
100.139
98.259
100.899
123.760
98.961
122.236
91.919
104.792
101.935
100.824
91.645
86.577
85.347
90.908
98.423
120.431
91.705
97.458
114.139
120.956
103.236
106.688
101.644
104.737
98.864
112.868
115.378
113.834
101.289
93.856
129.666
103.634
110.567
115.969
128.429
85.336
124.323
114.506
84.087
102.705
117.013
85.964
129.672
86.040
116.617
105.294
121.947
113.390
129.483
121.643
120.579
97.973
104.258
99.297
113.514
95.393
104.923
107.155
128.195
118.821
85.742
85.398
116.340
89.989
86.274
119.084
94.420
111.545
86.003
91.445
127.011
124.167
102.723
108.756
112.875
122.513
109.603
106.330
113.293
96.806
115.637
117.379
112.796
128.761
108.471
100.965
129.539
109.473
113.934
100.296
117.858
85.461
93.628
91.566
119.001
83.988
129.303
111.226
114.033
106.108
103.892
107.860
92.907
105.603
98.215
103.513
113.634
102.726
111.805
102.794
90.457
87.770
87.945
118.557
95.936
95.616
102.739
129.164
127.324
96.909
110.791
129.419
104.836
128.494
110.038
105.014
107.157
119.565
112.184
92.075
84.172
105.393
119.773
105.580
95.190
89.883
92.748
95.904
103.281
129.358
111.042
114.050
101.100
119.047
89.318
114.689
117.276
95.430
95.333
121.939
87.828
87.179
101.473
94.368
112.149
85.871
98.330
113.468
94.432
89.197
105.387
118.648
101.359
111.472
93.993
117.415
113.129
94.475
118.505
112.168
121.356
112.123
91.935
106.145
127.707
112.210
108.519
105.359
95.432
128.091
94.553
118.993
87.423
120.856
100.004
103.589
95.243
110.816
93.654
103.829
113.170
119.042
110.141
117.446
106.035
119.624
86.817
128.478
112.186
128.430
88.959
122.686
88.618
124.150
89.103
106.025
110.042
84.867
90.891
108.362
121.103
106.747
126.138
94.505
117.074
118.811
98.194
109.150
87.753
114.698
92.955
122.435
99.941
89.152
99.133
116.556
119.711
105.933
97.221
105.149
97.866
112.664
85.392
94.033
91.031
125.876
116.466
107.904
91.705
111.049
101.414
121.157
109.621
126.474
112.947
95.770
93.753
126.029
109.334
105.675
92.073
103.537
111.188
118.578
91.191
84.546
116.361
100.533
102.002
91.568
114.817
120.919
128.825
93.264
122.580
123.501
114.425
87.931
121.828
110.317
104.496
104.913
122.572
105.848
92.073
110.568
120.943
108.823
90.971
113.879
114.971
122.942
98.821
113.404
122.246
103.809
101.858
120.898
114.736
89.352
916.095
917.360
917.035
936.532
935.993
941.123
936.235
943.899
941.120
957.393
964.743
954.937
955.924
965.366
987.898
976.773
988.433
995.539
983.876
1003.753
987.037
1002.048
997.842
1018.538
1024.531
1023.751
1027.113
1021.138
1032.630
1026.630
1033.939
1054.316
1047.524
1041.481
1054.875
1063.244
1081.124
1060.543
1080.849
1076.579
1092.346
1090.946
1099.092
1087.622
1107.134
1092.314
1120.319
1124.029
1127.957
1125.119
1111.309
1117.288
1137.020
1131.012
1139.723
1142.264
1136.765
1146.450
1171.581
1154.667
1172.859
1163.587
1175.204
1185.828
1170.544
1174.360
1184.228
1190.797
1211.416
1216.780
1220.227
1200.461
1208.565
1207.794
1225.767
1240.525
1231.330
1231.502
1252.039
1251.199
1240.309
1246.782
1257.114
1253.125
1273.816
1266.550
1271.619
1281.826
1288.304
1287.762
1278.676
1286.979
1296.069
1299.757
1292.674
1308.969
1306.963
1306.922
1316.486
1324.880
746.593
739.789
735.717
744.603
752.563
756.486
758.339
753.753
759.135
767.573
767.901
769.305
760.781
766.696
775.468
771.013
778.918
781.719
783.048
775.898
779.536
792.311
787.617
791.564
786.187
791.038
804.040
801.692
805.670
812.171
803.056
803.925
814.487
813.040
813.762
825.919
818.408
817.285
824.859
824.028
829.405
832.744
834.802
840.788
840.369
847.028
841.201
842.923
842.622
850.937
848.793
860.128
853.685
860.376
858.034
869.965
872.862
877.201
863.960
872.678
875.690
882.959
873.829
875.937
883.778
884.109
890.312
899.969
892.802
894.509
893.953
908.132
900.998
902.331
907.189
911.440
906.701
916.421
914.864
916.673
919.787
917.408
934.387
929.622
936.667
934.542
935.783
930.955
936.545
935.018
940.186
948.763
949.837
948.698
959.935
960.603
955.988
955.972
964.065
962.710
972.126
967.436
961.934
970.847
966.105
953.335
959.341
956.625
957.229
960.361
955.551
950.584
954.351
944.693
945.024
942.278
945.730
936.419
944.813
935.023
945.560
938.132
933.988
936.253
940.294
935.275
930.854
921.147
923.340
923.461
916.133
929.003
915.074
922.015
915.618
914.370
907.884
919.618
911.159
905.418
904.702
907.012
901.263
911.120
904.084
904.251
907.243
898.963
903.606
892.661
887.809
896.080
895.047
886.253
883.511
879.808
880.983
876.531
881.501
888.331
881.496
878.041
871.376
873.571
881.353
870.895
876.503
870.558
865.070
873.003
862.987
860.163
863.938
867.641
861.977
856.117
858.693
854.526
849.875
852.686
845.374
841.867
839.777
848.023
847.231
845.572
842.004
834.277
833.062
833.474
838.893
827.134
831.821
830.568
823.346
833.174
821.119
820.393
819.439
824.999
817.864
822.200
816.289
817.536
820.615
813.131
814.795
810.747
806.826
814.998
803.553
811.177
808.113
795.144
806.441
800.639
804.832
792.127
792.049
801.160
787.506
783.374
789.744
794.266
782.445
791.480
786.278
777.297
782.119
782.308
782.557
767.898
769.333
779.031
770.843
767.462
760.954
764.536
761.667
761.212
760.002
759.307
758.866
764.234
757.156
750.993
745.914
760.177
747.138
742.429
753.276
742.750
737.274
740.675
743.081
735.884
746.633
733.356
729.361
736.290
730.242
737.030
729.853
723.590
728.723
718.659
726.783
725.469
714.971
723.594
716.534
716.237
709.953
712.093
712.682
715.035
703.066
714.514
714.606
704.546
701.487
700.372
694.431
697.236
695.082
690.413
697.657
701.141
693.800
683.984
693.530
688.668
688.571
691.329
691.073
689.283
679.434
686.530
670.282
671.837
678.478
669.252
681.862
682.772
682.906
678.556
685.172
675.797
686.544
683.087
680.105
676.731
688.915
679.002
690.904
684.106
685.022
691.534
690.527
689.586
688.657
689.835
684.564
687.042
694.633
702.323
688.052
696.559
696.404
700.557
702.315
698.932
701.951
701.097
708.008
706.982
709.847
706.195
698.411
709.609
714.828
708.228
715.106
710.896
717.274
704.370
713.983
706.552
706.625
710.213
711.501
723.331
713.381
724.241
716.641
724.796
724.210
714.822
717.487
728.407
725.014
718.227
717.060
729.178
730.057
731.547
732.587
724.914
733.433
737.719
725.372
730.765
733.093
727.184
726.664
742.904
734.057
729.589
742.787
743.127
738.936
734.072
739.941
747.074
744.895
747.386
746.981
751.404
740.276
745.038
753.580
749.877
749.975
747.642
749.365
757.550
752.225
759.456
756.767
752.564
758.867
755.164
755.364
751.026
756.008
752.728
762.335
768.516
762.786
758.508
761.958
767.783
767.132
761.013
762.061
765.789
774.550
777.354
770.717
776.778
765.094
771.290
769.565
769.599
775.393
778.938
782.325
783.968
781.245
782.961
780.492
780.932
776.080
787.486
778.589
786.827
791.509
791.901
783.057
794.805
793.583
783.939
788.992
790.879
788.916
786.808
791.725
789.095
793.106
787.966
790.333
803.768
793.996
801.128
794.548
796.237
801.858
801.487
805.014
810.774
797.083
809.618
803.526
804.855
809.108
811.812
813.274
815.657
809.424
819.424
808.185
813.646
820.361
817.915
817.183
819.599
816.648
815.107
816.532
811.852
824.395
813.723
821.891
817.449
818.857
820.119
829.849
831.154
832.763
824.259
829.136
836.858
824.057
829.446
833.320
830.616
830.880
833.865
830.158
835.031
835.947
841.941
838.477
832.196
838.487
838.883
833.868
846.034
841.975
837.531
841.421
841.843
847.516
848.970
848.741
837.674
836.941
848.245
839.707
846.999
847.822
838.047
843.463
853.866
842.995
847.507
841.327
844.018
850.112
853.793
845.158
848.432
856.758
856.116
844.943
856.114
850.268
846.789
848.390
851.092
851.137
846.436
862.015
862.004
852.953
854.232
850.854
850.403
859.288
857.411
860.241
859.058
862.059
857.550
862.722
864.846
863.706
868.924
862.945
856.946
867.209
868.651
863.297
858.496
860.691
857.913
868.644
865.494
861.244
867.382
864.395
875.289
875.238
867.724
865.713
869.139
862.986
868.122
873.471
868.937
869.287
877.612
868.110
873.704
872.430
872.565
874.390
875.066
878.287
874.387
881.492
878.309
871.806
873.816
881.652
876.579
872.663
879.312
876.118
884.928
877.098
884.996
883.423
875.125
886.710
887.403
878.206
888.139
876.887
875.917
879.125
880.784
886.607
877.933
881.966
893.182
892.389
886.794
894.818
883.469
880.823
883.166
896.907
897.392
887.380
893.235
887.970
896.376
891.621
889.593
895.967
893.899
892.165
888.455
902.054
893.603
888.808
892.415
894.548
889.827
893.725
903.638
902.984
897.911
904.811
900.976
895.560
893.819
897.524
903.831
899.330
905.231
904.267
905.642
908.199
900.099
902.554
900.017
901.182
900.342
898.909
902.281
914.333
910.415
901.581
908.977
908.565
911.055
903.580
917.146
913.322
918.034
907.036
908.121
914.390
909.119
913.743
916.166
908.231
912.912
919.405
922.416
907.836
912.672
916.973
923.929
922.755
911.528
924.360
920.303
922.809
926.075
918.908
918.723
922.930
915.019
918.509
913.737
917.679
914.553
916.688
923.067
927.244
918.375
918.207
931.526
934.859
935.555
934.492
932.200
934.596
934.249
934.441
936.668
933.840
937.932
939.319
930.200
928.650
929.043
934.451
932.951
940.897
942.942
947.104
942.949
941.816
949.694
934.636
946.422
947.834
936.780
946.587
942.854
954.391
941.136
946.370
954.370
955.462
953.171
954.409
952.849
958.275
946.508
960.716
949.520
960.278
950.834
948.783
954.227
960.641
954.577
960.124
956.850
957.401
955.918
964.883
957.693
960.456
956.434
957.875
960.061
970.986
974.815
967.530
970.104
975.371
961.961
963.893
965.785
973.480
966.596
971.652
971.282
979.365
980.353
979.784
971.517
971.629
970.472
985.176
981.553
982.620
979.784
989.717
979.020
978.864
978.793
989.122
984.793
980.237
981.737
981.169
995.844
992.543
993.850
994.905
985.734
998.727
991.215
998.070
991.167
998.640
993.664
999.348
994.270
996.931
1004.857
998.668
1001.537
998.448
1000.631
1009.245
998.172
995.913
1002.504
1010.070
1012.551
1009.778
1006.924
1010.177
1004.814
1001.692
1013.463
1013.441
1011.114
1019.148
1015.247
1004.943
1011.627
1017.742
1009.838
1022.295
1014.146
1022.200
1024.710
1025.912
1017.197
1014.220
1019.937
1025.027
1029.152
1021.091
1019.110
1021.099
1021.502
1029.248
1019.937
1026.425
1030.719
1024.158
1021.197
1034.646
1029.375
1033.245
1032.645
1032.676
1031.514
1027.175
1039.799
1029.078
1038.746
1029.405
1029.793
1033.223
1031.894
1036.430
1033.615
1041.304
1049.239
1038.331
1049.482
1046.978
1046.540
1049.158
1045.598
1044.165
1040.831
1049.783
1055.295
1050.365
1046.920
1055.857
1058.630
1055.259
1048.162
1056.550
1047.132
1054.202
1059.863
1062.049
1054.798
1062.358
1060.469
1067.283
1067.757
1058.711
1056.046
1067.846
1058.840
1062.646
1065.262
1065.824
1065.560
1058.578
1049.087
1051.505
1055.253
1050.943
1045.915
1052.104
1044.179
1046.868
1036.194
1046.300
1045.172
1042.677
1040.499
1038.058
1034.345
1040.571
1027.223
1030.315
1036.311
1026.196
1020.724
1024.437
1019.871
1015.001
1019.576
1011.997
1020.003
1017.593
1010.027
1004.899
1008.054
1011.985
1014.121
1011.512
1011.471
997.384
1005.113
1003.416
992.600
989.913
991.760
992.818
986.066
994.041
990.048
994.727
994.520
988.383
991.166
985.972
974.573
978.818
973.188
979.104
978.318
981.107
968.248
967.991
969.034
969.580
964.466
958.693
965.026
956.011
965.798
952.832
949.980
957.110
958.154
944.960
945.705
948.435
941.635
938.238
948.368
935.902
936.411
947.367
931.266
934.531
941.417
935.275
936.897
931.543
933.554
922.454
928.419
918.619
923.200
926.151
920.057
914.816
916.595
908.337
922.492
916.058
908.248
908.686
914.782
913.118
899.350
904.214
897.538
907.749
893.024
895.086
901.922
896.498
896.900
899.466
895.051
886.545
885.366
884.912
882.086
881.981
883.334
872.609
878.271
882.315
874.947
879.691
878.682
864.455
871.037
862.956
867.748
869.875
865.954
862.789
863.880
863.414
851.405
853.297
859.972
858.668
856.414
852.376
844.538
845.135
841.790
838.461
838.127
842.562
837.230
831.259
835.031
836.758
836.920
834.980
832.160
831.901
824.281
819.964
829.144
827.803
822.423
819.430
816.706
822.150
818.577
809.882
815.322
807.039
808.302
801.315
807.216
