109.762
110.075
88.499
102.487
107.087
84.029
97.498
93.471
108.830
113.184
122.349
84.277
112.924
102.085
111.621
89.217
99.411
88.850
98.773
88.310
94.111
113.650
99.476
121.366
88.612
95.902
122.929
102.760
94.800
115.368
109.399
115.151
92.145
83.816
110.247
93.836
94.770
126.102
90.258
84.798
124.286
102.698
110.107
88.024
114.499
119.867
89.917
124.883
102.392
87.760
93.472
98.879
108.256
97.197
82.177
123.753
93.581
99.740
123.724
86.771
105.364
101.669
103.506
96.386
89.472
94.521
89.366
113.752
89.429
87.735
96.029
88.954
100.096
93.646
122.354
110.261
119.208
122.129
109.802
117.324
84.295
114.453
91.881
125.131
98.147
87.487
120.863
103.943
105.759
80.036
80.022
122.373
123.179
124.573
96.502
107.466
107.216
92.235
114.207
83.358
113.654
110.510
107.619
98.338
108.874
89.678
97.201
79.978
90.489
113.371
108.634
111.736
82.820
94.242
80.401
107.542
108.112
118.321
92.619
121.682
99.674
92.034
79.449
111.976
103.218
101.231
79.841
109.224
90.406
106.898
81.694
123.293
119.835
101.572
108.270
106.901
119.648
89.798
94.565
84.626
102.843
92.257
88.269
84.863
94.205
109.552
120.067
120.891
108.882
79.373
112.065
100.168
81.936
113.477
119.254
89.121
80.188
89.908
83.573
84.748
102.736
91.657
112.627
110.351
110.085
112.459
82.147
91.731
122.010
82.517
94.846
125.814
82.633
109.865
104.594
98.328
98.995
104.377
115.761
115.900
95.400
123.882
114.513
98.808
95.832
116.284
109.313
113.764
109.883
112.645
84.266
109.898
119.294
109.135
97.459
84.760
116.239
114.238
119.727
117.859
83.740
103.020
109.612
114.176
108.656
129.413
126.819
120.575
98.341
111.669
112.026
102.950
119.562
105.795
90.571
128.493
92.478
106.725
90.203
124.857
115.950
119.446
97.269
123.798
98.137
108.546
102.688
85.442
124.904
108.005
87.282
108.900
107.947
112.129
126.506
131.295
86.114
121.270
125.955
101.356
111.076
127.580
94.957
103.429
115.127
107.499
122.938
111.064
129.835
121.338
97.625
95.745
113.647
102.712
94.471
131.324
111.653
96.138
96.522
109.647
125.142
107.400
97.004
103.134
124.748
108.115
94.738
127.475
123.826
113.227
122.373
133.594
104.687
107.446
113.210
127.076
93.562
126.842
104.603
126.660
93.616
98.540
125.728
107.742
98.440
91.523
118.593
93.789
95.017
115.001
133.421
136.593
111.143
102.878
91.803
133.576
125.605
117.913
97.841
126.525
103.214
135.854
109.549
125.247
114.499
133.021
105.181
100.327
138.031
131.940
120.636
96.494
99.469
125.567
128.254
131.972
102.497
100.696
93.431
110.157
109.650
104.271
137.454
105.920
99.309
119.056
112.939
132.103
105.041
138.490
133.469
118.765
110.695
116.916
111.060
108.399
131.461
115.432
111.498
118.885
115.733
137.548
123.488
102.748
102.097
97.566
102.870
111.915
111.287
119.530
116.927
94.608
133.941
132.081
101.307
112.663
134.018
103.233
94.362
105.634
118.398
110.575
121.280
109.445
116.763
120.165
94.353
116.160
119.478
108.741
104.605
122.278
95.451
109.822
102.791
108.995
105.871
114.215
116.011
120.450
119.593
121.830
112.786
103.298
97.580
114.584
132.844
97.961
125.472
95.114
130.375
126.193
133.794
133.715
92.552
110.936
131.566
133.186
107.202
124.105
128.722
114.375
106.538
115.633
132.372
97.760
104.106
108.325
115.712
122.420
111.419
118.062
95.686
132.879
129.024
135.545
133.566
107.829
110.184
105.333
106.849
107.208
102.562
128.355
99.776
122.822
96.879
122.505
116.024
125.180
125.184
126.056
112.720
102.703
115.632
112.161
102.286
115.978
132.649
102.642
106.076
118.853
109.116
108.590
130.426
90.255
98.269
126.343
127.101
105.605
122.973
127.451
126.537
116.406
121.947
92.797
129.842
113.215
106.548
111.369
108.351
104.186
120.701
131.985
89.281
99.937
114.394
124.108
118.740
128.612
118.139
119.820
131.269
90.115
119.835
127.779
110.593
103.070
90.337
106.431
115.852
132.004
104.651
115.459
111.252
113.506
112.201
119.372
92.203
121.761
120.980
129.094
90.643
97.624
127.039
102.005
116.562
129.650
122.611
131.063
92.451
131.648
105.267
129.379
130.573
96.737
98.785
91.510
97.045
86.287
87.248
111.878
115.317
106.618
98.801
100.590
127.705
86.049
99.482
111.767
85.960
100.398
88.320
110.153
103.510
122.250
85.222
88.252
95.260
94.664
90.361
91.085
87.351
84.899
121.046
102.770
91.920
118.004
126.007
114.025
126.748
92.469
109.112
100.177
99.259
108.204
93.573
120.302
97.026
109.002
111.602
124.192
119.998
102.554
120.506
116.656
108.428
103.137
111.339
118.475
100.541
105.117
124.835
105.523
85.819
128.061
129.182
86.289
112.075
90.460
103.650
111.683
85.972
95.475
108.686
127.529
91.445
113.744
106.153
83.997
113.764
119.129
124.512
122.074
91.198
129.226
89.822
85.567
87.069
116.159
127.051
116.207
104.510
128.435
86.378
120.210
95.528
115.290
129.781
90.883
96.781
92.249
87.814
109.428
108.946
98.355
84.921
109.232
115.642
91.288
94.937
90.606
90.547
127.896
120.844
120.441
128.050
84.530
87.086
105.705
120.903
96.074
90.963
106.520
95.633
96.668
96.267
114.261
103.837
86.297
116.295
99.751
111.686
98.417
108.246
101.100
118.462
89.324
128.129
88.965
118.384
104.283
115.887
93.291
107.120
114.759
118.157
105.669
106.822
89.908
115.573
127.983
116.804
103.179
113.994
93.432
89.377
109.462
103.385
112.539
95.715
107.429
93.687
124.887
90.025
118.855
96.319
114.452
98.934
127.236
128.909
99.096
90.044
125.605
93.532
102.026
120.046
98.226
126.644
111.054
91.625
94.969
97.552
95.932
114.146
108.265
107.399
99.596
86.687
101.321
116.592
107.115
126.991
118.351
112.226
104.391
110.139
113.245
97.575
114.490
96.152
125.657
126.311
89.968
89.272
125.244
104.319
106.048
109.148
85.624
93.948
112.649
109.868
102.352
99.427
109.827
114.597
110.050
85.152
84.679
103.072
106.517
103.554
95.144
85.969
109.797
110.823
92.836
129.687
103.160
85.477
103.683
102.956
106.862
92.381
87.524
112.108
124.264
95.484
86.085
126.482
95.811
127.567
103.607
122.204
115.134
122.855
129.640
120.994
112.616
129.007
128.589
107.353
110.929
99.143
112.719
128.510
110.458
112.081
96.102
88.361
119.237
103.888
100.284
117.208
93.715
124.923
100.678
104.782
87.813
95.160
100.722
119.917
119.793
123.108
85.262
111.479
121.740
91.868
113.006
124.523
121.735
123.518
127.635
98.125
96.097
121.720
100.551
116.387
107.805
113.927
111.040
98.233
114.259
93.431
127.086
104.797
107.523
129.236
100.917
107.474
123.862
105.461
94.499
89.175
115.425
95.284
114.910
116.670
126.841
87.266
127.028
116.057
105.760
95.873
87.855
99.200
96.671
102.257
85.582
103.999
87.269
86.861
116.354
86.525
95.610
121.331
123.422
101.123
122.895
96.867
114.156
125.719
119.811
125.982
114.574
105.781
90.492
105.516
100.944
111.059
124.401
88.550
103.031
126.226
95.729
98.139
97.226
95.578
91.275
117.340
98.981
114.590
119.310
118.564
125.728
96.301
118.204
113.055
100.426
123.854
106.441
122.876
101.217
97.328
128.969
126.266
125.807
127.199
121.518
103.221
114.375
97.922
91.960
117.405
127.899
122.978
107.099
114.695
114.367
90.962
94.745
87.291
111.654
110.442
91.035
106.444
108.112
102.981
103.193
85.348
96.865
96.689
90.041
121.598
122.914
94.309
121.210
114.507
127.752
118.590
123.369
86.518
85.221
103.052
91.979
121.506
125.064
103.549
90.802
125.977
88.243
116.396
87.873
109.418
107.235
128.904
91.220
120.155
126.646
111.715
94.181
109.231
100.970
104.136
122.738
115.419
127.095
100.951
116.826
129.527
103.348
91.020
96.869
101.872
92.328
122.838
104.000
102.956
105.475
108.349
126.892
1403.374
1407.440
1416.684
1420.989
1405.380
1410.433
1415.341
1411.988
1399.682
1399.465
1406.591
1398.124
1421.014
1400.201
1401.891
1422.521
1406.157
1405.310
1403.926
1399.244
1403.215
1402.769
1401.048
1396.071
1418.131
1412.566
1410.303
1414.124
1393.078
1392.615
1392.210
1399.389
1392.232
1409.611
1403.151
1413.114
1399.518
1411.621
1417.286
1402.980
1399.891
1396.228
1409.507
1413.857
1394.079
1410.765
1405.106
1408.571
1407.976
1396.540
1401.522
1395.747
1403.413
1389.313
1393.070
1393.102
1393.612
1404.846
1383.409
1406.367
1393.038
1410.498
1409.619
1391.485
1393.173
1382.156
1389.745
1394.547
1395.075
1380.433
1396.757
1379.197
1394.198
1385.951
1391.461
1385.901
1382.850
1378.764
1385.473
1398.255
1390.299
1388.145
1381.201
1388.180
1381.049
1377.867
1396.343
1380.974
1376.879
1400.574
1374.820
1388.172
1392.303
1392.557
1395.884
1393.199
1386.510
1396.418
1399.067
1395.188
777.137
772.142
772.024
774.512
763.943
766.046
766.405
768.296
765.052
769.969
767.663
760.297
774.563
762.462
766.630
765.852
771.635
772.547
765.260
767.937
760.226
758.104
772.805
761.477
768.292
759.734
761.346
762.185
761.256
758.908
771.127
767.498
762.804
758.732
756.270
763.071
769.965
760.070
755.176
757.933
761.832
770.316
761.589
758.090
764.430
768.484
761.502
755.161
767.611
755.372
755.818
755.750
759.810
756.565
761.627
765.891
766.042
753.880
760.849
752.748
753.319
767.098
755.971
762.029
758.161
756.113
761.015
756.727
753.364
751.868
759.060
755.182
759.112
759.098
754.614
755.126
754.499
753.413
760.972
760.903
749.478
751.323
752.976
755.392
747.495
762.303
750.376
749.812
752.307
755.684
748.353
753.225
760.164
753.090
746.578
758.449
761.087
750.398
750.680
748.269
758.162
755.490
761.599
765.440
762.068
768.461
755.684
772.106
763.453
765.825
778.586
767.757
774.632
779.815
771.611
781.240
780.895
785.178
790.133
786.866
788.589
788.293
788.085
800.762
793.670
804.418
798.084
804.759
795.702
797.529
809.589
805.198
813.302
818.113
818.785
813.379
816.694
822.659
813.186
825.996
821.206
820.540
831.952
832.071
834.173
836.549
829.432
839.842
845.027
845.324
840.096
837.005
845.269
847.218
854.455
848.260
853.036
854.693
850.577
865.563
867.666
858.448
860.826
871.631
865.223
865.809
878.206
875.681
882.630
869.577
882.815
878.495
881.794
876.848
878.010
881.424
886.549
889.689
898.457
888.874
889.246
903.208
898.159
901.115
906.814
899.202
900.491
904.650
904.100
912.318
916.231
920.902
922.626
916.333
917.132
926.002
928.139
934.265
929.758
937.683
940.117
935.664
937.493
938.740
936.595
946.923
951.221
946.794
943.432
951.031
942.634
953.785
951.955
951.947
954.561
962.756
955.116
959.941
959.350
964.394
962.706
962.362
977.337
978.067
980.553
976.076
979.738
973.883
984.108
988.507
983.164
994.500
996.981
994.899
986.560
997.919
1004.950
1003.760
1001.327
1001.207
1002.028
1005.376
1006.227
1002.016
1012.966
1013.190
1023.078
1021.003
1017.753
1028.586
1028.308
1024.559
1032.493
1025.369
1034.412
1027.852
1034.366
1033.128
1041.493
1033.498
1046.791
1046.497
1045.569
1041.018
1046.514
1048.984
1058.519
1051.518
1053.064
1055.891
1058.704
1055.801
1068.014
1067.175
1068.497
1065.771
1066.101
1064.308
1074.227
1072.303
1070.777
1080.554
1074.266
1085.348
1082.526
1082.022
1079.552
1082.151
1087.655
1088.905
1097.645
1089.048
1094.576
1107.659
1100.861
1096.569
1112.571
1111.480
1101.028
1114.288
1114.309
1107.073
1113.361
1105.190
1105.029
1110.091
1094.163
1103.981
1095.719
1094.645
1099.435
1093.620
1088.759
1089.970
1084.019
1081.392
1080.183
1080.763
1072.660
1076.479
1074.213
1078.186
1065.001
1077.189
1067.462
1072.341
1060.485
1059.670
1056.434
1064.342
1064.532
1048.994
1058.942
1049.758
1051.483
1052.074
1048.425
1042.239
1048.001
1034.158
1040.872
1044.140
1041.345
1024.596
1032.377
1026.318
1019.593
1021.142
1016.662
1014.785
1019.066
1018.803
1010.688
1013.887
1018.651
1013.785
1013.591
1008.821
1001.728
1006.705
995.894
992.660
997.916
998.739
990.158
997.717
997.701
995.136
980.574
982.022
977.320
975.851
981.248
981.130
971.701
977.587
973.089
967.783
963.561
968.049
960.170
959.562
953.012
966.116
949.016
953.849
946.199
954.609
954.807
941.200
944.917
939.397
937.226
939.820
932.212
933.511
934.647
926.784
938.255
933.445
930.982
925.122
926.279
928.141
911.260
922.840
908.665
913.939
910.263
902.348
905.440
903.334
904.237
897.993
907.432
897.387
890.704
899.488
897.974
896.994
890.709
894.348
881.078
877.410
876.834
882.431
881.693
880.267
869.981
879.509
867.935
864.508
872.624
869.365
869.991
864.250
860.150
861.709
856.072
859.974
849.133
854.087
851.935
845.960
842.543
849.387
834.194
844.975
830.416
842.947
837.977
829.717
827.483
827.164
828.159
821.171
817.307
817.076
823.926
812.261
818.818
820.357
805.662
808.421
800.348
805.065
800.453
803.643
799.786
803.739
788.793
796.679
795.351
798.915
796.424
793.145
781.742
775.942
781.677
780.646
781.955
776.294
768.489
770.551
771.711
761.371
763.509
760.476
758.620
758.623
757.239
757.606
762.430
752.338
748.121
749.689
751.244
749.743
743.117
749.620
743.618
742.333
746.488
747.699
738.406
739.256
753.765
749.334
751.608
752.588
754.839
755.083
755.438
750.305
749.319
752.638
753.568
761.586
758.396
758.693
760.694
763.946
757.666
762.650
769.047
764.268
757.598
773.841
769.388
763.990
770.846
764.844
774.340
771.012
769.379
772.708
774.190
774.715
775.119
770.367
780.988
784.846
784.901
784.303
784.069
782.381
786.304
791.496
786.457
784.942
781.301
784.565
784.829
784.795
789.708
796.235
795.557
789.409
792.622
789.351
793.984
805.240
803.585
803.001
798.700
794.468
796.054
803.530
811.320
799.362
813.912
800.592
808.730
801.731
810.671
802.885
812.096
811.424
819.146
807.015
807.980
817.540
823.940
819.896
826.148
812.787
819.654
816.440
815.648
824.152
824.315
828.491
820.434
830.435
832.827
825.143
835.488
826.365
827.576
828.354
838.204
830.234
836.667
836.503
840.739
837.977
837.498
835.449
838.333
836.191
846.779
845.551
851.494
844.092
851.229
846.470
853.314
845.863
851.894
844.151
850.892
847.039
854.224
849.977
861.170
864.435
858.573
859.733
859.803
866.864
862.474
861.099
868.356
858.195
864.164
858.677
870.104
861.521
876.344
871.809
870.803
868.979
870.730
878.864
874.624
877.808
871.336
871.007
880.703
873.268
882.572
878.472
887.261
889.897
884.670
889.356
879.335
893.438
892.503
895.719
890.551
890.314
893.794
898.095
885.644
899.402
892.819
893.944
890.598
900.178
894.217
900.136
899.302
894.926
895.019
909.999
905.548
899.620
909.337
912.349
906.135
911.724
905.216
904.124
906.351
917.620
910.921
921.361
910.601
918.161
924.632
911.814
914.384
915.168
919.072
926.822
930.130
923.258
922.997
925.427
932.436
929.387
921.816
919.625
923.129
919.044
931.200
929.903
928.009
923.125
924.388
932.933
923.212
924.741
924.205
931.238
920.286
926.619
928.716
924.943
927.576
926.025
925.872
918.732
921.476
920.646
930.253
932.313
920.988
931.660
917.898
929.428
920.575
919.674
925.383
931.597
922.746
925.095
922.708
932.916
920.341
925.438
917.504
928.091
920.780
932.672
918.529
917.832
930.592
922.141
922.144
922.148
917.637
920.130
929.293
922.354
923.103
926.605
926.391
927.812
924.737
919.791
928.505
916.487
929.183
922.101
921.664
922.738
923.188
930.044
922.109
920.299
923.466
927.748
930.429
915.789
922.511
916.884
931.484
925.919
917.075
923.358
924.891
927.339
919.849
923.955
928.946
927.572
926.788
930.058
924.467
918.203
922.807
921.112
917.378
919.936
921.526
917.808
916.519
927.172
926.655
919.780
925.287
925.983
921.958
920.718
917.744
921.354
922.498
929.495
928.499
927.320
929.917
915.298
925.849
925.704
923.438
923.737
927.693
921.823
924.793
922.060
920.807
925.198
917.703
919.281
929.072
925.593
929.687
929.488
925.140
923.817
919.607
925.648
919.779
924.378
916.294
924.431
924.220
918.100
929.097
921.716
918.273
924.484
915.966
921.429
917.807
927.818
918.433
928.711
917.929
921.935
922.157
917.246
916.623
927.899
922.416
913.296
925.505
927.644
918.545
920.367
927.372
915.066
922.026
919.839
915.984
916.066
912.982
924.108
916.489
912.396
920.091
917.026
919.679
923.927
921.538
920.006
919.988
916.151
923.276
917.767
914.837
922.405
926.258
916.974
925.813
916.640
922.691
913.620
925.358
925.178
919.751
922.309
912.805
914.061
920.136
920.047
921.244
912.194
915.624
923.627
917.610
922.358
907.535
918.399
906.470
915.605
909.174
909.764
906.260
895.812
897.449
903.474
899.372
903.189
891.267
895.382
886.490
897.734
883.545
889.857
894.360
880.144
881.987
881.307
883.803
883.796
879.188
883.040
867.916
878.523
865.795
877.110
870.669
872.846
860.029
870.969
869.932
868.759
863.221
859.035
859.624
850.165
857.899
850.779
845.942
846.334
849.900
845.285
850.529
842.789
836.855
848.422
841.372
837.065
842.228
834.946
