121.376
129.230
99.918
104.030
98.829
97.502
110.343
127.634
85.010
95.960
125.910
110.265
95.288
101.481
100.723
98.477
94.091
95.053
121.295
119.168
89.130
100.472
87.932
125.523
118.572
128.422
90.251
112.704
109.712
123.511
99.378
86.111
85.265
89.996
103.754
116.300
127.324
108.739
99.706
89.235
89.351
121.458
113.703
101.800
91.238
128.941
103.691
106.967
124.436
98.657
119.323
95.200
127.139
87.324
85.670
94.485
121.073
86.742
123.019
114.636
107.291
105.561
115.957
90.234
125.837
114.338
90.007
124.618
95.185
111.489
119.178
121.824
110.471
85.313
125.190
106.491
116.562
98.094
102.234
98.354
111.724
104.016
107.745
125.873
112.046
110.928
113.242
123.065
128.717
109.629
123.588
124.589
116.951
113.642
118.754
92.745
102.770
123.980
122.867
102.009
90.917
110.105
128.064
108.869
126.099
102.683
101.948
107.871
107.891
93.878
110.296
120.764
119.117
107.109
98.531
87.878
109.217
113.537
128.251
121.005
90.859
85.777
85.274
100.939
102.064
110.035
104.122
89.048
100.867
87.896
95.143
87.901
102.776
114.122
126.562
99.786
97.620
102.447
122.459
105.251
89.775
100.274
87.374
89.359
111.126
115.699
101.779
124.817
97.944
126.408
112.894
114.243
103.685
108.341
120.059
125.477
128.063
104.261
119.660
88.405
116.187
109.608
120.533
125.229
94.124
103.774
125.428
125.851
105.072
118.628
112.330
109.263
87.925
89.252
129.539
109.664
88.002
89.199
112.683
125.029
117.695
111.423
91.737
105.639
119.085
118.075
109.011
108.479
121.528
106.502
96.511
128.493
113.308
93.157
109.905
99.640
105.033
110.574
120.935
114.728
96.107
95.331
124.959
105.594
118.122
94.468
104.165
116.301
108.447
95.890
120.727
119.185
84.570
103.326
90.177
106.484
112.358
108.490
109.479
96.837
106.723
95.642
110.800
107.313
110.955
100.405
103.077
105.075
94.404
98.860
120.027
100.099
94.023
109.696
114.188
120.081
90.689
110.313
91.877
97.694
86.974
99.512
115.440
129.076
121.869
111.611
115.728
102.852
97.942
124.020
128.182
85.009
92.856
115.270
117.326
84.397
86.572
122.624
125.057
111.491
103.536
120.848
92.378
84.664
83.998
120.243
88.048
95.749
127.926
98.680
95.914
97.208
92.358
129.254
120.808
126.112
124.068
101.586
105.548
117.587
121.754
118.041
106.484
103.510
92.342
92.852
123.761
125.940
85.383
86.150
122.775
118.160
98.659
127.754
100.346
98.977
94.717
101.795
126.087
124.635
110.958
94.808
112.451
108.264
110.480
103.112
122.873
120.911
93.357
93.793
90.253
115.902
110.986
99.671
91.858
105.967
114.915
113.790
112.819
88.248
127.970
86.974
109.152
109.141
84.990
83.884
92.302
93.216
103.331
126.383
104.430
104.677
110.170
87.629
108.999
116.630
125.092
89.945
129.399
127.820
116.755
121.753
89.502
127.042
87.359
126.239
129.425
90.225
100.602
122.254
85.698
99.741
101.218
97.806
92.007
118.428
119.405
104.973
124.700
107.703
116.430
119.268
121.768
93.696
126.531
128.892
116.887
126.980
117.546
118.779
118.777
106.808
87.196
102.151
95.018
113.829
107.561
103.407
128.356
96.574
109.804
101.235
116.882
102.404
129.629
87.326
101.987
117.249
101.943
129.300
84.101
84.602
100.677
96.458
122.216
89.568
116.683
114.781
103.288
103.514
92.697
106.366
98.653
90.819
124.225
108.542
121.839
124.615
95.765
100.034
128.954
86.998
111.009
96.713
125.332
96.516
87.334
120.411
99.831
111.080
111.950
113.439
93.944
126.438
110.785
85.963
111.427
121.711
115.507
127.681
109.523
96.569
89.406
125.467
122.125
110.241
129.293
91.040
94.154
127.895
96.698
126.769
91.496
126.155
91.287
98.372
128.678
86.008
89.635
128.129
99.606
105.740
87.365
125.123
125.040
109.428
91.670
88.678
121.595
108.395
85.480
116.554
120.695
95.969
87.952
112.014
87.130
84.688
99.831
118.405
108.452
110.933
94.468
125.388
128.688
90.995
124.955
92.625
102.982
124.067
109.261
84.518
102.567
127.576
128.263
88.178
121.922
112.201
111.454
84.664
123.652
104.005
117.765
111.355
98.649
105.993
119.637
122.211
92.113
88.567
116.069
113.181
125.148
108.714
84.005
129.583
122.948
114.737
107.722
96.981
120.129
120.447
126.610
106.547
123.693
114.174
117.887
95.780
104.637
126.121
125.744
99.117
127.134
97.837
85.390
85.868
103.269
127.162
94.266
106.276
86.642
117.350
99.786
101.423
91.108
95.992
114.825
106.992
91.267
88.067
88.315
97.787
128.220
108.156
115.761
85.853
109.912
107.574
85.461
118.983
109.037
107.999
129.159
119.889
106.992
109.386
105.834
105.794
86.805
107.098
97.330
112.175
95.091
121.004
96.835
126.205
115.584
92.260
125.664
94.007
93.482
118.267
84.305
88.969
89.923
123.438
102.686
116.850
104.862
85.990
123.450
98.516
95.862
92.456
118.903
124.915
88.270
85.912
94.585
106.919
98.793
118.779
113.880
100.332
105.327
101.593
127.451
93.616
99.352
117.217
92.224
83.940
98.377
129.713
117.142
122.570
121.847
127.549
112.960
99.784
116.646
85.023
96.819
111.556
122.921
98.170
101.470
104.342
122.276
122.861
89.188
119.660
120.105
89.701
115.243
115.837
116.007
105.923
95.604
113.293
87.546
101.298
92.433
128.144
126.672
125.818
83.858
99.164
116.830
123.634
124.818
109.793
127.742
123.079
124.420
107.753
100.723
98.021
91.903
114.830
116.756
124.622
103.061
92.923
122.887
84.558
86.001
101.864
85.698
92.187
104.737
128.392
101.486
108.980
98.665
125.809
84.609
110.295
128.383
101.718
120.538
86.584
83.948
108.800
106.620
114.250
111.339
95.496
114.691
127.102
129.825
111.151
102.720
103.286
115.902
116.483
96.733
92.117
128.683
101.522
113.025
112.944
110.702
112.988
111.563
113.475
120.369
102.689
107.370
91.913
104.594
110.599
120.294
112.565
113.273
124.771
91.888
103.722
127.704
121.990
118.124
125.023
100.546
124.487
125.405
107.728
113.843
86.735
108.335
109.992
100.398
117.866
110.468
118.309
101.005
104.199
99.387
105.103
107.355
109.090
107.427
120.883
99.552
106.543
118.904
123.301
92.747
121.938
115.175
86.558
98.221
108.931
121.825
125.103
113.972
105.154
100.920
114.144
125.303
106.161
128.424
129.725
113.295
108.028
120.139
106.626
89.215
107.679
127.718
98.476
124.236
110.118
95.687
115.726
92.409
96.348
110.477
110.872
101.109
92.147
108.763
103.957
115.563
102.137
106.700
125.972
109.558
126.342
88.482
89.806
88.634
102.042
92.624
94.054
92.506
107.197
94.609
100.367
115.151
122.154
114.232
114.524
117.101
97.520
103.559
90.817
97.620
113.967
106.744
97.228
125.098
96.650
106.936
114.198
126.581
86.037
97.207
107.652
102.945
108.448
123.852
85.516
123.716
90.302
107.359
127.900
113.151
121.545
103.787
108.538
121.431
108.545
118.968
98.703
109.822
84.048
117.181
123.662
97.076
96.116
91.454
114.871
105.009
108.585
128.779
118.482
104.480
128.815
119.664
91.053
84.798
84.993
123.758
92.174
112.511
92.486
87.700
117.513
89.935
97.794
93.951
100.206
89.828
85.470
88.650
128.061
119.826
118.275
99.689
123.801
122.717
107.828
119.805
124.808
102.437
86.342
105.172
127.027
127.264
118.197
87.857
129.161
88.078
120.450
105.753
86.413
126.042
93.341
90.259
93.788
111.398
86.401
93.701
99.561
102.733
100.142
85.555
96.007
84.971
84.957
120.575
103.160
99.275
98.760
97.440
114.863
119.093
121.671
124.745
123.319
102.461
125.240
110.546
106.996
113.863
120.582
115.104
117.485
105.265
111.791
97.208
96.095
98.746
116.571
114.029
100.046
104.836
110.941
122.193
100.754
90.689
96.018
117.548
127.305
113.396
122.699
122.342
125.851
95.740
89.666
117.192
114.605
95.340
89.272
91.666
124.356
111.555
92.585
109.824
87.884
129.273
99.805
127.992
129.300
104.705
110.386
103.558
85.155
104.517
129.403
121.719
113.801
103.821
93.950
109.504
126.886
91.051
119.881
117.500
107.174
102.148
111.821
101.874
121.957
87.811
96.740
109.567
126.728
121.461
122.926
121.679
114.321
125.284
107.421
119.315
104.449
96.710
95.013
116.968
116.946
89.550
116.723
111.272
97.118
85.066
116.147
102.437
94.249
96.776
91.687
91.557
99.643
100.068
95.100
105.841
128.340
97.712
902.109
904.718
899.274
912.167
914.479
900.591
924.525
926.257
926.933
928.933
918.011
921.512
937.934
948.062
929.015
930.144
952.017
953.745
945.850
954.704
962.337
953.755
961.257
979.505
968.021
991.682
969.538
981.921
988.424
988.481
989.004
996.549
1014.779
1007.941
1003.708
1021.113
1025.446
1030.391
1016.229
1017.804
1023.632
1025.213
1034.165
1045.418
1053.468
1036.243
1052.046
1048.475
1059.439
1064.794
1062.121
1062.276
1066.807
1076.015
1063.613
1080.451
1084.554
1085.504
1091.535
1082.752
1099.329
1092.079
1101.525
1097.789
1123.119
1106.444
1108.744
1129.725
1136.486
1113.233
1134.802
1136.981
1121.404
1136.129
1143.480
1160.225
1159.548
1146.625
1165.690
1162.693
1149.461
1171.216
1182.685
1179.146
1167.297
1190.628
1189.831
1196.869
1196.406
1203.787
1196.685
1186.627
1207.798
1214.000
1217.742
1219.479
1202.633
1216.596
1236.819
1217.366
682.204
685.595
681.950
681.976
698.400
699.977
695.080
694.942
704.021
692.929
702.714
705.028
704.721
712.554
704.011
705.968
716.661
716.818
724.188
720.794
717.324
717.247
719.758
728.594
734.521
736.588
739.639
731.768
734.368
733.835
736.304
735.922
749.298
744.847
751.540
747.558
747.312
749.489
761.529
749.719
755.837
767.795
757.428
757.309
761.395
760.182
770.841
769.893
766.686
778.362
780.482
779.100
779.229
777.451
776.643
791.033
786.778
784.625
787.862
791.635
797.494
790.132
805.053
797.193
810.360
811.334
802.425
806.707
810.701
818.251
815.421
822.222
816.236
822.222
821.909
819.417
831.900
826.777
835.032
824.088
834.642
840.953
836.260
833.871
835.581
838.056
841.129
847.723
841.321
853.008
844.353
858.187
850.735
863.682
863.130
860.648
866.607
863.819
858.299
863.146
877.063
865.618
877.183
869.264
876.395
862.815
870.954
870.218
864.830
869.717
866.933
874.541
875.676
878.555
879.529
874.788
876.330
880.011
867.565
880.353
866.147
877.936
878.732
879.030
871.053
868.085
872.365
869.494
881.590
866.495
880.375
880.789
872.897
880.601
877.528
867.910
869.433
872.671
882.121
881.846
883.021
874.136
881.999
881.838
873.259
873.357
882.418
874.819
876.466
879.044
876.395
868.981
877.167
870.201
876.397
884.021
880.502
873.806
872.243
876.775
880.247
880.857
879.140
885.265
877.950
881.362
875.836
879.298
872.842
873.815
876.174
873.838
879.331
880.655
879.687
887.680
876.310
873.094
887.542
888.378
875.703
873.702
882.583
884.495
879.265
877.491
883.760
883.918
880.884
880.133
885.692
881.801
875.597
880.345
876.809
879.044
880.385
879.537
882.282
890.966
885.406
883.512
875.992
880.738
883.152
877.095
883.586
880.166
883.713
888.345
884.964
883.817
889.557
886.773
880.457
887.856
878.224
893.476
878.465
891.679
892.520
884.383
883.424
888.853
892.643
891.712
883.559
882.984
883.706
882.955
889.434
885.467
885.226
883.802
892.344
890.413
894.370
890.920
890.527
894.162
881.180
891.465
894.307
890.734
881.724
885.476
886.715
894.567
890.459
887.609
882.544
883.632
896.848
885.024
895.139
883.257
892.028
883.769
884.814
895.967
899.524
889.101
892.728
896.159
899.122
899.275
885.462
898.187
886.808
886.091
900.464
896.120
890.197
890.487
901.412
898.803
899.337
893.502
899.598
895.515
887.980
891.910
898.512
896.466
901.510
900.304
899.039
891.670
896.964
903.367
892.086
893.438
890.524
890.984
902.626
904.259
898.671
903.232
893.177
894.233
903.968
903.231
896.440
892.880
892.100
886.259
886.383
885.379
881.054
880.196
880.220
890.709
888.451
882.956
877.288
884.785
883.108
880.398
870.443
872.906
877.278
875.780
876.304
861.005
872.296
867.686
858.359
855.805
867.237
864.169
851.864
865.980
860.571
849.930
852.343
851.259
847.853
857.234
844.132
854.778
842.597
845.315
847.564
841.449
834.925
836.291
842.196
843.006
832.864
832.896
827.218
838.337
833.192
826.414
831.151
821.036
831.532
825.356
819.817
817.523
823.788
814.790
822.299
815.801
816.888
815.739
814.542
814.653
811.441
807.715
808.158
814.289
807.422
804.404
800.250
796.574
800.884
799.558
793.228
803.337
800.768
797.929
799.181
793.859
786.094
797.817
785.594
793.494
790.829
784.350
778.867
780.843
778.165
784.398
779.323
773.113
769.622
778.187
775.703
766.250
765.669
773.009
765.320
767.695
765.119
759.853
768.778
770.210
761.668
759.032
758.856
755.724
753.324
760.410
759.937
748.006
759.053
755.474
756.512
744.401
754.732
744.182
741.856
735.503
735.351
736.768
737.840
741.981
729.270
732.205
733.239
732.738
731.340
738.675
727.242
734.665
721.381
733.146
721.660
716.032
726.162
723.458
723.627
723.564
720.873
721.715
709.334
718.978
715.792
706.807
707.517
704.512
711.504
700.425
710.496
706.461
696.697
692.922
694.475
702.173
701.078
695.917
690.755
698.741
686.971
685.278
688.149
694.973
685.550
686.107
684.306
675.424
688.244
688.504
680.368
680.470
674.868
677.239
674.540
669.237
672.779
672.350
664.659
661.942
663.891
670.719
662.108
660.107
655.056
654.347
662.618
651.096
656.821
650.626
654.939
656.706
646.026
646.877
642.426
651.463
640.073
654.625
651.882
655.430
647.854
652.664
660.879
653.880
664.057
658.621
669.598
665.885
671.738
673.987
666.556
674.323
667.018
671.571
680.437
678.215
673.468
682.271
678.116
687.585
687.117
680.523
691.954
683.776
684.478
694.182
690.334
704.763
694.548
706.414
706.665
698.311
707.718
713.112
703.504
715.378
717.450
716.632
720.823
708.187
714.991
711.310
714.263
725.194
728.858
719.827
731.969
728.553
737.247
731.459
725.708
736.990
730.308
733.252
733.302
736.800
745.962
737.721
752.495
742.216
751.169
757.424
759.271
747.228
749.852
760.027
763.243
759.083
768.853
766.854
764.789
768.640
766.185
774.351
770.642
768.326
780.950
770.265
783.119
772.244
788.741
787.322
788.827
780.006
786.846
790.190
799.061
790.579
797.068
795.956
792.743
793.248
802.186
800.121
811.829
799.044
809.446
802.247
813.669
804.737
806.119
821.217
810.380
821.162
822.549
825.089
828.223
832.283
829.346
833.546
828.958
831.217
838.228
827.273
842.888
841.178
831.970
838.017
842.895
847.129
841.418
847.196
856.589
850.301
844.606
860.837
848.539
854.396
854.006
861.341
862.199
861.047
872.986
872.524
862.913
871.968
869.802
873.201
882.303
875.809
880.927
877.133
882.136
885.441
887.228
887.478
883.918
883.733
892.087
895.037
895.956
889.359
899.161
903.054
898.190
908.953
910.442
909.091
902.181
908.518
907.996
903.825
907.373
918.398
914.273
915.530
918.400
928.692
923.245
925.277
925.288
921.124
923.931
924.104
924.699
927.746
930.583
932.407
940.108
944.221
949.874
951.525
950.264
953.210
944.118
952.080
949.091
958.336
954.247
951.081
953.610
958.646
959.891
963.544
961.861
970.068
967.763
968.721
966.403
957.745
955.869
965.620
960.571
957.083
958.358
951.915
959.100
953.185
955.471
958.609
947.750
960.035
947.146
943.042
955.888
952.325
948.742
943.847
944.121
948.473
937.192
940.488
941.439
945.348
945.386
938.287
945.545
943.829
940.199
937.512
931.853
928.731
934.460
935.190
938.056
936.048
928.023
934.842
928.891
920.881
917.874
925.235
929.976
919.023
913.361
921.990
919.063
914.807
912.985
922.457
921.484
914.825
917.861
915.842
906.578
915.059
900.735
907.678
902.417
908.926
909.251
911.145
900.299
906.806
903.374
903.675
906.273
891.460
902.714
892.754
887.006
901.544
895.425
885.146
884.240
895.434
885.911
892.791
886.253
886.598
885.143
879.470
881.810
881.185
878.223
881.721
877.043
872.502
879.004
869.898
874.029
877.088
874.117
878.520
865.462
871.214
875.295
873.895
874.359
870.004
862.769
866.187
855.737
866.017
865.303
863.919
852.159
861.657
862.615
852.790
849.327
851.094
847.753
858.186
855.450
849.754
843.656
846.843
846.714
852.127
849.745
844.909
840.262
843.099
839.568
846.715
845.324
843.170
839.681
840.024
839.550
831.326
830.618
838.266
832.201
833.900
835.288
835.897
829.782
833.764
824.137
831.948
817.574
823.262
826.174
815.165
817.616
814.305
814.952
812.067
817.149
817.794
810.565
818.532
817.132
805.175
817.191
809.013
800.061
810.533
806.210
808.727
798.544
798.090
794.340
803.808
807.139
806.030
802.679
803.471
803.138
797.352
791.615
794.138
785.836
798.327
788.315
786.279
794.356
782.446
788.348
787.439
779.206
781.657
787.099
787.216
787.214
771.464
782.977
779.209
783.841
782.346
779.269
780.594
773.886
778.469
762.318
775.338
764.220
