135.930
122.371
132.465
97.159
127.407
122.855
114.234
112.769
101.270
116.506
103.744
96.467
114.958
135.428
141.478
139.321
129.394
131.323
143.595
110.580
134.591
112.594
144.949
128.741
138.571
109.411
106.425
145.222
145.463
95.589
99.578
141.756
107.359
146.621
121.665
137.442
114.266
98.239
136.380
102.000
126.071
140.093
146.065
138.821
145.886
121.781
130.934
140.651
103.667
109.560
131.317
97.567
142.156
103.188
96.361
140.701
107.920
116.422
124.408
141.232
128.643
114.338
136.990
124.328
139.289
130.723
142.164
101.736
127.687
125.899
100.313
146.143
141.702
100.972
125.498
133.398
137.521
146.652
97.126
142.927
112.592
135.638
114.310
125.049
95.303
109.743
97.498
96.658
140.378
134.792
108.217
132.941
95.815
125.615
109.041
96.827
142.691
113.482
95.172
136.291
98.809
120.896
128.577
112.794
146.477
117.647
118.627
118.164
120.123
120.392
139.614
122.631
114.570
124.483
116.658
113.633
121.254
104.204
122.752
135.076
137.376
130.936
120.736
139.798
97.141
127.678
100.196
130.728
133.878
132.705
110.350
145.291
97.672
139.392
108.992
127.595
121.936
104.421
101.774
116.248
139.319
97.462
96.009
118.313
95.967
96.297
137.730
143.528
144.885
141.509
136.960
120.157
124.697
113.556
99.057
107.416
111.638
123.976
142.297
97.638
144.272
111.291
131.530
127.163
97.685
129.600
131.596
139.615
122.385
121.141
97.592
127.391
105.657
132.253
112.682
139.236
109.453
139.257
145.648
124.756
136.638
122.269
141.473
131.030
122.733
120.084
100.923
100.227
140.327
95.057
101.685
130.269
115.629
130.607
130.369
103.212
125.005
109.486
114.197
95.027
110.504
118.470
138.490
108.661
109.570
102.072
114.168
112.748
115.392
115.248
97.907
115.167
119.799
99.881
137.885
118.853
135.796
120.070
120.590
131.256
118.224
100.855
104.727
109.823
103.878
120.873
98.020
125.062
142.044
102.482
131.189
144.498
105.764
120.057
141.586
100.231
139.383
97.686
144.652
140.772
138.683
142.434
135.483
122.060
109.043
128.935
100.479
120.116
116.853
99.828
142.927
134.265
136.720
110.576
122.214
138.255
140.405
99.841
124.035
111.418
96.696
121.864
138.200
99.379
106.611
126.996
106.070
96.462
122.559
96.168
119.765
109.381
141.432
109.123
103.823
144.544
116.686
128.902
118.646
145.741
101.509
141.154
97.180
142.442
106.918
108.153
119.801
128.270
132.047
99.550
123.096
132.903
143.439
138.980
143.459
95.799
97.005
128.576
139.472
125.416
144.698
118.899
133.730
115.778
115.378
96.208
133.466
108.399
129.435
100.476
123.504
111.054
140.035
104.563
111.637
103.319
105.211
113.971
108.050
125.532
146.000
116.294
145.800
123.807
129.881
130.022
121.834
130.524
138.845
145.700
122.649
113.987
142.040
99.814
134.973
104.203
124.086
134.054
122.846
145.691
112.480
106.521
140.165
96.907
137.337
119.927
133.732
104.927
118.270
115.461
137.486
114.655
118.665
127.346
106.952
112.482
119.690
41.655
35.865
34.974
40.069
30.693
43.246
43.839
33.783
40.093
30.079
41.045
34.535
36.947
31.138
35.417
30.869
32.080
44.096
34.695
36.404
30.904
34.053
40.420
34.878
41.773
33.010
38.985
36.537
36.894
29.607
38.891
37.295
44.269
32.980
32.100
45.022
30.048
42.367
40.348
43.930
35.066
923.028
930.122
913.590
937.489
948.735
935.776
956.702
961.320
954.607
966.554
954.080
963.716
981.691
979.387
968.651
992.699
981.732
979.441
996.225
989.255
1013.726
992.527
1016.924
1019.583
1007.361
1029.590
1038.847
1024.968
1044.238
1027.092
1041.119
1057.668
1043.819
1062.823
1055.972
1074.677
1052.358
1060.409
1077.553
1067.510
1087.403
1097.349
1078.794
1089.099
1101.834
1117.274
1093.560
1122.754
1115.374
1120.592
1125.591
1120.026
1120.999
1139.297
1136.716
1139.102
1134.778
1148.572
1145.006
1149.856
1172.089
1173.985
1174.515
1185.045
1194.559
1184.004
1200.103
1196.808
1195.056
1199.890
1194.629
1220.010
1223.291
1207.047
1237.529
1229.435
1222.938
1246.837
1244.996
1240.694
1253.995
1245.061
1262.782
1267.494
1270.201
1264.513
1279.426
1281.185
1288.556
1288.355
1277.406
1294.000
1304.260
1296.575
1294.198
1317.550
1321.674
1305.731
1329.786
1330.146
746.260
734.408
748.591
752.155
741.208
750.384
754.949
751.237
755.350
766.613
757.840
767.852
768.123
774.236
775.222
778.286
776.426
781.166
781.104
780.226
783.887
790.214
782.666
795.973
796.136
790.009
803.321
798.320
800.751
801.247
815.604
812.541
814.918
807.338
818.332
824.164
820.095
821.352
824.619
830.768
823.123
837.863
831.039
840.135
837.059
834.920
846.026
847.995
848.533
851.968
847.898
859.561
854.544
855.029
867.486
869.796
867.164
864.661
865.877
870.913
876.678
879.928
877.867
881.306
886.410
880.262
883.754
899.039
893.830
892.395
906.652
909.393
900.070
909.925
915.048
911.127
906.339
922.420
911.297
927.565
915.545
921.659
918.825
921.602
932.574
938.471
937.793
932.772
937.969
937.500
939.434
954.425
946.636
944.752
950.554
956.539
963.811
966.932
963.325
971.335
974.546
963.199
966.377
966.771
969.033
962.404
962.084
950.701
958.496
948.637
947.322
946.149
951.049
951.524
953.807
948.878
945.171
948.210
934.873
941.753
936.832
935.566
932.518
927.440
933.693
937.314
936.474
926.593
929.928
932.269
926.803
921.317
917.057
911.917
917.517
912.570
918.768
910.489
910.860
905.547
901.299
903.604
911.362
911.214
909.144
896.065
899.908
903.131
901.817
894.121
896.252
892.543
899.462
882.498
890.414
893.294
882.270
887.178
888.566
874.818
875.727
882.980
876.456
879.825
870.432
869.357
866.558
872.893
866.389
870.466
861.093
861.815
856.706
857.118
853.559
851.289
850.747
851.559
851.457
855.741
852.067
853.700
842.543
839.962
844.068
841.605
839.607
838.864
845.041
839.548
831.184
834.044
832.271
838.329
826.190
821.882
822.329
821.610
828.728
820.084
817.307
827.551
815.950
811.489
817.438
820.041
812.419
803.483
810.845
810.478
811.362
811.007
801.569
795.635
795.835
804.308
795.669
797.219
787.348
792.212
788.662
794.453
785.408
781.093
784.400
787.448
790.509
774.950
787.945
779.359
778.641
783.403
767.693
779.994
768.903
765.635
763.114
767.012
762.370
762.211
765.393
762.119
758.186
764.110
757.070
754.211
755.337
757.825
758.015
744.426
747.405
741.257
743.257
743.822
736.006
735.133
737.883
732.286
734.513
740.908
735.314
732.137
733.890
725.803
719.273
731.882
727.190
715.059
729.378
719.100
713.858
721.467
721.270
716.904
718.952
713.849
710.357
707.761
705.705
710.112
702.116
702.322
703.110
700.339
695.161
703.041
698.169
689.446
691.296
690.197
686.812
692.313
689.222
678.412
685.996
689.190
685.286
676.150
682.479
671.134
673.256
679.215
674.806
679.442
681.029
684.186
677.925
686.698
683.793
688.837
689.303
680.692
690.309
692.278
687.114
692.407
684.381
683.974
684.721
692.178
683.170
690.367
689.170
700.650
690.268
696.005
692.600
698.631
700.719
701.754
695.341
701.771
693.185
701.006
698.806
698.995
706.359
697.662
700.937
702.635
709.666
705.764
703.561
711.278
711.611
705.961
709.588
714.205
707.586
719.874
711.766
721.486
719.436
725.252
718.416
720.379
715.088
719.088
719.547
715.601
724.467
730.638
729.473
732.772
722.000
726.297
729.749
733.582
735.955
729.394
737.741
731.216
735.089
733.686
727.296
736.376
730.181
736.479
743.345
742.409
736.315
740.476
733.342
746.873
739.534
739.064
745.931
750.796
739.158
750.166
753.557
750.296
756.614
743.452
756.301
756.456
749.574
751.487
754.993
754.164
758.917
750.264
752.872
763.620
751.963
762.867
753.375
754.789
755.248
768.932
764.105
772.268
767.695
759.020
771.203
768.912
768.038
764.754
763.407
772.178
771.627
774.389
779.673
777.121
768.593
781.359
780.859
777.392
785.124
772.445
774.801
778.823
788.978
781.771
785.139
786.743
779.244
793.386
784.314
791.815
782.164
792.238
782.648
782.630
788.820
790.583
789.086
788.062
789.556
799.320
796.328
800.242
797.356
804.011
803.329
799.858
798.250
794.947
806.838
805.291
812.020
811.734
805.680
806.483
809.162
801.567
811.407
806.769
805.345
805.789
813.282
819.903
815.367
807.281
811.615
814.595
812.195
813.517
823.695
825.251
814.324
819.847
814.519
830.626
821.742
819.291
819.336
820.572
834.654
827.794
834.353
829.951
824.777
829.455
825.799
837.436
831.797
836.121
835.031
835.099
843.883
841.764
840.848
838.044
831.791
843.427
841.798
845.128
845.340
834.327
840.589
848.247
836.782
844.145
835.500
839.047
850.977
845.857
849.337
852.205
848.807
851.458
845.810
847.638
850.407
851.341
842.695
849.488
854.312
845.580
849.209
851.393
856.780
847.162
846.473
853.017
855.261
853.618
855.108
857.750
853.235
858.718
859.753
861.846
849.135
852.644
858.814
863.479
856.081
852.593
863.020
857.839
866.554
861.488
858.276
862.716
855.190
860.213
861.324
866.915
859.155
855.814
859.817
866.555
857.043
869.457
870.698
872.882
862.596
870.975
860.006
859.496
868.562
873.320
870.242
871.735
863.310
870.241
873.348
869.013
875.283
866.694
876.731
864.695
871.488
870.922
866.450
876.730
879.660
874.754
882.412
873.333
870.162
873.677
870.464
873.080
877.821
878.307
883.387
882.323
876.543
883.666
875.450
888.423
887.056
889.315
875.169
889.028
884.975
879.323
881.258
890.120
886.810
888.400
878.196
880.444
890.791
882.998
893.446
890.818
883.568
884.133
882.277
897.084
883.059
889.580
887.771
883.512
894.877
885.688
891.893
895.896
888.698
887.478
893.043
900.516
891.632
893.668
891.214
896.278
890.659
896.189
903.688
892.193
905.043
891.190
897.203
903.037
904.270
906.471
898.648
903.232
903.628
902.906
908.281
908.677
905.593
904.606
905.865
910.061
898.092
901.706
904.795
905.484
899.837
904.812
907.517
905.672
913.900
916.436
907.072
911.235
909.393
905.337
908.984
909.531
915.759
905.023
909.783
921.707
907.771
908.329
922.918
912.338
916.159
910.673
913.915
919.507
920.494
913.891
916.363
917.850
918.845
926.281
918.529
925.921
917.020
919.953
919.809
921.184
925.712
928.055
929.686
925.887
920.224
934.206
922.722
922.299
929.360
926.533
927.933
925.386
925.408
935.748
933.545
940.981
926.723
927.838
940.548
936.719
933.467
933.331
941.396
936.606
942.841
938.863
939.220
943.744
946.809
941.637
951.784
939.257
945.810
941.601
946.420
943.011
951.488
944.569
953.475
943.660
953.235
944.777
948.683
954.597
946.377
962.419
947.386
958.421
957.133
954.953
955.936
952.565
954.066
963.682
953.246
965.004
968.145
955.988
964.946
957.929
971.379
968.596
968.669
974.648
973.503
966.037
968.072
969.647
964.870
970.613
978.229
972.362
968.497
981.915
972.101
972.648
973.058
973.232
972.235
972.041
982.207
974.677
972.691
976.179
977.905
983.064
977.634
982.681
978.066
982.876
980.695
991.117
993.277
987.853
986.317
993.227
982.725
989.574
995.700
993.701
997.437
993.210
994.395
995.948
994.323
1001.757
989.668
1001.752
997.972
992.857
998.380
996.539
1005.559
1002.969
1005.494
996.693
1002.726
1012.073
1000.685
1001.380
1011.263
1005.225
1011.545
1003.216
1017.858
1011.404
1016.224
1016.604
1014.736
1021.496
1015.903
1014.101
1021.252
1016.992
1023.483
1012.443
1023.488
1017.938
1018.035
1026.356
1019.730
1024.805
1026.439
1029.790
1026.218
1029.934
1025.625
1028.339
1028.166
1031.542
1036.175
1035.885
1029.892
1030.373
1024.100
1024.989
1028.356
1026.388
1036.281
1037.722
1032.416
1039.974
1041.577
1040.908
1042.813
1040.571
1035.570
1045.623
1048.865
1046.651
1047.202
1037.328
1050.164
1043.656
1037.623
1040.418
1045.515
1053.083
1043.651
1050.758
1043.921
1057.453
1051.148
1047.653
1044.287
1045.048
1054.689
1046.713
1053.797
1061.053
1054.142
1049.344
1050.144
1052.151
1064.777
1055.209
1056.639
1068.114
1056.818
1062.771
1057.928
1055.315
1066.854
1051.527
1064.830
1055.286
1055.188
1050.815
1044.922
1055.233
1042.151
1052.293
1040.855
1043.741
1039.865
1035.140
1041.203
1045.496
1038.770
1030.405
1028.600
1024.626
1033.602
1021.200
1028.066
1018.189
1020.629
1019.237
1016.761
1020.229
1012.367
1016.299
1012.300
1019.214
1007.080
1006.564
1003.550
1001.762
1005.798
1007.946
999.115
998.979
1007.992
991.111
1003.219
990.271
991.989
997.494
996.811
984.405
982.915
984.265
988.811
980.842
988.660
985.984
980.155
977.708
977.253
982.118
980.365
968.755
978.128
964.161
968.532
964.561
961.245
967.956
959.418
955.280
954.379
955.035
947.449
951.350
955.420
946.365
944.173
954.286
938.754
952.151
941.262
936.734
938.383
942.480
941.077
939.975
927.711
926.927
936.604
930.528
925.858
929.974
930.880
927.322
918.018
917.027
915.231
920.229
922.137
913.675
910.884
905.126
911.914
907.209
906.928
902.126
905.519
895.724
901.777
897.464
891.038
899.151
895.050
896.893
885.025
888.420
890.556
891.835
885.937
877.585
888.443
884.649
879.450
879.802
876.049
875.957
879.695
878.599
877.951
876.890
868.361
860.978
859.883
860.549
856.644
863.351
863.880
852.798
858.864
856.625
850.743
852.951
843.334
848.812
847.087
837.675
844.864
838.760
833.461
837.002
834.429
836.622
830.865
829.829
836.540
830.795
829.236
821.090
831.488
820.883
829.002
818.289
822.968
823.333
820.062
817.683
816.086
817.149
803.155
809.046
811.256
812.827
798.130
810.775
805.754
803.916
803.992
791.149
788.021
792.777
795.337
793.877
793.820
793.774
780.868
788.676
777.461
788.134
776.414
771.417
772.207
779.487
779.699
772.412
765.861
762.087
764.865
761.865
764.097
761.339
767.749
757.314
766.413
768.166
758.779
755.634
757.122
762.847
764.425
752.970
752.654
756.786
750.462
745.562
752.088
756.248
753.705
755.686
745.136
757.118
746.286
748.671
747.312
750.259
741.107
745.453
746.313
748.786
745.185
748.071
740.835
738.630
737.587
740.090
742.601
730.286
743.703
740.319
738.948
727.570
731.729
731.759
741.247
727.077
726.772
723.573
722.668
732.461
734.448
723.790
724.953
721.904
724.942
729.109
718.274
716.988
726.732
717.616
723.862
718.231
721.851
719.144
712.273
715.534
717.172
715.024
723.072
711.078
717.583
719.676
720.078
717.495
716.436
710.174
711.412
717.814
711.624
712.149
712.817
700.618
710.737
708.218
701.472
698.042
710.595
707.638
705.938
707.819
705.089
705.291
700.286
691.317
705.904
695.370
696.423
692.468
696.951
697.943
687.317
692.767
689.728
689.769
694.765
688.889
683.913
688.761
690.562
685.789
681.828
687.182
691.536
682.131
685.764
683.143
684.612
686.051
684.437
682.374
679.050
678.539
684.268
672.878
681.119
669.976
674.449
673.102
669.239
666.888
668.877
669.284
680.229
676.449
670.237
667.778
667.648
676.392
668.252
662.729
659.849
666.347
670.599
662.032
668.010
669.651
656.073
656.827
661.409
656.357
662.901
662.167
666.165
661.785
664.471
651.339
659.541
660.095
659.349
654.564
659.948
652.315
654.258
643.429
642.462
645.998
652.333
648.619
640.342
652.341
649.553
648.412
640.886
645.856
644.887
648.184
635.662
633.037
646.390
637.304
639.300
640.811
640.237
635.817
643.965
635.608
638.551
636.212
625.695
634.528
633.092
634.778
629.861
623.729
632.929
632.771
621.328
631.411
631.061
632.923
625.919
618.347
629.637
621.274
620.838
633.761
633.753
636.601
629.535
625.692
630.885
635.539
639.793
632.300
630.005
633.672
641.553
647.034
644.355
639.341
636.626
649.102
641.121
650.570
654.266
654.488
655.935
645.311
648.065
658.794
649.843
651.800
659.518
662.487
663.580
664.627
668.064
662.373
664.916
662.465
664.806
666.938
663.633
674.264
662.662
668.499
671.040
678.375
668.992
667.122
671.425
682.788
682.833
679.581
684.455
686.253
676.056
676.506
692.004
680.401
693.408
681.323
687.121
686.649
683.901
687.561
694.969
690.026
701.417
690.001
697.364
695.903
692.974
702.327
703.742
700.855
699.875
700.564
710.004
715.686
708.757
716.500
713.139
711.172
705.419
719.005
713.893
710.198
723.173
713.909
718.149
716.160
717.208
724.839
727.598
729.815
725.287
733.525
736.517
734.161
725.895
727.165
735.294
741.413
736.493
739.715
737.113
742.295
733.716
736.579
738.343
740.799
749.206
742.475
748.093
744.322
751.319
744.443
755.934
752.740
751.199
758.631
752.464
752.753
751.450
755.682
754.157
761.299
754.385
768.012
771.387
769.178
772.313
760.191
770.344
762.146
777.944
777.553
778.580
780.885
772.624
771.220
771.960
784.422
780.803
785.013
779.919
789.068
775.615
790.016
790.522
788.000
781.754
781.013
784.372
797.761
798.176
787.700
789.919
789.301
803.600
801.871
806.316
800.888
796.273
799.020
801.721
805.660
808.431
806.417
810.264
813.989
815.698
806.798
807.110
805.784
811.705
823.176
823.043
819.810
812.520
822.546
826.939
821.318
823.846
816.449
826.711
829.467
829.755
833.890
834.674
835.236
830.412
829.317
828.375
833.877
837.559
834.786
836.058
831.556
832.828
843.188
842.913
845.288
