146.470
109.308
133.455
116.880
118.946
133.337
107.418
144.216
128.788
128.686
139.733
133.185
99.939
145.137
125.683
109.199
118.752
142.118
95.301
114.839
98.474
118.163
142.073
112.986
144.088
144.314
124.309
134.622
106.838
105.853
140.711
102.368
121.900
98.744
127.214
105.094
127.504
102.334
139.549
97.507
113.619
135.616
128.775
124.591
134.856
111.114
104.284
106.854
96.482
116.355
136.069
143.338
126.621
99.814
137.661
142.997
109.027
123.987
106.752
135.479
108.918
101.286
123.691
98.050
144.364
102.791
127.568
134.698
145.509
125.517
125.978
101.912
99.587
143.260
99.300
138.678
132.035
116.943
114.332
143.947
129.510
96.578
105.810
113.957
96.540
99.542
107.924
95.884
100.003
133.408
97.083
110.538
108.013
125.115
106.268
106.631
109.359
124.228
124.918
115.461
108.982
134.342
112.258
126.999
130.111
103.957
128.502
135.896
95.329
135.991
99.705
101.782
96.647
101.394
96.054
125.284
108.484
132.815
141.419
130.124
135.893
105.698
100.729
125.095
104.879
123.468
114.469
136.548
146.213
103.492
134.762
134.075
122.196
112.642
133.615
114.183
130.577
103.081
102.961
137.176
110.277
145.668
134.948
112.019
121.260
105.369
95.042
100.157
142.895
123.065
130.911
122.226
108.928
119.704
110.269
119.983
100.284
143.649
131.533
112.183
137.145
120.373
127.795
126.869
123.849
120.647
137.477
118.992
138.829
135.877
119.648
120.325
108.030
139.400
130.417
131.733
112.495
134.052
102.133
99.820
134.463
102.191
140.613
134.716
130.838
117.102
105.276
137.224
109.639
107.062
116.112
131.971
123.547
144.211
114.576
140.152
121.055
132.262
100.584
115.734
106.059
138.261
117.314
142.133
103.996
129.526
126.610
116.211
138.451
126.533
142.213
112.212
103.629
105.613
142.500
132.283
140.477
122.665
140.345
136.163
143.480
140.382
102.801
139.751
108.575
146.216
100.577
95.055
136.834
136.536
118.928
126.212
125.583
95.714
121.967
125.644
136.561
106.135
136.669
141.389
130.624
113.905
109.637
95.796
107.242
134.232
102.579
132.730
99.747
95.834
127.547
136.734
105.595
106.900
126.721
105.747
116.113
135.520
126.629
102.368
112.784
98.054
105.965
141.752
108.049
100.596
122.292
115.672
96.675
104.104
96.071
123.400
138.749
144.341
115.038
134.587
98.433
112.551
138.840
110.544
106.595
94.863
115.001
128.793
125.770
130.015
108.076
139.005
117.376
128.270
130.545
131.579
105.868
139.415
123.539
133.818
129.133
117.393
102.035
115.168
116.157
95.018
131.723
113.778
117.341
132.990
136.691
126.197
145.496
123.397
103.793
117.246
146.357
113.186
117.333
143.371
132.632
100.430
100.834
105.687
100.189
121.405
139.782
146.286
128.620
122.124
124.381
97.517
115.255
125.764
128.781
111.687
99.706
103.524
95.809
135.957
121.263
131.998
131.425
142.887
96.047
141.210
135.840
131.537
135.390
110.075
109.877
107.387
118.468
98.576
100.575
141.083
106.039
142.961
129.248
109.719
108.608
125.186
126.046
102.455
135.762
137.033
126.828
105.466
132.195
133.955
128.672
123.034
103.280
110.093
101.756
116.139
126.184
143.374
109.202
122.694
114.873
138.283
107.177
128.675
104.579
115.858
143.973
140.698
126.007
129.024
137.466
144.897
106.456
103.760
128.123
145.229
100.767
132.388
122.401
102.142
126.901
144.260
127.967
115.472
123.614
110.321
133.267
124.557
98.053
118.646
103.362
122.594
126.713
144.246
136.000
98.641
110.325
110.328
121.260
133.155
147.436
103.218
146.985
139.661
131.142
134.375
99.229
126.242
130.769
99.645
126.601
116.595
131.604
114.102
103.559
131.139
105.337
109.171
115.315
129.044
128.558
135.025
140.906
141.427
147.781
118.136
121.207
110.933
117.527
100.970
109.714
102.824
136.062
147.833
143.019
124.506
122.264
113.044
121.764
111.954
134.902
100.733
130.778
106.664
99.380
105.581
130.532
107.075
113.598
146.327
132.277
107.303
118.416
135.790
102.650
145.768
119.398
140.494
131.053
112.336
114.710
131.816
140.139
124.149
46.434
31.947
37.500
46.350
40.103
30.784
43.007
41.883
43.799
40.175
42.932
33.001
40.223
46.596
34.540
32.222
39.454
35.700
30.925
46.569
36.826
39.356
39.668
44.606
41.026
44.412
32.148
46.336
46.919
40.530
32.691
43.645
31.649
34.588
37.097
46.388
34.844
37.368
40.051
45.948
44.771
31.735
34.510
35.128
36.053
41.870
36.579
1288.423
1305.981
1312.482
1290.885
1294.842
1290.300
1303.681
1308.492
1289.196
1306.017
1305.521
1299.645
1286.164
1302.423
1311.005
1294.699
1295.215
1295.010
1291.574
1292.159
1288.089
1310.627
1309.415
1296.082
1284.190
1296.538
1304.389
1310.517
1297.734
1304.927
1293.200
1299.873
1301.322
1297.857
1293.077
1303.854
1305.606
1299.575
1294.334
1300.162
1301.591
1299.119
1302.344
1293.421
1299.539
1292.152
1291.527
1278.940
1290.046
1302.487
1278.236
1283.065
1288.291
1290.420
1280.970
1303.760
1288.321
1289.532
1279.609
1298.185
1296.668
1285.170
1276.138
1292.943
1298.268
1288.371
1288.923
1293.780
1301.794
1294.338
1293.641
1291.978
1284.092
1289.935
1284.772
1279.810
1285.166
1284.668
1276.409
1287.596
1273.899
1290.952
1299.789
1272.129
1280.567
1292.324
1276.498
1287.537
1286.956
1280.330
1293.368
1274.677
1298.164
1283.221
1271.804
1291.288
1286.647
1289.417
1293.553
1277.700
716.275
716.140
707.657
714.694
705.407
704.893
719.745
713.408
716.659
707.472
705.231
717.025
710.608
706.820
707.000
718.781
718.026
704.295
705.730
705.853
716.057
717.275
713.089
713.807
712.431
711.626
717.393
715.450
703.782
704.045
713.727
706.405
710.296
709.950
715.352
711.660
704.768
708.193
704.345
710.230
711.184
715.204
710.673
713.776
710.635
707.350
709.862
712.112
707.352
713.197
703.714
713.250
715.004
699.812
711.869
700.936
702.223
703.408
703.303
708.413
713.016
713.676
702.071
704.980
704.811
708.746
707.397
709.960
703.097
709.836
711.860
699.224
711.824
704.181
708.485
711.285
709.588
700.464
701.896
699.474
705.404
703.921
699.245
707.629
704.601
702.376
708.942
708.927
699.520
707.611
705.756
700.681
709.751
696.008
699.440
706.365
698.740
706.122
704.843
700.276
704.821
706.554
694.825
699.542
694.907
693.665
702.440
703.598
701.378
693.944
692.940
698.858
702.914
699.474
692.536
699.654
692.944
695.672
692.771
698.334
703.870
692.056
699.648
694.255
702.615
692.524
702.911
702.891
704.729
693.914
703.728
695.432
698.625
701.623
705.123
704.484
705.035
704.644
705.809
693.501
694.134
691.129
697.910
703.968
690.638
690.770
694.358
701.154
690.249
696.830
694.251
694.553
699.427
695.532
693.348
697.322
698.497
698.330
703.545
688.651
700.833
690.847
701.284
689.910
699.584
699.982
696.245
697.479
699.196
702.560
701.278
687.595
697.262
699.960
702.596
686.580
694.817
699.778
697.694
696.754
699.203
695.085
693.827
691.742
689.031
695.409
691.934
697.780
700.618
686.426
696.040
689.032
691.045
697.538
698.616
698.229
686.400
697.242
692.761
696.148
698.713
688.745
692.750
685.778
687.477
690.829
690.639
690.166
697.382
698.558
686.286
698.248
690.028
694.058
691.420
695.622
690.849
696.900
694.548
691.921
691.628
687.227
692.177
683.638
696.222
685.208
695.215
682.780
691.093
682.970
696.939
692.344
682.599
690.804
687.997
690.140
696.316
695.262
685.388
693.030
692.697
692.076
685.150
687.435
680.764
691.556
682.878
680.793
689.958
684.522
683.411
680.047
691.111
691.323
679.471
683.838
693.505
693.053
679.918
680.722
684.591
685.374
691.039
684.464
684.218
692.612
688.402
680.140
684.230
692.247
677.424
686.963
677.917
681.287
688.386
687.884
687.853
684.249
679.253
690.950
678.947
689.934
678.754
690.025
683.864
680.821
678.823
688.262
676.731
687.002
676.321
688.364
683.516
681.044
687.199
684.187
682.483
684.186
689.643
684.077
686.431
684.933
689.548
692.256
692.335
683.037
695.388
685.489
684.694
683.548
694.803
689.838
692.077
697.550
699.012
696.230
695.987
690.852
703.660
691.715
693.758
695.538
708.137
708.921
702.238
707.367
710.063
713.098
700.414
707.109
703.296
707.525
705.309
704.819
707.691
713.274
708.708
715.488
708.601
722.341
714.290
713.570
712.184
725.352
729.357
724.029
721.309
728.911
732.328
728.553
726.650
723.240
729.854
732.423
733.969
734.889
731.449
738.631
727.688
733.785
743.051
737.107
733.970
743.201
731.613
735.995
748.545
734.390
750.587
749.706
745.922
747.323
740.869
752.949
745.798
752.024
754.155
747.389
750.503
758.966
750.469
750.480
760.446
751.925
754.612
765.665
754.322
764.410
766.148
764.198
756.357
757.824
763.134
764.245
773.392
761.289
760.280
776.218
761.691
773.143
771.488
770.636
769.744
771.025
779.183
780.906
780.977
782.197
783.144
772.420
777.092
780.435
783.825
789.927
785.473
786.253
792.570
781.364
794.159
795.205
781.961
785.018
783.411
795.499
798.710
796.016
791.185
799.470
799.149
797.837
799.942
801.797
801.885
795.071
807.438
804.716
797.649
806.918
801.420
803.543
802.078
799.786
802.411
804.336
814.727
811.826
805.385
809.213
807.402
808.013
807.798
814.867
816.082
817.694
820.938
826.720
817.054
816.158
818.648
818.427
820.759
828.004
826.701
833.537
831.534
824.012
833.174
833.004
827.506
836.103
829.582
840.357
839.716
833.326
830.606
830.805
846.578
835.635
847.047
846.791
840.626
837.986
843.931
841.143
849.074
840.744
855.063
853.221
849.473
844.454
849.628
846.850
851.002
851.513
847.115
857.738
859.805
857.888
856.031
862.284
864.698
865.754
865.020
857.780
852.582
851.274
866.303
862.393
851.860
855.162
851.081
856.844
854.352
848.939
855.409
851.168
850.267
855.624
860.935
856.207
859.274
849.301
854.268
851.654
858.581
851.013
856.589
849.508
851.574
854.822
858.664
844.217
851.814
843.236
842.689
843.498
853.496
844.545
846.014
840.503
852.246
855.165
852.073
840.837
842.878
840.690
847.417
853.054
839.195
845.940
850.476
838.204
845.612
839.856
846.633
847.732
836.843
842.386
844.628
837.384
841.420
834.498
841.891
836.196
843.034
842.272
832.202
847.112
839.948
830.860
831.620
833.618
829.961
830.456
831.257
842.331
843.778
831.586
830.735
836.124
840.739
828.713
832.698
837.184
831.726
829.449
827.163
828.773
831.444
834.934
829.932
830.326
830.307
832.922
837.861
827.382
828.944
822.044
830.246
836.723
824.011
834.075
824.650
831.975
827.258
823.045
824.962
827.603
833.263
823.456
824.320
818.647
828.184
826.169
818.525
819.687
817.262
822.548
824.849
816.204
830.203
817.073
816.628
828.414
823.357
819.651
813.624
813.318
820.257
825.273
823.600
816.179
826.331
818.681
818.323
825.969
813.089
818.016
819.478
823.625
819.203
820.285
818.002
808.712
822.238
812.547
817.076
816.870
813.275
820.887
819.644
817.509
810.397
810.240
815.699
810.663
811.682
813.742
813.763
814.276
809.423
805.022
813.948
804.571
810.263
803.245
815.486
807.151
801.745
813.789
799.546
803.490
810.777
798.716
806.121
801.907
802.602
803.391
803.448
809.940
807.341
810.376
805.222
809.556
808.812
803.677
797.568
799.591
795.607
800.643
794.006
801.818
800.135
803.463
792.848
793.741
794.491
799.135
791.034
803.405
802.515
803.073
799.181
798.423
787.761
792.225
793.981
791.352
786.423
790.398
785.441
795.619
792.028
789.501
788.150
781.664
789.981
781.828
789.909
787.930
792.768
783.618
785.780
782.557
789.955
780.358
778.465
781.690
788.828
788.524
779.665
786.361
785.163
780.894
772.351
784.944
780.783
781.040
780.948
782.787
775.337
771.989
773.953
774.604
767.698
776.589
777.653
778.919
765.074
775.468
771.125
764.724
763.797
762.267
763.151
763.654
765.949
760.308
764.561
757.614
762.507
770.208
770.739
770.897
765.022
764.302
757.614
761.644
759.207
754.469
751.470
759.665
756.690
757.110
764.224
758.085
763.763
756.972
752.192
759.266
754.141
757.191
760.637
754.235
754.403
753.265
753.464
750.113
745.854
745.357
753.614
750.883
747.414
747.311
750.911
753.185
741.867
742.052
744.268
738.459
744.358
746.446
747.273
744.294
748.600
746.173
745.315
738.862
737.168
744.318
741.099
743.956
736.797
741.456
733.166
728.774
729.066
735.938
728.281
734.464
737.196
736.751
738.107
732.030
721.871
732.790
729.520
735.016
720.291
725.910
721.986
733.002
732.242
725.155
722.197
722.526
717.345
714.736
716.568
723.922
716.011
716.459
713.409
711.529
712.462
718.778
721.429
721.220
721.829
722.357
718.400
712.439
717.718
706.249
720.806
711.707
708.134
712.661
715.815
709.345
705.959
705.338
710.040
712.029
704.342
713.289
712.784
709.226
704.646
710.985
699.086
707.568
704.508
710.154
697.214
699.608
693.978
700.707
697.332
703.126
692.827
696.263
695.077
703.027
692.038
698.186
699.909
699.085
695.125
689.134
686.075
687.350
700.414
692.170
688.046
698.198
688.327
695.996
686.603
694.894
690.928
683.744
685.048
687.239
696.126
690.993
693.822
693.515
687.538
691.198
693.211
702.653
699.606
691.885
698.551
697.745
707.530
705.562
701.685
707.395
709.301
705.619
709.955
711.146
713.077
704.341
712.148
710.550
704.945
710.073
713.443
710.680
713.900
715.923
713.009
723.059
725.705
725.964
722.618
719.818
728.488
730.595
716.042
730.992
720.833
722.728
734.006
725.212
732.809
726.533
733.668
735.041
729.487
726.365
727.790
732.011
728.887
737.783
739.574
734.491
740.646
735.733
748.001
734.843
749.948
743.058
745.638
750.846
745.681
742.899
753.982
747.021
745.357
752.910
747.218
757.937
755.524
758.419
755.538
759.960
761.840
756.544
757.165
763.501
761.306
763.366
762.558
769.865
761.717
764.643
766.326
759.526
766.819
765.691
762.597
766.488
763.518
768.389
766.130
776.409
768.993
767.276
782.566
771.009
773.799
780.216
775.636
776.841
778.840
777.166
783.944
789.075
779.905
785.651
785.189
786.607
788.979
789.111
789.796
792.853
784.641
796.592
795.287
793.176
786.186
799.903
796.728
800.971
793.595
801.347
802.915
791.958
801.398
797.564
803.861
801.017
811.176
798.562
813.121
804.056
806.038
813.579
808.424
802.697
806.498
809.400
812.277
810.061
810.943
812.193
812.062
813.626
817.448
822.847
820.959
813.761
815.877
824.436
816.150
827.584
828.957
827.787
828.055
831.175
834.019
820.880
831.859
832.671
835.491
830.505
837.402
837.778
838.293
841.332
829.575
839.428
844.141
840.783
843.746
846.488
838.201
839.703
844.541
839.473
842.071
846.911
849.434
851.242
844.072
848.068
842.803
854.397
850.253
853.559
860.174
847.718
856.111
857.033
859.052
855.967
866.198
852.702
852.727
854.361
851.208
858.299
849.925
855.697
841.818
849.105
845.037
845.955
833.313
840.369
845.604
839.997
827.500
837.504
826.630
834.443
828.000
835.356
833.213
817.833
820.419
814.814
824.828
827.475
819.831
816.338
822.767
812.946
813.947
806.910
806.727
804.628
798.579
810.357
799.686
797.350
794.955
793.283
796.192
801.588
791.935
791.294
787.174
794.515
783.871
783.220
784.250
789.743
786.334
776.761
777.322
772.342
777.730
772.978
771.980
772.057
766.222
771.451
769.700
774.508
767.793
771.901
757.305
765.784
754.665
757.295
750.792
755.255
748.589
759.213
748.783
743.465
756.026
746.232
749.937
745.239
738.198
739.221
738.326
734.340
742.185
728.355
734.414
736.823
736.847
735.096
735.082
723.996
724.705
732.450
726.672
724.492
716.864
719.725
714.337
718.821
709.616
717.315
710.424
706.717
714.598
715.175
699.959
711.301
702.231
695.635
696.529
701.783
700.781
690.006
697.703
696.425
690.050
693.940
689.545
679.708
682.084
683.746
680.254
681.345
675.114
682.911
674.797
676.656
667.794
678.716
675.100
667.342
665.145
661.827
668.593
660.251
657.660
668.005
659.519
651.346
652.385
653.834
652.545
657.542
654.492
643.554
651.782
654.711
645.707
647.373
641.367
634.312
639.758
637.419
640.642
633.466
640.813
637.531
627.197
635.077
626.124
625.165
619.539
620.255
625.650
618.514
614.888
622.688
623.200
620.319
610.343
618.856
606.496
616.160
610.846
607.170
603.390
599.143
604.044
600.946
605.387
602.255
604.508
590.516
591.911
591.312
598.007
594.727
588.069
590.625
584.338
578.313
587.286
579.690
580.051
584.595
571.038
572.249
571.888
568.226
566.804
575.746
568.862
566.053
576.717
564.741
577.033
573.880
566.495
569.266
572.168
567.643
579.525
577.384
570.756
579.711
567.809
571.924
566.998
567.989
568.343
566.320
579.385
580.917
578.227
568.282
570.541
579.753
569.106
576.126
576.996
568.156
581.472
569.089
581.650
567.932
581.710
580.136
567.782
576.914
572.312
583.425
574.564
568.637
568.477
582.103
580.103
578.743
578.629
569.913
584.805
575.788
584.319
580.974
573.868
584.576
572.866
580.958
572.138
572.789
574.314
571.683
579.984
579.907
582.782
579.207
576.847
573.075
580.006
572.641
587.470
583.951
585.285
