89.935
121.330
90.319
120.127
107.246
100.684
119.774
102.559
103.700
125.127
118.903
116.247
84.629
110.837
109.765
111.298
94.267
92.559
97.351
107.855
81.180
121.028
122.458
91.112
83.552
105.878
94.206
118.754
101.460
113.826
109.993
114.376
97.915
122.005
91.416
99.366
99.597
93.138
83.387
96.688
94.879
106.982
100.864
110.603
87.968
81.462
112.415
83.704
97.188
112.364
116.134
83.935
100.561
118.443
120.560
95.814
95.470
119.519
85.306
108.892
108.855
98.560
124.066
92.853
110.362
89.681
108.651
98.100
93.290
114.935
83.913
119.116
111.314
116.196
116.743
84.164
92.502
79.467
122.587
94.965
103.775
87.049
118.353
113.832
98.661
98.682
98.369
113.132
114.913
117.161
102.516
92.007
93.264
97.007
124.354
103.870
85.466
84.020
104.198
92.290
83.645
87.525
88.623
94.112
84.908
110.802
84.510
116.805
92.365
100.043
108.296
80.770
81.907
112.181
108.364
101.013
121.671
121.582
117.724
99.098
111.006
115.336
110.581
120.124
89.714
89.727
119.275
92.424
104.000
96.588
90.071
89.581
107.737
86.759
112.285
100.104
107.707
106.091
118.071
91.495
98.484
108.761
81.215
124.760
104.000
104.067
84.469
121.608
99.296
124.080
89.060
93.321
90.856
93.552
90.431
118.257
87.169
123.646
93.987
88.382
106.985
101.852
109.304
119.890
89.401
92.811
80.962
115.807
94.601
98.398
101.879
118.315
89.134
109.785
125.049
97.386
83.668
126.233
93.068
112.953
101.423
105.585
106.360
86.972
109.962
110.095
123.190
98.894
109.973
112.631
83.701
113.376
118.916
94.712
86.396
94.064
125.073
87.347
89.913
121.118
119.993
120.678
98.903
121.152
89.738
103.259
97.590
98.786
104.178
103.436
94.027
85.444
95.993
125.844
125.336
82.661
111.244
121.818
120.889
121.095
98.586
124.129
88.562
124.395
104.469
86.755
113.399
87.913
122.362
122.948
103.900
92.960
86.710
107.478
121.644
118.459
95.462
113.470
101.042
84.871
97.403
111.071
111.457
91.257
125.803
85.139
107.471
104.227
111.577
121.208
128.596
108.336
102.770
94.252
95.200
84.149
91.509
84.390
126.163
100.781
129.046
116.220
86.653
93.633
105.294
120.596
83.960
113.047
101.766
96.217
103.463
105.065
102.967
104.288
92.389
85.203
85.365
94.578
109.910
108.092
102.069
119.704
94.513
101.458
107.181
119.157
97.160
1160.449
1164.227
1148.954
1161.122
1149.833
1157.910
1175.383
1178.082
1156.490
1161.866
1162.085
1170.468
1180.992
1169.874
1181.479
1175.423
1177.433
1169.618
1195.567
1195.524
1198.277
1172.067
1178.404
1184.274
1177.397
1194.157
1197.565
1191.395
1194.470
1207.178
1188.272
1198.007
1197.417
1197.677
1218.891
1208.694
1208.496
1220.751
1203.468
1201.879
1206.461
1217.685
1228.571
1227.610
1224.436
1229.086
1237.337
1228.578
1232.263
1238.630
1229.636
1221.543
1241.824
1243.357
1247.005
1246.825
1230.954
1240.585
1246.429
1239.154
1240.157
1242.962
1246.200
1251.952
1244.055
1239.089
1253.700
1268.818
1256.975
1268.979
1255.457
1267.842
1255.455
1261.443
1258.046
1279.962
1282.994
1266.859
1272.793
1285.149
1272.043
1276.461
1274.386
1270.193
1280.189
1287.780
1277.066
1291.256
1288.132
1283.702
1303.415
1293.918
1303.159
1301.935
1286.963
1311.790
1307.280
1298.177
1290.895
1304.117
722.858
728.266
730.735
728.639
728.185
731.210
726.936
727.514
725.381
733.865
734.526
739.962
741.453
730.597
738.066
732.574
745.433
741.041
743.424
735.047
747.345
744.773
742.017
751.798
747.725
738.835
748.277
751.229
747.510
752.640
757.524
749.938
747.703
754.550
757.640
756.265
760.512
758.117
761.134
761.318
766.198
757.649
763.512
768.943
759.345
757.392
768.115
768.627
768.525
769.254
772.350
771.156
766.718
764.112
777.416
778.442
778.452
765.907
768.469
776.404
782.730
781.195
776.117
780.654
775.620
773.402
775.770
789.216
789.784
790.817
778.888
782.229
786.931
784.734
779.928
794.442
793.492
792.069
789.865
787.986
796.001
794.996
788.999
796.317
800.995
795.858
792.380
805.586
807.168
799.162
794.010
807.142
797.004
798.743
806.388
809.369
805.227
814.805
813.453
801.095
801.584
810.547
810.009
814.439
813.478
806.503
818.285
805.047
804.091
816.796
816.649
815.002
809.534
810.648
815.836
818.904
816.406
811.395
811.000
821.143
814.880
806.769
812.684
808.177
811.275
816.796
822.509
813.725
820.618
819.096
823.226
821.082
810.061
817.605
812.147
820.311
813.111
813.536
820.961
823.081
818.572
815.872
823.569
824.241
810.975
824.322
824.444
812.122
819.003
813.039
815.285
821.234
823.066
815.813
826.187
827.636
818.705
818.142
825.074
818.201
829.631
820.141
817.034
829.717
824.895
828.252
824.735
827.403
821.515
823.304
824.598
830.805
817.379
824.849
830.596
830.340
825.422
830.298
828.367
830.728
820.530
826.081
819.562
824.843
832.610
830.118
825.483
832.785
833.313
824.194
833.477
825.547
822.513
824.542
823.741
821.370
823.565
831.830
831.519
821.837
826.307
834.954
826.470
837.571
833.636
831.660
823.933
834.406
835.547
829.364
831.006
831.756
831.496
830.622
836.991
837.431
829.751
837.355
834.265
827.868
832.229
829.012
830.312
838.690
827.500
833.602
841.850
838.034
834.697
830.639
837.368
833.545
834.232
844.268
840.019
839.602
841.205
829.897
833.516
833.044
842.710
834.935
838.422
844.408
839.391
843.825
843.840
844.813
843.811
839.251
839.518
846.998
844.913
836.140
846.210
834.347
837.144
835.598
847.361
838.368
837.599
835.644
835.362
848.065
836.151
842.645
842.388
848.315
844.439
838.127
845.959
845.912
838.831
850.144
841.587
845.442
839.530
838.532
842.043
850.085
843.118
854.157
848.283
853.209
840.297
849.930
854.680
855.114
843.068
844.417
850.502
844.849
847.484
847.419
852.421
846.917
848.258
846.866
853.711
850.346
850.953
853.415
850.048
850.018
854.304
845.489
842.318
846.951
840.581
851.207
845.850
837.189
847.348
836.567
848.477
836.412
842.447
840.184
838.942
838.214
834.570
836.875
843.122
844.046
835.725
841.917
828.531
836.193
829.819
840.749
836.083
827.398
825.126
836.642
823.368
828.929
823.184
836.192
825.910
822.720
821.376
824.608
826.687
824.923
826.156
822.327
822.609
822.877
815.010
820.556
821.564
826.491
827.173
817.493
816.795
823.607
814.068
823.987
810.720
811.485
817.413
821.179
817.911
810.227
814.288
807.441
819.432
816.101
817.434
811.868
807.438
811.727
810.734
806.684
804.761
803.616
809.240
808.567
812.113
809.108
809.619
806.634
799.393
795.080
800.429
800.267
805.649
797.495
806.963
800.690
797.095
799.014
803.941
799.933
788.344
799.966
790.457
799.257
796.155
788.682
795.334
788.735
796.747
790.673
795.624
783.042
797.062
788.475
790.413
782.223
794.653
785.768
789.926
781.468
778.776
783.907
783.545
787.197
785.594
787.090
784.063
773.767
772.874
777.092
776.022
784.449
775.459
780.928
771.930
780.918
779.324
777.774
769.011
768.349
766.807
777.773
775.336
770.522
773.937
768.862
774.070
770.981
767.910
767.408
763.370
771.320
762.691
768.065
768.534
761.496
758.304
759.950
768.269
757.943
768.777
760.894
757.799
752.493
754.418
764.728
755.486
754.839
755.901
758.803
752.537
748.450
747.874
758.354
748.274
758.436
753.648
758.149
746.678
747.567
745.057
747.714
752.293
745.613
749.229
739.936
744.808
751.279
747.029
749.298
741.834
738.088
743.833
747.190
745.374
748.756
735.622
741.110
737.836
740.011
733.641
736.642
743.998
732.644
737.423
732.846
732.266
728.192
738.743
739.263
730.979
732.513
743.875
742.317
738.952
750.831
745.900
737.867
747.377
741.645
752.334
755.218
751.409
749.920
750.098
749.771
752.715
748.057
753.345
762.506
759.836
758.455
764.775
759.804
767.844
761.516
760.533
764.385
760.570
766.872
775.099
763.789
766.327
776.245
768.596
773.629
773.647
768.574
770.641
768.463
770.398
781.126
771.104
782.638
788.275
786.471
787.969
781.167
777.717
792.407
780.636
790.978
787.978
786.695
797.813
789.628
796.906
799.809
800.362
793.588
788.051
803.238
804.941
800.961
807.054
803.990
795.940
805.989
797.019
799.106
813.145
812.489
805.667
802.035
811.558
805.373
808.064
816.501
806.670
817.955
820.733
820.200
816.565
816.193
822.824
811.815
822.382
823.213
825.678
821.384
825.962
825.898
829.820
831.053
834.288
822.803
833.256
835.292
839.245
827.281
840.542
826.916
830.768
838.919
842.124
835.966
836.250
838.342
843.587
845.187
837.241
843.234
847.343
853.521
853.005
847.419
856.725
854.565
853.817
856.027
852.631
860.817
852.897
857.582
855.569
851.542
865.407
859.463
854.958
856.925
860.490
866.396
870.624
871.095
873.196
868.947
865.969
876.006
867.585
876.890
879.023
869.474
877.703
869.032
876.831
875.542
883.290
873.412
877.484
873.865
883.949
881.091
883.311
885.898
889.791
887.899
890.801
882.441
881.227
896.581
886.286
889.984
892.292
900.353
898.306
898.182
896.575
893.337
901.584
903.207
901.833
906.254
898.793
899.594
905.745
908.370
904.123
902.656
900.756
914.742
916.154
908.108
911.117
913.959
920.061
916.065
912.829
911.574
909.415
922.275
922.542
925.009
927.023
928.652
923.753
925.771
929.061
930.868
919.573
923.964
925.249
921.734
929.824
920.233
921.950
918.016
926.421
926.298
917.261
913.959
918.911
919.440
916.387
926.103
910.998
923.628
922.715
922.078
920.542
913.574
911.873
921.997
910.058
913.806
915.593
910.187
915.497
907.627
915.650
919.779
909.315
919.573
907.975
913.128
915.245
918.856
917.969
906.062
916.893
904.135
914.463
904.143
906.341
912.488
911.522
900.989
905.227
911.625
909.278
910.400
913.592
910.669
898.637
900.596
898.880
899.759
902.402
908.688
904.442
896.157
898.686
909.024
909.892
902.879
894.502
899.905
900.627
905.503
899.822
893.761
906.187
903.811
894.749
891.056
900.422
896.311
890.966
894.912
896.430
903.193
901.767
902.106
892.771
891.921
897.466
889.509
901.365
897.168
898.345
885.619
896.102
891.755
885.260
898.679
894.925
884.711
885.420
897.800
888.790
885.814
887.341
881.532
895.110
892.749
884.062
887.322
882.569
879.975
893.612
884.260
893.436
879.037
885.880
877.524
887.692
889.522
884.453
877.244
880.200
880.179
883.774
877.097
886.705
878.183
875.356
872.806
887.657
874.811
879.369
885.918
877.074
885.578
877.411
883.594
877.790
882.129
877.206
882.223
875.721
875.319
881.094
875.329
872.100
868.407
881.357
880.679
880.285
870.411
873.268
870.411
872.759
866.829
876.208
872.727
868.781
863.283
875.282
876.800
861.457
869.641
874.954
874.338
864.816
872.818
860.185
868.829
858.837
861.852
862.253
870.580
870.033
864.155
872.185
858.214
863.752
866.962
859.097
856.998
855.948
863.620
861.656
867.985
866.469
861.040
854.924
863.841
864.284
865.311
855.426
864.934
863.282
863.378
853.654
857.023
853.568
854.030
862.753
859.703
851.682
853.862
857.746
852.562
852.969
851.169
854.094
855.594
850.287
845.409
841.187
847.722
846.501
839.512
838.283
835.137
840.104
842.819
834.039
841.160
832.250
843.095
835.748
826.450
830.396
827.350
827.085
829.108
834.910
826.090
823.603
823.676
828.826
823.711
823.314
824.047
815.390
828.963
821.302
823.524
826.567
824.257
815.884
812.094
821.791
817.927
811.002
820.347
805.483
813.654
815.868
803.622
801.741
802.439
806.046
799.899
798.260
797.676
798.861
804.262
808.794
795.779
797.838
796.973
794.812
796.836
788.361
794.729
792.329
791.848
799.251
797.358
798.231
790.085
787.166
788.307
786.742
780.317
781.171
785.555
786.895
780.111
783.860
786.923
784.156
780.738
779.209
771.794
773.717
772.695
769.211
771.442
768.852
768.637
776.180
762.766
776.800
763.460
766.897
772.736
760.827
762.568
757.940
763.938
759.943
767.207
765.157
758.705
753.896
759.362
760.262
759.115
752.140
749.436
746.408
749.410
746.065
744.464
749.699
754.655
748.748
750.159
743.383
752.601
749.850
742.287
745.020
744.947
734.479
739.550
739.484
741.726
742.415
733.781
734.758
738.399
734.784
739.352
726.151
737.758
723.169
721.670
723.398
727.148
722.955
717.730
722.404
717.368
715.590
729.483
726.283
726.187
717.877
717.489
713.254
708.668
709.825
710.222
706.877
709.376
710.699
714.528
708.751
704.996
711.689
702.953
709.338
702.266
708.350
711.680
699.523
707.467
700.631
693.287
692.822
702.961
697.379
694.982
695.466
700.133
690.942
692.333
691.271
685.550
695.821
693.419
686.934
691.105
682.018
683.017
685.775
681.750
679.924
675.954
678.982
675.677
681.735
687.052
682.080
671.483
686.609
682.603
679.095
687.663
676.771
687.254
680.276
684.204
694.906
695.104
681.746
690.989
693.824
697.219
687.694
689.536
694.697
689.848
689.087
689.963
706.009
706.677
702.767
698.771
698.781
695.910
705.933
704.160
707.443
708.076
713.918
710.764
711.499
705.110
705.982
719.090
721.333
715.753
714.388
713.107
711.963
723.919
715.198
716.661
719.157
722.548
730.159
720.772
727.124
718.859
726.762
734.370
734.963
722.701
723.186
733.723
730.590
738.571
739.260
732.518
739.010
733.218
733.300
734.632
732.752
737.289
734.956
747.117
751.231
747.321
738.342
749.983
752.908
740.639
752.996
744.455
754.052
759.074
747.883
750.633
761.277
750.935
763.844
760.272
756.593
762.767
759.778
768.758
766.305
770.870
761.040
769.701
766.667
771.117
767.487
774.782
774.269
769.698
771.832
778.174
765.814
768.662
776.157
768.985
780.145
778.986
785.889
772.960
775.121
782.323
789.971
781.440
787.991
779.713
781.228
779.438
787.933
793.344
783.557
785.155
792.408
799.075
794.738
787.111
798.309
800.241
795.428
802.530
803.518
796.785
802.558
798.087
802.215
809.047
800.046
810.977
806.928
809.149
807.918
803.895
809.436
803.331
819.543
807.241
806.627
820.822
810.115
813.230
825.450
814.033
813.216
822.004
819.009
827.377
829.957
827.103
828.813
828.573
827.238
835.165
834.622
824.577
837.500
828.013
839.787
832.924
830.859
839.586
841.593
841.937
838.450
845.925
841.948
837.505
847.658
838.591
842.626
842.127
840.376
843.529
846.384
852.156
844.318
853.228
848.388
858.788
857.994
852.525
854.734
852.417
856.091
864.296
865.740
862.151
862.577
865.620
863.715
868.560
868.552
864.349
860.104
867.221
875.140
865.702
865.457
866.419
874.633
870.042
882.576
879.491
875.122
874.872
885.071
891.350
889.135
892.183
890.009
884.224
886.845
894.928
890.337
898.892
902.678
898.439
900.577
895.338
906.040
906.383
897.424
907.712
908.946
912.446
905.871
906.123
918.934
909.881
915.278
911.084
911.754
926.042
914.451
927.957
918.943
933.706
924.356
928.782
927.618
923.244
931.053
940.991
935.895
932.119
939.563
938.927
947.944
941.679
944.654
949.349
946.507
943.236
947.078
955.482
946.705
960.909
951.259
955.809
952.576
966.546
957.261
965.920
967.898
962.878
969.448
962.902
967.409
977.469
973.632
972.982
973.959
977.652
981.524
970.337
976.445
983.852
976.859
986.257
988.840
988.917
992.961
992.207
993.893
985.378
989.917
995.328
991.814
999.924
1004.951
1001.697
1005.988
1000.292
996.166
998.970
1008.452
1008.859
1007.571
1002.974
1016.486
1012.247
1022.236
1021.873
1012.570
1011.552
1026.872
1028.054
1016.764
1024.936
1019.154
1031.759
1027.075
1032.933
1031.245
1033.848
1032.839
1028.961
1036.610
1040.828
1037.895
1035.354
1047.660
1047.357
1041.858
1043.007
1043.249
1051.802
1057.609
1055.285
1058.751
1054.004
1055.703
1054.501
1051.993
1062.663
1057.269
1061.535
1071.674
1058.208
1064.583
1068.777
1068.218
1064.078
1078.673
1075.528
1077.895
1071.988
1085.377
1078.665
1074.776
1085.052
1076.169
1077.624
1081.592
1080.309
1091.181
1082.402
1096.343
1099.781
1096.980
1087.664
1094.222
1104.588
1101.485
1101.755
1109.833
1098.102
1104.009
1108.806
1115.692
1115.303
1103.458
1104.437
1110.702
1113.269
1117.966
1118.147
1112.896
1121.471
1118.073
1120.888
1120.558
1130.084
1125.686
1124.562
1125.846
1127.171
1129.998
1128.406
1141.043
1135.820
1145.566
1130.369
1130.972
1135.824
1141.217
1133.768
1124.109
1133.343
1127.939
1130.859
1128.822
1120.564
1122.266
1122.880
1120.493
1121.430
1123.801
1124.588
1114.673
1113.164
1113.909
1122.945
1116.030
1110.020
1105.893
1110.917
1108.597
1110.705
1109.874
1113.739
1103.787
1099.014
1105.204
1104.865
1107.512
1099.768
1100.891
1101.834
1101.772
1101.554
1094.550
1095.915
1098.217
1095.774
1096.378
1093.840
1094.291
1094.679
1079.883
1085.230
1085.795
1083.665
1084.093
1072.951
1081.007
1074.435
1084.188
1074.855
1081.245
1076.172
1080.184
1073.295
1069.283
1070.595
1068.006
1073.538
1059.159
1063.259
1056.442
1055.531
1066.901
1062.161
1063.202
1053.915
1064.807
1053.556
1060.360
1047.606
1046.806
1050.659
1057.404
1046.710
1043.583
1049.066
1050.007
1050.095
1038.877
1044.745
1049.483
1047.038
1046.176
1041.827
1042.644
1037.899
1043.311
1030.464
1035.560
1026.268
1029.631
1023.042
1035.862
1023.530
1034.853
1029.194
1023.725
1025.852
1029.266
1014.541
1022.756
1024.707
1018.340
1023.371
1008.512
