96.624
104.917
96.662
99.026
105.161
134.015
98.462
93.526
99.394
119.673
100.796
90.109
127.797
91.089
125.991
92.445
112.667
105.683
119.596
109.194
120.931
127.350
120.791
115.109
122.551
121.816
122.105
105.577
99.559
103.118
92.418
100.081
91.758
106.459
111.489
112.054
104.057
126.357
134.848
91.974
135.383
112.602
123.873
130.142
104.367
128.095
133.318
111.737
89.569
90.283
119.169
119.435
129.807
131.892
120.861
121.705
102.037
124.628
91.064
100.591
90.077
121.232
110.354
127.999
101.698
113.621
91.273
119.253
101.800
113.072
105.246
95.944
109.256
89.536
99.077
111.537
92.181
127.989
112.722
130.656
126.949
116.698
102.276
127.130
131.005
99.510
104.968
124.910
101.679
115.968
92.419
108.073
132.818
114.744
109.141
94.801
125.461
97.873
111.615
124.408
98.294
93.070
112.199
95.997
93.574
108.831
101.682
107.681
117.905
133.570
135.455
114.228
127.371
130.996
108.770
111.903
112.855
93.369
130.412
92.229
98.239
109.533
120.473
110.189
102.756
119.750
134.314
132.892
120.420
105.729
100.957
100.542
107.074
134.522
103.768
110.274
134.457
119.350
123.343
122.545
109.394
134.808
104.862
109.678
102.094
121.222
108.744
117.341
118.923
91.317
98.412
117.102
118.544
922.955
919.510
928.116
934.725
927.467
927.995
943.291
954.833
956.741
958.838
950.794
953.924
966.541
969.696
975.576
992.753
992.610
974.953
1000.834
984.643
1010.592
994.099
1015.071
1004.500
1006.460
1010.608
1026.947
1026.455
1026.900
1049.472
1048.748
1037.907
1042.604
1060.174
1049.574
1050.518
1053.730
1076.858
1069.891
1076.868
1072.535
1093.427
1096.741
1082.092
1097.447
1112.932
1107.648
1121.468
1126.469
1114.995
1132.900
1121.870
1134.089
1132.197
1146.189
1136.281
1147.806
1141.349
1157.940
1159.596
1156.885
1180.345
1169.080
1170.490
1170.268
1181.234
1188.306
1197.315
1200.401
1208.063
1220.330
1221.521
1216.116
1208.388
1219.792
1233.519
1243.646
1229.516
1246.498
1237.296
1248.533
1238.995
1256.440
1268.764
1263.002
1262.378
1283.095
1269.602
1267.468
1271.338
1294.283
1293.968
1310.058
1306.740
1304.191
1299.967
1326.208
1322.674
1331.677
1335.207
743.873
738.676
735.996
738.698
755.767
747.954
755.363
751.801
754.226
759.971
757.699
767.546
760.911
770.337
775.689
779.003
769.390
774.673
782.152
777.996
790.827
783.548
794.074
787.868
790.166
802.166
801.259
800.617
796.009
803.600
812.017
807.915
813.672
820.521
822.479
812.257
823.536
827.806
821.828
835.131
835.008
828.232
837.190
841.862
833.549
842.210
844.773
841.298
855.532
853.808
854.020
852.109
861.357
865.687
861.703
869.062
863.214
871.861
865.710
872.699
870.852
883.279
880.580
881.918
890.677
880.651
892.183
896.702
895.369
894.187
892.610
900.993
896.265
907.197
912.540
909.467
914.883
913.349
914.495
912.295
928.790
925.730
932.114
923.245
931.807
934.390
932.250
932.009
945.926
939.121
952.776
940.808
953.879
945.473
955.694
951.762
954.542
963.631
957.301
958.863
968.113
961.134
957.845
963.959
967.220
964.591
959.547
959.400
952.982
959.918
959.783
952.989
955.149
945.224
941.038
939.099
945.355
944.533
942.947
936.433
944.040
929.160
928.669
938.999
933.779
925.061
930.631
935.982
920.997
932.890
918.025
927.841
921.479
926.898
922.382
921.592
912.536
920.123
910.783
910.323
901.872
915.537
909.866
904.870
903.752
894.424
905.776
891.217
900.455
888.133
894.374
900.218
897.965
896.396
886.893
893.050
880.400
879.192
877.896
877.878
881.556
885.869
879.841
870.123
879.279
870.912
872.536
868.772
860.559
863.353
861.264
868.872
870.057
867.197
853.464
856.744
849.226
856.790
858.034
856.574
848.307
850.784
847.415
845.620
844.675
836.777
840.424
834.281
841.109
843.262
840.904
838.047
827.427
836.134
822.993
824.417
834.057
826.051
827.781
827.830
828.375
823.382
813.065
817.570
821.727
808.784
814.561
809.025
815.796
812.825
807.001
806.994
807.963
799.961
795.591
797.026
792.658
791.325
797.177
786.750
786.330
784.322
790.522
781.769
788.698
783.613
777.796
775.147
775.808
783.826
780.688
770.847
766.369
775.171
775.844
767.098
773.553
771.750
772.481
761.092
762.371
754.187
754.651
750.563
754.688
763.091
760.163
748.905
749.173
754.142
753.229
749.276
750.315
748.208
733.983
734.648
744.790
736.890
729.289
738.341
736.027
727.455
731.457
736.515
732.430
733.224
724.161
715.248
727.237
716.599
712.582
720.433
710.215
714.954
717.707
705.967
705.326
705.582
701.362
699.978
702.141
707.929
692.946
694.608
691.921
694.931
702.156
688.378
689.752
692.325
688.687
681.030
689.593
689.185
685.684
680.186
676.060
673.270
670.582
682.313
672.486
667.438
674.027
671.650
684.307
670.632
686.692
677.605
682.461
681.862
681.212
682.132
679.909
683.004
690.285
693.913
681.963
688.791
685.081
683.401
689.816
694.766
686.421
693.088
687.840
698.061
693.702
689.076
689.947
693.452
701.065
706.661
706.589
696.585
709.326
703.829
697.244
706.723
700.268
712.814
710.881
701.124
705.009
704.500
711.025
711.614
704.613
709.053
711.987
707.345
720.009
722.167
722.717
725.188
723.727
712.408
716.529
725.146
728.893
729.554
715.219
716.115
718.180
718.029
730.142
721.719
727.748
736.831
723.469
723.508
724.905
728.465
740.742
734.968
736.887
734.464
743.321
744.644
731.047
739.422
744.977
747.444
743.275
746.703
749.291
751.051
736.999
739.742
740.117
742.581
741.948
750.702
756.231
753.872
754.860
746.664
751.620
758.035
757.019
750.838
749.537
754.000
760.716
761.671
761.215
756.341
755.100
765.155
764.500
764.572
771.041
762.274
763.914
759.877
759.184
766.942
763.494
776.482
766.491
775.373
778.430
778.166
771.490
770.176
777.921
776.936
783.086
784.894
775.463
783.253
772.403
778.917
784.922
789.235
785.028
787.969
790.103
782.967
784.102
794.202
787.311
793.368
796.881
783.321
793.365
789.306
791.387
788.677
787.702
789.644
792.514
797.255
791.818
792.930
803.562
805.292
796.370
799.397
802.613
800.871
799.234
809.059
800.382
800.760
803.717
804.981
806.569
803.593
814.114
815.418
819.630
820.434
807.396
818.887
813.656
810.746
813.013
811.714
811.562
815.396
822.131
822.153
818.328
818.356
826.295
820.123
831.016
832.974
820.946
819.955
832.466
835.760
831.511
824.558
832.286
829.123
835.651
838.852
839.592
842.251
836.411
835.589
832.543
835.476
834.628
842.491
839.834
841.464
840.714
840.477
842.156
846.923
839.172
842.360
848.332
841.546
851.040
843.333
844.607
848.411
840.641
839.595
840.954
848.722
849.407
843.419
853.563
855.134
843.474
855.950
843.249
845.797
857.584
845.250
847.467
852.392
844.348
847.295
857.083
858.099
846.489
859.172
859.538
848.010
863.020
848.870
849.447
852.179
859.681
859.762
859.814
851.621
863.292
866.760
859.420
852.518
854.823
860.378
867.182
863.745
866.044
868.786
860.520
864.051
871.519
866.402
872.946
866.011
867.832
864.823
861.799
869.666
863.439
870.272
864.081
875.632
863.058
868.119
867.967
871.076
867.763
864.655
864.314
877.955
877.488
876.979
868.488
877.407
879.608
868.772
878.547
883.212
874.286
869.705
880.018
870.641
885.848
878.146
878.528
886.996
877.427
879.927
882.119
879.893
885.717
888.810
890.236
887.986
879.259
881.804
877.199
887.042
887.981
878.532
879.670
890.547
890.178
884.244
883.221
886.313
891.273
887.882
895.609
888.647
897.106
883.467
895.543
891.661
889.549
891.081
892.172
886.510
899.993
887.900
895.373
898.204
897.963
903.246
900.070
894.714
894.253
898.131
901.826
899.067
903.171
893.746
893.548
906.039
907.622
903.205
898.172
899.066
909.886
902.964
899.761
899.578
907.198
908.326
911.574
910.102
907.837
906.350
903.472
899.889
899.523
909.025
904.211
900.696
904.784
904.785
905.148
910.385
908.502
904.020
913.896
918.397
918.222
906.228
907.669
908.023
911.486
919.211
907.995
908.010
912.385
912.176
922.462
924.084
924.968
917.752
920.321
913.460
925.032
913.786
913.932
923.083
918.610
921.513
926.197
928.682
927.976
920.478
929.276
928.469
930.998
927.314
929.421
922.552
926.342
923.920
931.141
933.641
925.687
938.360
937.107
928.805
937.235
934.460
940.349
929.278
939.310
945.370
943.893
934.433
942.653
937.039
942.423
941.847
940.230
944.834
947.670
944.081
940.837
941.801
948.013
954.126
942.091
956.433
953.425
947.436
956.841
945.046
950.461
947.230
947.402
948.121
952.398
951.885
949.878
961.420
961.440
956.767
955.255
962.401
968.452
955.522
954.860
965.698
966.066
957.172
969.306
963.004
968.959
959.339
974.035
962.493
975.875
968.633
970.176
973.142
974.732
972.656
966.870
967.336
974.147
968.247
975.650
981.618
977.292
981.483
971.456
983.651
984.853
974.351
975.203
974.584
977.418
990.655
980.857
979.323
989.700
990.356
994.248
993.390
987.941
997.286
995.139
990.658
997.459
997.147
989.538
1001.376
995.148
996.136
992.374
990.518
991.261
995.104
1006.052
998.083
1007.835
999.324
1006.755
999.579
1000.963
996.857
1001.702
997.546
1010.554
1008.225
1012.149
1013.784
1015.539
1001.850
1009.076
1012.374
1005.938
1013.061
1019.255
1018.012
1019.558
1012.338
1009.186
1016.076
1010.499
1019.352
1023.281
1014.661
1019.851
1015.094
1019.461
1021.816
1029.755
1027.178
1024.854
1017.034
1025.418
1026.074
1022.970
1034.626
1026.920
1027.841
1031.094
1036.553
1035.076
1032.039
1031.228
1031.889
1040.263
1027.323
1032.831
1030.323
1044.091
1043.476
1037.925
1032.038
1034.576
1043.038
1033.507
1040.929
1037.665
1036.377
1039.458
1039.033
1052.303
1048.898
1053.970
1046.569
1041.473
1050.770
1042.100
1043.884
1045.724
1050.101
1053.909
1051.908
1055.108
1055.391
1048.293
1063.170
1056.304
1050.375
1051.985
1066.507
1064.684
1065.601
1055.887
1061.665
1069.660
1068.564
1068.722
1061.146
1067.627
1052.964
1053.730
1050.678
1059.300
1048.565
1043.816
1048.387
1050.298
1054.229
1046.440
1038.858
1036.741
1036.920
1041.039
1039.058
1038.203
1030.592
1031.534
1038.413
1027.402
1020.978
1025.803
1021.431
1026.373
1022.958
1027.124
1026.444
1017.916
1014.490
1015.883
1015.656
1014.923
1016.196
1010.546
1002.851
1008.787
1006.835
1003.898
1003.362
1003.575
992.469
1002.273
991.702
991.313
993.677
988.845
982.019
990.884
983.086
989.459
978.989
989.198
974.960
983.363
976.241
972.946
969.991
973.947
965.772
967.470
971.455
962.951
959.839
966.345
966.719
961.340
952.100
959.204
958.739
961.463
955.023
946.892
954.954
945.530
941.521
940.279
942.041
949.354
942.289
938.580
944.281
937.316
933.979
939.560
938.626
928.949
932.461
932.739
922.425
929.048
917.239
921.851
926.343
913.289
924.272
914.925
914.292
913.774
914.243
906.964
903.122
899.813
900.331
902.328
898.775
894.611
906.375
897.631
895.693
888.070
900.903
890.039
895.169
895.752
894.065
885.563
878.327
876.299
881.994
886.396
871.753
875.938
877.095
879.938
879.959
874.738
868.558
868.403
873.048
862.031
865.595
856.788
862.706
864.096
850.951
849.234
848.767
857.955
848.369
850.222
850.544
848.007
853.030
847.871
849.942
842.594
839.862
844.633
835.497
827.972
833.458
830.851
834.771
834.642
829.302
818.601
816.852
819.923
818.960
819.287
823.111
808.777
812.968
810.049
808.489
809.731
803.599
802.035
813.777
806.899
795.615
798.864
795.620
798.648
791.660
794.166
791.839
790.742
794.750
789.266
792.156
782.833
779.472
780.299
779.835
775.011
779.124
778.154
779.236
777.980
766.299
776.446
770.270
773.535
774.971
771.288
763.593
757.456
757.385
757.176
766.180
763.590
755.989
764.802
749.771
756.448
762.452
759.942
754.664
746.338
755.443
754.770
750.770
755.412
756.905
743.913
753.615
744.072
743.890
749.743
752.699
749.694
744.951
738.350
746.581
742.428
738.313
745.095
736.570
741.237
735.847
740.511
744.797
729.557
740.033
731.627
740.152
732.993
736.957
738.584
731.786
728.976
737.239
736.826
733.858
735.015
721.562
722.402
726.016
723.144
729.215
721.115
719.600
729.032
723.831
728.184
714.451
720.466
713.101
721.964
724.083
722.671
716.499
710.905
709.019
719.176
718.309
713.495
719.156
713.218
704.260
712.515
716.282
714.324
710.306
703.825
712.755
708.477
703.192
697.665
706.297
699.525
709.187
702.871
706.350
703.804
705.421
694.106
698.929
700.515
694.969
700.551
690.600
691.053
693.888
700.277
692.742
700.645
698.564
689.216
689.760
693.885
682.925
693.959
680.849
679.530
682.744
681.674
688.119
678.430
676.213
689.180
680.712
683.809
679.374
686.106
684.217
674.765
677.163
679.083
683.093
681.120
671.868
676.281
667.131
673.073
666.499
666.160
670.420
664.092
676.872
664.104
667.963
668.459
667.047
671.718
667.373
661.916
663.652
656.531
663.498
660.369
667.455
653.451
663.252
657.397
663.576
655.264
652.412
663.801
657.231
662.870
662.504
661.598
650.099
647.368
657.643
646.285
649.059
645.900
648.490
650.610
648.058
649.244
650.505
646.004
641.332
650.723
640.375
638.239
639.211
643.251
644.757
645.266
639.994
638.167
640.992
634.127
639.224
639.761
640.528
642.626
637.400
627.977
638.785
638.340
626.567
635.124
634.748
628.722
634.424
619.861
623.935
625.811
620.654
620.532
616.705
620.867
628.693
622.996
633.725
625.168
629.348
637.925
632.162
633.246
629.469
635.694
629.819
634.348
631.712
643.973
639.754
636.933
635.301
649.087
648.137
641.031
638.819
645.821
656.160
653.906
657.431
650.912
650.917
660.175
651.309
652.750
656.109
656.810
659.413
659.332
669.796
670.159
659.921
664.809
665.462
674.762
661.920
670.042
669.224
667.072
675.199
678.434
676.835
677.779
683.952
672.689
672.022
681.489
684.809
688.908
681.319
684.582
693.250
686.964
692.435
684.867
694.587
693.536
685.040
698.578
693.471
690.102
700.813
696.644
698.904
701.070
708.584
697.811
707.525
701.629
699.547
714.000
704.785
707.082
712.025
710.641
704.932
717.319
721.551
718.872
724.158
718.989
713.299
717.958
722.203
726.737
724.235
731.729
727.038
728.311
733.367
725.981
736.069
738.201
730.658
740.349
742.040
741.257
743.471
733.790
733.082
746.711
736.127
741.905
741.715
751.139
743.504
748.334
741.689
750.212
742.050
744.725
744.359
746.302
750.075
751.390
748.508
752.787
763.942
764.499
765.219
757.547
755.661
765.435
758.083
773.731
763.790
761.881
761.412
763.837
764.398
777.401
766.955
779.892
773.062
780.262
773.113
776.313
786.300
775.932
778.032
785.569
789.772
791.959
793.380
788.885
785.592
784.667
787.968
798.797
792.008
799.363
791.395
796.012
790.947
795.807
803.213
799.358
794.847
795.642
802.172
812.888
807.605
813.712
807.527
808.607
810.494
812.180
806.692
808.366
817.336
820.190
816.475
823.947
823.233
816.806
819.025
829.371
818.079
820.401
823.917
831.805
822.557
823.420
829.993
827.169
836.895
833.939
827.493
830.254
830.082
834.939
846.694
843.056
835.868
841.303
840.356
845.169
849.178
848.521
845.301
852.239
841.992
857.875
853.923
854.911
847.059
852.392
862.223
849.819
853.734
863.668
868.166
857.863
857.388
860.543
865.506
858.324
859.638
871.932
866.458
865.410
868.364
871.751
874.650
876.972
876.736
882.099
883.742
884.403
875.774
874.443
879.822
887.696
878.247
884.636
893.177
879.992
887.836
888.414
890.506
893.305
884.273
892.444
888.331
898.286
892.499
890.048
899.300
905.248
895.545
897.547
899.856
903.621
896.503
902.852
898.425
907.766
909.319
915.247
907.783
919.374
910.531
907.882
910.424
916.107
924.490
922.518
925.457
926.390
928.378
914.213
928.356
918.072
923.290
920.941
921.704
927.267
933.028
932.356
938.865
940.012
933.753
935.548
934.099
935.718
931.855
931.550
939.734
946.050
942.772
938.965
940.530
944.500
951.578
950.380
948.085
956.734
947.962
959.377
945.850
955.278
956.963
963.523
964.205
963.519
951.320
967.161
968.313
959.473
962.984
970.753
972.902
967.822
971.857
970.592
966.140
975.889
966.646
972.588
967.116
966.893
978.684
972.372
973.143
972.558
981.754
972.702
977.468
989.936
985.348
978.079
989.638
983.259
982.797
981.321
992.239
990.124
993.291
999.204
987.096
989.392
1001.471
1005.154
990.549
1003.030
993.307
1006.198
997.933
1010.784
997.778
1003.838
1006.245
999.911
1014.226
1007.145
1005.079
1011.152
1012.607
1014.685
1019.052
1011.909
1009.955
1016.769
1013.509
1025.297
1028.076
1024.422
1030.193
1023.350
1028.853
1023.027
1020.423
1035.135
1034.128
1035.449
1037.742
1035.445
1037.657
1033.480
1031.002
1038.048
1042.305
1032.489
1042.665
1043.845
1042.382
1040.436
1041.381
1050.346
1050.131
1055.261
1050.362
1049.681
1046.393
1056.045
1054.135
1054.738
1042.726
1054.352
1048.802
1038.794
1045.956
1041.370
1035.816
1047.843
1033.519
1036.855
1039.387
1043.152
1032.723
1032.197
1033.398
1040.629
1029.655
1037.152
1029.915
1034.351
1024.306
1022.939
1028.360
1028.766
1029.613
1018.121
1020.553
1014.692
1013.217
1016.609
1022.436
1020.153
1011.883
1012.946
1022.490
1008.407
1015.252
1009.003
1009.921
1011.504
1004.050
1015.830
1003.092
1007.230
