129.187
133.389
102.603
115.283
126.367
135.296
111.448
140.204
101.017
110.414
96.815
142.422
121.992
144.498
145.032
143.362
145.104
137.199
145.171
119.876
114.142
100.433
120.432
144.965
107.873
140.011
115.715
106.982
137.369
116.326
139.937
140.043
108.103
141.555
138.495
122.754
133.399
113.790
105.897
137.296
111.759
132.606
117.234
136.368
131.756
134.745
145.966
112.488
104.162
123.989
112.908
98.015
108.273
133.699
130.225
123.439
135.570
104.163
99.910
97.383
108.144
116.846
132.131
106.030
111.136
102.322
141.970
128.197
130.289
127.068
120.459
125.990
109.604
97.272
95.662
99.767
115.921
135.693
125.378
122.273
97.961
105.400
139.429
144.805
116.051
97.935
109.022
114.588
114.780
118.396
98.605
144.457
140.203
95.791
110.829
104.093
124.981
119.162
135.604
98.918
128.333
135.391
96.140
99.150
104.670
117.616
125.957
103.185
113.496
140.343
94.819
115.234
121.992
95.312
105.330
109.328
109.380
137.670
107.728
96.920
115.037
106.735
95.447
138.716
102.863
130.137
136.609
111.916
134.393
144.031
102.273
145.300
137.186
118.137
121.812
105.495
106.189
108.361
144.993
102.954
109.681
127.680
97.989
121.975
125.373
138.209
106.323
142.401
104.278
130.516
101.044
115.131
131.797
129.060
103.576
125.969
124.224
113.472
117.446
145.853
143.940
109.222
140.440
124.278
111.527
104.700
124.911
107.872
95.438
146.684
139.638
140.313
107.845
96.777
137.889
132.110
118.749
102.772
100.882
110.587
105.754
124.173
112.431
115.560
108.638
146.103
130.569
146.510
115.846
108.458
105.371
123.285
111.886
109.167
129.455
126.323
130.209
133.068
99.319
98.931
131.848
138.095
97.182
132.619
141.554
110.775
116.739
104.887
118.037
133.205
133.108
141.662
124.676
105.640
119.478
107.290
95.406
143.371
121.851
137.071
125.066
140.353
101.519
120.146
108.383
139.044
111.412
108.263
144.685
104.437
136.065
143.829
103.790
106.492
108.130
105.582
137.822
116.151
141.966
108.557
111.271
114.579
99.017
143.246
126.993
113.136
128.260
107.276
126.605
132.562
134.650
130.106
118.115
117.516
109.684
117.892
145.383
120.397
112.779
113.833
143.309
101.181
136.115
139.674
137.071
102.362
132.779
124.829
126.035
118.580
126.436
139.923
97.299
97.225
95.819
97.092
112.072
138.170
108.000
106.266
130.446
145.158
146.564
119.664
135.538
145.203
142.457
106.009
130.646
124.789
125.271
105.274
137.331
130.720
105.481
127.190
129.614
117.477
118.285
118.395
143.829
140.874
108.623
98.622
109.771
135.590
103.082
108.687
123.260
130.726
107.515
111.110
102.789
129.259
104.394
129.091
121.828
125.210
103.995
102.107
121.794
137.354
116.296
100.623
124.648
135.139
124.050
113.006
134.288
139.437
109.659
138.807
102.360
95.602
116.926
96.102
100.495
142.122
141.518
96.305
121.702
116.454
143.458
130.694
114.705
104.417
117.137
122.542
119.761
142.879
126.459
108.966
143.998
127.853
117.550
94.965
124.995
144.635
109.326
141.718
130.883
126.706
111.016
123.060
113.559
140.966
101.701
144.449
135.919
133.614
129.596
122.625
101.979
146.160
122.743
108.715
133.315
104.870
138.399
100.359
120.509
140.559
123.940
107.837
120.604
96.326
127.579
140.155
132.259
132.224
103.637
95.099
113.867
98.161
106.576
138.147
127.067
141.906
128.595
106.334
139.965
99.796
130.614
118.277
127.038
135.860
109.221
98.530
144.025
105.321
140.202
98.699
117.958
135.154
115.105
115.768
109.987
120.433
136.154
109.788
101.509
140.708
104.984
104.354
131.312
123.125
145.956
145.384
128.022
112.595
131.275
140.757
114.034
131.938
101.667
141.381
142.154
110.468
134.107
132.541
140.394
111.666
112.774
115.930
98.319
140.739
140.615
99.062
131.957
136.727
96.270
129.319
122.023
146.664
98.382
129.646
96.040
144.062
137.141
96.130
131.720
142.399
125.257
137.271
139.059
112.235
130.449
96.912
119.611
97.930
102.063
112.241
145.112
112.623
111.049
128.224
100.138
119.428
109.560
111.889
129.163
128.547
100.125
126.675
144.166
108.486
98.874
136.496
114.119
97.550
106.924
95.883
139.634
113.627
141.955
134.016
130.026
103.807
144.795
118.424
140.366
131.909
105.573
141.300
127.305
98.625
116.596
120.815
130.920
138.684
125.267
139.039
100.041
132.106
134.394
138.898
94.886
96.639
96.787
100.760
141.680
116.103
99.746
119.133
113.035
107.700
110.585
122.250
139.443
133.119
132.170
133.858
128.997
115.578
108.938
95.367
144.115
95.298
103.714
120.123
145.021
118.113
94.883
119.849
113.010
98.646
118.403
109.611
122.530
103.240
118.971
106.296
131.066
100.996
117.199
115.153
119.311
107.652
145.174
145.942
121.638
115.365
97.856
115.727
105.040
146.716
118.483
104.965
95.141
138.787
112.925
121.415
125.265
102.450
102.228
98.467
135.451
118.270
109.183
115.091
109.061
146.407
98.344
130.335
144.923
123.590
144.392
107.021
144.874
98.271
133.534
138.845
128.297
109.861
134.758
95.067
95.151
138.137
111.580
124.820
125.862
138.890
145.421
103.335
142.724
133.044
102.341
118.951
110.758
104.845
133.108
119.681
124.942
123.388
107.704
132.898
120.807
112.160
121.608
104.417
129.430
110.569
128.931
115.296
105.669
104.223
143.130
137.202
102.414
100.723
127.515
97.097
114.172
111.076
143.721
104.695
98.159
144.513
96.923
133.843
122.155
97.309
129.791
117.396
133.277
103.847
116.630
109.245
146.363
104.891
95.035
133.682
108.650
107.205
124.322
110.083
101.743
104.798
114.087
128.277
108.912
115.912
103.532
142.385
123.939
100.035
115.400
130.129
124.632
126.450
122.130
104.517
110.910
144.346
135.096
131.659
117.862
110.972
137.075
112.144
98.110
107.897
118.139
121.311
95.417
137.692
124.970
118.895
134.040
121.005
106.569
126.478
126.637
109.541
126.108
135.782
117.817
141.546
99.945
137.182
120.781
121.316
137.729
103.278
140.810
121.902
142.081
115.930
144.214
109.356
135.109
106.659
101.895
110.769
137.716
95.429
103.358
130.339
112.578
136.587
132.307
125.698
102.202
118.860
136.583
142.366
133.062
129.063
100.731
136.907
143.214
121.712
126.474
117.856
145.242
113.331
145.770
102.488
128.624
124.791
144.028
141.067
135.489
104.802
118.301
132.066
139.711
97.124
117.112
103.366
99.213
128.150
144.950
101.877
99.079
145.788
138.475
134.106
115.758
97.207
143.544
109.112
146.698
138.138
104.648
118.255
124.606
122.273
114.065
109.585
135.986
113.094
129.521
124.670
106.531
144.619
129.555
94.965
122.891
105.678
144.651
100.042
139.759
121.123
136.869
135.444
109.386
129.521
136.955
125.495
130.931
134.517
106.690
142.718
132.667
107.547
113.904
111.110
137.006
123.698
102.488
137.170
100.009
106.723
144.329
99.204
105.838
145.281
107.243
145.260
126.460
139.407
133.548
130.404
120.452
127.036
120.914
96.129
131.267
134.393
145.598
126.588
146.293
115.817
144.443
114.480
112.109
109.362
145.978
96.405
136.866
95.774
142.646
117.477
103.511
104.988
103.037
134.734
124.513
107.741
109.023
102.030
115.727
123.535
135.514
134.347
108.658
97.337
107.937
131.661
104.774
100.256
96.644
106.243
141.756
106.068
116.294
113.131
123.741
127.339
107.119
136.423
135.806
101.504
146.601
94.950
116.655
128.513
132.673
134.770
107.336
135.370
112.894
132.700
95.935
100.409
116.748
115.968
136.313
131.514
114.466
134.292
123.516
139.344
117.374
144.951
105.281
132.146
136.339
118.087
144.221
121.338
139.775
125.014
99.661
143.492
95.061
145.409
119.209
131.744
98.167
129.574
144.338
98.145
125.602
124.188
114.414
136.545
136.417
117.502
118.583
126.379
130.674
132.216
125.535
115.580
132.613
96.905
111.256
122.998
127.617
102.551
110.149
134.133
96.448
124.563
144.269
128.849
120.427
112.606
99.540
114.083
115.390
124.919
116.178
135.912
100.941
139.301
140.586
111.141
130.970
119.334
117.280
133.135
118.314
123.166
115.086
141.589
140.042
141.002
146.503
130.157
142.878
105.403
96.595
116.788
103.366
110.825
121.412
140.484
125.078
107.351
146.036
106.414
120.360
136.005
126.058
128.665
119.405
123.539
142.520
145.957
122.972
118.997
94.850
136.194
144.632
140.158
122.732
126.477
99.597
129.515
106.594
134.272
135.201
135.111
94.926
124.147
139.121
127.652
115.607
99.451
99.368
102.761
109.892
125.542
113.709
124.160
100.395
101.949
114.168
134.963
99.404
134.329
120.358
132.931
112.259
132.775
135.641
139.110
127.904
141.018
140.172
122.303
141.215
105.631
120.027
145.252
143.760
135.610
99.174
138.360
124.409
132.772
119.889
113.372
112.694
146.365
112.646
127.571
146.484
103.040
131.875
112.023
98.219
106.702
94.877
115.167
111.995
101.395
105.970
117.241
141.297
97.842
118.589
129.027
124.632
100.158
145.006
125.174
139.608
120.679
125.840
126.806
132.719
139.507
122.050
117.586
134.719
135.653
97.440
109.032
98.374
128.806
106.908
121.920
134.962
105.851
129.851
136.191
127.348
143.990
102.258
95.776
133.454
116.997
128.857
139.980
96.974
99.299
142.441
124.400
43.913
29.980
42.176
37.015
44.138
40.935
35.357
39.278
31.058
30.404
36.364
32.779
35.708
33.100
39.529
40.421
33.214
35.623
36.477
29.393
41.952
40.368
35.090
40.425
35.877
31.302
39.074
34.905
37.249
36.362
40.984
31.170
34.982
31.565
42.938
31.531
30.112
38.833
41.570
34.371
35.198
34.596
43.599
41.392
37.180
1345.454
1324.957
1339.035
1328.664
1339.112
1360.371
1354.085
1342.576
1344.633
1354.578
1349.001
1372.472
1357.071
1358.472
1380.526
1375.004
1375.014
1376.802
1378.530
1391.393
1392.008
1407.725
1382.532
1386.604
1408.143
1404.955
1416.437
1411.856
1425.056
1428.350
1408.151
1428.061
1425.990
1425.427
1439.188
1444.264
1432.674
1435.206
1444.400
1439.953
1435.597
1455.830
1455.369
1468.661
1451.776
1475.351
1474.018
1480.753
1476.532
1463.699
1479.805
1487.842
1480.588
1482.707
1491.218
1493.387
1505.825
1503.136
1504.798
1507.042
1493.376
1511.032
1514.244
1523.321
1518.781
1512.450
1524.637
1519.549
1528.217
1544.343
1543.278
1535.190
1525.114
1556.157
1553.678
1542.609
1539.645
1553.705
1554.475
1544.791
1575.719
1556.995
1581.508
1570.518
1567.263
1571.428
1589.056
1575.660
1574.926
1596.053
1582.581
1579.888
1605.607
1608.953
1608.782
1612.640
1617.705
1615.322
1613.497
1608.494
904.724
908.502
905.594
904.994
904.883
903.968
914.285
903.257
919.367
918.145
918.190
914.509
919.734
925.562
926.547
926.515
928.858
931.768
920.559
928.994
937.169
927.576
931.995
934.041
929.872
938.750
943.298
943.230
940.806
947.144
949.657
947.179
953.726
955.838
959.629
947.162
955.496
957.483
959.838
967.695
966.934
959.351
965.434
966.960
972.756
965.601
968.199
965.984
968.798
984.260
980.798
981.819
983.425
990.011
978.274
985.920
994.922
983.379
995.107
986.957
996.687
1001.332
1000.258
991.896
1003.366
1003.442
1010.062
1009.600
1014.475
1007.323
1011.400
1019.550
1015.970
1018.288
1021.224
1010.953
1016.018
1025.928
1029.962
1026.917
1026.571
1032.934
1027.054
1023.662
1031.507
1031.719
1027.638
1030.923
1037.675
1045.527
1046.245
1048.951
1051.567
1038.674
1041.955
1045.056
1045.559
1049.144
1046.939
1057.546
1059.878
1056.249
1055.972
1056.493
1054.788
1054.300
1065.479
1063.438
1063.106
1055.106
1063.300
1064.517
1058.781
1050.540
1062.748
1062.545
1065.541
1065.857
1059.487
1056.501
1052.302
1060.014
1061.261
1063.124
1052.543
1055.503
1064.690
1063.430
1064.123
1065.770
1060.383
1055.179
1061.546
1055.864
1063.066
1057.863
1062.582
1054.227
1061.453
1067.230
1064.901
1061.139
1063.665
1056.466
1054.499
1067.782
1063.978
1055.624
1065.879
1054.980
1064.722
1062.146
1060.977
1067.344
1057.888
1055.002
1054.088
1054.072
1061.469
1057.168
1056.280
1066.024
1066.502
1068.065
1063.277
1064.237
1066.289
1064.187
1054.119
1069.523
1060.305
1057.740
1067.302
1065.994
1056.251
1063.098
1059.345
1069.328
1069.004
1061.762
1061.967
1064.403
1067.274
1061.696
1057.698
1055.449
1058.754
1066.705
1058.541
1066.174
1057.989
1058.064
1061.746
1066.463
1064.809
1069.788
1057.228
1055.699
1067.917
1068.979
1059.861
1062.533
1062.442
1060.652
1062.145
1064.753
1056.848
1061.468
1058.261
1057.258
1068.856
1062.069
1059.075
1069.637
1069.519
1069.319
1066.293
1060.334
1067.268
1071.281
1068.368
1064.304
1057.346
1056.953
1070.262
1072.555
1066.431
1066.606
1065.586
1064.010
1064.085
1065.474
1057.479
1067.027
1061.416
1071.234
1064.317
1061.166
1059.222
1059.931
1065.812
1064.777
1070.837
1069.340
1062.477
1064.041
1063.051
1062.999
1063.132
1058.766
1073.858
1071.932
1059.229
1060.593
1070.683
1073.737
1069.335
1068.662
1059.520
1059.066
1065.763
1067.533
1064.312
1064.092
1066.237
1073.232
1064.299
1062.133
1062.904
1071.055
1074.321
1072.507
1069.411
1074.804
1072.822
1074.992
1062.440
1062.705
1070.723
1071.590
1067.372
1070.763
1068.380
1070.746
1060.574
1073.183
1060.617
1072.376
1067.683
1063.325
1073.406
1065.029
1075.648
1061.604
1068.929
1077.046
1071.999
1064.582
1072.734
1071.594
1070.964
1069.389
1067.102
1070.219
1068.306
1068.007
1060.334
1064.579
1064.104
1058.825
1056.998
1055.715
1054.670
1061.161
1054.907
1053.385
1054.239
1054.584
1044.904
1042.105
1043.906
1039.885
1047.404
1036.639
1037.615
1039.043
1036.243
1036.769
1031.729
1043.064
1028.920
1039.632
1031.067
1034.446
1032.604
1037.600
1026.608
1024.744
1028.802
1033.889
1020.313
1028.910
1019.090
1016.770
1013.677
1014.557
1016.133
1019.877
1010.962
1016.649
1008.927
1006.072
1020.768
1005.203
1016.959
1013.167
1010.628
1005.780
1007.991
1012.507
1008.526
998.993
1000.560
993.187
1005.122
994.887
992.955
993.492
993.469
993.385
994.059
988.424
987.990
984.783
985.663
990.767
988.367
992.388
982.563
990.594
982.485
976.096
985.630
971.806
981.517
983.837
981.057
973.317
973.498
966.775
973.717
963.543
966.329
968.622
970.486
966.387
972.293
966.202
969.232
969.665
961.275
964.992
962.063
953.396
948.921
962.218
956.101
951.813
954.234
944.033
957.730
941.617
952.828
945.775
941.682
941.107
941.820
945.266
939.375
942.687
942.422
942.616
943.681
933.699
929.920
936.410
926.778
931.979
931.069
925.536
926.256
925.396
920.394
930.551
918.715
917.910
915.965
923.643
919.156
911.548
912.273
916.025
913.972
913.902
920.320
917.363
909.480
905.026
915.408
910.178
898.990
908.748
899.427
898.265
903.465
896.436
903.213
907.046
898.444
893.778
888.753
897.302
894.352
885.451
888.760
891.556
882.945
894.670
885.872
887.923
878.745
883.086
879.933
881.402
879.812
883.337
874.092
881.706
871.094
873.208
876.070
873.004
863.937
869.211
877.625
875.003
868.931
873.596
864.003
867.680
857.968
856.473
863.774
863.641
853.703
856.469
854.455
849.526
852.989
859.327
846.263
847.310
850.339
859.489
852.375
854.370
862.485
847.645
851.189
848.397
860.289
860.647
857.556
864.945
861.176
850.291
860.880
866.422
861.506
866.521
862.128
860.789
866.368
860.546
867.660
860.062
856.731
861.365
861.873
868.727
860.571
861.744
860.961
857.520
872.029
861.600
870.941
863.136
870.181
859.109
868.829
868.710
863.980
862.850
861.798
872.312
876.491
863.848
862.301
877.920
864.203
863.619
873.765
865.750
867.630
875.998
866.064
875.384
877.330
877.758
870.206
873.758
871.252
875.921
875.064
877.249
878.964
883.379
884.233
884.641
874.946
870.555
879.068
877.734
871.495
872.639
878.676
877.802
887.520
875.499
886.260
874.085
880.738
880.200
889.943
885.083
876.528
879.564
887.187
887.114
877.558
891.949
879.184
893.048
889.174
891.516
886.134
884.426
888.684
887.777
886.043
885.233
887.683
881.802
887.949
885.047
887.567
897.252
886.723
886.111
898.640
886.458
895.664
885.502
891.684
886.396
898.834
898.033
896.496
902.911
896.574
888.772
889.333
897.045
897.851
892.643
894.264
901.374
901.099
899.806
892.987
907.074
903.993
895.953
894.321
893.706
903.523
897.797
901.586
895.610
907.807
907.379
896.306
899.495
911.317
909.647
908.890
905.348
899.036
902.893
910.200
914.989
908.239
905.314
906.789
910.511
909.862
907.489
903.775
910.908
917.922
914.835
918.389
906.125
916.625
905.775
913.402
905.436
919.067
920.642
918.298
912.943
919.451
920.445
907.683
914.107
915.215
923.280
920.121
922.959
916.451
910.433
921.756
913.734
916.698
925.501
918.400
915.458
916.841
921.196
915.355
914.208
914.021
919.325
924.569
928.297
925.143
922.242
923.572
920.647
926.968
924.319
918.666
916.858
920.840
915.332
917.169
924.362
924.054
913.545
912.954
918.530
922.710
913.282
911.110
913.023
918.082
923.583
919.900
912.460
919.328
916.448
909.262
907.681
916.213
913.885
911.057
915.740
915.041
907.393
904.994
903.215
901.429
902.270
910.321
902.987
914.837
901.896
899.304
905.966
906.694
903.283
897.384
903.646
905.331
896.960
896.517
909.191
900.950
896.700
899.080
894.729
904.899
906.360
893.732
901.667
896.786
899.083
896.867
897.571
892.343
899.267
889.734
897.456
887.962
886.841
893.263
888.008
884.308
889.815
886.285
884.476
893.720
