99.721
99.534
129.045
127.364
87.871
91.991
97.046
116.358
112.309
109.250
96.944
103.213
102.559
117.022
102.936
118.333
85.347
127.141
110.605
98.893
127.236
115.467
118.569
105.035
99.656
102.170
89.091
96.423
101.339
123.700
99.615
88.970
127.519
85.168
126.406
103.113
101.860
107.302
100.126
122.331
114.449
118.753
123.827
95.795
127.338
102.154
103.492
88.109
98.413
90.614
126.014
115.595
95.221
105.140
114.536
99.598
118.000
97.685
97.286
96.511
91.468
102.819
115.341
127.618
90.145
94.824
111.294
92.441
127.104
114.748
117.683
120.774
102.630
129.452
126.042
119.122
89.283
87.124
120.059
103.797
85.173
129.190
109.098
116.187
110.871
86.606
93.100
116.314
85.209
89.403
127.864
109.371
104.819
91.177
100.398
109.949
90.920
115.099
127.525
88.871
86.550
124.044
95.388
116.264
101.433
126.665
96.535
126.326
129.131
94.200
89.204
100.859
118.110
88.601
112.535
94.946
94.126
112.707
84.487
95.688
94.563
88.845
104.500
99.223
117.870
91.352
98.491
114.175
110.846
90.970
122.887
111.761
97.638
124.935
88.913
85.811
120.312
101.596
95.333
93.695
84.086
121.431
94.633
115.117
100.033
96.938
127.865
104.875
123.568
128.291
93.502
98.344
84.005
126.300
94.554
110.083
118.630
86.245
104.738
119.416
92.115
93.650
91.496
101.560
106.137
118.921
89.590
93.179
93.673
95.361
121.141
119.789
99.820
127.351
126.941
86.455
96.849
128.697
112.571
97.319
115.325
86.719
86.932
122.472
94.126
101.819
99.298
101.426
86.311
86.337
101.972
105.221
117.758
124.960
120.190
83.871
100.361
93.929
123.197
96.562
93.501
120.909
118.430
107.876
92.113
96.256
85.218
85.390
99.046
94.193
92.939
108.162
127.737
121.563
97.869
114.805
96.409
98.317
95.574
101.346
93.030
109.315
95.714
107.893
95.167
109.695
90.668
107.280
97.705
127.313
111.203
119.108
96.012
116.180
116.919
118.984
84.546
109.102
92.819
85.460
118.796
110.134
115.166
123.144
115.649
127.728
101.023
97.659
125.882
106.887
103.200
128.254
108.224
118.127
89.075
111.129
115.276
111.123
87.963
89.473
92.887
114.439
107.400
124.939
111.971
113.201
88.449
116.282
118.773
107.848
91.465
119.099
110.580
120.520
106.689
117.890
84.018
112.869
86.791
105.542
88.856
117.326
87.811
101.208
117.709
119.514
112.782
109.060
105.930
119.189
114.443
96.376
129.803
89.415
123.638
111.975
117.903
114.095
85.454
124.134
101.353
105.804
120.157
125.500
99.438
109.425
128.356
99.954
129.079
99.313
115.798
106.953
102.014
124.460
84.054
101.427
87.153
83.850
120.326
97.277
84.603
128.506
121.300
84.469
89.124
95.980
109.719
88.976
93.832
98.186
111.642
125.854
102.171
85.290
104.883
89.350
115.350
101.460
93.913
115.247
105.809
97.773
91.616
115.905
126.164
102.270
128.670
117.874
103.984
90.186
114.108
111.851
94.577
97.553
91.861
110.408
84.399
110.209
111.463
111.528
109.005
96.156
107.681
128.056
118.402
121.018
122.219
110.872
107.718
89.298
129.251
104.666
90.948
86.844
102.764
95.276
125.677
124.346
108.624
102.343
94.367
93.811
110.749
97.316
109.928
90.531
91.286
90.381
100.055
124.483
100.220
85.410
126.966
90.533
118.986
113.633
102.931
88.811
117.361
111.897
87.197
122.781
126.599
87.685
89.969
96.304
87.543
89.846
128.055
115.418
100.983
119.830
119.883
106.395
111.814
129.095
109.600
103.683
107.367
113.683
95.051
124.732
116.722
104.364
97.306
124.719
94.902
114.415
127.016
112.105
89.408
92.401
110.966
93.281
114.598
91.336
102.418
97.587
87.374
127.090
92.024
118.126
86.994
101.936
129.754
100.764
96.721
117.638
100.578
118.142
96.774
123.441
100.057
94.769
123.024
114.293
97.098
112.940
127.918
121.771
127.051
125.273
85.938
121.462
120.678
104.346
114.996
85.167
96.151
110.493
127.894
110.363
103.163
109.281
85.811
111.519
101.478
111.536
122.436
108.177
97.008
120.884
92.555
112.339
104.134
94.144
97.528
99.880
88.048
97.857
98.307
124.045
87.743
91.642
86.190
129.049
117.146
115.148
93.677
112.780
125.458
120.010
116.523
121.192
116.510
95.880
124.856
90.630
99.149
91.997
121.962
99.991
103.526
87.460
84.882
104.164
89.353
92.879
86.291
109.285
118.144
88.191
93.990
103.007
112.394
114.644
124.451
116.225
118.261
120.645
121.749
126.975
111.750
116.866
99.204
120.392
101.695
109.715
115.710
85.217
98.673
96.531
127.207
125.137
85.777
93.644
89.452
122.954
92.802
106.469
116.099
103.358
111.267
100.911
91.034
86.389
126.868
112.594
120.418
121.510
113.478
112.284
102.416
91.789
91.507
106.209
104.330
127.594
92.335
91.743
119.245
129.807
95.961
95.362
91.108
85.733
117.698
126.423
122.104
95.495
111.186
125.330
102.253
103.594
104.995
111.642
86.459
121.561
115.583
120.859
128.200
89.093
101.938
94.228
125.039
84.922
124.927
95.694
91.566
129.544
96.149
105.676
126.652
117.635
104.112
100.570
111.558
121.374
113.409
117.791
105.018
127.698
116.471
129.227
90.036
123.115
110.927
91.143
115.207
105.371
96.774
109.205
84.611
108.221
85.443
115.130
93.091
118.233
104.115
115.189
85.526
110.544
109.116
129.107
129.023
115.366
86.364
123.380
109.835
94.317
90.642
101.379
127.423
103.459
127.832
119.470
125.371
126.977
85.533
128.886
84.905
104.024
86.252
115.337
115.968
120.953
87.677
109.305
105.363
86.735
128.424
126.193
105.002
117.959
100.349
114.299
125.862
104.246
110.334
92.671
109.624
92.947
88.692
114.243
125.181
111.058
110.661
128.887
102.094
100.356
126.931
107.065
108.047
115.449
90.690
91.421
116.516
96.335
99.383
110.462
113.842
91.623
100.794
105.458
90.733
87.293
93.592
119.422
116.434
109.963
128.704
96.396
107.328
115.390
93.814
93.730
103.208
125.818
109.490
85.304
84.222
119.497
101.358
118.291
123.977
128.598
110.027
121.396
119.249
118.014
84.053
103.039
121.768
111.557
93.282
119.439
103.616
93.761
111.607
108.422
120.123
97.511
128.622
104.500
100.997
112.592
102.843
89.516
113.080
126.472
88.314
98.127
122.339
86.037
99.598
121.345
106.848
107.735
95.801
86.583
117.669
88.889
104.517
95.771
98.805
111.545
113.251
123.687
104.354
100.785
118.307
91.315
103.946
92.069
89.013
123.057
102.831
111.960
106.136
122.205
120.644
121.745
121.325
95.331
92.710
99.476
101.322
117.601
119.894
88.938
127.834
92.061
86.253
121.031
98.784
102.066
129.035
85.895
115.226
93.417
96.037
95.492
125.530
88.954
105.294
101.372
85.095
125.435
110.866
123.668
108.241
110.477
96.622
95.297
114.614
111.848
123.877
98.988
123.534
116.570
101.415
98.737
127.517
97.360
100.672
85.149
104.029
112.289
100.194
123.395
104.175
101.670
92.383
121.614
107.998
84.211
91.571
114.967
119.961
117.624
105.381
91.295
124.032
92.453
125.963
97.504
94.695
89.110
115.920
108.120
100.430
122.019
88.917
112.274
116.784
85.255
101.414
95.898
114.194
119.640
96.674
102.062
92.318
107.647
114.863
126.251
114.071
121.120
103.663
101.251
100.925
93.219
107.491
111.567
127.486
84.291
117.613
122.463
127.987
95.002
97.174
117.144
86.698
92.520
91.041
101.153
102.273
119.451
105.670
95.397
86.462
104.877
97.332
105.163
90.566
114.215
116.671
124.123
89.979
99.180
112.036
111.578
109.201
120.775
120.950
116.147
129.203
90.959
86.033
128.304
1020.073
1022.566
1028.036
1046.448
1032.466
1032.608
1045.256
1038.322
1039.872
1040.135
1037.413
1051.303
1039.131
1043.232
1056.259
1062.485
1053.334
1070.337
1056.063
1050.419
1061.817
1075.491
1056.536
1057.358
1062.108
1081.506
1066.178
1074.503
1085.822
1078.324
1067.404
1068.373
1087.107
1072.887
1075.449
1087.528
1088.004
1100.621
1083.732
1084.779
1088.858
1085.108
1106.335
1087.838
1091.022
1109.894
1098.644
1090.524
1112.504
1091.665
1118.296
1109.994
1121.911
1109.233
1123.485
1115.620
1128.745
1105.304
1106.214
1128.090
1119.972
1116.469
1113.577
1126.653
1138.378
1128.805
1132.906
1120.781
1134.327
1148.349
1138.008
1146.404
1148.779
1144.867
1154.124
1136.353
1132.611
1152.358
1146.967
1157.823
1164.513
1146.548
1168.466
1157.412
1172.063
1147.834
1167.210
1165.460
1173.948
1154.031
1174.941
1162.626
1178.684
1179.990
1186.255
1168.812
1163.952
1191.332
1172.137
1181.497
655.465
655.758
661.620
653.580
656.547
657.569
660.929
670.041
662.820
659.838
672.860
668.117
665.718
667.961
666.503
666.503
663.478
668.713
677.733
673.187
670.040
668.461
673.326
668.471
683.027
672.295
676.893
672.934
686.695
673.389
686.755
680.769
687.910
676.984
682.954
690.438
686.481
693.225
687.556
688.482
684.697
684.547
684.511
697.347
696.530
690.738
701.317
703.981
692.293
701.376
697.160
696.589
700.857
706.919
708.513
705.019
707.809
705.510
713.142
714.114
713.807
712.593
705.225
706.393
715.632
703.861
717.392
714.005
711.010
713.323
723.397
712.108
723.444
715.127
711.618
716.158
723.932
728.557
722.969
716.922
717.176
722.156
727.674
733.238
730.467
724.417
729.743
735.787
729.119
730.101
730.031
726.804
726.619
732.145
730.406
738.441
744.140
737.699
738.786
738.598
742.557
734.748
748.759
738.557
746.354
752.927
754.841
748.201
747.772
758.654
761.092
761.877
753.900
758.669
763.268
759.987
766.688
772.646
771.732
774.338
770.609
768.824
770.438
782.772
777.817
781.761
787.063
781.947
777.840
793.267
783.211
792.865
783.894
795.616
799.554
793.860
793.385
796.513
799.025
799.359
799.336
804.135
808.625
809.743
809.830
813.795
806.927
816.488
822.152
813.673
817.004
818.756
830.141
826.202
825.950
831.350
826.191
825.298
827.011
839.312
838.046
835.804
842.417
840.987
848.491
840.566
844.377
848.651
843.159
855.498
858.475
853.825
851.371
859.215
850.531
860.954
861.710
856.787
872.425
871.298
875.005
876.104
875.464
864.586
877.655
880.130
878.129
881.239
887.783
879.239
890.818
891.845
886.950
893.757
893.569
890.097
894.681
887.833
893.712
905.185
896.742
899.588
910.362
909.877
898.873
903.235
915.861
903.637
907.876
919.885
911.294
923.674
916.144
927.896
913.976
920.435
918.910
931.591
923.706
930.221
935.164
925.580
936.467
940.325
939.310
934.164
936.666
939.608
944.174
948.131
940.229
946.374
950.995
952.397
945.951
960.970
962.692
959.468
957.509
956.560
955.977
969.048
972.820
965.823
975.745
976.989
966.377
967.600
972.570
976.861
986.164
982.743
984.090
977.816
990.403
987.949
987.957
994.158
991.102
994.770
991.441
997.347
1004.841
995.372
1006.317
1003.458
1009.390
1010.093
1008.454
1010.393
1007.204
1018.578
1008.059
1018.616
1015.837
1011.196
1015.003
1023.767
1024.689
1029.757
1021.389
1023.002
1029.353
1028.156
1027.408
1030.339
1031.187
1035.913
1044.754
1037.251
1047.855
1042.179
1052.026
1046.543
1041.234
1052.697
1056.047
1055.650
1051.751
1053.540
1062.704
1056.784
1059.129
1062.271
1059.526
1051.415
1063.422
1053.367
1063.240
1050.302
1058.416
1063.984
1052.628
1054.106
1061.671
1052.975
1051.931
1053.241
1053.593
1064.570
1061.440
1053.894
1052.229
1053.250
1067.015
1051.638
1057.089
1055.973
1059.657
1066.566
1059.574
1055.682
1054.420
1057.294
1054.266
1056.530
1054.186
1055.145
1062.600
1061.879
1066.595
1059.105
1062.859
1054.772
1063.484
1055.788
1054.519
1065.593
1062.200
1066.689
1060.389
1056.338
1061.651
1054.815
1054.923
1055.619
1058.564
1059.977
1065.997
1067.857
1066.515
1067.544
1068.502
1064.701
1056.351
1064.012
1068.588
1064.990
1056.604
1054.484
1069.535
1061.411
1063.832
1062.444
1056.092
1066.109
1060.083
1068.383
1063.989
1063.729
1058.879
1058.765
1064.746
1055.049
1057.069
1062.564
1060.750
1067.460
1067.886
1062.290
1056.987
1062.087
1055.980
1069.161
1062.298
1061.785
1066.491
1061.720
1064.637
1056.861
1070.614
1055.953
1058.149
1060.384
1069.997
1066.039
1057.597
1071.851
1063.872
1058.717
1057.096
1071.892
1060.363
1062.309
1065.386
1063.594
1071.366
1057.993
1070.407
1066.535
1071.969
1067.453
1070.701
1062.670
1058.406
1068.227
1059.444
1062.162
1067.463
1072.924
1059.166
1062.945
1065.906
1058.015
1067.685
1057.801
1071.982
1069.701
1064.184
1069.674
1072.390
1062.495
1066.563
1059.306
1062.704
1061.993
1062.388
1070.684
1071.615
1066.335
1060.137
1063.098
1060.964
1060.746
1066.818
1071.226
1064.672
1073.950
1074.341
1072.278
1066.023
1068.582
1061.344
1074.909
1063.082
1072.387
1070.534
1067.489
1070.340
1074.831
1073.447
1061.144
1066.564
1068.154
1071.256
1068.704
1073.516
1070.865
1075.857
1067.236
1063.492
1072.448
1064.834
1070.628
1072.384
1075.739
1067.209
1069.902
1063.498
1070.509
1074.830
1074.050
1072.543
1064.056
1062.541
1062.074
1076.788
1068.923
1075.761
1068.869
1065.250
1062.081
1059.618
1067.499
1057.251
1062.219
1067.047
1062.703
1053.879
1058.636
1064.370
1052.459
1057.155
1056.686
1056.274
1057.130
1059.049
1052.873
1051.246
1052.689
1040.734
1054.276
1041.591
1046.294
1049.881
1038.772
1047.580
1034.909
1032.168
1036.811
1041.627
1032.624
1037.031
1038.894
1025.848
1031.073
1022.753
1033.325
1033.209
1026.078
1025.291
1024.615
1027.142
1016.321
1019.772
1013.341
1016.546
1010.686
1022.647
1018.681
1016.176
1011.771
1005.085
1007.408
1004.327
1016.833
1010.065
1012.257
1005.128
1006.738
1002.078
1002.418
1000.741
1005.560
1002.600
1004.176
1003.911
999.915
994.078
998.863
989.263
996.891
995.832
992.459
991.299
980.746
987.469
985.714
985.481
981.001
990.050
975.068
987.218
973.411
974.834
972.402
969.151
981.299
978.874
971.908
964.816
973.646
972.773
962.056
962.671
970.728
960.843
964.190
965.266
966.705
960.747
960.849
964.246
962.710
952.525
956.897
955.338
948.571
960.139
948.825
942.083
948.149
948.904
951.313
938.850
947.923
951.277
948.348
945.020
932.449
942.924
938.312
931.257
935.858
940.277
939.888
938.406
932.935
937.090
933.025
930.256
931.880
929.712
922.300
919.682
922.697
922.314
918.979
918.976
915.734
921.173
913.745
908.194
915.854
906.288
914.311
905.887
905.438
916.252
908.254
906.126
908.707
896.491
901.249
899.467
907.297
906.627
894.939
895.101
894.798
893.182
897.463
887.346
894.786
895.559
883.060
895.063
895.761
886.875
885.191
882.294
886.758
887.109
884.526
884.441
877.432
872.951
873.623
874.367
877.222
867.450
874.250
873.341
865.255
863.628
866.870
868.551
872.153
869.683
860.939
856.177
860.972
860.829
855.377
859.037
854.913
857.941
857.638
852.789
849.355
852.892
852.133
851.687
848.901
852.619
847.822
854.682
847.750
857.809
848.083
858.962
859.640
849.989
860.242
855.547
854.949
865.637
853.851
853.410
854.310
863.801
866.102
855.179
861.583
865.798
858.236
862.540
861.487
866.362
868.065
860.920
856.230
861.344
868.079
858.235
870.609
864.019
857.836
864.219
863.596
863.984
869.574
862.482
871.952
860.637
865.059
864.340
876.433
877.628
868.628
873.555
877.866
869.992
870.698
878.914
865.522
880.532
873.762
873.703
878.458
880.055
874.812
879.133
871.868
869.080
868.348
870.049
874.978
872.618
876.412
885.568
873.536
873.521
873.863
885.065
871.740
880.978
886.390
877.013
878.124
881.459
889.242
882.044
881.204
890.434
887.566
883.521
887.744
883.720
886.646
890.550
887.808
884.688
888.272
893.770
879.181
879.681
883.700
885.084
886.142
891.908
888.122
883.190
895.824
895.066
893.958
894.643
897.194
891.782
891.688
897.835
888.837
885.377
889.007
888.419
892.503
900.068
898.019
897.348
891.436
897.628
901.753
903.132
901.142
896.857
890.081
892.833
892.146
906.390
896.754
903.807
898.521
905.431
896.370
894.898
905.460
909.441
907.712
905.052
908.949
900.327
902.273
905.241
898.512
911.654
902.945
901.230
897.652
910.351
903.459
911.363
906.489
903.428
901.457
911.212
900.576
913.448
907.418
907.781
904.509
911.444
905.131
918.819
908.216
913.476
911.942
906.083
911.906
908.476
920.573
920.730
906.964
913.450
913.725
910.774
907.966
912.467
918.967
916.381
921.461
924.014
911.703
911.034
924.928
924.726
921.194
917.856
916.331
916.066
927.102
913.732
915.518
928.545
929.317
914.771
924.665
929.954
922.341
916.664
920.834
917.353
920.574
919.715
930.086
914.801
929.435
917.702
919.006
926.441
928.016
917.432
922.455
917.574
923.430
923.465
916.811
911.843
923.492
918.993
917.056
916.384
916.189
908.203
914.820
908.197
920.251
915.290
908.164
911.974
911.178
906.738
905.842
912.999
913.795
903.140
906.074
914.878
907.453
901.211
913.429
909.378
907.940
901.081
898.119
908.931
904.019
905.335
894.650
896.496
906.984
897.270
896.416
900.356
894.129
901.340
892.094
905.062
897.469
900.393
892.771
893.420
897.341
886.659
895.330
894.251
897.637
886.460
886.381
886.695
896.303
887.841
892.643
893.479
893.790
886.093
882.580
883.692
881.010
882.234
883.080
881.772
891.941
887.915
881.662
888.355
882.288
887.497
875.575
888.545
880.441
881.928
874.038
874.571
884.278
886.347
883.837
878.997
873.168
884.102
881.029
