136.379
137.403
127.912
112.897
112.414
122.266
102.673
132.413
120.699
139.729
127.572
103.138
137.606
141.108
134.757
107.782
101.936
103.923
145.916
127.121
99.670
110.814
102.177
123.425
116.256
99.651
118.772
95.563
114.771
132.946
139.620
131.765
102.424
144.575
122.409
133.762
111.022
140.384
107.737
144.487
114.749
133.959
130.260
97.849
105.196
101.011
118.534
110.521
135.697
138.318
115.278
124.803
103.825
130.929
137.154
141.757
97.787
100.823
113.625
123.982
105.594
119.636
103.721
112.806
109.358
135.799
117.714
146.713
138.023
109.933
114.635
99.595
101.567
134.788
97.321
97.330
112.328
101.996
114.564
102.142
125.181
125.538
128.232
115.312
106.153
133.924
100.641
98.874
136.470
112.257
127.831
113.574
141.214
134.085
129.683
106.633
102.246
97.603
143.111
101.993
136.032
119.061
112.870
120.034
117.386
132.601
105.999
103.210
108.286
99.545
102.679
99.746
114.522
122.183
99.501
112.226
129.437
105.494
132.897
99.575
113.110
133.465
102.666
97.930
144.305
107.661
113.926
110.631
122.949
98.029
100.120
105.671
95.206
121.620
122.384
127.461
117.591
118.299
114.473
129.081
109.546
98.435
101.149
132.422
118.899
119.845
141.299
126.996
112.008
140.577
112.974
139.375
113.329
120.303
97.321
134.277
130.008
106.440
128.734
143.914
97.491
128.819
108.265
109.613
124.902
140.966
145.839
108.055
115.148
128.045
123.559
103.828
126.561
114.917
129.854
126.694
98.424
125.251
108.235
123.678
119.936
102.682
112.479
128.294
95.190
134.356
109.327
122.663
108.170
141.717
143.110
95.496
96.595
143.101
99.169
112.602
106.924
123.794
134.838
142.302
131.338
104.706
132.916
116.751
138.839
140.416
104.070
119.107
98.936
107.887
146.073
120.809
146.435
132.226
136.972
142.338
135.399
139.696
106.855
109.973
100.535
94.902
99.222
127.378
137.269
125.902
126.965
131.214
124.518
110.397
140.788
110.969
128.954
100.763
134.264
144.753
99.144
123.297
98.936
124.967
139.468
125.574
110.209
102.123
103.675
125.298
105.038
123.240
116.898
146.071
117.799
116.625
113.825
115.053
136.455
121.700
104.707
127.533
142.881
126.831
106.139
140.430
120.179
121.103
132.089
139.013
122.631
119.058
122.460
95.672
137.854
109.998
127.852
98.656
135.906
115.305
104.444
97.578
128.357
136.671
125.123
115.723
138.174
128.557
117.855
115.412
145.823
115.863
119.378
124.107
121.762
112.084
123.640
124.233
112.982
139.035
130.082
126.830
145.471
112.230
113.546
97.771
113.463
130.141
116.566
141.338
109.224
121.164
123.885
103.644
135.753
101.661
107.646
144.849
144.995
136.938
108.235
132.779
136.566
95.358
105.559
118.630
132.362
145.551
131.950
133.838
141.133
140.504
118.221
117.129
134.528
97.713
117.295
146.480
113.727
123.034
111.296
122.972
113.987
145.279
96.080
125.427
136.992
113.202
120.437
116.574
146.698
119.906
128.881
138.708
100.534
97.556
113.955
135.936
142.491
123.706
135.185
145.971
142.039
95.948
143.923
115.743
137.893
104.048
115.181
102.569
133.857
145.123
134.775
135.910
99.226
105.236
135.329
97.785
113.510
113.157
131.234
144.982
98.698
139.602
109.549
143.019
106.684
97.273
106.325
105.024
118.613
104.526
134.751
134.557
135.688
121.717
96.125
102.831
120.120
130.115
100.585
146.746
106.850
111.306
100.800
104.011
114.509
137.352
132.450
100.615
105.400
121.285
141.205
119.627
99.970
144.501
106.046
124.243
103.028
132.068
116.543
104.359
133.470
116.999
97.036
146.451
104.135
95.660
98.782
106.439
104.425
116.744
134.642
133.633
123.775
102.947
109.850
146.009
145.980
125.392
102.379
100.267
117.217
137.526
125.497
100.531
116.933
137.225
118.605
138.094
99.320
106.791
108.608
135.922
124.425
107.406
106.211
121.994
114.347
133.456
105.158
121.991
115.442
109.259
139.357
102.138
111.536
131.387
145.862
121.874
111.227
101.205
101.442
117.295
95.394
120.544
111.305
110.060
123.168
142.701
124.047
136.563
102.857
104.871
132.821
104.180
128.281
135.812
107.002
123.895
122.977
116.067
145.900
96.491
101.768
119.398
130.445
101.703
96.990
113.450
134.771
146.297
119.616
104.267
141.213
99.183
126.814
131.643
124.155
121.403
118.975
145.077
133.731
131.728
101.119
109.135
115.455
122.377
138.577
95.011
128.847
98.288
96.289
129.077
117.724
99.990
112.466
101.211
95.555
119.184
112.878
111.375
111.540
135.390
117.551
125.289
130.655
96.969
96.987
114.478
136.177
107.421
107.378
117.132
128.913
134.028
114.862
121.657
95.703
114.227
136.756
111.565
115.405
108.164
138.804
140.533
97.246
108.092
94.792
125.973
125.657
131.421
124.460
120.791
110.438
96.938
100.730
126.377
106.382
105.654
132.285
139.547
121.256
100.967
113.012
97.159
128.261
133.343
106.786
121.499
133.950
130.070
122.129
107.908
139.140
107.618
111.563
134.854
115.430
143.728
106.396
138.717
115.242
125.858
145.237
110.549
136.928
96.891
132.604
143.467
110.076
120.316
118.935
110.496
132.448
138.523
144.660
118.077
134.598
109.327
134.899
128.497
141.362
103.360
133.536
145.115
117.699
114.166
109.467
105.551
123.984
122.882
136.122
107.354
111.560
98.755
123.184
96.502
140.289
128.380
124.841
118.422
144.412
134.175
96.080
106.238
113.775
115.043
125.645
133.652
103.277
131.952
121.961
106.607
116.928
101.810
126.916
127.710
131.310
140.602
109.365
144.266
138.809
97.491
102.592
110.802
121.420
100.594
145.367
112.636
141.200
113.618
144.242
131.573
135.794
110.665
101.149
112.897
103.531
138.890
98.245
133.016
96.486
124.553
145.775
125.055
101.605
100.409
142.434
143.349
96.580
104.945
123.874
129.729
98.886
143.907
124.689
102.048
116.941
108.496
114.750
98.062
112.020
95.752
115.281
108.198
108.383
140.791
104.300
119.616
144.625
114.230
100.818
137.507
101.280
123.664
140.800
136.308
116.287
113.619
132.416
129.533
118.770
97.723
101.794
102.912
125.278
138.909
129.681
96.889
134.435
132.543
110.546
105.157
129.041
120.953
138.355
136.273
107.231
116.266
127.811
112.652
134.896
129.880
100.394
117.651
141.556
107.316
140.082
120.434
128.146
128.504
123.620
117.780
118.863
108.246
111.483
118.109
105.641
140.631
134.472
122.403
104.923
121.344
98.946
112.057
122.541
140.767
102.344
103.324
105.071
121.787
110.958
124.779
108.142
102.041
119.173
121.590
125.101
107.301
114.367
127.389
136.169
107.477
113.282
139.062
96.920
124.055
119.695
142.180
122.891
133.350
112.577
103.160
136.482
108.007
127.589
106.434
127.344
101.271
121.072
123.266
110.359
144.247
114.241
113.372
137.485
106.040
134.554
96.194
134.456
105.333
130.569
115.616
118.473
110.718
145.375
115.759
98.788
132.883
122.404
108.501
105.858
115.804
125.340
138.102
143.950
98.829
127.612
110.581
133.330
125.475
117.591
137.985
101.455
118.176
100.946
144.305
137.710
106.869
133.535
97.686
137.598
100.885
101.576
98.802
102.545
138.780
142.829
99.178
97.888
126.092
114.481
108.387
122.175
104.589
137.523
108.463
139.871
141.677
103.207
102.393
124.424
110.895
100.953
110.767
136.726
138.109
141.608
105.601
99.585
126.635
127.220
121.730
113.500
114.053
105.197
126.035
115.944
126.417
125.020
126.191
130.786
134.896
96.673
124.907
100.209
117.413
108.854
124.502
96.765
118.667
102.833
130.624
114.654
122.780
113.513
118.802
128.296
132.835
117.513
146.117
126.943
95.647
103.539
100.211
95.009
143.064
125.482
108.578
99.181
146.682
126.268
112.430
121.498
123.529
101.148
141.334
111.739
98.085
124.194
121.354
116.154
137.006
143.313
101.213
115.154
124.084
112.593
106.004
126.209
132.174
145.754
114.286
124.246
105.418
121.257
132.305
109.686
137.470
141.484
106.280
133.728
123.244
106.948
139.512
140.302
95.207
122.944
112.591
111.457
113.227
142.852
118.050
123.762
136.584
145.885
140.287
135.090
119.548
116.082
94.811
133.176
132.824
141.606
113.011
96.704
122.092
145.629
102.957
125.612
137.161
118.928
145.228
104.088
116.877
123.158
105.302
98.974
111.551
117.055
99.447
138.547
134.351
105.727
101.517
135.326
114.074
139.898
114.574
114.319
127.498
32.462
43.055
32.380
31.329
30.917
41.256
39.068
35.839
39.239
41.149
33.510
39.445
29.519
36.613
30.018
41.991
38.892
39.749
35.935
34.082
40.447
31.284
36.384
29.759
38.290
35.026
30.995
34.781
33.121
35.912
32.204
29.168
39.862
44.336
31.551
45.076
45.013
41.591
38.721
36.432
39.716
32.559
34.743
44.798
29.444
1154.517
1149.299
1159.499
1159.074
1166.348
1168.707
1166.147
1160.921
1179.062
1173.271
1165.024
1173.103
1171.518
1176.529
1175.036
1189.068
1191.840
1174.263
1175.259
1193.703
1180.417
1183.200
1185.179
1184.835
1195.516
1201.115
1185.262
1204.576
1206.314
1187.476
1199.502
1210.803
1190.174
1200.836
1204.136
1214.427
1219.067
1221.960
1203.357
1219.172
1214.769
1225.056
1209.396
1212.252
1218.094
1223.176
1233.910
1238.511
1215.173
1221.686
1240.018
1231.057
1225.237
1226.926
1243.137
1243.171
1232.406
1246.147
1242.113
1234.576
1247.057
1248.844
1252.713
1242.069
1247.717
1264.874
1264.053
1269.828
1256.102
1272.960
1250.167
1265.841
1260.764
1255.801
1254.443
1255.394
1280.002
1277.245
1278.942
1284.601
1288.154
1276.969
1284.512
1294.129
1270.129
1283.832
1272.997
1287.103
1295.718
1277.056
1276.092
1299.776
1281.760
1291.456
1300.711
1285.699
1299.108
1295.363
1293.775
1317.928
717.950
721.720
727.074
721.906
735.262
721.652
734.712
733.759
729.956
732.154
736.172
729.029
736.505
730.010
735.248
734.957
736.199
744.860
743.067
745.339
744.320
737.093
739.838
739.109
746.117
753.091
742.960
749.169
742.140
748.213
752.813
758.658
750.323
756.793
757.811
752.789
754.833
759.442
751.348
760.262
755.121
752.927
761.727
765.834
766.395
768.269
764.789
764.565
768.276
762.982
769.290
764.531
773.081
772.740
776.931
770.325
772.560
778.037
780.712
772.222
778.034
771.709
785.434
784.159
780.653
774.112
786.749
782.553
781.798
777.421
790.840
785.105
781.113
791.090
793.626
786.282
791.955
782.949
783.872
795.533
796.794
789.266
801.782
799.537
795.872
797.806
791.280
796.830
805.641
798.239
804.871
799.953
805.921
795.894
797.861
800.433
812.856
810.516
812.368
810.918
806.038
816.869
815.489
807.866
813.949
818.277
807.398
804.906
811.304
809.704
804.851
812.886
806.076
814.721
820.222
809.939
814.731
809.293
808.086
811.633
815.771
811.841
821.541
816.960
820.355
814.087
820.872
812.978
822.404
810.882
814.436
810.582
815.323
817.713
821.837
814.134
821.260
812.748
821.241
810.982
820.638
819.053
822.603
811.450
820.054
824.657
823.222
814.098
820.892
818.422
815.356
821.753
821.734
818.739
815.406
827.133
823.097
826.207
827.972
819.052
819.275
824.543
818.173
824.397
823.506
819.870
828.727
823.426
816.770
822.070
817.255
823.364
823.349
821.911
823.261
818.972
832.835
825.830
817.824
826.898
833.810
820.248
833.148
831.687
829.377
819.258
823.049
827.246
826.047
831.668
835.658
830.832
821.147
833.153
820.956
827.076
836.046
822.674
826.747
825.658
822.579
836.354
825.232
823.730
837.834
831.965
823.762
838.027
836.714
837.823
824.197
828.989
837.938
825.419
830.683
825.905
829.196
831.970
827.254
840.596
829.302
838.951
833.643
834.491
833.814
838.653
841.250
835.769
842.800
843.451
834.095
833.842
831.112
837.127
836.464
831.509
838.517
838.323
842.573
842.952
830.394
837.360
835.563
839.826
844.789
839.429
841.856
840.841
842.203
837.610
840.381
833.139
841.333
844.721
837.144
845.576
844.881
837.876
844.062
848.743
843.970
845.993
847.876
835.336
845.553
846.014
835.905
838.875
838.606
848.410
851.772
837.938
840.853
838.528
846.481
846.047
839.971
849.880
852.303
851.544
851.354
844.105
846.503
848.677
848.984
843.307
843.227
844.909
848.149
852.322
853.982
847.956
844.387
854.370
856.164
853.874
846.175
842.144
851.897
850.771
855.696
854.565
854.026
853.809
843.880
854.084
846.362
844.753
843.325
842.153
849.528
836.162
838.632
850.301
841.162
841.389
837.419
841.283
832.865
839.357
845.060
845.031
843.663
840.509
834.763
831.923
828.804
836.101
836.072
834.529
836.304
837.161
835.571
834.903
824.599
837.974
824.439
834.320
823.925
828.748
826.753
833.962
822.675
828.101
821.323
817.814
829.891
821.344
816.853
820.458
815.914
814.468
821.097
823.308
817.405
819.824
823.902
817.844
809.279
818.429
820.411
820.188
816.941
806.521
810.426
820.610
811.926
809.765
808.841
807.200
805.051
803.633
813.110
813.292
810.423
809.256
798.721
811.570
808.975
797.240
804.938
809.364
803.497
806.015
803.555
806.512
802.976
805.626
794.400
797.409
799.090
803.926
801.411
803.460
796.710
800.124
797.013
800.059
786.861
792.054
797.041
788.049
787.936
789.456
788.868
791.729
789.051
792.079
793.449
788.008
780.111
781.691
783.833
787.039
781.209
782.483
779.709
778.841
781.993
788.029
783.190
785.516
784.787
778.846
777.612
779.979
773.735
772.793
781.984
772.271
776.552
775.955
771.697
774.216
778.323
765.118
775.836
774.936
765.742
778.169
768.637
768.416
771.756
766.193
760.379
759.019
770.457
768.869
770.511
772.278
756.570
763.017
770.269
769.680
757.058
767.190
764.911
751.924
762.845
760.422
753.003
749.972
755.235
748.738
761.571
754.501
751.857
746.365
749.050
752.314
753.009
745.655
750.016
750.171
749.795
755.457
743.795
741.117
744.138
748.970
744.584
749.938
743.879
741.718
737.458
736.757
745.271
747.853
749.015
735.360
733.434
732.570
746.334
735.552
732.748
734.787
735.099
734.879
731.482
728.471
737.310
742.289
736.964
740.214
736.166
744.577
734.330
745.649
738.098
745.047
749.902
749.254
742.149
744.312
740.715
744.379
743.778
755.310
749.039
755.402
758.990
748.126
753.205
749.587
751.762
751.730
759.939
763.673
765.218
758.124
762.105
772.188
771.812
761.075
772.095
772.306
768.956
773.065
764.844
775.956
765.524
776.567
767.503
772.542
782.488
774.094
781.479
775.691
787.920
780.318
779.638
785.162
790.124
781.290
782.821
780.141
790.567
792.411
782.751
786.475
796.067
795.013
796.812
787.259
793.590
789.525
789.758
802.408
805.442
803.396
804.223
805.597
798.407
805.037
812.559
806.440
807.323
810.835
803.528
815.235
813.453
808.169
807.200
821.364
816.948
810.095
823.156
818.038
824.420
826.654
822.801
818.168
823.121
829.356
830.282
833.108
819.498
820.925
831.101
822.708
832.226
830.274
838.769
824.985
838.441
828.971
831.495
830.940
833.790
843.157
835.449
846.942
837.195
845.790
839.922
851.071
850.277
844.227
841.151
854.965
855.344
843.095
856.331
852.080
854.922
854.821
853.987
854.560
856.300
857.875
861.425
858.780
865.425
853.877
865.351
861.336
866.558
862.844
858.089
862.865
863.853
872.471
862.592
868.420
877.806
876.217
878.616
872.119
880.919
872.147
874.857
877.720
883.472
885.539
874.839
882.414
876.384
883.399
886.179
891.739
892.774
886.167
889.197
884.660
897.283
892.106
893.376
893.451
897.639
894.004
890.105
897.307
901.874
899.774
898.676
907.048
905.273
905.077
906.930
905.567
911.777
910.003
914.343
905.496
912.223
906.472
914.044
909.979
916.073
919.542
912.436
913.233
924.513
916.330
915.819
914.854
920.952
920.227
923.304
917.446
922.589
926.344
928.002
919.481
926.654
916.887
918.421
915.264
917.586
918.763
919.069
922.646
919.081
921.107
919.163
922.858
919.693
913.175
914.030
910.825
912.417
914.278
912.661
912.274
918.143
910.828
912.864
908.315
915.871
914.794
909.087
921.244
908.258
909.401
919.049
917.417
917.523
913.828
907.879
908.846
916.740
903.814
917.655
907.793
909.959
911.381
912.347
912.472
915.907
901.905
905.871
909.275
910.195
912.548
909.847
900.129
907.648
904.743
898.503
907.759
900.632
903.124
910.547
903.428
899.900
908.490
908.485
898.713
909.414
894.599
902.714
897.943
892.288
901.292
894.526
896.521
894.848
905.833
895.465
902.932
892.708
903.871
903.980
888.985
900.495
900.860
894.182
894.341
889.508
890.424
899.276
897.393
895.077
893.385
900.320
886.773
890.411
898.489
890.275
890.353
884.074
883.391
892.026
894.347
893.326
888.815
891.608
888.898
891.642
886.400
881.634
885.043
892.179
891.873
877.846
889.863
880.071
885.484
891.155
879.111
881.312
889.776
878.419
881.445
877.594
875.732
875.061
878.287
877.023
883.082
879.371
883.594
879.801
884.739
885.816
871.697
886.199
871.999
878.184
871.621
877.287
871.702
881.669
878.744
867.713
870.099
878.144
880.035
873.306
877.671
872.046
867.671
868.197
878.391
870.003
873.121
876.754
878.636
871.445
867.634
869.833
872.248
876.496
861.677
875.145
865.424
864.754
866.750
874.454
869.012
861.103
870.562
873.535
868.191
867.187
860.765
856.983
