113.261
101.895
141.766
109.290
119.275
102.080
96.432
132.701
110.318
96.906
136.030
127.642
122.232
122.320
95.003
130.896
100.119
126.721
140.062
117.249
107.195
103.217
127.780
146.361
116.539
100.474
132.395
100.518
121.017
138.733
147.344
97.208
146.222
106.979
111.946
102.575
140.363
147.971
123.255
99.121
128.757
98.355
147.856
127.760
110.303
111.594
106.396
125.634
111.146
118.735
101.942
122.327
112.849
125.807
119.411
118.687
136.481
110.672
111.733
120.325
147.608
111.830
151.205
113.167
150.918
108.927
108.057
99.747
123.393
142.585
146.441
112.050
105.451
150.241
132.320
108.784
112.661
121.689
138.772
130.164
102.278
140.522
150.091
114.292
131.785
129.374
134.967
111.594
136.073
103.704
125.897
130.608
111.708
114.100
109.209
118.346
116.688
129.558
134.705
144.901
128.115
128.852
120.380
121.130
142.475
118.022
122.270
152.530
142.303
137.040
152.821
152.207
106.623
144.632
120.949
142.888
152.584
111.990
152.728
135.042
156.273
132.447
127.929
156.292
116.554
107.937
109.311
130.027
110.714
148.535
112.625
133.180
136.073
147.747
118.078
126.407
138.220
136.804
143.877
136.880
152.436
124.742
132.061
118.697
113.632
124.058
110.380
148.669
115.195
131.377
113.765
111.410
136.114
158.021
138.722
146.080
128.724
147.106
150.599
118.670
146.518
119.840
137.921
138.917
120.106
106.794
108.001
134.394
113.884
131.912
154.685
150.102
117.545
106.610
113.246
152.404
154.580
141.946
145.314
136.584
149.344
138.321
123.233
132.015
150.154
137.004
143.319
129.153
116.580
130.869
119.642
135.763
123.589
126.625
132.461
115.912
141.646
128.769
130.933
151.084
107.345
119.726
127.777
120.825
129.118
115.358
143.377
114.548
127.725
132.835
144.749
153.021
154.201
128.971
143.100
140.158
134.541
134.737
123.854
128.184
134.504
104.960
152.765
107.393
106.678
144.317
145.651
153.328
102.906
144.763
143.499
125.636
110.253
123.639
104.159
119.099
124.674
134.854
121.761
108.471
128.063
153.457
108.015
128.664
139.652
113.746
138.576
129.706
106.418
106.646
121.114
111.802
137.472
145.088
146.108
116.421
121.498
122.009
144.427
120.003
150.749
109.175
131.132
128.115
112.209
145.795
136.156
149.259
120.043
101.129
143.983
118.843
101.930
102.945
119.762
120.922
132.412
148.533
139.132
137.148
121.764
130.316
109.680
145.507
140.054
138.513
112.335
132.920
100.879
124.924
121.694
116.858
132.009
144.901
105.265
122.555
102.936
121.609
132.125
100.679
130.386
123.491
111.443
138.467
123.969
105.015
120.613
138.292
103.675
100.199
104.365
102.222
117.480
100.390
98.634
116.746
105.416
109.538
118.597
116.222
116.055
115.096
136.429
130.219
142.531
111.696
102.139
113.945
145.468
116.161
144.644
117.798
141.824
109.994
146.504
120.347
110.665
145.503
133.550
108.861
111.599
122.296
103.241
116.214
126.174
114.716
126.879
142.280
125.126
118.841
103.830
124.637
143.171
130.497
136.169
139.375
112.283
121.269
127.841
95.972
144.384
133.517
102.891
113.580
139.203
125.485
105.049
132.396
99.687
109.612
114.910
114.458
137.812
122.698
128.108
118.284
117.885
138.605
125.281
115.185
119.439
142.421
141.609
120.481
112.646
122.104
137.381
138.482
144.589
143.763
126.250
120.295
134.599
98.462
113.252
101.051
117.221
109.605
116.539
124.812
124.003
95.166
136.271
102.196
136.306
121.916
134.316
132.394
123.996
133.597
121.010
137.604
122.539
109.547
96.252
130.116
108.732
133.985
127.739
107.930
118.744
131.234
115.409
113.537
103.006
137.824
112.461
113.849
124.815
131.351
97.657
141.840
116.493
109.663
127.078
129.149
136.936
128.637
97.397
133.498
140.164
144.240
121.368
140.077
107.528
140.194
106.841
135.331
135.651
135.244
131.133
105.332
137.052
108.807
112.300
125.442
136.709
106.647
111.336
121.801
130.169
134.012
124.857
99.576
110.080
133.649
124.144
112.733
138.400
105.706
143.643
117.041
132.280
145.875
133.981
114.017
130.107
130.514
107.963
99.621
140.116
129.498
128.135
104.994
112.852
111.365
114.859
122.792
133.757
112.040
110.181
124.974
136.613
106.423
145.278
134.842
106.214
107.879
115.153
135.279
109.233
42.519
36.813
29.671
33.202
34.374
40.184
37.995
32.655
33.596
36.771
31.483
29.964
30.937
31.967
33.831
41.411
29.683
34.579
36.935
38.037
30.280
37.900
34.732
40.551
31.668
30.531
40.099
35.314
44.813
31.714
41.638
38.845
41.819
34.481
35.292
31.120
32.964
32.335
39.380
31.540
42.688
34.253
31.487
30.930
40.795
38.855
42.825
2039.930
2057.520
2041.461
2046.948
2060.293
2039.341
2047.147
2033.100
2039.713
2055.594
2045.293
2054.042
2036.353
2046.205
2031.862
2052.963
2041.724
2044.031
2053.275
2049.440
2031.260
2052.538
2041.898
2039.239
2043.500
2023.352
2022.995
2029.343
2034.854
2038.083
2039.169
2037.327
2023.769
2039.931
2032.967
2038.484
2041.319
2036.251
2025.381
2025.471
2025.352
2019.530
2026.006
2012.347
2038.888
2018.743
2013.151
2012.845
2036.572
2034.886
2034.821
2024.306
2028.717
2021.018
2014.186
2008.756
2026.669
2028.327
2013.144
2020.547
2022.496
2017.218
2013.080
2026.351
2027.234
2027.074
2025.768
2009.386
2021.309
2021.307
2011.048
2003.056
2000.679
1994.362
2010.255
2009.356
2019.598
2007.666
2003.014
1990.142
2001.788
1992.054
2008.803
2015.287
2010.944
2001.696
1997.584
2006.522
2006.790
1996.902
1990.636
1982.926
2004.274
1992.923
1984.271
1997.464
1983.109
1991.112
1979.904
1991.818
1106.317
1109.749
1106.931
1104.595
1110.417
1112.056
1107.558
1101.992
1109.876
1101.680
1103.059
1110.659
1102.999
1097.208
1100.821
1095.638
1097.335
1098.854
1095.448
1096.525
1095.080
1093.769
1097.054
1103.910
1091.940
1102.699
1102.684
1094.244
1093.870
1099.401
1092.053
1090.324
1092.394
1089.295
1094.157
1095.274
1100.749
1097.207
1090.389
1089.918
1088.872
1092.532
1099.221
1091.791
1099.285
1097.505
1085.397
1086.911
1086.142
1085.838
1095.899
1096.536
1083.523
1093.001
1084.680
1084.113
1088.071
1095.572
1090.329
1079.469
1092.962
1088.832
1086.849
1078.171
1089.001
1091.239
1084.571
1091.991
1083.711
1081.989
1082.973
1086.631
1089.476
1089.187
1085.899
1084.429
1089.150
1073.577
1082.878
1082.753
1074.459
1076.235
1086.407
1080.840
1084.412
1077.421
1080.716
1073.127
1080.029
1076.852
1084.569
1072.333
1078.082
1077.649
1074.897
1082.522
1069.187
1069.067
1067.958
1078.874
1079.385
1068.832
1066.278
1065.875
1058.785
1061.244
1059.499
1064.169
1056.271
1055.227
1050.200
1048.169
1051.978
1050.602
1044.155
1046.472
1043.964
1038.075
1033.344
1028.137
1031.256
1018.209
1027.155
1016.514
1017.115
1019.471
1014.948
1018.824
1010.947
1005.482
1005.534
998.119
1000.373
999.094
999.030
995.784
990.276
987.045
980.946
982.260
985.650
978.460
977.565
976.545
976.263
971.575
963.173
960.865
961.346
962.010
960.808
954.022
960.480
958.951
950.520
946.985
943.230
940.061
934.955
942.285
941.929
939.665
930.722
932.706
926.834
920.819
915.130
922.202
919.464
916.272
909.188
918.075
907.836
906.189
908.130
906.630
894.839
901.305
892.674
884.424
893.175
893.214
880.312
887.126
875.265
873.101
879.907
872.290
867.929
874.226
872.646
868.627
866.035
855.444
859.466
858.233
845.850
858.305
840.445
846.316
848.103
835.587
831.673
828.905
837.530
836.313
830.238
824.627
819.568
818.856
822.322
813.664
816.701
812.641
810.242
803.791
801.409
798.937
807.722
801.014
798.205
799.365
792.741
784.643
781.571
790.034
782.402
774.460
772.452
774.622
773.386
774.988
769.858
764.933
765.904
762.185
759.878
765.718
752.930
761.119
753.595
753.921
745.673
743.734
734.760
743.775
739.704
727.837
741.115
730.942
727.612
718.610
727.255
716.114
717.633
723.329
715.103
715.511
706.788
710.921
710.225
705.350
701.912
705.802
695.286
697.371
696.757
694.424
687.160
684.626
676.206
675.336
679.350
669.564
667.150
673.071
665.634
671.354
666.149
661.188
655.114
663.740
651.188
659.593
647.156
654.886
645.060
649.233
645.293
636.550
639.465
629.544
639.880
623.021
630.770
630.091
625.160
623.911
621.038
617.442
619.826
609.930
613.888
620.608
614.654
618.272
624.132
623.116
621.060
621.256
632.285
620.822
619.660
620.697
634.109
628.615
633.941
631.652
637.866
639.588
638.182
639.184
629.174
636.103
635.989
638.953
634.126
639.589
637.164
643.860
637.685
650.109
645.482
655.374
645.431
654.613
647.005
648.189
650.344
649.172
660.614
653.213
651.902
666.032
667.216
668.055
657.252
655.295
661.760
668.749
674.078
662.150
665.520
664.259
675.423
677.663
678.239
678.117
672.715
674.244
679.660
684.943
684.983
678.349
683.914
683.129
689.313
687.939
684.877
687.728
693.238
683.421
686.492
689.906
694.724
694.605
695.162
686.473
700.325
691.245
700.893
695.621
694.869
697.322
694.623
710.639
706.145
702.352
705.733
700.621
709.532
712.428
706.349
706.816
716.078
718.930
708.997
710.452
718.679
714.798
717.901
715.423
720.878
718.641
718.506
728.123
730.229
720.244
719.618
720.106
721.190
726.614
738.189
728.587
732.544
740.975
731.545
741.063
732.854
737.332
736.202
734.171
741.150
744.088
747.911
749.776
744.344
749.119
752.439
754.472
747.491
744.042
744.633
758.702
753.656
753.977
749.732
761.164
752.871
755.916
759.120
755.904
757.435
756.901
756.945
765.378
772.579
768.064
769.705
765.118
764.586
766.445
773.981
779.045
773.497
777.331
780.419
781.613
771.325
785.187
783.079
782.852
786.759
785.892
790.975
779.467
785.668
783.310
793.771
785.362
797.796
793.174
789.654
790.758
797.130
792.747
790.978
801.627
793.562
808.368
805.843
806.618
797.973
806.689
801.366
811.058
806.164
812.669
812.444
815.492
815.960
815.596
821.715
821.662
816.419
819.407
817.177
819.729
823.227
827.979
826.891
817.734
823.391
830.414
832.295
832.157
834.465
827.454
824.234
822.826
833.367
830.053
829.373
827.138
830.041
837.150
831.963
832.421
826.524
828.539
839.380
842.073
836.171
833.492
831.440
834.924
837.131
847.126
847.017
841.029
839.039
842.859
844.888
836.786
849.377
851.418
850.752
849.896
848.699
843.704
841.680
855.364
857.338
853.630
845.154
847.525
850.190
852.669
849.115
853.637
852.987
853.626
858.073
855.501
863.318
854.327
865.062
861.378
862.316
857.105
855.088
854.402
863.026
867.211
855.776
862.164
872.474
862.888
871.934
872.980
864.705
865.809
876.605
862.545
866.996
867.107
869.353
867.397
865.241
874.752
872.547
870.096
877.722
877.442
871.022
884.630
884.999
877.629
879.845
873.498
876.225
879.445
883.691
884.419
888.365
889.005
890.108
881.371
883.455
883.155
880.589
881.495
887.569
886.854
892.884
897.440
896.517
895.615
897.803
892.489
893.827
891.659
894.800
896.829
888.428
889.690
897.080
897.547
904.040
896.338
906.761
892.658
905.207
905.173
895.101
909.609
902.579
896.402
905.131
909.563
901.046
909.855
907.166
900.605
904.160
907.220
902.144
912.008
907.356
907.841
907.471
906.016
908.280
920.003
908.788
909.162
911.826
919.807
914.511
911.220
917.746
925.383
925.244
920.380
925.112
917.052
914.791
920.274
926.119
931.827
921.145
925.628
932.540
921.578
922.720
934.953
936.400
928.584
926.874
935.817
932.161
927.913
935.040
936.247
936.478
933.885
935.430
942.323
939.323
936.381
931.173
930.221
943.765
935.218
944.694
948.263
941.402
940.898
937.740
946.950
946.242
936.544
940.419
952.943
945.737
944.810
952.238
950.006
946.336
948.170
951.899
949.854
946.579
944.727
951.398
951.086
949.473
937.990
945.564
947.359
936.720
934.666
935.789
938.629
947.884
945.720
943.763
943.766
941.743
929.014
935.161
930.809
937.895
929.151
934.098
929.315
924.132
924.022
924.922
925.694
933.580
925.523
927.058
927.495
926.265
923.592
931.182
928.410
917.254
926.241
925.264
918.252
919.063
918.052
916.438
912.711
918.346
911.959
913.405
916.087
918.332
918.178
915.342
910.092
912.770
919.747
909.629
913.186
903.732
910.114
903.156
906.689
907.137
898.936
910.702
899.030
911.695
898.957
903.194
894.776
901.987
906.786
895.610
894.179
897.646
893.034
905.184
893.227
898.947
900.575
902.557
887.854
885.676
884.822
891.081
892.322
892.995
886.726
883.834
880.792
888.012
880.501
883.952
879.034
879.239
890.996
879.799
879.259
886.147
885.704
878.868
883.092
875.419
885.370
875.650
870.796
883.329
874.351
868.534
872.975
871.960
876.543
874.625
876.264
863.950
878.190
870.915
868.806
868.351
860.734
864.083
861.245
857.963
865.781
866.975
871.055
862.040
864.017
862.456
866.581
865.989
860.557
861.653
865.435
862.848
858.768
854.136
862.370
860.616
856.486
851.989
847.915
848.956
855.022
855.898
842.449
854.695
841.342
842.145
842.390
847.867
839.260
842.705
848.204
849.621
839.906
837.586
842.393
843.700
846.279
835.258
835.638
830.202
831.826
835.716
835.068
832.595
830.104
833.334
840.192
831.167
826.760
838.299
826.687
821.799
822.859
828.580
827.174
824.994
830.917
830.984
823.971
824.312
830.913
819.279
829.213
821.457
812.810
826.050
825.369
817.460
811.064
813.011
812.347
814.891
819.608
812.302
820.924
818.027
816.172
816.414
820.743
809.923
819.373
814.626
824.487
822.544
829.092
830.382
818.219
821.113
834.930
831.746
838.804
837.074
828.821
835.914
829.881
840.474
847.851
845.544
846.356
844.336
839.589
848.018
855.368
858.029
859.605
861.631
858.061
859.706
860.805
856.175
865.049
863.115
867.025
864.848
865.174
864.227
864.119
866.341
875.913
881.863
882.116
879.310
877.946
875.571
881.710
886.218
879.648
893.378
887.421
893.425
890.131
891.137
890.862
893.682
895.523
905.180
907.326
909.297
900.107
906.967
914.235
915.240
914.994
921.123
908.311
910.702
921.534
922.896
921.277
922.709
931.001
930.777
920.795
925.970
933.632
928.267
932.667
929.705
942.388
946.229
947.655
935.127
936.325
947.066
949.035
944.542
953.966
948.532
960.557
957.249
949.825
965.427
952.591
964.350
960.963
957.255
970.584
971.178
964.677
971.697
978.488
968.158
969.158
977.620
973.723
987.055
973.035
981.213
990.614
978.849
986.260
994.380
995.956
984.250
992.107
999.731
996.270
996.100
998.907
998.079
1000.234
1007.146
1008.283
1003.569
1013.639
1009.494
1017.313
1008.220
1017.632
1023.719
1019.683
1020.097
1018.832
1020.477
1021.106
1023.557
1021.025
1022.867
1022.495
1034.750
1026.054
1039.091
1030.323
1034.961
1036.117
1048.649
1041.039
1045.218
1046.522
1051.941
1051.290
1057.109
1053.478
1060.787
1055.550
1061.582
1060.572
1058.316
1065.253
1058.962
1071.473
1070.838
1062.938
1077.052
1064.802
1067.405
1077.246
1077.265
1073.293
1083.766
1077.342
1079.207
1082.054
1092.181
1090.913
1090.195
1091.247
1088.154
1096.856
1095.851
1093.093
1092.571
1098.703
1096.050
1096.916
1102.860
1098.747
1112.515
1100.886
1110.179
1110.139
1117.207
1118.798
1117.664
1123.493
1125.346
1117.469
1126.013
1117.235
1124.614
1120.619
1126.755
1124.089
1125.631
1120.305
1124.887
1117.871
1120.008
1122.786
1115.479
1112.358
1117.928
1110.547
1119.728
1110.152
1118.227
1114.781
1113.009
1113.700
1105.023
1106.421
1113.978
1106.472
1110.897
1105.824
1103.578
1101.980
1107.948
1107.327
1095.393
1103.648
1101.734
1099.811
1108.375
1101.919
1092.573
1095.929
1091.291
1093.609
1099.121
1090.113
1092.497
1102.672
1092.054
1100.840
1091.466
1085.032
1093.624
1095.250
1086.180
1094.437
1095.647
1096.875
1088.308
1084.423
1093.671
1080.025
1082.588
1081.196
1082.211
1079.682
1089.637
1089.246
1084.642
1087.617
1078.015
1080.325
1076.178
1077.580
1081.989
1080.476
1076.140
1071.091
1069.323
1073.639
1075.419
1070.425
1076.049
1078.296
1079.460
1071.998
1075.421
1070.542
1070.553
1071.166
1073.923
1071.850
1061.780
1070.196
1071.248
1061.310
1063.396
1070.358
1063.238
1066.824
1062.861
1055.856
1066.426
1054.989
1058.823
1057.990
1062.494
1054.482
1064.480
1061.340
1065.165
1059.993
1052.050
1050.584
1054.384
1055.428
1049.185
1059.158
1055.641
1056.750
1050.226
1058.504
1054.573
1042.201
1055.199
1048.384
1045.641
1049.791
1049.098
1040.919
1045.187
1043.968
1047.540
1050.627
1045.133
1040.946
1035.086
1044.836
1046.848
1040.662
1037.071
1042.565
1031.704
1039.974
1030.446
1044.260
1031.513
1039.557
1029.235
1027.464
1026.080
1030.867
1026.044
1028.607
1030.989
1027.908
1033.924
1036.722
1029.643
1028.271
1022.341
1023.784
1028.606
1030.084
1022.879
1029.223
1024.534
1028.811
1019.456
1020.667
1020.446
1020.390
1023.873
1022.052
1019.611
1015.353
1015.327
1023.668
1023.737
1018.044
1010.771
1013.493
1016.876
1011.294
1010.567
1011.289
1006.079
1008.639
1011.778
1018.620
1017.021
1007.538
1006.747
1011.250
1003.605
1013.418
1006.634
1006.161
997.668
1011.806
1010.145
998.508
1008.908
997.575
1003.704
999.168
1000.397
998.337
991.110
989.668
995.129
997.884
994.064
994.201
982.773
992.777
989.410
979.772
980.447
977.633
990.346
976.667
978.430
981.328
978.163
978.387
979.224
975.573
971.354
967.577
978.737
974.145
976.937
970.503
968.869
964.429
965.046
957.586
968.760
966.611
959.960
957.632
956.709
952.768
950.076
962.135
946.330
953.473
944.977
948.497
952.462
950.900
945.606
942.494
