128.863
109.733
100.694
102.411
96.948
139.400
102.824
105.138
126.391
144.292
104.831
143.888
102.250
128.617
146.229
127.886
122.433
143.629
122.725
116.465
99.015
145.498
142.235
146.284
96.833
109.181
131.488
146.032
115.593
97.038
137.211
103.057
144.132
133.997
112.995
112.900
127.004
132.838
104.253
145.697
100.314
105.741
110.776
146.648
113.437
97.249
128.495
111.708
103.084
119.555
144.174
105.392
146.754
100.723
125.419
137.237
129.292
132.472
107.176
101.159
135.256
97.654
136.861
118.154
103.012
128.398
117.144
139.696
103.969
110.508
132.557
117.201
140.672
131.594
142.794
120.503
104.741
118.644
117.370
131.308
144.132
127.409
139.716
137.858
120.985
143.826
125.997
103.651
137.431
103.585
128.148
99.298
132.677
139.003
123.557
134.651
110.067
97.625
141.210
99.445
117.814
99.315
125.102
131.498
136.749
97.906
136.352
143.947
122.684
100.306
112.752
103.583
105.109
118.039
104.520
101.829
96.133
142.727
121.382
144.938
143.522
139.795
133.619
142.431
145.132
108.160
125.455
107.840
102.793
137.156
127.556
133.826
133.276
95.694
141.663
97.524
116.214
121.568
115.317
144.091
142.234
117.114
145.405
111.154
128.047
131.154
144.942
119.897
95.624
103.028
103.641
133.298
131.642
98.694
117.508
131.828
100.941
113.141
119.336
116.834
115.654
134.908
129.971
100.579
98.340
139.527
142.465
129.524
104.415
112.539
135.672
119.058
104.360
107.882
109.772
103.238
117.276
145.236
123.515
103.027
124.174
141.230
144.642
126.084
121.860
98.749
99.714
123.150
99.198
134.107
127.817
143.834
127.964
128.872
131.412
95.791
125.911
143.798
129.018
143.883
135.188
95.436
144.508
118.357
134.205
113.717
95.868
103.265
102.482
105.794
132.659
107.440
110.373
143.024
128.110
141.934
110.248
97.073
124.166
115.353
128.956
127.488
131.336
104.621
132.382
107.821
108.734
122.001
122.720
116.342
105.685
101.718
132.377
144.839
126.116
115.360
124.108
128.536
104.457
113.805
109.887
134.624
144.689
125.344
138.726
97.364
130.300
94.897
114.040
122.364
106.495
124.578
97.031
105.066
95.640
138.790
142.132
105.378
95.911
106.311
107.950
94.899
136.200
108.808
117.683
108.568
142.262
132.468
146.552
139.257
145.225
132.660
113.230
131.778
118.798
125.435
146.744
134.384
119.862
134.433
98.830
105.802
125.334
136.713
119.667
115.873
122.628
105.549
122.295
139.990
112.167
114.910
102.913
105.852
106.180
124.243
104.504
143.525
132.380
130.580
140.348
119.158
110.098
132.073
124.188
134.221
108.370
105.644
119.601
105.981
101.019
139.258
130.682
130.026
102.174
115.984
114.198
138.669
134.974
109.252
117.898
119.428
97.450
139.088
121.233
106.153
109.377
110.597
106.651
103.121
113.904
108.117
136.636
140.920
131.657
135.379
101.357
121.319
101.290
95.770
143.041
131.399
117.438
131.121
115.674
145.169
115.813
116.278
112.875
111.842
125.990
108.636
110.075
102.859
109.827
123.461
104.861
137.026
114.055
105.002
125.952
95.959
129.744
111.660
137.597
104.001
136.617
118.808
105.498
110.364
106.557
132.777
97.734
129.053
133.722
129.704
98.934
135.485
101.086
97.002
142.524
132.248
120.130
142.798
118.276
116.107
138.803
105.185
116.518
99.740
121.139
97.433
132.892
136.918
131.484
118.575
104.163
97.463
120.386
98.056
117.894
118.887
131.362
130.852
105.010
144.645
118.231
99.139
119.704
124.302
97.858
107.780
131.968
144.639
136.650
118.498
131.667
144.011
126.982
139.546
131.442
127.285
111.986
140.405
145.181
124.700
140.209
95.329
132.415
140.676
114.647
96.657
141.479
110.488
111.923
138.269
126.082
121.487
143.120
111.258
145.540
142.555
108.937
95.010
132.238
125.517
105.864
140.981
114.838
129.161
136.067
109.830
121.625
133.864
108.789
141.987
100.627
113.915
135.621
137.715
122.761
112.448
137.728
133.302
145.537
138.384
133.961
134.410
117.892
119.119
139.437
141.787
120.501
145.079
132.563
128.161
129.061
103.213
127.130
116.588
127.756
127.046
121.766
123.015
108.018
140.640
123.347
134.046
128.155
104.437
95.091
127.174
126.318
110.866
139.403
121.073
129.073
108.303
126.020
135.185
102.151
119.085
134.192
140.789
115.963
107.206
126.273
135.459
113.777
141.255
127.921
102.095
95.795
137.033
119.806
128.907
98.740
130.420
95.395
123.795
118.872
132.846
102.260
138.775
124.106
134.974
137.365
107.641
122.756
142.905
117.480
107.208
141.017
136.167
137.691
111.099
98.624
107.920
125.244
113.882
122.394
102.608
126.296
137.688
117.068
95.519
100.301
133.067
125.314
134.388
123.904
136.622
136.121
141.810
132.035
137.591
123.971
108.213
113.597
105.579
139.379
120.153
103.609
139.212
146.288
104.273
134.527
143.069
118.932
125.198
131.125
97.262
125.331
95.235
100.443
126.295
141.781
103.286
125.781
121.167
111.478
122.310
125.420
103.646
132.947
134.613
121.582
132.792
103.566
128.076
141.636
139.771
123.431
138.075
138.340
116.279
141.681
145.822
113.652
136.006
138.278
130.615
115.966
124.066
98.851
125.432
129.146
114.817
135.613
108.045
123.571
137.839
99.211
107.719
124.764
134.623
104.465
128.583
117.874
96.536
124.500
117.789
108.126
139.255
136.876
105.238
141.758
120.920
111.240
103.661
99.056
100.955
97.362
116.585
125.755
126.679
124.192
104.469
117.993
127.193
136.542
97.337
109.247
133.608
129.810
99.909
119.928
112.123
117.019
96.155
118.524
134.177
117.198
110.227
115.199
101.120
144.578
119.147
111.039
106.756
120.824
40.984
32.898
36.377
40.676
40.213
40.875
33.537
35.660
31.161
34.161
30.533
42.152
43.664
29.564
37.557
32.453
38.392
42.086
42.195
44.923
33.825
42.490
41.103
36.401
33.225
30.555
29.665
44.139
44.592
42.530
31.566
43.189
31.797
35.155
30.484
35.004
35.600
30.876
39.040
34.620
32.218
33.820
37.789
41.277
37.046
42.679
1260.134
1272.049
1267.741
1275.461
1272.737
1270.098
1260.536
1250.291
1268.502
1261.180
1249.926
1269.099
1264.612
1265.321
1267.355
1264.876
1270.039
1259.354
1268.262
1269.065
1264.651
1249.424
1268.569
1265.952
1258.456
1245.639
1268.226
1244.884
1254.570
1248.276
1256.211
1271.415
1257.040
1260.943
1256.470
1262.568
1263.810
1260.422
1255.260
1256.840
1247.509
1248.063
1258.192
1261.578
1256.487
1263.727
1247.608
1256.512
1260.261
1262.033
1257.117
1251.903
1249.055
1246.910
1257.433
1250.271
1243.639
1243.490
1242.282
1250.082
1245.642
1265.680
1242.238
1245.885
1240.386
1253.471
1251.141
1245.545
1249.584
1241.453
1253.113
1257.891
1263.731
1247.251
1260.656
1254.439
1263.055
1238.626
1256.242
1245.998
1237.707
1260.865
1236.308
1238.555
1256.917
1251.476
1257.705
1248.245
1241.470
1240.507
1247.597
1235.489
1257.907
1240.108
1235.183
1258.590
1244.553
1232.157
1252.199
1233.754
697.624
699.387
697.875
692.747
696.169
698.146
697.502
697.510
694.553
698.763
697.542
690.892
697.672
694.280
692.469
683.194
687.790
696.649
696.239
685.855
693.824
683.512
687.081
690.793
688.243
688.135
690.585
691.232
682.855
686.479
686.403
689.048
687.128
687.725
686.594
689.133
682.153
691.831
687.095
691.512
685.095
689.942
693.327
686.162
682.043
682.703
692.810
690.887
691.002
683.141
682.691
683.707
684.356
693.828
688.520
692.350
692.050
685.424
684.011
680.999
681.714
689.562
680.465
685.941
685.950
687.193
683.752
678.574
687.521
688.319
677.355
686.688
692.330
677.100
690.478
688.586
685.816
684.742
688.274
681.681
682.715
681.620
678.492
679.091
690.002
684.798
682.613
687.648
690.660
679.247
682.814
686.666
682.891
676.060
683.118
688.938
682.596
684.007
688.958
679.639
675.837
686.627
690.266
685.514
686.683
688.980
688.385
681.456
693.609
696.502
690.950
699.121
689.609
694.324
697.140
694.583
695.349
702.112
702.416
695.452
701.765
704.201
698.992
709.601
699.310
711.216
709.354
711.278
709.300
701.817
713.049
705.677
703.143
717.619
712.770
709.811
711.967
716.037
717.707
724.279
713.809
719.745
713.357
721.225
721.247
721.932
717.352
722.142
722.616
720.885
731.513
725.799
724.949
725.294
733.964
733.374
731.601
738.770
739.615
730.175
729.868
738.103
741.964
738.015
746.221
740.313
744.588
747.695
744.194
746.256
736.944
752.871
747.802
740.693
744.364
747.558
757.617
747.016
745.680
749.761
756.492
750.378
753.064
762.444
764.898
753.354
766.771
766.551
759.965
768.798
766.190
767.814
768.858
770.667
763.051
765.568
774.250
767.683
766.311
768.753
769.250
774.004
768.907
780.209
774.531
782.795
782.333
785.155
771.624
786.632
775.292
782.607
776.224
782.100
789.503
788.711
793.148
779.670
786.996
780.499
789.300
788.064
798.487
786.498
788.830
790.048
788.602
787.642
796.818
789.386
795.163
802.332
804.333
798.526
799.611
806.190
803.298
806.106
802.382
809.909
800.347
800.678
810.689
816.720
818.061
808.659
812.592
805.665
809.590
808.184
813.619
813.911
822.722
819.599
818.023
815.724
823.793
820.835
815.427
827.075
827.966
821.395
831.424
820.173
826.296
825.697
834.938
829.356
832.693
827.613
828.192
833.226
839.390
833.113
831.116
837.140
831.745
835.302
844.394
847.992
834.614
838.050
850.202
847.103
853.560
851.643
849.765
846.158
846.708
854.971
848.205
855.596
850.045
847.157
851.376
853.958
862.253
852.945
856.797
865.689
866.172
856.853
854.770
862.826
856.697
863.974
865.247
865.561
857.909
861.046
849.308
855.216
853.250
859.914
856.324
849.530
856.195
862.144
847.346
848.382
846.752
853.264
860.489
853.443
846.504
853.867
850.833
846.269
850.135
854.333
857.441
846.801
855.254
846.533
857.520
850.969
853.143
853.509
847.382
843.074
847.999
845.697
853.822
849.056
852.423
847.411
852.316
839.404
847.448
844.239
844.419
843.104
838.669
836.106
849.152
844.960
836.126
847.629
843.067
840.122
839.630
839.571
842.964
842.350
848.154
841.653
840.945
842.479
841.804
843.435
836.250
845.988
844.337
844.082
843.552
832.037
839.803
838.486
839.499
837.383
840.990
829.679
834.506
831.859
826.106
837.739
838.771
827.912
839.506
828.616
832.300
829.355
837.190
833.560
832.745
823.884
828.359
824.029
836.478
823.958
835.697
822.494
832.666
820.491
834.870
832.592
830.823
821.181
832.058
828.486
827.900
830.243
819.852
821.485
817.740
818.883
829.610
827.565
824.414
817.496
819.626
827.091
827.514
823.293
824.708
824.892
815.247
817.657
821.876
812.982
820.141
819.495
824.569
824.456
820.722
818.002
814.323
810.362
814.542
817.350
808.989
809.865
815.751
812.127
817.865
815.418
816.851
807.824
817.878
820.111
810.960
805.464
817.356
815.766
811.426
814.897
817.202
810.232
809.554
815.339
817.956
808.765
816.798
816.366
814.201
805.091
805.063
810.589
813.356
811.425
806.035
805.787
806.915
808.802
813.626
807.699
805.753
812.499
807.141
807.056
806.623
799.717
802.928
800.648
796.780
802.323
806.422
798.923
794.576
793.862
802.611
805.571
794.008
795.179
800.012
798.341
794.785
797.168
799.912
796.763
801.785
789.390
802.387
802.708
798.492
790.567
799.933
801.162
791.060
789.993
790.044
787.509
794.304
795.766
786.699
783.440
787.858
796.144
780.440
785.909
784.140
791.984
780.066
782.971
786.347
782.902
787.748
778.920
785.674
780.950
776.064
772.800
785.798
780.149
773.655
779.664
771.546
776.501
772.511
773.301
773.244
782.869
773.818
780.840
776.470
765.815
768.660
767.583
775.007
772.947
771.218
762.990
774.093
767.823
763.422
759.946
774.144
772.364
772.597
760.057
765.510
767.554
766.805
759.347
765.382
756.510
763.271
760.204
764.140
764.423
759.564
764.724
763.759
759.057
759.426
762.022
759.940
751.460
753.251
754.589
755.867
757.575
757.320
745.115
750.016
744.602
742.582
755.175
743.040
751.928
751.902
751.361
740.663
738.925
752.627
738.544
737.709
739.514
750.384
746.927
739.111
750.196
740.256
743.223
732.743
733.654
737.932
734.082
737.847
736.876
731.422
744.555
742.491
741.981
737.446
737.289
727.437
727.422
738.470
726.719
732.035
729.570
727.404
727.359
731.922
728.747
721.618
733.722
722.159
726.734
731.334
719.168
728.980
726.905
720.208
730.728
721.405
723.342
716.708
728.104
724.282
715.697
727.679
721.406
722.001
717.794
721.306
718.189
711.422
719.588
708.513
718.113
719.630
708.467
711.180
708.090
705.225
719.417
717.275
712.953
708.438
709.908
706.149
702.225
703.566
703.843
706.649
707.585
700.926
698.990
701.820
706.566
703.531
700.075
695.715
694.483
695.696
693.856
699.366
694.177
691.152
692.228
704.906
703.599
695.740
703.741
690.673
694.063
699.382
692.387
690.174
692.872
697.830
699.828
694.993
693.975
686.468
688.983
690.126
682.677
693.714
693.649
683.824
697.118
694.164
684.633
688.239
694.717
689.488
695.673
689.024
689.750
696.819
704.329
696.397
702.339
708.778
710.320
709.195
712.074
704.922
712.162
702.758
713.625
702.990
704.224
717.496
711.853
717.380
720.623
710.937
715.478
720.155
714.641
715.478
722.582
723.945
718.812
724.047
720.427
728.259
717.506
731.380
728.523
722.952
728.734
729.475
725.009
736.482
734.365
738.650
730.116
738.003
731.205
728.006
741.846
735.789
739.862
744.907
743.262
742.622
732.497
737.643
742.400
735.358
743.862
737.334
751.379
753.615
746.189
747.812
751.236
746.609
752.727
747.133
751.100
752.213
748.278
760.284
760.843
750.150
763.268
764.059
752.203
766.388
765.817
762.438
769.522
755.076
763.355
761.838
760.023
771.414
773.592
772.107
767.943
767.410
771.161
771.099
777.482
768.712
776.721
778.909
769.768
771.815
780.365
774.701
773.754
776.484
786.862
777.513
776.506
788.696
782.399
781.216
788.502
791.630
780.729
789.320
786.118
785.327
788.631
795.868
794.607
789.094
799.273
795.867
802.623
790.364
789.924
794.426
793.004
798.313
800.245
808.434
809.769
797.513
799.864
797.773
806.578
814.456
809.029
808.747
811.995
805.181
814.683
816.952
815.105
806.246
821.242
822.813
810.954
820.472
819.452
818.608
823.863
819.045
817.263
817.804
820.542
822.402
832.374
831.705
824.107
827.381
833.884
828.908
834.562
836.650
836.671
831.894
839.624
838.821
840.009
841.997
840.658
831.941
845.025
847.401
841.756
846.402
840.627
844.233
851.419
839.463
845.653
848.869
843.390
842.287
842.922
851.415
844.434
849.418
848.041
854.384
858.399
849.057
848.533
854.908
858.408
863.411
864.511
859.616
856.937
853.940
848.533
847.998
852.210
842.729
838.550
848.610
839.374
848.226
837.671
830.301
829.356
837.515
836.750
830.270
837.098
826.007
832.937
822.751
824.654
825.393
814.742
825.876
821.701
815.627
810.363
811.562
808.178
813.311
817.855
803.123
800.135
806.176
808.065
808.595
806.611
804.164
792.040
791.777
795.192
794.595
789.274
794.907
790.306
793.870
795.119
792.155
786.327
778.722
779.389
779.417
785.184
783.433
777.378
777.968
767.980
769.678
774.254
763.494
760.253
771.204
765.466
769.048
755.635
762.020
757.594
753.516
749.971
757.390
760.994
754.997
756.809
747.741
752.145
748.375
746.439
747.860
749.135
735.340
742.058
739.643
732.573
727.885
740.318
728.475
723.122
728.352
733.624
732.025
721.641
730.088
714.216
721.741
720.431
715.171
715.273
721.940
716.836
715.141
706.349
709.420
713.026
701.572
697.007
703.419
694.064
693.352
695.632
696.786
698.677
702.420
700.670
684.352
689.840
681.598
688.271
692.550
677.914
675.638
683.997
680.989
683.220
681.672
668.641
672.649
674.641
671.291
676.470
672.344
661.361
661.071
657.546
663.590
658.727
667.789
657.084
662.408
661.615
650.510
651.362
652.255
651.995
648.688
652.373
642.973
646.421
639.970
648.766
639.274
644.117
632.206
638.677
634.380
638.263
626.659
629.583
630.230
628.887
633.405
621.717
618.910
615.983
626.093
612.937
609.759
608.030
613.449
612.016
603.748
613.685
600.946
604.244
597.661
598.016
596.820
604.330
596.891
594.897
593.064
587.905
594.234
587.608
595.296
586.842
580.415
586.591
592.529
585.479
576.963
588.655
586.688
575.020
571.816
580.729
579.295
577.242
566.328
563.823
574.331
565.333
570.872
578.249
576.730
563.829
564.567
567.995
569.093
567.268
580.225
565.817
574.179
575.533
576.796
571.328
578.121
572.438
573.729
566.276
566.256
575.584
566.681
572.711
566.890
572.474
582.034
574.997
580.954
575.528
577.677
576.194
572.221
570.334
574.672
578.926
578.336
576.105
583.743
580.321
583.763
571.366
569.725
578.912
570.951
580.238
575.996
575.179
575.851
572.520
584.956
579.166
577.548
580.311
583.119
579.366
580.336
584.426
584.040
573.513
572.664
583.160
585.561
586.833
578.442
584.721
582.830
577.036
582.450
574.336
578.376
587.850
576.707
586.331
582.867
576.719
580.987
579.671
574.900
579.425
584.833
588.531
573.910
575.601
589.284
577.401
581.141
575.662
576.585
576.667
574.887
