103.144
114.257
96.157
96.744
107.521
103.232
129.013
109.489
121.837
112.798
107.240
118.295
116.994
110.436
121.745
115.258
128.734
124.565
109.940
124.001
90.101
119.012
122.246
110.011
98.093
128.435
85.878
97.337
94.454
88.904
93.291
108.739
119.307
89.333
117.495
97.262
93.179
91.053
108.555
103.779
105.589
127.909
127.179
106.398
91.675
124.062
109.595
88.055
86.781
128.568
94.883
90.814
95.096
90.308
95.429
124.583
123.419
112.346
129.727
87.409
94.239
88.941
94.389
125.223
121.477
89.847
113.658
120.053
87.930
118.361
94.557
107.769
92.192
111.205
99.668
104.741
124.838
124.045
129.511
98.444
115.302
98.521
113.126
118.390
104.983
113.737
124.756
92.021
87.622
100.066
122.992
84.842
122.489
99.095
125.530
112.659
100.549
122.817
104.638
88.834
104.335
84.371
103.207
99.968
86.694
100.092
96.274
97.566
125.524
95.041
95.812
119.776
112.529
103.297
111.036
127.526
83.862
95.207
128.004
88.057
126.626
117.505
106.079
91.528
113.453
107.251
97.475
87.844
89.731
102.997
103.141
123.169
103.966
100.600
88.345
123.485
119.189
87.248
119.997
118.819
91.741
87.397
117.159
124.479
121.428
99.142
89.268
118.459
84.563
122.202
118.868
112.514
90.475
128.759
128.860
97.833
107.290
103.092
107.912
123.550
106.730
96.842
123.938
114.462
117.211
89.061
97.613
113.895
126.993
83.904
95.039
114.331
103.045
87.951
86.964
129.539
111.679
87.310
120.719
128.246
88.804
109.392
107.093
129.313
98.385
116.629
87.461
97.361
128.633
120.561
120.088
89.357
105.649
126.169
124.879
96.783
101.651
86.444
85.639
94.857
108.297
123.665
91.548
112.467
124.839
84.986
90.800
96.334
102.291
121.308
103.902
113.655
113.138
127.152
126.278
106.487
98.096
89.268
113.071
128.665
120.452
107.826
125.410
103.457
95.241
106.814
113.894
93.667
88.907
89.310
97.857
103.765
99.120
94.516
110.932
123.389
128.892
124.543
100.328
118.023
91.266
120.883
91.141
113.873
98.078
117.309
85.564
116.387
117.006
86.410
84.404
108.192
128.230
101.352
104.047
128.822
89.733
1330.494
1345.944
1332.527
1355.661
1353.052
1351.007
1341.076
1356.365
1362.317
1365.769
1375.830
1358.615
1370.408
1365.187
1384.872
1388.450
1370.360
1378.717
1390.390
1401.924
1395.943
1395.090
1387.697
1400.255
1413.750
1410.556
1410.392
1402.680
1402.730
1410.078
1429.020
1409.471
1410.852
1437.742
1444.925
1421.690
1431.536
1432.106
1455.068
1454.229
1435.355
1438.112
1446.895
1444.938
1455.138
1473.463
1469.933
1458.531
1461.887
1475.926
1481.846
1477.951
1491.296
1493.851
1493.015
1477.212
1497.043
1488.110
1499.748
1488.711
1491.022
1499.182
1518.685
1515.938
1518.404
1526.512
1514.231
1511.196
1520.612
1533.399
1528.233
1528.743
1544.218
1542.998
1531.602
1557.617
1540.660
1563.690
1542.344
1557.712
1555.600
1566.336
1570.821
1566.655
1586.251
1573.242
1567.914
1577.528
1595.382
1575.771
1582.201
1595.319
1582.142
1606.885
1610.304
1605.953
1615.380
1614.249
1620.615
1624.370
892.204
906.180
902.334
908.257
898.947
909.152
904.611
902.957
904.496
906.133
920.420
914.229
922.282
927.312
929.078
929.044
916.944
929.176
927.972
927.579
924.755
932.886
933.154
934.646
937.402
945.252
941.988
937.883
951.159
940.251
939.055
950.424
954.150
954.079
957.087
947.656
951.348
952.832
955.594
962.887
956.809
960.435
965.451
964.429
970.971
975.419
964.638
980.229
972.435
973.099
975.643
972.956
974.187
987.410
984.595
985.652
990.978
997.487
986.938
995.163
1001.387
998.290
1002.916
993.311
1003.359
1009.969
1008.697
1002.258
1010.206
1006.819
1006.749
1011.422
1006.052
1008.043
1023.290
1018.537
1012.002
1014.030
1021.534
1019.314
1031.785
1029.286
1021.296
1025.539
1036.182
1037.810
1033.458
1037.210
1041.630
1047.662
1048.976
1044.398
1037.288
1049.814
1043.820
1053.499
1055.386
1052.241
1057.275
1048.692
1058.607
1054.846
1062.511
1064.088
1057.219
1063.457
1059.139
1062.438
1054.949
1058.171
1059.523
1063.889
1061.421
1062.400
1051.988
1060.854
1053.450
1059.208
1054.727
1063.589
1052.685
1063.724
1057.309
1052.265
1061.191
1056.548
1062.678
1060.537
1060.211
1064.758
1054.839
1058.936
1058.888
1061.896
1064.911
1052.708
1058.685
1065.470
1062.903
1067.179
1059.960
1066.353
1067.014
1059.162
1064.947
1063.305
1059.418
1057.921
1059.794
1065.241
1057.220
1066.583
1064.860
1061.533
1066.429
1060.452
1066.420
1067.656
1059.936
1062.651
1064.924
1055.438
1058.069
1067.630
1056.739
1056.502
1065.811
1058.020
1064.823
1055.347
1063.461
1059.295
1056.857
1061.253
1067.368
1059.761
1055.462
1067.714
1054.771
1061.119
1066.475
1065.078
1063.596
1069.493
1067.206
1066.251
1064.228
1069.467
1065.240
1057.200
1069.182
1059.583
1060.885
1062.245
1058.003
1066.869
1063.879
1065.766
1069.436
1064.797
1057.724
1063.573
1062.219
1057.825
1057.739
1070.748
1071.715
1068.339
1064.059
1058.868
1062.546
1069.798
1067.961
1062.001
1063.643
1058.423
1057.045
1071.916
1060.614
1056.977
1062.940
1063.203
1063.012
1061.481
1061.186
1060.608
1059.062
1071.528
1066.181
1070.199
1065.372
1057.834
1066.404
1058.815
1064.989
1065.629
1073.547
1061.359
1065.905
1071.101
1064.955
1060.896
1067.866
1068.212
1070.493
1068.778
1070.002
1071.850
1065.649
1062.045
1070.579
1064.300
1060.626
1066.575
1060.763
1062.214
1063.287
1067.916
1066.554
1073.789
1073.989
1068.073
1064.844
1072.080
1060.261
1073.017
1064.185
1072.050
1062.527
1059.705
1063.455
1065.921
1066.499
1075.031
1070.406
1069.484
1066.594
1074.239
1067.044
1061.314
1074.713
1073.687
1068.898
1072.304
1063.508
1066.368
1071.436
1072.650
1065.460
1076.357
1074.281
1075.737
1067.867
1064.232
1072.875
1065.471
1062.074
1069.174
1064.539
1063.992
1068.647
1071.643
1068.043
1067.517
1067.957
1061.207
1067.066
1061.851
1063.645
1066.198
1056.340
1057.103
1059.250
1060.303
1056.280
1057.288
1058.218
1054.671
1052.471
1040.859
1052.448
1040.158
1042.558
1045.381
1047.286
1047.309
1039.859
1035.162
1041.917
1038.196
1038.878
1041.496
1037.238
1030.756
1031.427
1028.230
1029.095
1023.927
1027.305
1022.664
1018.283
1025.665
1028.214
1021.123
1026.959
1028.244
1021.840
1023.162
1021.115
1020.298
1018.498
1017.592
1014.396
1005.410
1004.433
1008.482
1004.294
1008.242
1009.024
1005.413
1009.525
1003.278
1006.694
1007.955
995.471
1000.101
1002.597
1001.848
999.996
989.801
1001.024
990.817
996.847
988.809
989.388
990.805
983.880
991.545
989.483
976.007
981.222
977.819
978.836
972.133
981.519
973.318
980.890
977.599
979.532
979.294
970.897
965.366
973.914
976.270
964.195
968.232
965.565
969.493
960.553
956.477
953.937
953.378
955.338
961.084
960.120
951.105
951.198
955.569
952.457
949.258
945.386
943.010
946.125
950.088
953.169
943.158
946.432
949.040
941.617
938.577
938.555
937.787
932.544
940.755
929.237
936.401
928.260
932.567
935.144
929.092
921.388
926.950
921.678
926.827
920.994
926.927
927.643
914.757
913.918
912.097
919.206
912.702
920.585
909.316
919.261
911.191
909.927
911.376
907.547
903.859
901.579
900.352
906.241
906.701
897.090
900.880
906.297
899.393
895.935
893.505
903.400
900.713
888.024
897.931
885.032
892.919
882.118
892.668
890.087
882.341
886.486
883.089
882.729
873.903
885.193
878.914
874.443
871.134
880.634
872.707
879.735
880.487
865.223
877.116
875.538
872.585
861.925
868.290
863.498
870.467
862.702
858.651
868.920
859.660
855.091
853.297
850.942
849.784
846.619
855.314
847.877
848.477
856.228
857.220
852.381
862.034
849.378
858.561
850.113
851.344
853.619
850.172
861.815
858.363
855.840
852.730
857.922
864.456
865.561
861.604
853.877
857.924
855.939
858.897
858.062
867.974
862.967
869.674
858.309
867.068
862.573
860.031
856.913
867.430
856.856
861.559
866.107
867.410
868.821
873.582
864.039
865.153
860.584
867.601
871.376
867.008
865.494
875.806
869.546
863.744
864.753
873.993
863.485
866.257
874.305
872.555
874.675
869.234
880.780
867.509
871.747
870.926
880.797
868.612
877.348
878.598
869.845
872.973
883.597
884.907
884.116
884.227
873.501
881.026
872.957
871.836
880.112
879.301
883.651
885.176
889.297
882.879
883.051
881.674
887.202
888.309
878.776
886.769
879.502
879.259
891.370
887.452
893.295
891.554
881.956
881.504
889.325
882.133
890.347
884.383
885.662
882.605
882.067
887.577
883.680
889.307
889.611
890.432
892.108
889.490
887.699
885.125
898.995
896.280
889.533
895.147
889.780
890.372
901.652
896.819
888.848
891.887
894.018
899.251
901.506
898.038
893.378
899.222
899.809
902.530
901.474
892.751
895.430
903.322
907.545
902.998
899.324
904.534
901.441
900.829
900.235
898.853
896.022
897.047
901.924
905.690
905.968
911.390
902.190
908.319
911.968
909.544
906.113
909.941
914.787
908.544
906.257
908.627
912.226
902.417
917.614
914.660
909.379
904.224
911.148
916.055
908.808
920.710
910.195
916.232
907.725
917.559
921.843
916.020
919.358
908.218
910.264
914.793
918.200
924.812
918.636
923.075
913.262
919.160
925.096
912.180
912.755
915.353
920.769
919.646
918.713
916.262
924.385
920.637
917.900
919.878
930.793
929.271
930.873
924.133
920.835
917.642
929.546
927.939
926.590
919.475
919.247
925.722
920.940
925.079
926.292
919.827
917.982
924.525
921.993
917.502
911.866
921.625
911.945
917.865
915.033
910.013
911.715
906.120
913.886
907.420
917.002
912.896
908.782
905.339
903.438
909.816
904.121
906.091
908.538
901.083
900.569
904.317
909.696
905.435
912.284
905.882
896.985
903.940
911.113
907.253
904.121
901.925
897.356
895.839
900.510
894.366
904.457
891.985
897.309
896.886
891.519
902.952
889.240
902.206
889.543
897.356
901.052
892.975
893.181
891.884
889.376
896.346
897.550
892.357
882.575
882.193
896.230
882.658
894.595
880.449
880.362
886.112
884.772
891.611
883.321
891.645
884.198
890.806
876.242
890.409
890.650
888.699
879.316
885.474
878.206
877.784
885.342
883.720
886.278
880.044
878.473
871.004
881.773
882.849
878.353
878.749
875.701
877.838
872.969
880.808
876.500
865.611
879.240
866.268
866.264
870.895
864.475
865.383
872.781
867.359
871.668
865.809
871.604
872.872
872.518
868.850
864.704
871.828
868.455
855.678
869.678
862.235
860.825
869.638
867.618
860.693
857.499
861.959
856.771
861.815
859.429
853.653
862.106
863.572
851.309
858.207
851.339
859.223
848.957
859.744
852.440
860.841
860.358
856.058
852.605
857.367
853.148
854.492
854.638
852.600
849.589
844.228
852.577
851.475
849.638
848.589
848.843
847.184
844.761
846.882
847.663
836.785
844.683
848.107
846.045
846.803
833.795
844.755
839.054
840.559
835.073
842.926
830.697
843.979
831.968
835.418
828.323
833.961
833.212
837.715
838.326
837.461
840.684
833.289
832.088
833.382
828.023
826.157
825.151
833.926
821.648
829.591
831.398
824.512
832.178
823.269
829.619
822.011
832.610
834.286
832.679
826.766
833.801
822.054
829.821
823.282
835.945
837.277
828.062
824.847
829.211
825.731
833.109
836.047
833.014
838.031
825.193
830.040
833.139
826.262
829.994
840.487
831.380
828.073
839.093
835.736
836.122
835.646
839.721
836.833
839.010
834.498
836.510
837.552
839.372
841.288
841.723
841.278
833.880
846.230
840.390
835.418
833.156
834.020
836.779
841.404
838.341
849.217
843.707
838.300
837.284
841.369
847.508
847.736
837.279
847.065
843.814
838.941
844.762
851.003
845.062
841.679
839.946
848.814
851.010
845.838
848.593
849.028
844.788
852.905
849.442
841.579
846.385
853.588
855.980
848.309
848.088
844.924
852.921
850.758
848.082
856.417
845.363
855.735
847.576
858.378
857.468
857.862
852.142
851.909
853.316
861.211
860.113
856.591
861.533
856.351
861.452
856.406
859.235
858.584
862.511
852.152
862.608
861.844
862.843
856.404
860.771
858.794
861.074
850.930
857.694
864.954
851.646
867.305
856.079
867.224
853.630
862.819
856.314
865.371
855.926
860.391
864.421
861.581
869.865
855.913
864.094
860.911
862.484
859.594
868.919
868.373
862.387
870.153
870.902
858.365
862.552
864.892
872.126
869.759
874.920
861.734
865.662
873.722
868.130
875.113
867.135
863.347
863.761
867.346
867.469
865.637
870.106
863.304
875.438
871.192
874.798
875.956
868.962
877.884
867.823
867.385
879.491
869.619
871.625
873.174
875.185
867.773
877.566
876.317
869.677
881.268
871.095
876.243
872.967
877.052
870.086
875.033
880.262
884.224
884.646
876.562
872.329
880.282
878.680
880.155
885.321
881.917
872.820
886.933
883.723
884.374
887.550
877.410
874.689
878.658
885.891
880.659
889.969
876.374
891.066
881.528
886.016
892.971
891.864
884.957
884.621
891.615
893.418
895.460
885.883
890.800
895.767
885.203
888.752
888.603
896.886
898.593
896.464
889.359
902.689
902.381
889.099
898.323
904.351
902.545
901.543
903.995
893.599
894.917
906.871
902.045
894.111
902.534
908.819
905.338
896.548
896.218
899.157
896.871
907.001
904.958
905.891
904.927
908.174
910.060
907.654
909.150
901.615
910.575
907.826
907.715
910.541
917.261
918.875
908.550
915.537
910.516
918.299
918.589
922.779
910.244
916.674
919.182
913.192
910.622
915.038
919.600
913.870
914.185
925.383
925.595
914.363
925.282
930.199
923.238
922.571
920.703
923.400
925.308
933.028
931.243
919.514
923.671
932.022
935.880
920.868
933.190
932.092
936.988
932.694
932.056
936.347
931.255
929.043
925.782
938.878
926.818
935.101
941.072
938.068
937.714
941.030
930.677
943.557
931.490
933.245
944.572
940.954
937.191
945.134
938.435
942.939
935.069
950.681
938.764
945.309
940.800
952.200
947.390
942.381
952.572
951.922
939.981
946.385
946.677
942.491
943.445
952.213
955.048
942.891
957.277
947.522
946.631
956.878
960.162
956.775
952.256
958.488
962.540
962.248
960.425
961.456
963.922
954.114
965.161
965.156
963.742
960.213
966.731
962.313
966.956
959.163
959.684
957.518
956.797
965.581
965.758
967.054
967.854
971.941
973.327
966.396
965.569
961.195
963.087
965.394
968.331
976.725
968.147
974.273
965.153
973.599
967.693
977.612
974.268
971.418
977.925
980.700
979.993
980.455
975.763
981.061
978.723
986.086
979.341
978.219
975.965
979.209
983.868
980.549
983.246
987.094
984.230
979.356
990.841
978.183
982.881
980.135
982.381
985.012
978.805
986.805
988.658
987.969
985.918
971.998
977.678
980.958
986.534
984.219
982.123
983.336
972.022
980.237
971.838
980.120
981.729
975.786
983.397
970.681
968.248
975.824
972.723
969.613
979.741
970.689
970.907
973.874
977.655
964.876
967.116
970.197
965.472
972.975
967.712
978.530
972.764
969.424
971.748
969.128
962.072
976.052
967.167
975.543
972.010
964.408
974.146
970.901
965.588
961.878
961.187
965.123
961.442
969.831
972.665
959.585
963.833
957.076
961.387
967.330
961.747
961.501
970.869
961.942
958.067
958.820
959.446
956.279
963.807
958.311
966.661
963.226
958.566
962.198
961.646
963.406
962.852
958.041
954.452
953.816
960.834
953.307
954.349
958.483
953.831
962.500
956.049
960.473
960.653
962.669
947.159
947.005
957.012
949.863
960.857
955.427
961.161
950.302
947.340
953.568
959.765
946.978
943.966
944.203
957.317
947.438
955.546
954.835
946.991
955.095
955.864
943.211
952.990
955.722
941.695
939.967
948.827
942.308
953.294
953.122
938.376
948.877
946.246
945.267
942.528
943.199
942.583
948.480
939.099
950.065
945.895
937.252
948.989
934.599
943.973
945.138
947.180
936.783
938.894
934.969
933.771
938.134
935.683
936.923
931.385
938.819
934.421
936.324
934.844
935.891
942.553
944.365
940.519
940.505
929.996
939.863
929.419
932.070
936.996
940.500
929.832
941.099
938.052
925.589
939.401
937.147
936.184
928.051
934.085
925.242
930.410
936.946
935.101
934.652
927.388
934.466
935.761
927.074
929.163
931.682
934.070
922.159
934.919
928.273
935.241
925.158
930.831
928.241
919.546
919.181
921.194
921.659
918.126
925.689
918.860
919.061
927.571
926.402
924.771
918.175
909.299
915.654
919.229
915.235
906.828
913.352
915.595
903.524
908.052
909.210
909.040
906.552
909.283
905.619
906.968
898.453
901.573
892.908
894.487
891.509
893.652
894.315
893.852
882.146
892.666
883.447
879.950
879.543
878.702
887.422
880.406
876.556
873.592
870.801
882.685
872.800
869.637
866.892
872.167
869.881
873.079
868.833
864.514
859.459
866.070
867.304
856.890
862.362
860.468
864.827
854.860
848.941
853.340
850.856
856.092
854.026
843.460
842.181
848.028
851.097
837.904
841.278
842.940
848.006
847.388
837.066
836.909
829.687
839.062
832.337
828.957
834.781
832.704
829.388
824.450
833.593
822.493
818.639
826.780
826.838
827.552
819.009
826.680
811.524
820.070
816.632
812.317
818.571
807.139
811.785
811.272
810.852
804.394
813.274
811.078
805.906
802.105
794.542
795.491
793.755
794.575
797.128
797.440
801.580
794.114
794.403
790.985
783.733
796.584
782.981
779.846
790.332
783.960
781.016
778.912
787.548
783.186
784.289
769.690
780.613
779.793
773.706
774.690
772.040
769.832
768.548
772.134
770.311
760.452
768.275
769.849
757.760
759.021
755.465
758.392
753.373
