121.525
119.930
150.206
113.269
139.816
121.060
133.334
101.571
109.018
107.397
145.935
141.184
118.282
144.974
135.995
116.107
102.932
127.127
144.937
109.873
152.887
135.304
116.964
130.066
102.878
125.028
126.120
139.671
119.239
118.372
104.401
131.185
138.304
137.139
119.274
135.643
115.899
111.716
132.448
150.164
111.093
140.459
138.742
141.925
109.224
150.582
124.823
105.304
145.351
153.095
117.122
146.906
129.457
148.715
149.117
138.652
121.061
117.293
134.729
135.084
111.262
151.304
132.441
111.731
150.715
133.489
110.005
122.683
139.141
137.733
119.089
150.558
102.746
121.890
152.180
133.440
152.298
118.664
109.373
126.262
149.584
102.011
122.869
129.356
110.291
144.938
149.360
125.078
130.185
142.768
118.122
141.806
145.437
148.341
102.561
103.203
121.702
146.010
113.423
125.013
146.022
128.207
134.073
135.448
117.165
149.426
103.725
149.139
119.477
102.354
112.501
150.045
149.412
137.081
140.573
141.817
113.656
127.560
147.250
148.150
149.752
102.013
117.667
143.347
123.927
147.251
138.793
133.551
108.766
141.512
112.049
148.705
120.117
134.872
125.025
111.257
130.322
105.678
141.021
152.140
119.165
110.974
120.150
151.950
128.063
126.495
146.087
109.586
142.312
109.955
118.587
121.244
104.060
141.053
145.813
102.672
123.216
108.345
149.164
146.636
116.299
134.204
135.632
102.865
121.761
114.618
135.560
131.282
128.584
120.315
135.628
132.113
143.825
114.799
103.871
117.780
144.777
123.800
152.953
142.950
110.452
103.525
103.036
105.489
107.272
130.652
130.937
143.591
132.758
146.090
109.042
125.012
122.868
134.260
101.506
111.553
113.953
115.689
117.741
112.671
126.409
128.912
124.390
152.140
117.600
118.218
101.332
103.251
151.567
106.141
104.489
135.547
152.247
131.682
139.985
130.041
103.693
108.511
128.780
134.978
101.213
101.495
126.196
109.806
102.930
117.554
150.568
147.837
136.147
134.493
127.938
110.130
152.326
148.600
115.313
150.253
132.528
152.889
136.047
120.882
130.824
143.695
124.335
135.802
131.385
127.745
150.790
118.007
142.027
132.744
102.720
113.802
142.359
101.781
132.565
106.304
147.647
137.638
114.963
104.778
129.963
148.125
117.056
120.250
141.270
121.162
111.383
123.573
134.254
132.296
130.315
111.586
137.234
125.940
137.265
149.991
117.045
106.714
105.754
137.718
149.928
119.370
142.456
129.155
122.790
126.341
117.496
117.420
134.975
133.571
102.927
150.367
130.879
148.838
127.934
131.141
131.870
145.110
113.283
122.714
127.177
109.391
133.111
149.651
131.353
146.659
115.787
120.751
103.222
111.258
145.430
107.092
130.081
117.794
140.791
115.880
131.736
106.500
109.763
152.555
128.891
123.235
119.423
125.125
134.661
124.386
117.109
140.795
140.640
110.778
152.861
126.570
103.265
149.251
148.874
105.602
130.535
108.502
102.440
136.926
142.891
144.488
107.664
147.718
135.745
136.819
119.038
118.827
139.470
104.081
106.447
135.053
108.406
138.046
142.912
111.702
101.449
122.251
146.843
107.508
110.078
103.107
126.379
148.693
136.384
104.141
125.352
101.820
106.202
148.556
125.543
104.022
137.837
129.605
124.130
106.889
115.466
105.225
121.269
151.662
129.399
104.314
101.556
152.594
125.939
149.283
114.761
131.979
128.540
108.974
150.075
116.581
109.302
135.848
105.496
144.913
109.641
146.149
150.042
148.524
108.026
103.823
142.448
102.069
148.821
122.496
142.584
127.607
116.748
132.270
134.804
123.150
101.372
109.875
103.427
139.154
148.977
132.675
151.319
122.726
121.993
119.335
142.924
122.035
103.802
121.956
122.295
102.897
148.548
142.518
135.019
114.038
108.913
105.598
130.110
140.085
119.215
123.940
129.888
110.338
136.259
113.250
148.637
147.448
116.958
127.578
105.767
104.625
113.262
106.922
151.897
136.972
131.627
143.484
141.247
147.555
141.497
116.276
114.076
105.386
110.868
138.244
104.565
115.190
103.264
136.130
152.594
140.307
145.595
141.450
124.898
149.312
114.684
115.605
116.605
107.172
125.374
111.469
111.985
114.250
130.743
144.188
135.679
122.532
117.356
134.618
102.365
113.403
142.130
137.877
152.158
124.901
149.004
137.705
149.131
126.435
132.952
101.363
152.963
103.421
118.113
104.034
126.095
135.920
124.952
104.518
122.403
102.566
110.729
110.482
114.530
105.395
140.045
104.349
148.642
105.068
107.910
102.413
105.907
117.711
148.803
123.900
103.146
114.237
144.118
112.783
135.763
120.367
121.677
144.792
148.870
149.188
123.210
117.792
137.718
149.302
113.233
134.852
122.957
110.452
135.037
105.978
141.342
122.503
118.733
142.107
121.026
129.770
144.380
105.593
134.925
119.843
114.612
110.946
123.227
111.182
133.576
116.809
122.174
115.560
147.263
118.066
130.498
151.682
145.928
139.217
129.816
121.668
116.895
119.344
130.779
102.750
133.162
110.396
109.394
102.032
135.955
133.150
116.185
103.356
134.620
109.511
130.276
151.281
125.454
152.137
145.134
135.263
129.058
145.004
128.293
125.952
111.951
111.553
101.377
119.962
130.847
138.028
143.126
151.691
135.754
138.301
109.046
146.992
137.334
142.856
145.713
148.326
115.351
110.532
110.309
109.617
139.755
153.060
150.077
101.660
145.058
136.414
139.817
109.431
123.888
102.273
150.482
104.193
120.673
140.123
134.257
107.063
125.406
140.699
130.715
145.248
120.600
121.471
102.166
133.198
110.468
103.263
115.131
101.242
111.578
105.581
140.939
106.436
113.010
143.859
150.563
147.491
126.913
109.911
111.474
123.656
118.832
114.158
114.511
121.175
108.289
118.206
106.531
110.148
102.468
133.233
126.106
110.236
128.997
135.689
139.999
107.827
112.235
111.309
125.653
145.163
103.409
106.944
115.579
103.103
106.457
135.562
109.979
138.492
124.853
136.193
148.727
135.503
139.319
113.032
125.853
121.508
126.480
105.737
128.705
114.024
143.775
119.737
131.311
149.864
135.862
142.448
150.777
101.739
152.379
143.858
137.056
145.477
139.965
150.826
145.796
115.699
115.292
106.997
127.382
118.795
116.618
105.391
138.058
147.372
120.196
109.301
132.484
123.608
110.152
117.551
121.051
149.476
105.605
147.287
121.675
140.057
113.663
101.479
102.308
115.252
104.445
151.743
110.957
132.933
136.517
107.634
114.688
101.938
136.739
102.530
109.380
127.402
139.928
118.679
132.862
110.681
115.150
148.494
114.024
119.816
141.185
122.453
148.215
147.274
104.326
123.460
109.088
126.314
107.059
124.443
130.638
137.285
144.059
116.665
130.289
138.393
131.080
132.210
104.128
122.676
134.488
140.032
147.141
119.976
142.187
108.119
103.673
102.007
147.621
104.121
129.176
129.969
113.450
133.362
150.065
132.460
138.702
125.820
115.157
119.470
106.111
143.978
103.556
140.384
110.330
102.437
110.830
122.428
151.650
147.972
143.927
133.022
122.391
144.365
112.774
108.623
144.206
147.809
107.415
102.250
130.277
104.767
128.084
141.586
120.307
115.940
134.134
100.217
107.028
120.537
121.178
143.221
135.605
137.467
130.823
96.701
104.116
106.594
117.746
123.421
102.620
135.996
114.987
111.739
104.655
110.814
102.673
142.500
107.670
101.943
136.518
133.907
102.386
129.496
123.716
128.722
139.055
105.296
133.480
117.567
139.601
133.201
143.983
114.663
98.092
102.002
108.483
103.744
134.335
106.248
141.928
105.026
126.426
114.955
123.971
104.416
128.883
133.237
129.781
107.910
129.543
109.709
134.096
124.392
121.859
132.045
144.285
96.619
95.690
140.028
95.213
105.052
109.804
103.556
145.339
139.862
109.629
127.609
139.609
132.102
127.088
137.879
115.432
107.127
117.468
122.070
106.767
96.209
117.257
119.815
135.872
143.210
131.470
118.327
124.691
110.119
113.109
128.350
135.933
123.775
125.929
117.399
101.393
135.199
110.794
146.324
141.505
109.045
95.655
96.402
122.472
132.794
138.559
97.139
107.850
95.723
95.750
114.670
94.807
135.782
115.019
118.541
120.408
111.250
100.533
103.636
97.763
113.686
132.698
105.050
122.614
98.540
134.128
109.650
104.329
128.025
99.253
143.257
121.305
126.311
111.775
110.023
108.013
103.507
146.148
132.216
122.585
125.171
128.199
107.346
99.146
135.578
142.801
111.584
126.944
98.148
144.417
128.449
113.936
124.292
106.016
135.242
138.854
134.766
130.261
99.748
131.052
121.814
146.513
125.733
109.779
138.139
129.003
109.782
103.169
126.343
133.042
133.413
145.134
105.980
129.675
112.421
142.478
119.561
138.823
120.834
114.870
138.121
107.438
133.407
108.679
111.408
137.211
124.921
99.000
123.452
118.590
106.913
106.451
128.168
96.274
138.602
134.279
112.194
120.510
145.337
146.668
96.129
135.900
107.758
119.548
131.839
110.835
118.088
138.859
116.013
96.784
139.118
131.591
137.487
137.997
135.623
129.042
125.696
130.867
95.601
132.549
97.120
133.645
143.564
116.299
120.187
117.683
146.635
137.547
140.634
109.335
97.364
95.625
133.977
138.515
142.476
143.315
146.055
130.855
105.093
145.549
96.538
134.443
139.508
98.571
129.889
144.635
140.249
137.451
137.416
108.722
139.087
135.691
103.167
105.971
140.840
125.177
96.191
110.065
134.943
128.671
136.653
132.272
132.457
98.434
109.536
139.701
146.762
102.762
136.220
137.893
100.279
143.171
123.536
111.416
141.794
107.348
116.872
127.100
101.661
108.225
137.314
127.162
99.519
113.559
101.232
144.640
135.709
138.614
101.057
143.490
131.771
118.156
102.682
101.967
97.698
96.707
111.429
105.352
143.296
129.102
127.234
121.756
127.942
144.817
124.049
140.559
101.479
108.645
145.534
105.204
129.334
117.135
133.212
121.892
104.005
134.005
113.395
136.972
130.674
98.313
139.528
96.906
131.531
125.895
117.854
102.424
102.895
98.632
130.252
137.029
133.412
94.906
134.511
109.758
125.311
116.396
99.813
126.089
130.039
135.226
136.013
146.595
101.650
132.535
125.757
115.883
39.301
39.620
42.143
36.121
33.540
39.617
41.894
35.525
32.761
30.137
42.155
41.083
40.810
42.614
38.454
39.870
34.240
37.013
34.179
34.783
39.896
41.285
33.376
37.837
33.087
40.538
33.821
40.984
41.154
38.442
34.774
31.315
39.718
29.732
38.590
30.612
36.503
29.894
40.392
34.265
41.243
38.213
41.547
42.815
41.716
1330.255
1339.285
1341.508
1341.955
1340.345
1357.577
1360.289
1355.827
1368.222
1353.441
1356.218
1358.208
1361.232
1375.945
1366.133
1373.478
1390.637
1384.988
1381.404
1385.289
1380.145
1382.896
1383.945
1403.385
1387.930
1403.919
1417.917
1414.662
1406.069
1415.809
1430.281
1416.684
1418.319
1431.742
1441.617
1441.408
1437.585
1452.288
1455.249
1445.019
1451.099
1441.051
1443.201
1441.963
1445.037
1452.385
1466.861
1470.773
1476.489
1482.510
1477.098
1483.613
1485.538
1481.361
1488.936
1488.196
1507.473
1498.640
1487.443
1497.959
1505.849
1493.585
1521.180
1508.957
1523.525
1522.250
1509.510
1524.789
1540.635
1533.920
1525.330
1534.994
1545.308
1550.583
1557.355
1536.324
1564.223
1556.582
1549.952
1564.689
1564.760
1567.667
1568.758
1558.409
1559.539
1568.876
1576.166
1574.263
1595.908
1601.483
1577.862
1591.479
1597.927
1604.105
1603.779
1594.058
1610.402
1602.732
1610.253
1627.131
904.110
894.916
906.476
901.078
906.554
905.032
905.838
909.543
918.027
915.956
910.409
910.093
918.277
922.924
929.419
916.050
927.222
930.279
935.663
930.421
931.894
937.106
927.911
935.219
945.052
945.161
935.830
946.530
945.495
948.767
953.341
943.425
951.496
946.257
947.929
956.132
953.885
964.656
953.665
968.225
954.935
967.372
967.833
971.653
961.702
975.728
977.596
967.022
968.036
984.109
985.871
983.723
987.801
983.360
988.659
979.606
991.144
984.147
993.686
999.143
991.796
996.961
1003.576
1000.571
997.665
1001.799
996.922
1001.197
1011.301
1001.280
1005.958
1016.159
1006.075
1015.396
1018.030
1024.090
1019.746
1014.226
1030.818
1024.679
1030.960
1019.728
1028.514
1038.385
1024.660
1029.493
1039.181
1041.884
1046.315
1041.036
1043.830
1049.361
1047.997
1044.180
1052.835
1053.566
1045.221
1060.900
1050.386
1059.944
1052.414
1061.049
1055.113
1056.145
1054.083
1059.124
1064.113
1057.521
1061.503
1058.410
1051.445
1064.867
1058.332
1054.212
1063.210
1062.343
1057.682
1059.965
1058.376
1062.625
1058.206
1059.396
1056.585
1059.305
1051.519
1059.036
1055.938
1057.537
1061.400
1053.491
1054.231
1058.099
1058.349
1057.168
1066.528
1052.425
1065.045
1063.034
1057.251
1063.856
1056.557
1054.054
1066.311
1064.848
1067.554
1065.117
1055.057
1062.499
1066.710
1063.679
1064.012
1062.176
1064.112
1055.173
1059.456
1066.541
1062.134
1055.574
1056.021
1068.016
1064.015
1063.127
1055.682
1066.012
1064.077
1067.133
1066.538
1057.630
1065.794
1056.015
1056.783
1060.898
1057.485
1058.003
1057.185
1062.872
1063.543
1063.190
1055.489
1060.916
1056.059
1064.345
1057.309
1055.483
1060.823
1059.337
1070.163
1062.828
1065.706
1056.849
1066.397
1070.078
1066.878
1068.099
1057.522
1057.739
1069.861
1064.475
1055.864
1061.772
1056.063
1066.492
1060.396
1067.806
1058.498
1056.262
1064.771
1057.111
1063.397
1063.733
1057.000
1059.815
1063.635
1062.189
1069.443
1065.599
1059.812
1061.022
1057.533
1071.837
1056.785
1069.763
1066.477
1060.865
1070.885
1061.467
1064.106
1063.249
1067.919
1066.204
1067.675
1057.871
1066.668
1072.213
1063.237
1062.351
1064.882
1062.990
1073.103
1066.384
1068.563
1059.829
1067.225
1058.505
1060.609
1070.196
1067.146
1060.711
1062.032
1070.001
1060.287
1061.928
1069.482
1071.065
1069.552
1067.796
1071.300
1072.985
1067.721
1063.645
1063.994
1071.076
1067.242
1069.410
1075.129
1073.336
1061.239
1064.413
1064.011
1070.312
1075.110
1075.034
1063.101
1062.002
1065.663
1064.169
1070.770
1072.276
1067.881
1061.941
1066.079
1072.024
1071.632
1063.184
1066.155
1075.689
1063.740
1065.707
1071.838
1074.958
1062.154
1073.838
1076.027
1075.949
1064.856
1075.590
1077.027
1068.915
1067.688
1067.948
1065.378
1063.391
1067.875
1065.379
1065.492
1058.079
1065.509
1058.400
1053.833
1065.600
1059.061
1050.064
1061.214
1060.921
1047.468
1050.493
1058.777
1051.438
1050.577
1051.382
1051.102
1044.873
1044.237
1038.959
1040.194
1038.929
1038.814
1043.711
1043.546
1032.689
1034.281
1034.334
1037.971
1030.382
1029.246
1035.340
1038.283
1035.737
1025.531
1034.544
1025.948
1020.632
1023.242
1015.590
1029.339
1017.751
1013.597
1020.733
1019.148
1024.231
1007.764
1021.872
1008.314
1012.931
1017.074
1016.012
1007.849
1010.957
1012.786
1010.174
998.675
1010.380
998.815
1006.595
1006.225
1000.051
992.704
1001.088
988.654
991.220
990.689
999.934
987.969
988.861
986.588
981.165
983.196
980.764
985.606
985.835
989.539
979.104
984.798
971.977
977.475
970.508
979.450
982.060
969.249
973.809
968.687
972.695
970.821
963.996
970.791
963.325
971.177
967.038
969.791
962.487
964.992
961.945
951.591
953.250
961.236
947.514
950.261
953.315
957.407
956.596
951.233
953.697
952.541
954.507
946.457
947.220
944.212
947.862
933.397
944.402
933.559
934.893
939.786
930.476
932.572
936.679
930.083
930.297
928.302
927.188
927.221
921.831
923.348
924.905
927.627
923.255
920.113
927.719
914.909
917.421
920.943
918.582
912.067
914.884
919.779
904.519
917.641
902.776
906.881
901.746
912.154
908.254
898.840
903.419
906.466
904.084
897.675
899.556
890.502
895.182
900.094
896.289
886.826
890.312
897.554
895.635
893.184
892.113
891.854
880.710
883.817
887.462
888.234
884.889
872.742
872.710
878.601
882.570
880.668
870.598
881.034
870.139
874.199
873.286
869.728
863.911
863.234
860.947
869.326
867.999
860.659
858.127
867.478
856.671
864.832
858.158
851.753
861.281
855.063
849.818
847.869
855.238
854.060
850.304
850.174
850.368
860.095
855.425
856.146
848.417
848.861
859.884
854.905
853.445
855.853
861.232
861.698
863.510
866.671
853.726
855.254
858.006
862.020
859.172
864.790
861.721
863.863
862.056
857.884
856.158
866.142
869.540
869.145
869.416
859.438
872.387
873.022
857.874
873.922
871.256
871.174
861.612
864.551
859.957
866.335
873.534
866.642
869.908
863.772
876.552
869.595
878.509
873.701
876.866
877.432
876.349
877.647
880.584
867.819
870.624
875.337
876.346
875.827
881.333
878.982
881.230
872.356
868.814
884.221
872.679
871.376
886.038
878.077
871.170
871.309
875.889
884.638
878.749
882.920
880.794
888.980
887.424
885.103
875.707
876.994
879.574
890.696
880.092
880.388
889.168
882.806
877.448
888.677
893.349
883.017
881.612
885.504
881.853
881.364
881.574
892.621
888.693
881.607
892.217
884.970
883.706
885.641
884.144
884.018
897.000
890.213
895.409
889.413
898.644
894.272
892.740
897.159
893.781
895.377
888.313
901.958
891.152
891.307
896.586
891.502
893.984
897.698
902.523
892.537
893.255
903.056
901.498
903.911
896.030
902.288
894.106
894.287
901.933
908.813
905.264
904.963
906.845
907.073
910.590
908.266
911.564
897.197
908.637
902.249
901.921
902.782
913.321
901.814
901.934
911.453
900.822
907.047
915.948
914.023
912.238
912.316
903.021
917.330
908.379
910.174
908.969
915.110
907.439
907.173
908.198
918.186
912.583
917.351
912.579
910.404
909.286
910.394
914.598
912.958
919.429
911.532
923.662
913.911
919.137
920.552
918.783
923.187
913.144
917.454
924.670
