110.085
144.160
130.110
112.248
113.826
95.052
122.524
146.612
122.604
125.799
131.178
122.873
129.799
107.121
96.486
97.874
139.817
118.165
124.163
124.755
138.481
128.244
142.288
145.483
123.809
104.904
130.051
126.408
138.458
135.146
134.473
135.945
109.527
141.697
97.307
103.848
98.719
125.954
94.806
136.099
119.639
142.476
118.606
140.617
120.735
133.700
135.033
128.172
125.521
120.049
126.313
144.414
117.234
97.164
107.251
131.174
139.838
96.087
110.219
118.805
110.465
126.515
138.491
128.115
126.017
96.818
115.282
131.334
102.735
125.911
103.975
96.126
140.337
108.092
136.466
120.862
101.255
115.769
108.097
112.746
118.893
144.220
96.496
117.809
96.118
107.972
103.199
114.262
138.787
123.963
121.496
121.770
102.891
138.178
126.472
35.247
32.352
30.127
33.725
41.480
31.654
30.817
40.179
29.815
41.639
44.267
37.351
38.010
38.539
41.224
37.773
44.692
30.283
40.391
36.766
45.085
38.895
41.900
29.672
41.210
31.541
41.144
36.134
39.413
29.244
34.426
40.008
34.044
29.758
42.589
34.630
42.554
42.384
41.757
39.157
43.593
33.011
36.769
1147.793
1152.078
1159.894
1167.822
1172.173
1157.352
1176.307
1160.697
1160.062
1171.892
1163.482
1160.758
1169.764
1181.250
1177.625
1171.078
1173.849
1173.046
1193.460
1187.690
1173.891
1193.727
1184.517
1184.245
1203.451
1183.887
1181.557
1196.655
1186.439
1211.833
1200.924
1194.002
1209.909
1198.091
1191.382
1195.641
1210.092
1197.736
1203.101
1201.888
1225.299
1203.441
1231.546
1232.879
1234.095
1222.128
1216.795
1224.619
1231.637
1242.384
1239.354
1244.190
1228.733
1228.952
1223.810
1234.609
1228.797
1250.837
1230.214
1250.757
1239.453
1251.133
1252.809
1253.669
1241.399
1243.486
1262.259
1264.263
1250.919
1266.021
1254.613
1249.974
1267.135
1261.225
1271.693
1268.205
1266.634
1262.472
1271.641
1263.680
1265.832
1264.988
1267.501
1281.694
1288.736
1282.512
1289.966
1281.173
1294.751
1285.345
1287.593
1285.661
1298.013
1292.733
1293.496
1286.210
1294.334
1297.661
1305.599
1313.217
730.223
729.020
733.401
734.329
725.492
735.953
727.766
723.768
728.294
733.883
727.958
741.872
733.415
735.669
742.706
733.741
730.790
733.060
743.487
733.646
735.153
735.675
747.826
749.641
738.323
751.104
741.757
745.951
747.783
742.049
746.921
759.353
756.197
758.346
750.692
760.791
757.333
755.457
759.579
762.571
757.132
764.040
762.996
762.371
758.604
759.730
761.221
770.395
765.390
767.524
763.261
760.374
774.866
765.231
768.863
775.462
772.118
780.329
768.509
767.720
768.782
781.334
769.614
785.570
777.560
783.882
786.437
787.062
785.678
790.624
792.118
777.958
786.474
792.650
780.384
786.000
794.762
784.683
785.038
790.983
794.255
786.824
797.366
791.649
791.184
804.290
795.157
801.062
799.421
794.755
798.587
800.295
800.480
811.356
798.980
801.395
812.006
807.995
812.161
806.753
807.427
812.740
807.224
804.766
816.045
804.204
807.042
808.228
805.140
812.282
808.239
815.703
811.817
808.265
804.946
818.799
820.529
820.546
813.904
813.806
818.663
811.213
814.270
811.956
814.169
810.430
822.171
813.541
809.674
807.426
822.172
811.794
820.225
817.506
822.620
820.525
818.133
813.042
817.615
821.967
817.199
823.948
810.092
815.631
814.133
819.489
811.766
820.450
821.686
823.499
812.450
813.568
827.516
824.758
816.998
815.025
817.275
827.668
821.706
820.305
826.978
816.331
819.031
815.438
820.254
816.589
828.307
820.961
825.846
819.431
824.679
828.696
828.664
818.134
819.259
831.652
832.448
830.450
822.321
830.925
826.363
830.420
831.195
823.512
821.047
831.747
824.978
831.166
829.205
826.083
833.974
834.425
824.550
825.929
832.618
835.940
835.899
831.248
834.644
827.122
823.381
823.230
834.577
835.688
836.050
825.919
829.267
832.201
837.921
824.081
838.715
839.312
825.031
837.622
831.126
838.807
833.640
834.037
833.814
841.704
828.692
828.320
838.582
837.591
828.949
836.603
830.827
841.043
843.158
832.868
840.118
836.049
828.616
830.837
844.370
842.915
832.033
838.458
838.183
835.933
844.458
837.669
840.500
832.941
841.171
843.590
837.282
832.327
839.492
836.384
846.605
847.676
838.943
846.446
839.020
840.368
841.989
840.170
837.219
834.848
845.320
841.271
846.152
849.051
848.879
836.047
843.224
838.747
843.329
840.301
846.594
851.996
850.867
850.694
842.205
839.966
845.853
847.016
842.189
849.616
843.170
851.612
846.688
839.476
844.893
851.455
846.665
849.361
850.432
843.568
854.418
847.287
849.504
850.189
856.216
849.433
848.853
847.771
850.679
851.185
852.502
845.183
852.896
844.737
844.857
842.503
851.719
844.854
853.714
838.199
852.369
846.285
835.810
841.911
838.556
839.368
844.485
836.178
841.952
841.364
833.875
841.548
835.531
843.917
832.951
840.080
830.431
838.382
829.060
835.757
830.386
840.057
837.085
827.297
824.549
828.471
826.609
822.607
829.381
831.758
823.028
834.586
819.207
825.736
827.996
831.283
816.464
820.164
820.529
815.912
822.393
820.203
820.877
812.459
823.909
822.017
812.100
822.368
816.052
820.386
820.052
821.795
809.575
808.761
808.996
820.441
804.791
810.397
811.336
812.714
810.001
810.136
810.792
811.230
807.461
812.287
806.252
808.609
808.719
797.649
807.927
798.503
810.330
794.781
797.187
797.527
805.102
807.078
805.206
791.778
802.369
797.123
800.032
791.821
797.674
796.138
802.350
797.058
801.125
790.819
800.751
794.563
796.169
790.453
788.166
782.945
795.384
785.059
790.200
786.696
785.665
793.050
787.392
791.881
789.912
780.863
776.237
790.302
778.789
779.972
788.032
787.752
783.620
786.488
779.989
781.376
777.091
782.645
772.558
772.993
770.218
781.956
771.256
773.604
768.078
772.880
771.306
774.466
768.807
770.637
773.999
775.674
774.779
768.599
771.726
762.577
769.444
771.018
770.421
758.869
759.488
766.000
757.408
760.867
762.417
761.978
756.100
755.557
765.075
757.954
756.896
761.074
751.321
754.091
760.669
751.151
756.411
758.957
751.747
757.792
744.777
748.375
746.605
750.667
745.166
754.198
745.349
752.161
742.898
740.319
748.735
748.340
740.267
743.978
743.102
746.023
749.381
738.361
748.787
745.689
748.072
745.229
739.182
741.666
739.783
741.081
733.169
742.468
730.908
732.047
728.784
743.601
732.757
735.185
741.696
737.655
737.853
736.688
747.789
745.113
740.500
743.307
748.974
743.973
751.238
751.750
752.473
752.314
759.011
751.926
748.931
758.346
759.385
751.131
757.906
760.237
761.566
753.586
758.608
767.725
759.198
760.568
762.440
765.812
767.814
770.540
762.632
769.420
772.087
764.125
776.459
778.915
779.730
773.763
770.123
777.213
786.132
781.764
776.117
788.463
781.972
791.267
785.575
777.395
785.534
791.318
786.128
793.372
794.974
793.880
797.919
786.809
797.575
793.767
792.586
803.261
794.795
797.799
801.932
801.783
802.435
796.108
809.658
807.453
801.094
801.784
806.166
802.271
805.873
811.856
812.104
807.245
805.110
817.194
807.267
814.149
819.609
811.642
821.042
825.219
812.706
813.697
821.108
825.781
828.216
819.670
821.632
830.674
828.697
821.012
829.543
834.242
825.490
837.089
839.126
836.427
843.139
828.656
830.762
837.459
841.855
843.647
840.733
842.730
850.908
843.652
843.434
847.599
840.318
848.494
849.730
850.341
854.223
849.056
859.990
851.435
856.161
861.396
853.733
858.565
850.747
862.464
865.583
858.590
867.797
865.339
865.552
867.484
863.081
869.565
862.849
866.496
871.017
864.982
878.591
880.004
873.850
875.488
873.109
877.077
876.907
870.688
880.604
879.542
884.160
874.933
877.479
882.491
884.967
883.304
880.344
881.028
888.429
889.046
892.790
885.600
886.808
892.450
893.035
895.057
889.342
901.053
903.727
900.773
906.573
902.928
898.263
897.396
898.583
911.547
911.728
910.100
899.785
909.721
906.727
909.753
917.170
917.757
906.439
920.280
913.790
917.547
912.256
917.610
913.904
916.119
919.789
921.986
917.814
928.337
930.808
926.539
930.389
918.940
923.212
926.990
925.496
925.305
923.590
914.540
924.071
925.359
924.826
918.855
914.922
916.434
922.428
913.181
923.412
924.736
925.661
924.648
919.493
916.492
916.221
908.536
912.716
910.727
911.887
920.219
910.458
920.188
919.950
907.224
905.112
908.490
918.789
919.036
905.799
907.805
908.140
909.232
909.836
909.306
910.047
904.149
914.562
902.057
902.332
904.922
905.531
912.847
913.455
908.897
907.860
905.505
913.287
905.666
909.132
909.818
901.661
904.512
903.072
909.616
906.904
897.379
909.370
906.546
895.986
900.933
901.571
893.553
898.175
891.933
904.906
900.621
904.656
906.162
900.650
894.302
890.164
890.915
895.956
891.675
889.082
900.780
902.894
899.338
898.435
901.145
899.565
885.835
899.864
897.128
894.831
898.937
896.371
888.202
887.415
883.505
893.170
895.718
895.320
886.450
896.612
883.250
889.553
888.998
891.773
881.672
882.322
891.593
882.221
884.110
885.300
880.862
888.602
884.408
877.045
889.906
884.527
883.577
885.207
883.065
878.019
889.576
888.410
888.218
887.137
881.773
881.302
883.747
881.070
884.423
875.690
879.872
885.996
884.768
882.063
879.891
877.254
874.050
874.421
870.675
875.593
881.867
879.653
866.477
880.838
870.584
879.461
869.054
873.939
879.055
868.608
874.007
875.134
866.250
876.168
864.316
868.066
863.733
872.781
864.216
874.698
863.549
869.910
871.734
870.834
874.895
865.048
860.814
864.554
859.106
866.122
867.877
857.968
869.045
857.388
869.004
860.476
868.301
856.177
860.335
865.954
859.427
859.073
855.326
859.710
867.190
857.964
856.980
856.445
862.090
860.443
850.471
856.714
862.881
850.155
857.005
857.792
849.449
862.465
856.291
852.554
857.933
857.645
855.404
855.980
852.237
853.047
848.613
840.732
850.537
847.051
843.732
844.810
836.058
843.883
834.415
837.254
844.223
830.367
828.710
827.878
832.338
829.897
838.962
830.034
827.222
823.116
828.577
828.883
829.698
820.207
828.721
822.884
825.310
819.690
826.645
813.461
819.076
825.620
818.045
823.757
824.230
820.347
819.756
811.635
819.462
810.275
809.702
815.352
802.804
813.650
804.981
808.577
797.935
809.769
798.496
796.069
803.642
795.593
795.014
796.817
793.829
805.245
800.725
795.993
796.231
796.898
792.274
790.203
783.992
798.036
796.244
794.382
793.804
794.550
785.686
786.578
778.411
787.146
782.112
785.078
777.941
785.296
780.443
772.656
772.371
773.539
770.005
773.409
778.091
775.147
770.353
767.332
772.567
774.144
763.931
768.712
771.915
765.570
771.914
764.180
759.989
757.314
764.082
762.580
756.774
763.291
755.559
754.428
756.406
748.136
746.962
754.184
751.247
745.452
750.942
744.973
747.717
741.904
747.151
739.569
748.551
750.103
738.714
736.257
737.642
747.731
741.523
733.456
733.868
742.589
729.987
743.008
727.152
736.536
724.711
732.571
724.098
728.127
734.558
733.062
727.339
733.193
731.497
723.276
730.487
721.153
717.399
728.943
712.300
711.706
723.655
722.601
709.962
723.135
715.452
715.357
711.782
715.922
719.110
706.549
707.342
705.574
706.534
705.367
704.356
701.613
704.559
697.829
709.630
708.557
693.824
695.639
701.367
693.914
693.752
691.161
689.937
701.001
699.030
690.421
696.390
686.821
687.247
684.040
692.307
692.091
679.259
682.005
688.458
681.772
677.194
681.250
680.596
681.509
675.530
683.756
671.374
675.413
678.041
678.836
680.841
681.169
683.861
683.700
694.153
690.379
696.386
685.884
690.729
692.580
691.959
690.743
692.142
701.869
697.946
704.703
704.841
705.821
694.567
701.452
706.630
701.107
696.356
707.119
707.189
713.165
711.663
708.844
716.692
712.316
713.673
717.682
707.887
711.145
711.057
717.068
722.835
712.619
724.903
725.621
718.105
720.136
721.880
726.815
723.010
720.733
720.651
721.345
729.062
727.489
723.368
737.463
733.524
732.467
731.781
738.085
735.005
731.382
739.211
742.766
743.995
743.104
736.513
739.857
745.630
745.684
750.944
739.206
753.321
744.801
751.251
746.510
751.550
745.102
757.019
760.624
749.026
747.838
758.744
756.079
762.237
763.280
767.040
752.572
763.749
757.142
757.925
768.065
765.034
767.986
771.331
774.276
769.040
763.113
770.147
770.975
770.165
765.824
770.882
782.702
771.978
776.759
785.661
777.638
777.726
781.116
779.206
782.364
777.271
784.979
785.572
792.589
787.723
787.905
789.606
792.519
795.052
796.531
785.398
793.803
791.873
795.125
791.349
789.690
800.043
791.202
806.136
802.221
796.347
801.031
796.766
798.652
800.985
803.620
802.366
806.440
812.576
815.406
803.605
804.968
817.498
812.255
807.802
823.197
816.972
815.769
823.799
823.965
817.101
815.192
829.881
820.166
828.361
831.896
821.665
821.074
828.814
834.359
835.370
834.307
833.367
827.558
826.110
827.212
839.544
831.872
831.525
842.772
831.076
834.342
836.940
849.112
846.637
841.501
838.852
840.096
853.350
848.226
845.215
851.194
850.719
843.522
859.107
860.895
858.316
847.588
849.387
853.292
856.746
858.061
859.166
853.855
862.455
861.825
865.166
856.206
867.955
873.157
874.865
877.001
878.088
879.371
876.908
867.328
882.954
881.664
876.605
875.532
887.090
886.611
888.905
884.689
891.340
884.616
895.742
890.609
894.606
896.220
901.153
889.096
899.483
897.979
905.443
910.300
908.100
902.059
898.812
902.946
907.068
912.593
917.628
905.626
910.589
921.596
913.686
914.393
923.974
925.540
921.706
923.596
917.713
931.199
925.934
929.060
937.821
925.366
932.974
941.527
938.561
937.013
945.347
947.157
941.670
945.930
952.561
944.835
940.456
943.925
950.242
955.613
956.874
949.904
955.235
963.525
956.127
963.797
954.908
963.389
962.789
959.971
963.438
962.133
965.369
971.013
968.352
966.829
977.316
978.967
982.662
983.961
983.097
987.778
983.734
990.229
992.230
985.843
987.989
984.878
995.266
1000.368
1001.356
999.172
989.660
1004.299
996.924
995.189
1007.494
1010.843
1008.564
1012.336
1004.604
1001.377
1014.151
1013.566
1018.490
1020.331
1018.958
1014.078
1012.174
1012.584
1024.010
1015.909
1021.237
1018.874
1031.626
1021.776
1023.146
1029.756
1025.653
1037.888
1036.465
1031.114
1044.613
1041.472
1032.689
1034.780
1038.582
1038.335
1046.785
1045.505
1052.902
1056.330
1053.039
1048.204
1055.650
1050.084
1054.200
1052.193
1051.926
1059.087
1068.577
1070.559
1060.300
1062.789
1063.888
1062.776
1070.781
1067.961
1078.277
1073.952
1077.477
1073.868
1074.370
1076.789
1081.959
1084.609
1083.995
1084.364
1087.102
1092.943
1092.683
1087.177
1088.641
1087.131
1090.762
1092.772
1092.147
1104.018
1103.258
1094.709
1111.369
1107.378
1108.574
1110.664
1115.904
1114.920
1104.167
1114.888
1120.465
1121.684
1118.382
1122.697
1115.695
1116.482
1122.350
1131.556
1118.120
1132.494
1127.280
1134.795
1124.326
1129.784
1138.187
1130.662
1136.684
1130.331
1134.485
1135.681
1130.045
1135.387
1134.464
1135.332
1136.296
1128.032
1127.516
1132.718
1125.435
1118.996
1131.683
1127.791
1115.291
1118.957
1117.244
1122.789
1115.757
1113.242
1108.897
1113.305
1112.248
1117.001
1109.823
1102.955
1104.857
1102.782
1110.072
1105.076
1099.597
1101.647
1102.364
1095.279
1101.324
1091.240
1091.455
1094.861
1102.013
1094.662
1093.758
1098.793
1086.844
1096.895
1084.201
1082.581
1084.045
1085.129
1083.976
1085.975
1088.199
1076.274
1079.286
1086.451
1078.527
1084.761
1073.235
1066.983
1073.595
1068.794
1077.470
1069.836
1072.278
1071.409
1073.280
1072.697
1069.314
1065.829
1057.765
1068.571
1052.983
1057.769
1052.315
1061.770
1049.581
1052.492
1061.078
1058.391
1046.679
1044.007
1043.704
1042.880
1044.551
1040.871
1045.816
1039.897
1043.925
1042.538
1037.190
1036.035
1046.286
1042.854
1034.618
1032.479
1028.399
1036.238
1028.840
1034.142
1029.914
1036.145
1032.103
1025.182
1026.801
1031.163
1031.481
1016.612
1026.303
1023.642
1021.857
1024.638
1013.957
1011.747
1008.085
1013.728
1010.828
1008.141
1006.839
1010.107
1014.981
1013.730
1001.491
999.774
1001.506
1000.585
995.099
1005.592
997.671
1002.223
1004.364
992.776
998.063
992.414
988.860
999.514
988.689
985.929
985.669
991.398
986.392
983.292
992.611
985.019
976.270
974.186
974.048
973.268
973.682
980.081
983.849
979.656
970.439
971.645
976.777
976.689
969.312
961.643
971.724
972.724
971.652
960.759
961.639
959.538
955.771
953.481
961.460
950.296
955.297
948.552
953.787
949.257
947.645
953.499
950.509
943.595
950.109
951.294
943.901
947.016
946.867
942.883
934.549
947.541
937.069
938.467
943.007
930.561
929.956
931.825
936.013
927.762
926.143
930.033
921.598
921.071
924.344
931.764
923.476
922.927
927.609
916.671
923.502
921.292
915.065
908.948
899.995
909.677
903.997
901.664
898.166
896.322
889.933
891.173
878.097
880.412
872.247
871.552
866.026
869.197
862.235
858.716
851.922
856.548
841.451
839.287
836.396
844.161
837.843
833.555
827.991
819.289
821.932
821.128
825.889
817.357
810.144
808.669
803.210
802.400
800.610
792.494
798.367
785.112
794.632
787.674
784.434
781.474
766.557
768.589
767.683
771.196
758.801
756.805
762.982
757.317
753.768
741.932
750.355
739.371
730.000
729.721
734.096
