143.288
139.956
113.232
119.458
132.447
98.981
131.951
97.978
98.213
130.531
119.461
130.691
99.963
123.756
117.442
112.535
140.942
112.465
111.622
122.040
122.680
127.195
131.472
107.436
131.456
109.796
131.016
146.479
139.246
120.318
142.764
98.746
119.192
120.506
99.924
123.660
111.137
122.787
104.186
120.975
126.513
103.224
105.888
118.372
118.991
131.290
139.368
131.870
98.554
132.342
96.316
133.026
95.400
108.226
139.761
122.135
129.898
124.736
126.636
114.744
113.742
122.864
130.780
140.065
126.400
135.884
125.098
104.442
138.822
100.988
140.349
101.705
138.316
115.632
136.118
116.362
134.499
132.533
99.091
103.403
95.935
125.219
95.012
123.168
103.696
145.751
117.674
140.821
102.640
114.374
141.339
121.407
141.606
100.522
114.755
132.202
128.660
100.425
95.583
104.188
132.531
97.046
119.548
132.646
109.944
140.076
128.255
135.807
141.756
119.660
133.865
132.526
122.374
122.976
104.020
117.655
122.549
146.630
97.949
120.399
127.851
102.932
138.418
143.293
118.691
123.238
96.597
104.407
118.819
96.536
105.548
119.339
134.737
146.171
127.248
107.938
130.556
115.306
122.301
112.657
97.868
108.766
117.959
126.002
95.583
104.345
145.311
137.849
115.749
106.449
109.107
101.950
119.866
135.112
124.815
140.333
96.372
126.759
114.068
122.731
98.831
129.236
142.594
105.276
114.182
116.213
119.541
96.782
144.717
121.612
121.366
143.441
132.732
136.470
112.786
122.982
143.913
141.712
135.028
98.938
114.066
103.004
116.592
96.350
119.136
110.872
128.930
123.108
122.928
128.204
99.476
124.651
99.018
115.771
96.563
137.228
131.841
138.999
138.831
135.695
136.965
143.856
113.490
102.000
109.244
106.703
121.085
132.531
111.769
129.716
124.535
115.910
130.700
98.630
130.575
140.994
140.728
106.539
97.797
117.768
94.955
117.867
98.984
110.202
133.033
130.755
117.353
102.125
135.860
138.099
107.391
139.802
133.374
96.670
142.690
144.095
138.683
118.144
126.126
144.581
134.424
121.514
99.986
107.310
121.104
104.546
143.317
134.789
110.258
119.970
99.672
107.294
97.099
115.111
118.955
104.230
101.779
105.699
98.300
120.525
127.244
118.774
102.362
99.870
108.017
95.354
128.017
117.891
137.105
137.794
114.839
133.797
118.927
108.051
133.286
113.851
124.757
129.960
99.707
126.354
105.396
140.698
131.955
102.606
113.621
134.149
129.893
144.532
108.522
107.830
115.058
111.718
115.571
118.318
146.008
103.426
110.083
129.916
144.186
130.100
118.081
109.942
115.084
133.084
139.715
146.259
123.865
135.653
98.422
113.066
105.745
136.757
95.270
98.832
115.666
102.597
140.326
116.238
107.177
141.526
133.265
133.316
120.853
116.840
97.601
120.771
141.771
112.532
119.703
130.943
139.500
125.853
109.751
111.455
137.205
110.629
143.205
95.346
97.759
118.381
122.979
141.319
138.999
142.514
98.295
103.021
112.777
103.138
141.156
111.440
143.951
113.168
101.260
95.694
104.790
116.393
115.992
115.714
118.423
139.354
118.540
111.431
139.670
135.394
143.654
121.910
132.800
137.413
106.950
115.900
102.612
114.084
129.585
108.074
110.071
136.465
104.572
106.847
108.225
135.970
123.981
125.392
105.457
102.459
142.733
108.062
141.952
123.545
102.779
121.699
119.703
95.838
126.652
144.710
134.868
137.376
122.813
143.733
110.347
132.553
98.066
135.004
105.405
105.780
110.909
142.169
96.479
102.045
100.673
116.872
112.964
136.979
130.265
135.897
101.862
135.010
132.418
132.311
107.362
144.862
104.012
112.052
123.359
119.653
131.425
110.203
111.575
119.000
112.877
127.095
139.999
119.615
115.807
95.751
96.657
122.915
102.355
127.131
140.108
131.498
117.636
132.834
137.253
131.739
120.390
103.872
107.896
121.331
113.631
124.629
140.558
96.315
116.385
128.640
101.232
116.378
118.546
105.743
102.457
102.256
118.624
99.185
126.190
113.181
145.791
117.549
139.193
127.350
114.826
134.433
109.406
130.974
96.960
95.931
134.007
133.879
109.218
95.313
104.064
123.222
121.088
127.936
122.383
95.550
129.487
130.056
126.953
120.668
109.385
98.058
100.382
126.070
122.613
96.031
104.666
127.645
114.460
106.599
144.800
101.274
128.487
107.730
111.318
104.764
127.740
115.660
135.000
135.832
97.792
100.201
107.427
95.098
103.540
96.259
134.033
134.249
99.916
122.443
131.585
115.899
123.691
127.654
97.728
137.838
100.144
110.277
104.540
99.435
117.644
115.689
113.767
136.217
145.355
130.803
132.290
99.366
144.574
142.703
145.984
103.428
114.083
122.975
144.323
120.662
130.851
143.843
96.782
127.798
122.799
124.489
126.123
124.774
98.474
110.914
124.575
106.903
109.989
120.605
111.944
132.191
98.147
110.968
138.929
118.810
102.580
96.459
101.223
106.224
127.296
117.436
140.042
146.518
141.290
128.234
112.815
130.647
131.257
144.696
120.231
118.294
109.552
98.080
127.178
146.179
136.185
120.085
109.390
134.592
104.629
120.587
137.831
141.305
125.432
117.077
97.284
133.063
138.669
110.049
98.849
114.917
106.620
134.434
97.374
138.092
96.709
132.727
114.005
105.158
105.750
127.756
118.017
130.712
127.118
144.291
131.685
128.950
104.633
125.913
125.612
120.975
120.566
121.364
112.753
103.037
116.656
145.144
104.189
106.870
118.228
141.644
102.586
104.955
129.361
94.829
107.743
136.407
123.119
128.888
120.939
97.548
134.408
124.510
107.629
123.656
137.533
114.097
122.487
136.955
136.622
108.598
118.884
95.680
106.206
125.321
138.695
115.136
111.452
102.511
109.727
114.309
128.900
103.396
104.870
104.593
103.460
145.223
133.606
112.474
118.667
114.034
123.582
130.816
136.426
104.395
113.894
135.952
114.647
98.028
145.859
132.898
104.425
126.448
100.775
140.887
125.887
124.888
141.783
131.948
98.832
109.602
134.412
102.274
133.586
125.927
135.133
130.560
137.471
117.501
113.704
143.068
116.216
113.020
106.120
111.252
123.583
112.582
94.798
121.971
133.943
113.729
120.377
109.515
105.432
100.672
132.348
126.403
120.075
95.076
146.750
137.367
113.357
134.041
112.913
106.207
98.311
117.479
144.299
143.663
144.554
103.568
112.833
140.982
128.523
118.494
110.528
116.844
105.773
97.045
125.865
122.291
125.761
146.642
135.724
129.027
102.376
111.287
131.716
127.009
140.188
113.906
109.914
112.406
118.238
112.371
108.518
133.346
101.432
117.918
96.890
117.412
112.511
113.344
130.020
108.425
102.138
126.401
122.300
103.274
122.457
95.155
111.789
98.002
115.392
115.382
102.473
146.091
113.624
130.103
133.380
128.000
119.853
113.387
119.549
137.474
124.927
144.527
97.208
111.765
126.560
100.246
106.528
143.104
139.606
146.221
98.477
115.931
146.766
103.381
122.548
104.344
109.128
138.604
124.998
119.900
139.539
116.817
134.334
101.485
94.829
105.979
112.685
110.182
116.220
122.185
113.482
119.568
122.061
119.259
106.708
134.481
115.917
126.213
144.068
107.982
101.571
134.675
111.933
112.660
142.464
142.935
104.197
141.459
104.534
109.445
145.512
123.218
102.720
120.132
124.528
102.005
144.328
141.359
121.105
103.270
97.749
95.658
105.949
132.933
129.153
103.900
139.741
106.721
118.651
118.676
132.648
117.206
104.525
128.874
97.082
106.965
136.244
125.217
104.563
143.123
117.064
101.102
95.761
117.528
145.785
99.603
99.579
137.837
141.265
110.907
98.351
114.446
136.830
133.488
110.227
141.753
139.433
146.682
135.057
137.025
127.983
107.284
137.805
97.319
115.499
106.129
137.736
114.421
95.753
94.919
103.732
128.886
124.712
134.320
138.514
138.017
113.830
131.779
131.342
108.813
139.383
100.914
119.639
106.134
112.327
98.237
127.981
127.323
138.582
141.773
118.918
123.986
111.838
134.419
142.139
144.590
115.016
138.966
126.325
107.464
113.438
142.714
124.010
97.580
102.952
102.410
112.448
127.382
96.424
128.978
136.323
129.154
117.306
123.245
100.181
111.986
110.602
104.291
135.158
134.347
136.169
119.356
129.292
143.688
126.087
100.367
133.945
133.299
128.572
113.357
130.118
113.207
99.918
146.369
110.354
128.152
101.730
125.375
95.332
145.983
145.433
133.763
100.193
142.899
140.950
117.801
106.779
122.826
109.941
114.070
102.877
102.116
101.132
97.630
134.177
99.303
108.582
112.851
96.342
145.250
120.298
124.646
142.190
106.973
116.782
97.479
139.086
116.640
128.274
119.149
138.349
120.030
125.021
114.377
106.528
100.180
112.918
126.102
114.774
96.374
97.816
116.668
140.861
106.432
134.042
137.068
136.822
139.677
105.170
140.012
133.338
119.989
140.720
113.234
129.342
139.449
109.150
106.024
127.378
96.948
138.177
129.423
145.290
101.610
118.407
114.515
144.913
97.239
122.688
140.182
145.719
128.832
115.805
136.192
116.889
113.129
119.956
140.597
103.385
122.377
108.628
112.288
144.887
131.119
115.635
124.117
132.486
118.406
102.605
136.158
115.455
131.620
133.407
118.654
104.195
110.021
101.450
142.413
102.876
139.537
144.398
135.043
109.953
96.869
115.717
135.924
128.934
96.257
127.122
99.386
125.566
94.953
101.025
104.746
96.783
98.809
99.869
143.196
129.287
111.730
143.578
123.647
110.854
143.054
121.799
142.187
136.023
108.821
118.908
107.098
110.165
145.171
117.232
112.268
144.362
115.423
116.878
118.559
94.820
97.909
136.793
134.416
126.834
123.332
109.805
144.688
140.017
104.084
124.938
145.230
98.146
94.829
114.531
136.674
144.827
107.980
139.906
110.929
104.366
139.183
146.434
95.806
119.885
117.500
98.636
122.662
100.250
101.648
125.714
102.338
110.818
111.368
140.151
113.004
124.281
130.239
99.967
123.825
141.738
114.373
137.870
111.229
136.833
137.335
113.121
107.018
142.427
102.623
138.990
146.024
139.355
115.373
133.744
115.132
140.269
138.292
114.526
122.004
118.724
120.287
125.930
112.917
135.654
129.054
142.410
109.449
124.208
135.109
144.352
98.887
104.048
127.042
98.871
105.245
145.599
112.225
115.674
120.264
142.397
103.012
100.767
120.130
145.671
118.227
37.041
42.239
43.307
40.854
40.019
38.216
44.100
36.504
36.540
42.562
38.251
41.523
29.348
36.558
39.974
31.883
37.335
37.381
38.475
39.943
35.590
39.425
39.456
43.011
34.599
36.010
31.635
43.492
36.531
31.709
35.773
38.053
39.641
31.168
30.621
38.755
41.064
36.731
38.385
40.655
35.461
32.651
34.926
33.085
1212.050
1227.133
1229.518
1223.176
1234.061
1217.249
1245.928
1245.745
1251.467
1250.819
1265.725
1258.087
1268.227
1275.304
1277.075
1275.865
1266.337
1281.946
1289.930
1287.563
1298.705
1304.485
1294.926
1316.913
1316.438
1317.289
1315.765
1317.046
1316.944
1332.185
1323.141
1343.660
1341.787
1356.815
1346.912
1347.851
1353.350
1376.747
1377.930
1386.268
1365.113
1382.506
1376.135
1394.842
1405.789
1396.220
1399.767
1412.239
1420.649
1425.870
1409.051
1426.370
1417.234
1447.823
1430.244
1455.765
1448.034
1447.114
1440.825
1463.183
1464.200
1476.678
1482.649
1467.477
1482.370
1474.927
1477.462
1478.413
1506.880
1502.930
1493.109
1517.916
1514.231
1509.209
1507.876
1525.228
1530.558
1542.044
1538.423
1542.108
1552.587
1563.733
1568.961
1545.405
1557.018
1555.691
1570.606
1589.072
1570.949
1589.250
1596.233
1598.690
1607.456
1602.331
1594.406
1622.363
1605.546
1614.072
1618.654
1615.008
908.922
908.628
905.099
911.066
921.643
912.048
922.091
922.741
931.535
924.709
936.226
932.381
933.880
933.407
935.848
944.050
940.469
947.042
953.661
946.218
952.519
957.891
965.088
964.891
959.056
967.444
965.664
974.271
969.273
970.806
975.934
984.056
979.136
987.148
986.922
981.719
983.722
991.361
987.321
1004.774
1001.729
994.219
999.139
1014.068
1002.007
1015.661
1016.858
1021.243
1021.649
1018.749
1016.693
1026.413
1029.048
1030.569
1031.269
1033.600
1040.963
1032.501
1046.229
1051.250
1040.652
1050.873
1057.413
1051.258
1050.290
1054.592
1053.740
1058.047
1064.371
1073.995
1077.559
1066.948
1075.513
1074.438
1074.218
1079.767
1080.040
1087.569
1093.296
1088.053
1090.278
1092.891
1091.385
1103.909
1104.870
1101.160
1106.379
1107.012
1113.846
1111.954
1116.722
1124.935
1128.794
1128.096
1131.705
1131.379
1122.667
1126.581
1140.173
1132.941
1136.096
1138.932
1135.493
1143.564
1130.937
1138.922
1143.721
1134.119
1141.798
1131.478
1128.917
1138.109
1135.595
1136.402
1133.614
1140.329
1142.480
1135.832
1130.087
1128.391
1135.497
1140.763
1130.883
1132.321
1135.349
1134.867
1127.484
1128.971
1131.232
1131.469
1136.483
1132.594
1136.970
1121.116
1121.119
1120.396
1132.683
1135.146
1120.688
1128.235
1127.658
1120.109
1126.791
1128.946
1128.961
1127.355
1120.294
1122.202
1128.973
1119.948
1129.699
1122.668
1123.659
1129.001
1125.864
1123.684
1127.462
1122.573
1122.659
1117.741
1123.233
1119.787
1114.995
1119.597
1121.953
1113.717
1125.798
1120.295
1110.639
1120.677
1112.811
1111.613
1113.741
1123.406
1113.853
1115.457
1115.451
1120.801
1120.018
1111.843
1109.062
1110.486
1113.583
1107.887
1115.375
1106.835
1111.131
1114.529
1103.800
1113.466
1111.012
1110.682
1113.227
1110.495
1108.995
1107.021
1105.057
1103.027
1113.830
1111.970
1100.990
1108.644
1104.058
1106.872
1097.588
1112.805
1109.629
1100.055
1096.174
1102.175
1102.373
1097.794
1098.050
1100.337
1094.337
1107.722
1106.918
1101.404
1093.236
1102.415
1093.701
1093.863
1099.471
1098.289
1092.354
1094.565
1099.936
1095.175
1095.291
1095.605
1102.692
1092.217
1091.264
1098.368
1100.398
1088.103
1102.004
1096.835
1100.439
1088.527
1086.478
1098.242
1096.110
1087.373
1084.418
1089.410
1093.706
1085.402
1095.014
1090.894
1082.989
1094.597
1093.163
1091.824
1094.665
1083.384
1091.415
1089.217
1084.571
1089.676
1090.298
1088.884
1081.538
1091.868
1089.017
1078.030
1082.163
1086.542
1082.965
1082.147
1081.408
1086.790
1076.609
1083.308
1087.331
1076.497
1083.929
1079.924
1076.540
1079.317
1076.899
1081.794
1078.752
1079.307
1077.084
1074.515
1081.791
1075.918
1079.593
1073.895
1070.510
1084.113
1075.951
1076.887
1067.741
1071.400
1066.804
1067.324
1070.485
1068.161
1068.489
1067.654
1067.451
1065.008
1060.600
1061.145
1059.176
1063.277
1051.890
1045.026
1049.002
1052.910
1042.242
1049.864
1036.358
1038.472
1037.700
1040.730
1038.752
1025.181
1024.761
1029.694
1028.294
1019.524
1012.932
1016.746
1019.431
1016.076
1013.583
1003.078
997.116
994.794
1006.868
1000.890
991.978
1000.904
988.284
993.744
983.353
982.216
984.609
980.471
977.566
968.867
966.877
970.096
966.210
958.065
959.853
965.614
960.335
959.401
946.829
957.970
945.195
950.411
948.503
948.294
935.841
934.456
938.162
940.976
930.485
935.597
918.487
924.802
916.042
918.882
916.654
915.396
911.714
912.989
907.340
906.828
904.541
895.913
904.260
898.803
895.164
897.203
885.390
888.644
890.968
877.295
887.789
874.708
879.226
874.318
872.345
871.188
870.316
859.315
867.156
865.231
859.801
861.907
857.067
850.253
842.348
840.390
840.764
837.273
834.932
838.301
827.150
833.150
835.460
829.850
823.093
828.205
822.934
818.798
816.333
813.343
819.039
810.674
806.071
797.543
799.447
804.721
791.390
788.555
785.127
795.685
789.780
787.206
790.371
782.427
773.104
778.011
769.305
772.919
768.454
761.019
769.018
766.785
766.917
756.820
748.591
746.275
750.114
755.963
755.053
751.686
739.245
742.420
745.756
734.114
735.022
732.371
731.238
729.358
725.570
726.622
717.836
716.316
722.443
709.137
716.543
703.664
698.186
699.214
703.113
705.902
690.821
695.628
688.164
689.200
694.555
679.243
683.416
678.531
678.926
675.329
681.384
675.994
670.127
664.553
665.927
660.781
662.122
653.482
655.380
654.401
657.372
644.564
649.985
647.408
649.170
644.390
638.013
626.557
634.635
624.230
629.687
617.957
624.951
625.982
621.951
614.246
609.296
615.522
609.417
613.758
621.345
612.084
617.168
615.982
627.789
615.439
627.726
632.715
618.644
622.950
626.390
634.880
623.563
623.681
628.497
633.015
631.044
632.409
637.657
639.807
633.400
638.773
646.372
636.263
649.143
639.790
644.015
651.379
653.244
654.969
649.205
644.447
647.769
656.167
652.829
655.571
649.928
662.355
653.772
657.302
663.222
656.608
669.936
667.794
666.107
657.184
671.262
662.231
674.026
667.196
677.430
671.023
672.330
676.938
669.828
675.631
677.656
675.889
685.736
679.851
677.030
679.464
690.462
688.038
692.745
680.207
684.588
693.866
688.948
684.883
687.655
698.083
697.104
690.047
694.811
696.047
697.341
703.223
695.818
694.336
709.469
707.763
704.296
710.447
699.633
700.301
711.476
704.854
708.623
712.736
719.073
713.038
718.333
716.856
720.861
718.388
718.965
717.757
716.483
722.359
726.917
719.989
724.401
726.056
720.009
731.328
734.427
730.366
724.615
730.309
725.639
730.056
731.567
730.926
734.601
731.087
739.635
745.415
746.577
743.555
735.684
741.094
748.392
750.573
743.139
743.995
753.483
744.816
756.162
752.537
750.551
751.596
753.518
761.419
758.652
758.650
753.378
763.358
756.892
761.128
759.141
770.853
774.284
764.266
763.709
773.635
766.427
764.146
777.978
777.815
777.143
775.770
770.231
786.030
780.813
787.963
776.554
786.838
790.869
782.168
787.349
780.709
786.911
795.854
