142.325
118.439
134.153
133.580
130.284
132.577
120.162
118.485
117.728
97.859
106.510
107.072
103.637
141.585
105.072
105.123
104.877
114.155
140.572
100.792
134.244
105.238
138.403
116.291
143.019
113.301
130.459
124.629
140.465
99.607
105.570
107.959
126.692
101.611
100.413
111.215
108.511
127.154
114.451
113.098
127.745
100.360
118.497
110.860
141.376
138.803
119.620
144.333
103.412
101.739
112.703
115.382
132.069
115.830
132.757
108.137
142.411
134.139
141.791
110.031
114.970
107.977
100.145
122.488
122.386
121.653
135.119
99.925
97.692
117.642
122.152
95.872
133.658
129.268
95.265
105.909
130.662
107.858
98.466
97.408
109.855
123.075
121.377
101.628
117.309
97.581
125.107
142.547
115.596
133.628
95.205
134.666
128.917
108.930
113.214
137.430
137.219
127.155
106.817
142.874
110.452
112.105
119.711
113.170
146.189
129.324
130.538
113.644
124.072
139.294
112.411
142.776
98.397
110.720
111.154
112.596
106.364
133.238
137.181
127.248
135.156
143.554
107.224
103.743
140.501
129.541
114.441
137.579
132.623
133.936
126.958
119.972
110.456
108.627
138.783
112.548
133.721
116.640
134.043
116.089
107.184
137.341
111.815
116.037
141.839
125.590
130.182
123.417
105.235
106.880
139.548
113.642
94.803
141.353
119.238
121.166
113.754
102.313
142.580
120.113
131.600
136.386
104.622
96.891
113.350
139.594
133.407
117.452
131.173
110.183
97.919
126.335
121.869
144.838
146.505
133.885
118.831
143.517
105.912
145.636
102.846
145.171
118.834
105.480
113.523
141.023
128.229
128.456
146.301
119.172
119.282
143.257
129.361
105.714
114.890
145.519
140.902
141.422
125.268
104.940
130.009
98.283
99.694
146.482
109.072
114.594
98.834
115.667
135.496
102.195
135.855
104.822
124.596
115.681
97.813
123.958
107.984
115.451
123.100
133.457
134.084
125.124
118.769
136.116
142.704
97.679
97.234
146.490
126.387
120.408
98.606
108.376
133.890
109.010
140.583
137.891
136.844
137.004
116.151
112.598
140.672
98.625
124.396
117.176
123.299
127.908
125.313
144.074
114.309
102.758
110.151
126.332
108.677
135.018
111.125
96.981
97.892
140.799
125.396
117.971
106.191
136.600
144.337
141.733
123.993
105.735
125.007
130.167
101.394
107.442
143.953
104.532
104.712
101.917
110.294
145.874
115.451
107.871
128.797
113.170
98.869
124.870
116.057
115.289
134.553
110.441
115.147
107.778
103.940
111.193
144.052
112.348
104.620
96.932
113.453
115.093
105.106
119.928
113.706
97.703
145.096
100.249
121.427
122.826
114.255
123.469
128.663
142.102
106.216
128.255
145.142
94.930
144.257
102.375
127.535
114.698
144.103
128.118
114.868
95.713
102.633
146.344
100.852
106.059
101.168
131.157
101.011
130.350
103.221
132.239
138.232
141.062
116.897
106.601
107.503
109.131
133.904
123.793
103.043
111.612
110.759
123.212
98.857
140.128
134.685
110.507
94.940
98.884
121.376
136.768
96.225
103.995
114.377
111.569
134.778
98.394
123.865
102.337
101.983
124.659
113.270
121.720
98.071
140.612
110.766
110.926
127.486
111.503
117.794
101.180
139.453
145.150
144.414
113.300
141.495
145.794
133.811
125.432
105.703
129.934
138.680
107.367
133.094
108.880
105.502
131.463
145.720
95.742
132.443
104.658
143.404
117.932
133.852
95.866
144.961
119.132
103.528
119.630
119.754
95.855
140.525
122.523
136.793
101.823
104.924
103.018
144.968
105.004
134.964
97.351
126.222
136.631
115.465
137.960
126.068
105.427
121.070
137.550
122.252
123.352
136.330
132.006
102.810
137.188
144.713
144.146
106.663
109.030
111.631
148.976
105.282
137.437
138.154
109.008
123.820
126.714
122.443
135.627
120.406
141.665
115.146
111.419
133.174
152.316
128.909
125.185
106.271
132.744
114.755
140.007
120.528
108.062
119.441
124.938
104.789
119.326
112.206
113.558
135.398
124.353
108.326
142.467
140.460
152.184
106.443
126.180
142.324
125.988
120.223
138.199
149.384
107.611
107.836
130.693
105.318
137.660
108.265
108.827
130.117
107.316
144.772
142.622
136.592
107.473
136.325
146.358
144.589
104.577
106.167
102.599
104.449
139.136
150.858
150.302
141.818
125.617
114.346
126.883
128.311
125.349
124.390
121.965
118.047
142.211
128.052
132.874
105.334
106.871
103.456
102.028
122.081
122.129
143.941
125.575
119.653
105.439
142.687
149.725
123.654
147.841
125.726
110.110
105.087
110.481
109.488
150.734
115.133
132.548
138.947
144.079
111.138
133.628
105.518
128.882
143.119
132.738
129.807
128.398
112.043
135.486
102.885
104.794
117.005
103.671
147.139
118.524
133.829
116.933
122.244
127.350
128.720
141.766
124.106
118.547
101.149
126.188
105.442
145.787
135.377
138.048
132.362
133.129
118.059
105.850
119.647
112.343
146.713
149.796
143.469
148.284
127.000
119.278
42.782
39.515
40.594
43.016
43.468
44.395
40.754
44.475
37.947
37.865
31.847
41.551
34.244
41.281
33.059
40.604
44.110
46.612
41.771
45.728
40.660
43.277
36.417
37.012
38.033
31.384
34.301
33.395
31.872
32.452
35.506
46.319
35.289
32.857
39.724
40.941
38.594
39.296
33.813
36.488
32.295
45.357
907.033
903.463
910.398
900.161
909.463
900.347
928.014
907.948
931.572
928.357
932.476
938.930
921.422
932.079
938.597
936.949
961.893
950.899
953.085
969.485
970.864
963.262
968.025
965.149
965.493
989.703
978.872
992.552
992.701
989.268
1008.753
1008.103
988.482
998.023
999.215
1009.628
1029.106
1032.287
1035.690
1020.836
1030.209
1039.333
1022.495
1031.650
1029.437
1042.934
1047.158
1056.676
1061.496
1048.942
1052.438
1070.201
1081.405
1072.000
1080.129
1092.728
1092.975
1082.343
1088.352
1100.756
1088.415
1098.199
1110.088
1113.645
1120.751
1100.472
1124.872
1114.019
1111.319
1127.700
1134.923
1131.460
1149.799
1150.383
1145.976
1132.138
1136.322
1149.090
1145.293
1149.193
1149.050
1172.884
1172.133
1162.371
1177.429
1179.843
1171.226
1195.645
1190.735
1197.173
1184.991
1205.714
1189.139
1217.782
1216.627
1214.521
1224.015
1233.944
1233.299
1216.336
688.337
686.418
687.307
691.543
696.839
688.138
691.481
692.910
698.153
700.329
694.968
705.601
707.616
707.342
705.772
713.092
707.011
720.547
716.017
720.309
720.126
727.855
727.181
726.348
734.031
723.165
731.355
741.074
743.272
739.213
744.276
742.202
750.581
740.377
750.301
743.675
743.130
759.180
755.251
754.102
764.090
767.680
756.480
756.981
763.427
773.916
763.744
763.333
774.229
778.551
768.754
779.175
773.425
784.783
784.862
786.774
780.780
782.001
783.659
796.343
787.875
804.556
798.394
805.636
798.256
805.133
805.573
801.749
807.047
813.358
815.191
813.567
817.887
815.813
817.714
827.870
826.607
830.805
827.723
831.194
832.344
831.411
836.026
844.799
844.642
838.988
846.834
844.265
851.275
843.653
847.764
853.178
860.249
852.978
861.716
865.458
866.307
865.351
864.840
861.966
873.306
864.142
870.809
870.220
863.694
864.501
877.044
871.566
863.493
865.889
863.552
870.489
867.739
871.066
877.218
870.954
867.708
875.251
866.919
876.490
868.506
879.050
874.037
879.736
865.756
875.850
879.270
870.921
866.572
872.736
868.544
873.370
882.294
873.248
877.698
877.715
869.176
876.801
873.406
868.076
876.193
880.953
872.770
880.169
880.613
880.516
872.636
874.792
878.085
883.980
873.547
880.830
870.553
870.415
881.844
881.072
875.881
875.642
875.654
874.580
873.888
872.462
885.723
872.362
879.169
883.396
885.002
877.655
884.635
876.751
887.558
882.716
887.030
884.761
881.537
880.768
875.047
876.802
879.695
880.094
878.835
877.752
874.163
878.949
876.742
880.808
884.262
887.604
882.845
881.036
888.731
881.678
886.681
874.934
890.119
889.923
881.051
885.782
881.412
890.586
876.522
891.608
885.038
884.106
876.483
892.304
889.588
877.294
891.217
880.056
890.249
884.431
886.249
880.956
878.913
881.817
892.569
885.210
891.463
888.181
887.136
893.220
880.530
885.555
883.689
882.002
883.366
894.116
880.914
891.202
886.830
884.649
882.547
895.825
885.834
883.508
889.031
886.447
886.868
891.709
889.902
895.542
881.744
886.541
887.957
890.641
882.367
889.558
883.983
888.826
897.823
892.922
885.644
886.562
884.857
894.030
887.929
889.458
890.579
886.457
898.270
891.359
896.490
899.323
899.344
884.995
895.924
896.871
900.845
885.994
896.955
897.771
897.953
895.199
897.208
894.979
887.950
889.774
889.533
887.578
900.464
901.238
889.759
899.935
894.467
894.655
896.589
899.407
898.123
891.283
897.591
896.048
891.621
893.950
901.931
903.332
901.008
892.281
901.634
899.294
890.646
897.911
893.073
896.685
893.777
890.606
886.437
890.668
880.276
890.203
884.212
880.947
880.565
878.965
883.341
876.626
874.199
876.113
872.829
879.835
864.377
870.743
876.890
870.912
868.731
860.662
869.162
859.608
861.704
860.849
857.422
860.781
855.284
858.908
852.103
848.062
856.327
851.155
852.411
849.575
840.407
853.889
846.020
843.393
840.064
837.987
833.749
833.355
834.890
840.305
834.505
840.895
834.786
825.940
829.744
823.333
827.746
830.482
823.025
816.873
822.490
818.131
822.970
815.281
824.716
816.284
819.082
816.618
808.402
812.462
806.133
805.429
803.551
809.524
807.766
809.758
795.610
798.763
796.994
798.528
802.672
793.333
791.103
788.062
787.154
784.238
794.250
785.794
786.446
789.276
779.874
789.375
779.592
781.579
771.956
776.611
772.343
779.540
782.645
776.491
775.304
775.590
766.835
770.546
771.079
767.490
764.975
771.311
767.866
768.172
763.235
761.178
762.881
752.990
761.392
756.106
757.360
745.028
751.930
747.599
742.520
742.992
750.805
749.502
735.086
737.461
733.164
740.404
729.736
739.631
740.630
734.646
730.097
738.316
727.072
726.075
733.963
722.474
730.245
725.116
716.253
714.520
727.502
710.999
718.801
712.847
710.586
709.460
704.294
714.184
714.950
712.596
699.515
709.272
704.759
703.576
698.349
704.400
702.779
699.433
695.994
695.602
690.105
695.331
696.827
698.031
683.114
682.111
689.530
693.334
691.036
679.086
684.584
679.989
673.838
672.568
669.865
669.198
678.897
679.433
679.168
667.167
668.601
660.801
669.546
668.996
662.631
660.461
668.964
662.428
654.100
652.807
652.664
654.804
659.615
657.095
654.054
644.385
642.209
655.434
639.913
651.490
656.008
654.079
649.685
652.803
653.089
660.662
663.163
667.039
668.252
669.428
665.024
674.844
668.202
678.183
677.319
666.809
670.267
681.553
678.148
676.225
683.622
683.042
691.233
684.237
687.591
698.289
689.212
691.046
700.306
688.871
690.706
694.693
706.983
705.525
706.244
701.349
703.820
708.064
707.903
709.661
714.797
717.254
720.220
719.366
715.860
715.726
721.008
723.249
730.130
735.434
736.591
739.838
733.073
728.485
739.720
737.294
740.032
740.457
743.752
744.155
753.679
754.583
747.805
753.089
746.119
751.399
754.718
765.142
756.082
756.952
767.849
760.921
764.581
759.800
761.481
770.549
773.882
778.497
781.798
781.443
771.061
784.347
775.200
784.170
778.865
793.144
786.900
796.407
785.544
793.735
794.687
803.243
795.487
799.553
802.541
800.195
807.666
811.472
799.801
805.956
805.679
807.449
819.438
817.025
818.814
818.591
827.708
815.251
817.322
823.690
824.990
824.836
830.820
825.286
826.123
829.828
829.945
843.800
842.811
846.136
839.247
838.782
843.026
851.958
847.277
844.913
851.896
852.448
852.451
850.555
856.374
853.939
856.452
864.156
863.611
859.191
869.150
873.287
868.415
868.379
868.762
872.684
874.260
880.003
873.814
890.250
885.156
882.489
891.291
889.621
889.297
898.917
888.835
902.652
901.468
896.179
904.236
908.623
906.402
904.593
900.972
902.237
908.262
912.201
907.222
917.259
917.986
912.044
924.325
918.243
922.562
931.839
930.948
923.027
925.816
924.128
925.083
932.670
940.368
943.154
944.670
939.398
949.199
948.336
945.367
949.058
945.428
949.586
952.541
948.413
953.016
956.294
964.007
959.380
968.696
968.922
970.574
968.833
962.838
974.079
963.336
970.692
971.678
968.827
966.282
962.659
961.571
961.138
965.852
962.192
963.628
958.306
952.205
949.747
952.191
950.462
946.787
956.762
952.351
949.454
945.176
952.636
938.052
937.850
935.318
939.491
933.345
932.976
932.389
939.015
937.121
929.109
926.898
940.100
929.891
927.777
922.406
924.497
927.241
927.129
918.535
922.932
917.064
924.222
925.056
921.128
923.000
912.860
916.045
916.813
911.927
917.496
908.415
909.806
916.079
907.131
914.719
903.972
915.827
913.588
901.157
897.643
908.827
900.289
902.809
909.050
906.868
896.461
901.968
895.881
903.396
898.881
889.899
894.916
885.366
888.461
890.198
891.996
883.217
893.407
878.936
885.686
888.526
884.054
876.716
884.370
873.419
877.495
876.616
873.059
873.610
882.461
869.116
873.949
865.896
869.146
878.724
873.411
868.127
865.914
859.906
860.313
859.601
872.045
866.372
859.884
865.283
867.593
857.153
864.190
856.623
854.560
850.538
855.448
847.038
857.473
848.284
842.510
850.907
854.444
844.344
844.701
843.682
846.440
836.376
848.272
838.817
846.746
837.707
838.706
836.914
829.387
838.082
829.474
830.363
826.338
837.993
827.322
830.416
833.920
831.554
830.106
823.202
824.807
827.334
826.006
818.559
817.221
817.241
816.814
819.278
820.924
812.625
808.044
816.588
819.773
816.960
818.228
811.206
803.920
806.899
812.903
798.878
804.471
802.196
805.526
802.322
807.989
794.136
794.471
795.210
800.446
799.414
787.482
794.451
799.018
793.556
786.053
784.958
795.584
780.762
793.130
790.926
779.406
787.548
780.735
781.463
775.336
784.682
786.323
777.634
775.993
776.801
768.840
773.797
772.270
767.717
770.304
776.500
765.137
769.522
771.886
771.508
760.864
764.771
771.344
766.771
768.525
763.817
770.766
766.054
769.617
763.830
767.506
770.292
769.915
761.501
764.430
752.987
758.167
758.412
758.458
758.640
760.675
751.886
751.536
762.119
749.672
763.820
756.090
749.294
756.171
758.556
757.981
756.505
758.767
757.751
752.800
755.342
750.232
753.756
753.875
755.498
747.858
742.900
752.604
750.650
747.892
748.904
741.273
749.016
742.115
743.096
746.407
736.843
748.087
740.512
750.415
735.888
743.341
742.723
735.709
739.107
746.848
745.079
746.658
744.087
735.916
737.374
738.267
733.530
736.919
733.378
736.837
737.099
741.501
735.499
734.742
734.597
733.600
734.067
737.095
738.329
734.111
737.908
724.026
727.311
722.595
729.672
734.055
721.395
726.608
727.167
727.275
723.706
725.223
718.430
717.745
729.252
726.184
722.132
721.312
720.899
717.777
722.733
723.551
717.281
716.273
714.676
720.147
725.486
715.704
719.523
709.066
719.034
712.254
718.902
715.202
714.223
705.517
715.232
709.794
709.968
711.477
712.412
705.920
705.072
702.195
702.828
700.988
710.638
708.898
706.650
701.951
703.583
707.998
700.101
710.773
710.092
699.462
702.071
710.296
699.018
698.562
707.304
703.374
706.531
707.444
696.948
702.960
700.231
697.276
690.056
691.102
696.380
702.532
696.542
689.134
695.694
694.965
697.378
699.421
698.267
696.900
694.359
691.614
690.931
698.618
696.358
696.155
687.622
696.022
684.193
681.462
685.104
679.655
678.927
686.524
690.404
689.694
684.147
681.117
682.757
685.621
688.757
678.934
676.724
680.450
687.189
675.168
682.652
673.067
679.766
684.030
686.090
684.776
670.468
679.316
678.406
667.447
677.217
677.662
671.973
677.445
669.273
668.903
673.362
662.981
671.181
659.667
657.085
653.911
658.532
660.599
663.001
654.669
660.539
656.935
653.589
658.298
647.312
645.685
650.214
652.061
647.026
637.890
638.491
643.997
642.224
633.184
630.283
629.325
634.696
632.227
630.414
633.660
635.472
636.604
628.872
620.097
626.904
624.985
614.722
622.807
617.808
625.319
624.667
617.378
612.121
612.468
620.836
609.281
610.191
614.033
609.378
605.049
599.904
607.177
598.645
605.679
604.872
604.030
602.128
604.243
588.038
594.848
599.159
599.267
597.188
586.949
590.926
584.841
580.433
588.468
576.449
588.978
587.264
577.354
571.851
570.425
578.829
576.272
580.079
567.107
566.070
576.208
574.620
567.508
570.689
564.923
557.022
570.501
555.942
565.821
554.784
552.735
548.783
559.416
553.921
545.275
546.777
556.329
547.740
546.255
550.740
548.325
537.538
537.704
543.776
545.192
542.184
541.975
529.501
540.481
527.803
525.871
527.762
533.515
534.011
529.215
520.405
523.752
526.960
518.834
518.606
517.286
516.496
513.512
516.922
524.323
507.826
520.767
510.653
517.126
507.939
502.124
503.151
507.427
510.702
507.750
496.456
499.956
508.277
494.760
493.871
491.595
496.646
486.644
488.779
490.099
487.947
494.881
481.023
489.367
491.442
481.213
479.387
478.746
478.851
484.116
475.146
482.768
471.226
477.670
472.050
474.795
478.138
476.293
461.612
472.933
465.544
470.629
467.379
462.841
462.059
461.973
453.303
452.295
450.560
453.234
452.962
454.876
448.174
450.989
