130.764
108.074
145.151
140.535
105.255
113.626
109.115
115.327
125.814
146.035
129.223
130.588
96.187
146.539
131.642
106.254
128.755
132.955
111.235
136.976
121.805
113.469
138.704
98.550
110.159
145.102
146.302
127.977
114.274
123.997
109.063
145.805
130.000
135.043
116.060
139.276
136.686
117.303
96.267
126.764
111.212
120.486
107.808
105.617
97.254
111.504
95.345
106.812
114.360
97.681
130.242
105.336
135.277
112.483
115.949
98.587
139.124
123.861
106.206
145.211
130.555
103.062
115.192
95.495
134.949
100.440
144.111
139.290
110.342
145.080
107.730
115.919
100.419
107.421
144.840
144.889
100.806
129.258
119.894
136.998
138.191
127.792
118.075
96.332
115.655
134.036
110.959
124.065
96.596
116.867
111.890
140.098
133.596
140.583
103.270
140.365
113.550
118.252
134.206
109.016
130.971
130.407
107.769
123.703
115.439
98.813
95.165
108.939
110.802
127.805
134.425
128.880
135.806
139.817
103.796
118.681
119.712
136.901
131.407
129.168
102.240
104.275
100.269
123.378
138.297
135.771
121.098
129.786
131.401
116.139
106.180
121.923
105.177
99.818
130.722
100.401
139.589
103.192
118.803
119.709
127.645
111.155
145.424
146.639
113.476
101.564
120.836
120.449
131.327
103.067
100.791
120.936
129.706
127.890
146.238
118.356
144.779
103.181
98.038
97.045
136.554
134.894
106.576
103.159
135.913
111.785
103.998
131.474
104.269
96.022
121.040
101.193
117.816
139.951
135.494
126.453
108.744
109.523
128.859
124.085
125.601
98.129
107.991
103.045
142.237
145.754
127.030
104.362
96.375
135.555
102.338
97.826
137.793
129.275
115.034
128.847
114.308
141.442
103.486
107.794
110.534
141.314
101.346
129.670
139.981
115.461
110.818
135.187
126.976
123.447
101.484
134.812
140.181
99.835
99.312
120.303
125.234
113.892
131.739
125.213
119.062
134.293
132.448
137.194
130.125
128.764
140.343
96.308
119.961
145.772
124.370
95.005
138.786
115.031
98.081
139.023
125.128
135.489
95.626
110.336
112.179
105.088
119.071
142.181
122.144
144.651
114.476
143.510
137.732
106.364
110.052
135.361
144.060
94.920
142.887
105.080
130.530
136.358
109.438
95.329
132.799
99.438
101.106
129.176
138.911
144.618
140.507
97.827
134.957
96.689
125.102
101.439
98.835
113.210
123.663
145.985
99.812
137.695
111.492
110.697
113.678
117.034
108.721
121.523
105.906
140.068
111.280
107.688
103.833
110.974
105.753
101.669
104.900
112.545
113.662
109.250
115.987
134.368
137.707
122.875
142.116
125.641
138.407
136.969
143.145
112.203
117.304
125.911
104.683
120.341
129.584
137.689
131.471
104.656
123.904
133.440
139.956
120.958
111.690
113.317
117.883
134.613
118.668
132.229
134.245
135.817
141.140
137.472
139.873
95.235
131.706
134.215
145.222
119.841
127.029
138.723
121.109
116.392
122.865
133.725
121.969
120.844
120.259
143.823
118.330
116.433
124.979
112.764
107.578
109.429
108.443
115.945
118.674
100.260
143.240
146.333
134.105
120.340
112.106
107.990
111.021
104.188
125.395
104.941
118.154
131.250
96.219
101.954
106.552
118.394
98.891
98.171
122.922
105.396
108.916
130.323
102.402
101.741
112.078
99.348
126.683
96.812
145.727
103.641
129.926
96.722
115.167
145.819
105.124
135.659
126.440
137.279
119.554
121.772
112.284
123.723
106.376
123.406
135.626
132.594
101.368
126.610
121.393
103.672
128.156
143.687
118.703
112.741
138.572
130.787
139.404
96.882
106.289
136.820
121.885
134.749
106.047
113.816
133.243
141.093
134.790
98.503
131.743
137.920
139.532
144.752
104.110
130.303
132.489
135.722
115.238
131.821
121.381
125.280
96.237
131.106
129.920
141.890
146.337
138.053
123.422
120.373
113.450
135.159
121.303
129.575
123.095
131.142
102.571
101.301
116.286
101.029
121.149
146.450
123.852
126.008
97.677
97.424
127.833
146.307
126.068
100.199
117.825
112.108
140.983
106.705
146.704
113.853
144.665
120.537
144.140
103.897
132.953
99.340
129.916
136.678
119.502
138.917
128.230
130.550
143.846
144.401
145.303
117.838
137.633
94.943
118.178
119.366
134.627
123.608
109.492
133.596
117.088
142.242
128.873
118.473
139.707
136.690
96.688
97.976
114.722
108.525
127.373
95.844
113.466
103.836
113.671
95.649
99.783
141.831
101.237
126.926
120.598
109.837
114.742
128.574
136.245
145.181
107.580
100.008
127.342
140.842
101.571
116.453
136.501
138.178
112.525
136.571
140.158
108.466
125.596
108.797
96.948
97.952
98.904
105.046
113.517
128.520
130.125
141.856
98.010
129.508
131.709
122.390
125.082
135.576
128.933
122.913
142.409
109.130
138.192
103.216
103.680
125.757
98.395
94.975
128.387
140.117
141.764
95.107
112.484
143.034
124.357
141.359
134.101
115.240
142.245
98.167
99.340
96.510
101.010
114.128
112.625
132.430
130.823
118.883
134.634
122.690
142.368
139.595
105.558
111.438
130.863
125.549
106.470
102.418
132.325
111.268
127.910
124.772
105.185
128.242
105.885
112.294
102.159
95.571
117.196
100.611
144.464
127.806
94.832
109.032
131.688
123.373
99.347
121.324
146.732
98.913
114.158
144.889
95.899
98.867
102.950
106.878
137.239
102.312
134.635
111.440
97.372
112.269
99.475
140.390
101.849
143.624
102.592
133.879
141.809
144.010
137.797
120.426
113.976
125.361
102.471
123.358
125.536
128.934
101.966
127.020
98.485
98.525
146.380
138.704
111.955
110.737
105.200
105.177
110.226
105.767
123.845
128.973
141.731
106.358
129.716
139.177
133.538
146.366
104.108
134.653
114.193
99.190
130.063
96.012
116.372
118.507
123.611
132.825
140.114
143.304
123.539
130.236
102.517
94.973
134.330
120.137
136.465
138.088
100.041
117.336
110.823
146.390
141.560
100.680
134.049
119.605
121.049
111.852
136.959
128.015
97.001
133.501
108.978
99.294
120.959
104.335
111.110
126.978
129.108
131.479
112.015
102.192
111.664
119.237
98.711
118.651
142.768
125.839
97.401
129.774
132.426
119.682
99.485
113.021
110.938
108.088
118.843
125.072
116.055
113.640
134.844
144.691
102.585
134.256
127.769
134.294
122.792
141.284
98.949
134.942
121.504
95.895
134.849
99.832
116.628
141.030
111.254
116.236
95.410
133.110
122.411
123.714
145.062
126.909
120.943
98.838
130.756
114.208
108.777
141.106
122.683
111.445
137.751
137.908
104.215
142.889
113.900
110.287
144.489
143.216
116.901
95.390
98.180
116.097
127.711
134.999
99.168
135.968
118.300
106.264
96.598
112.135
94.984
127.354
146.252
100.767
146.544
96.045
130.286
118.325
141.183
115.223
103.927
130.477
125.316
115.172
114.682
122.672
140.725
120.862
126.937
115.274
105.389
96.400
120.531
117.860
130.663
119.210
134.792
102.340
144.757
113.861
106.941
102.727
118.431
101.163
104.676
130.801
137.184
137.401
115.380
103.358
146.399
144.595
130.517
109.749
126.008
117.229
124.738
114.725
115.300
126.480
106.867
123.007
121.521
143.424
96.621
101.969
121.728
130.913
99.888
133.154
144.852
101.885
105.503
144.661
97.256
126.275
128.308
115.396
102.208
110.920
101.606
133.908
113.857
114.894
115.279
113.068
116.573
126.284
112.245
137.512
104.418
123.998
116.283
114.517
96.739
116.788
127.837
126.949
114.722
133.353
96.326
144.398
145.516
106.121
113.685
128.891
120.438
97.612
100.708
101.656
137.193
99.049
117.204
95.408
115.014
102.496
114.390
122.668
123.203
118.995
137.967
145.190
102.510
103.542
145.091
128.364
105.885
122.323
102.994
138.280
124.958
125.861
117.181
116.365
143.709
123.871
109.372
146.685
98.872
113.655
125.830
102.352
130.009
143.658
106.299
107.792
111.163
130.260
138.421
102.795
119.272
127.332
141.021
116.838
141.157
113.873
122.755
96.456
106.625
110.182
145.645
99.285
143.340
108.438
128.181
128.677
143.910
123.672
144.971
142.583
107.911
98.688
137.523
141.974
140.350
110.536
102.648
128.073
136.494
102.086
114.321
123.404
146.489
109.095
108.547
101.776
126.291
116.508
94.924
117.956
105.120
125.787
114.589
141.596
141.442
103.039
145.384
126.330
113.112
103.222
101.297
114.499
139.609
96.874
118.128
111.569
97.925
135.571
98.263
137.371
145.048
121.189
97.049
139.110
133.855
137.017
123.623
144.875
132.572
103.606
144.977
101.338
111.625
102.168
128.744
135.220
125.514
96.603
98.646
113.607
130.346
110.187
95.749
124.801
121.997
130.513
102.083
134.847
103.202
132.936
144.818
114.719
105.084
105.997
139.895
108.519
111.072
106.154
100.062
113.368
127.187
142.692
145.412
121.985
112.481
131.448
105.557
136.836
129.429
103.457
116.656
100.140
101.665
130.694
133.923
131.708
106.832
111.630
123.422
122.356
111.987
95.967
106.257
120.174
99.866
112.454
143.197
138.415
136.537
95.803
96.821
124.454
104.692
145.646
135.403
136.511
99.276
108.707
128.113
100.582
97.282
132.636
129.590
136.915
136.114
99.692
123.207
118.516
113.843
104.417
116.472
131.296
120.440
122.233
95.454
97.488
117.591
118.313
95.603
129.469
115.210
105.597
112.911
118.813
113.673
103.268
100.209
131.666
98.950
127.921
118.657
110.493
117.415
123.962
118.027
99.788
105.370
146.267
138.353
107.754
103.170
125.259
97.227
129.307
140.124
131.630
98.376
115.850
146.364
98.625
125.866
128.077
143.453
146.027
122.332
138.228
112.286
124.969
146.232
129.977
110.808
106.556
145.055
143.498
123.473
103.863
136.430
146.262
95.758
99.087
122.842
129.975
769.929
759.499
773.674
783.285
728.039
736.548
771.019
800.143
746.712
755.557
806.957
791.783
798.370
796.802
788.880
817.289
854.457
824.281
258.953
251.788
266.865
263.734
260.001
270.753
271.049
266.081
289.652
272.464
275.156
294.311
299.465
294.654
301.850
288.160
289.806
296.571
309.861
310.798
310.301
304.163
315.239
306.824
327.760
303.311
315.534
324.034
310.742
323.569
327.579
328.569
326.496
342.063
346.539
333.422
334.027
343.632
356.669
358.550
360.853
346.521
363.103
356.508
370.719
369.508
366.605
350.751
365.177
355.368
384.230
373.100
370.207
371.586
371.258
379.065
375.637
379.334
379.194
389.402
384.670
403.340
400.948
399.366
400.055
408.244
417.386
413.236
395.548
409.931
426.549
406.531
429.630
406.325
424.778
413.391
418.164
415.133
426.131
445.451
424.754
428.420
241.232
244.651
251.351
251.364
241.423
247.681
244.892
254.533
258.739
257.694
258.989
257.602
263.678
259.034
261.517
258.011
260.130
263.302
272.993
272.164
268.419
267.839
263.377
279.212
268.979
270.862
275.249
278.101
281.799
278.707
273.505
287.475
285.911
282.026
283.716
290.651
287.811
292.106
287.926
290.026
293.125
288.405
299.788
298.813
293.054
290.078
294.474
300.485
301.440
305.436
305.430
297.821
304.902
300.284
313.739
317.025
306.913
314.294
321.464
316.023
318.048
322.587
325.565
323.089
313.805
320.576
323.644
322.394
333.116
328.744
327.879
322.144
323.459
339.370
331.369
329.087
333.744
330.340
340.880
343.362
336.013
339.271
344.884
338.831
347.291
344.689
339.053
341.980
352.285
357.010
348.591
348.196
353.039
349.637
358.938
356.291
363.079
357.256
354.483
360.988
356.372
362.643
360.804
361.691
359.282
363.695
369.061
376.424
365.071
377.808
376.878
369.552
374.005
370.699
381.839
377.653
373.070
379.461
384.187
377.891
384.799
371.595
375.698
383.430
374.645
377.810
385.418
388.786
386.702
389.302
388.740
384.944
394.793
382.841
382.910
395.119
387.753
398.116
393.047
385.330
398.293
389.724
401.148
397.817
402.023
395.275
401.782
395.418
405.796
398.820
400.904
398.221
396.694
408.815
400.805
396.955
396.901
407.602
402.318
402.426
411.378
410.235
406.381
404.432
416.858
413.505
417.226
411.436
408.203
419.105
416.241
417.940
422.473
413.128
423.965
419.925
421.970
427.354
421.773
416.982
414.384
421.307
428.257
428.851
430.083
425.281
419.230
423.299
427.147
427.834
435.028
429.824
424.136
433.015
432.388
436.202
434.168
437.738
441.676
438.655
440.651
433.731
443.393
440.438
447.476
437.599
436.666
444.755
434.827
445.380
444.613
438.692
442.128
450.125
442.446
455.925
448.305
445.408
457.218
453.195
446.892
450.282
454.192
458.963
458.433
452.207
462.320
453.546
456.503
453.279
464.446
451.810
455.686
459.555
458.164
462.820
469.617
460.209
472.355
466.720
463.359
469.455
470.985
472.562
470.436
476.448
476.618
475.859
477.758
469.763
465.967
466.633
482.224
479.496
480.964
471.523
477.206
474.986
482.362
478.286
481.526
474.858
487.155
481.141
478.962
481.675
482.515
478.496
480.675
486.003
491.216
495.630
484.012
496.059
490.459
498.892
489.811
488.418
499.264
498.203
490.711
488.966
501.869
494.397
499.271
507.252
500.206
493.593
493.815
498.432
508.697
508.330
502.667
511.504
503.498
504.019
505.589
513.223
514.768
501.939
506.828
509.178
512.694
520.746
519.579
515.746
528.016
520.161
532.069
527.772
535.438
540.318
542.601
535.105
541.394
537.859
544.695
551.955
543.636
549.877
549.009
556.422
558.864
555.118
569.378
564.207
572.666
565.003
572.161
574.015
576.744
578.652
589.120
589.261
594.893
584.305
587.476
594.539
596.412
592.143
605.661
611.949
605.653
608.442
618.252
606.713
622.603
613.807
624.972
623.482
627.882
625.015
621.415
626.670
638.385
631.718
639.840
635.838
636.312
648.376
651.923
653.814
650.625
650.386
656.673
662.069
659.514
663.698
664.495
664.313
675.284
674.851
682.344
679.900
677.953
681.440
680.438
684.469
687.584
687.705
687.309
700.803
698.118
702.924
697.893
703.975
714.932
707.381
718.001
717.040
708.240
725.362
724.539
718.288
720.224
732.018
735.863
731.073
732.435
744.143
745.147
734.327
742.125
749.960
744.968
748.889
752.759
749.517
752.292
758.260
764.674
759.158
759.573
762.077
768.921
779.596
776.133
778.688
777.777
790.453
784.798
781.303
782.859
793.963
787.999
789.326
802.004
806.341
796.247
799.691
814.526
807.609
811.674
811.762
813.746
812.015
821.328
831.090
825.095
833.294
836.584
827.867
836.075
834.160
834.411
848.945
847.881
838.810
849.530
843.380
860.352
853.861
858.722
852.616
862.291
862.681
865.862
876.550
877.984
873.280
876.078
879.816
879.443
886.093
881.658
883.091
896.767
889.996
897.498
894.971
896.133
896.386
904.148
904.822
910.529
914.428
913.950
920.645
920.434
923.664
916.401
926.419
927.289
921.150
934.590
932.962
939.254
941.008
934.071
938.381
948.755
943.629
946.262
946.857
950.941
960.778
958.620
965.564
963.593
971.227
975.183
965.138
964.022
965.373
963.197
954.970
952.369
954.015
952.019
953.062
956.405
958.360
953.268
951.937
954.507
939.398
944.282
939.230
947.208
934.933
938.835
938.654
931.278
939.111
938.588
927.589
932.003
929.183
920.921
925.321
931.246
914.757
923.487
917.772
919.035
923.086
919.503
912.630
916.503
917.925
906.670
900.838
898.817
900.065
897.612
894.537
899.720
893.022
902.016
892.826
902.161
892.793
883.720
887.955
893.837
880.424
887.286
880.880
885.458
888.529
872.089
880.546
882.110
882.452
877.120
870.872
875.826
876.594
862.472
869.103
871.532
871.123
854.221
863.846
851.778
856.960
850.085
852.072
854.877
856.053
857.972
854.700
846.861
852.731
850.193
837.295
843.748
841.848
844.897
839.689
841.866
832.614
828.032
832.086
832.669
833.844
825.563
826.973
823.683
819.210
821.618
818.402
826.096
816.496
817.465
809.220
819.015
818.335
808.087
811.974
802.448
805.851
804.703
799.973
794.447
795.093
799.769
793.888
798.914
788.447
792.414
784.647
788.779
785.308
778.396
788.395
787.693
775.064
775.265
774.584
778.140
783.469
773.625
778.393
776.304
770.001
767.539
771.966
768.036
765.012
759.139
754.056
765.431
761.065
755.600
754.588
748.514
748.181
745.762
750.564
751.317
746.114
750.973
745.692
743.097
733.287
744.768
731.584
731.079
730.490
734.288
723.884
729.249
728.583
721.725
723.617
726.748
715.963
718.752
718.421
720.643
719.101
723.271
714.989
716.797
705.438
711.605
706.649
710.743
704.137
704.598
709.368
705.628
696.356
703.477
700.588
692.717
691.715
691.353
697.409
686.818
686.445
681.354
682.129
683.040
686.639
679.663
677.668
682.140
671.810
674.291
669.779
675.025
681.436
684.415
683.731
672.011
681.342
682.289
689.082
677.310
682.318
681.908
677.348
693.079
687.959
691.886
692.526
694.506
688.755
697.065
692.755
699.383
692.701
693.664
700.200
690.676
697.538
697.984
694.289
704.074
691.754
695.688
696.982
699.895
701.508
706.914
706.153
707.975
713.370
699.785
702.075
713.590
705.941
704.086
704.108
709.547
709.133
711.174
706.628
713.922
708.300
714.922
721.927
711.852
726.341
727.238
723.777
723.351
723.435
724.989
722.884
729.908
724.621
724.483
719.301
730.776
727.606
722.209
723.892
727.893
724.458
731.715
731.205
733.649
732.407
739.387
743.545
