104.747
41.156
32.660
29.896
29.423
44.275
43.640
35.927
32.486
37.833
35.634
44.267
43.101
37.329
44.539
40.845
33.480
43.692
39.774
34.076
33.607
39.290
42.509
34.425
40.162
39.167
39.380
43.485
31.853
31.845
37.233
35.631
42.594
39.079
44.943
39.795
37.595
39.301
35.178
35.615
31.155
32.783
40.208
36.658
35.321
962.445
974.544
975.654
977.056
964.537
965.961
979.282
980.737
975.260
961.993
988.898
991.887
980.520
973.888
991.726
999.823
998.894
990.421
995.591
989.648
1007.435
1010.699
987.646
995.851
1009.201
1001.321
1016.623
1014.275
1020.361
1017.929
1010.042
1027.746
1020.035
1010.999
1025.464
1026.482
1032.188
1022.014
1029.591
1030.375
1037.905
1035.434
1036.343
1039.724
1043.027
1029.525
1047.578
1044.869
1048.329
1037.851
1047.916
1038.487
1062.654
1067.219
1063.333
1065.302
1055.521
1050.943
1066.633
1075.882
1060.325
1077.271
1080.456
1076.628
1078.728
1074.467
1068.282
1083.444
1069.379
1094.354
1093.252
1081.114
1074.142
1093.654
1075.902
1088.374
1105.293
1094.775
1093.840
1095.402
1109.967
1104.197
1112.374
1093.725
1114.674
1117.947
1111.154
1118.990
1117.177
1109.966
1111.609
1120.997
1133.943
1134.296
1137.345
1118.150
1128.661
1117.867
1125.809
1131.816
637.051
630.120
638.401
637.353
629.263
634.071
635.445
639.008
641.113
638.467
636.044
646.582
634.989
637.493
643.610
652.869
647.360
646.005
646.416
646.723
648.756
648.609
651.109
646.936
660.098
649.525
649.033
658.462
663.891
661.098
665.459
655.214
655.156
656.024
667.569
668.833
663.940
669.855
661.598
663.620
672.474
674.048
671.749
670.208
667.748
679.961
681.617
683.322
679.414
681.682
671.065
686.571
680.332
677.010
683.027
685.543
684.385
693.409
684.577
691.604
680.663
692.916
683.973
691.831
691.845
701.146
688.070
688.557
697.043
698.168
690.668
701.270
703.257
694.952
708.609
696.003
708.622
707.804
710.728
708.057
700.605
702.746
708.974
707.804
706.086
716.652
714.640
708.951
720.874
720.356
716.779
719.151
720.782
715.262
713.489
728.719
719.357
730.697
719.222
729.620
724.879
726.570
734.770
724.297
731.860
722.316
732.974
721.762
726.447
729.973
731.791
735.883
724.201
737.607
728.031
728.938
728.584
737.870
728.671
728.277
738.053
736.904
731.175
733.775
739.012
735.154
736.089
741.810
743.681
735.211
732.631
737.634
737.351
738.842
743.899
745.928
732.938
731.705
738.488
735.832
744.079
747.610
740.690
743.543
743.804
740.828
735.444
736.300
750.102
748.484
737.095
749.168
741.304
739.130
748.292
741.279
749.272
750.337
743.326
741.547
752.728
746.821
749.577
753.509
745.337
743.509
748.114
749.862
753.475
756.476
742.850
746.288
752.991
753.326
752.571
749.929
744.208
759.050
747.970
746.210
750.224
757.822
754.448
754.302
758.564
751.207
761.690
758.772
761.631
753.528
753.202
759.619
751.043
752.164
753.776
760.872
765.553
760.437
758.386
759.768
754.598
763.661
757.805
754.085
766.889
755.869
757.396
759.424
766.712
767.960
761.366
757.979
757.962
767.206
769.070
768.060
770.942
765.328
761.403
762.136
767.850
760.939
763.829
769.941
763.330
768.658
768.163
763.790
772.003
774.495
764.697
774.985
767.647
763.805
777.962
765.228
777.133
778.757
775.458
773.830
770.026
776.241
765.153
775.937
780.870
767.611
772.590
772.422
777.515
770.665
777.120
775.235
771.981
774.907
773.671
783.699
782.411
770.462
780.723
781.965
771.421
784.843
777.518
784.547
783.996
777.721
777.412
778.979
776.042
783.682
779.679
788.042
777.338
784.238
784.379
776.083
786.925
781.829
789.076
779.947
787.908
789.983
783.056
791.423
781.089
779.234
794.679
780.261
783.451
795.964
789.755
787.082
787.741
786.739
783.796
794.717
793.542
783.151
795.710
791.690
796.169
795.739
789.475
790.639
797.320
796.551
795.742
790.170
792.634
795.437
796.740
793.198
791.673
798.859
790.987
791.702
797.763
798.719
799.005
807.533
799.150
797.775
803.594
803.261
808.240
804.972
809.556
802.736
810.036
797.075
808.842
805.791
808.244
798.281
808.580
801.209
807.798
801.679
812.818
807.033
810.870
802.282
808.565
805.562
812.181
813.797
816.249
813.372
809.796
809.939
816.579
819.467
817.376
818.693
820.776
822.112
814.507
816.878
819.362
818.164
810.962
819.091
822.471
816.138
824.342
815.638
825.727
823.269
827.400
824.111
824.727
819.592
826.527
816.846
829.792
822.015
826.660
825.103
823.714
823.330
827.226
827.295
825.728
829.852
821.773
830.794
823.587
829.808
826.091
825.097
824.585
823.930
825.841
830.781
824.224
828.616
828.052
839.127
841.366
831.236
839.351
835.902
832.316
835.354
837.073
838.042
836.661
839.346
836.183
833.287
843.609
836.070
842.584
840.988
833.634
844.588
848.437
848.776
841.403
842.034
838.324
837.926
839.940
838.677
837.649
844.147
851.858
841.568
851.039
849.913
841.832
842.649
847.702
843.029
843.326
844.434
857.418
846.907
845.450
854.178
857.984
853.130
860.005
854.048
858.829
848.920
853.247
854.133
859.925
850.932
850.859
854.507
857.395
856.569
858.686
856.016
853.936
863.693
858.749
858.734
866.424
854.322
853.615
863.664
865.785
857.196
855.501
865.358
869.933
870.607
860.751
868.348
869.213
872.260
861.968
864.462
864.389
872.910
866.427
864.338
873.233
869.535
866.706
875.563
873.390
867.381
865.801
865.736
877.873
874.484
873.293
878.096
866.796
881.916
872.355
875.350
878.786
874.221
881.109
872.290
881.916
874.362
871.421
874.757
869.777
880.757
871.807
880.158
868.583
869.422
873.734
869.652
882.931
877.531
871.584
880.260
871.369
881.489
881.604
874.400
874.393
875.381
867.032
872.456
879.906
874.384
876.764
869.204
875.092
874.978
868.617
879.665
876.860
866.339
877.872
865.874
872.755
879.347
865.306
878.785
866.994
872.199
863.361
876.946
876.018
864.427
865.349
866.018
877.376
871.740
865.249
875.473
869.726
867.286
872.939
874.622
875.317
876.831
864.053
862.584
861.914
871.798
861.669
873.838
870.417
859.839
872.332
864.936
867.532
868.561
867.179
872.706
873.470
868.203
859.739
872.668
865.742
862.849
867.580
857.860
866.737
867.301
863.820
865.446
864.388
856.732
870.200
862.552
863.425
867.964
864.574
868.860
861.024
866.597
859.978
867.862
864.416
867.842
860.067
859.500
866.549
863.852
866.471
859.479
865.727
858.783
854.874
866.456
856.046
868.245
866.618
866.695
858.345
865.232
867.497
856.190
864.982
854.517
860.941
860.367
859.089
862.990
851.516
859.807
864.303
855.715
860.838
851.037
861.397
862.338
858.197
849.946
850.738
861.273
852.228
858.047
859.702
853.600
862.769
857.084
860.002
848.705
858.474
863.422
860.154
859.185
854.758
858.914
858.499
859.535
848.790
847.833
848.837
861.810
859.695
847.687
861.036
851.649
847.221
852.120
850.354
860.409
858.765
850.395
847.602
854.697
849.611
844.032
850.366
845.142
850.407
849.639
854.886
849.766
851.124
845.063
853.217
850.669
844.069
856.255
843.241
844.693
853.208
852.082
844.961
847.127
844.414
844.420
855.748
841.944
845.347
843.001
848.511
854.478
841.816
853.711
851.009
849.230
849.729
853.288
848.792
847.708
843.904
844.344
844.350
851.176
836.840
846.714
849.368
845.404
845.427
837.446
835.325
845.481
844.119
847.285
836.959
847.403
844.250
842.869
838.330
844.388
847.627
845.046
838.977
840.133
842.189
836.213
842.871
845.204
839.142
845.245
841.253
835.938
835.696
839.543
835.782
828.484
836.627
837.432
829.580
832.973
827.093
839.552
838.147
832.653
838.842
830.740
832.631
830.455
833.507
837.435
836.335
826.955
829.153
828.862
824.611
822.229
827.269
833.377
833.675
833.141
831.990
831.211
824.716
821.656
827.474
820.338
830.721
825.893
823.969
821.210
822.659
824.815
831.476
824.485
826.637
829.749
831.480
824.795
830.566
818.363
826.905
826.037
826.750
820.438
813.776
820.685
825.147
826.888
814.040
817.380
814.188
819.881
816.793
811.131
811.353
812.762
813.862
818.183
818.581
818.441
820.812
816.386
821.456
818.674
812.874
814.427
819.522
808.534
810.535
813.596
816.133
821.020
818.686
810.739
811.287
815.784
815.091
819.251
808.080
817.897
812.058
810.769
812.679
813.591
805.253
809.915
804.143
808.820
809.689
801.531
811.483
805.805
806.178
804.199
802.553
800.403
807.365
799.373
804.806
802.025
803.517
804.266
802.336
796.052
797.847
804.300
805.396
803.562
800.347
805.548
808.286
794.167
800.371
804.595
808.659
802.275
794.146
807.697
802.211
805.609
800.171
798.524
802.745
805.904
803.476
805.474
792.098
801.862
789.032
803.115
788.519
789.721
788.130
794.022
792.943
799.429
792.046
786.079
786.892
790.089
792.417
787.988
794.363
795.844
790.637
784.056
784.468
787.942
785.931
787.746
785.892
793.582
795.951
781.467
785.021
789.435
791.463
785.528
793.051
790.463
792.679
778.361
789.711
792.032
784.516
776.665
778.084
778.165
776.275
777.341
771.560
776.201
777.518
782.052
771.095
773.223
767.742
774.399
769.474
774.840
766.090
777.454
772.021
767.691
770.013
763.213
765.677
760.459
760.883
761.606
760.185
766.337
759.711
759.896
767.523
761.763
765.387
762.915
757.842
752.422
752.812
752.140
752.046
752.274
752.785
747.269
743.934
753.144
747.719
750.136
752.269
749.655
743.678
741.873
743.967
740.473
751.651
741.408
738.981
741.443
747.095
739.116
745.613
738.064
741.590
742.617
733.334
742.708
726.984
726.309
725.615
734.458
724.389
723.465
736.924
732.868
726.182
729.647
722.691
719.781
718.168
730.547
717.862
717.538
729.299
728.072
722.376
721.519
723.717
719.853
718.186
711.924
722.528
715.578
719.929
707.486
715.782
716.261
717.620
706.678
705.967
712.946
706.878
708.157
712.494
698.931
706.450
709.077
709.138
709.001
702.684
704.505
697.858
692.356
696.572
700.401
695.405
696.901
696.499
699.122
693.890
694.580
693.062
692.347
695.053
697.178
696.362
693.156
695.523
688.663
691.779
681.850
687.810
680.828
682.352
688.359
679.536
686.909
688.684
675.839
673.520
674.852
684.391
679.552
671.567
678.265
680.621
675.574
670.568
679.445
676.448
666.733
670.812
671.393
669.887
662.782
673.765
673.463
673.867
672.329
671.873
660.960
655.008
656.268
664.148
660.681
660.167
662.062
652.019
654.969
651.543
661.821
649.831
660.670
661.115
645.788
649.560
652.321
650.979
650.085
644.474
646.300
655.285
646.899
652.300
649.919
636.682
638.787
641.889
638.208
640.190
637.925
642.066
635.825
642.506
642.617
638.635
628.791
637.751
630.564
630.479
637.311
627.813
627.871
631.458
630.106
634.669
633.708
641.815
637.145
639.129
626.393
632.495
628.202
627.637
636.968
627.079
641.568
627.967
640.061
637.345
632.021
636.583
631.745
634.550
634.775
626.051
640.483
638.564
628.847
632.329
626.939
627.553
634.480
628.892
629.189
624.470
638.999
635.689
635.673
624.682
624.688
627.658
637.682
633.195
631.857
635.181
627.084
635.935
628.566
628.650
632.909
636.871
637.796
623.309
631.543
633.783
633.226
623.991
623.349
628.058
631.569
624.287
628.419
630.538
635.358
629.234
622.403
635.767
629.766
635.865
630.476
631.572
632.480
626.713
621.219
626.994
635.292
635.947
620.722
632.250
630.036
631.002
623.350
626.771
620.639
634.211
630.630
627.645
624.631
627.294
624.125
622.832
633.737
625.010
629.929
630.475
629.435
623.517
621.290
619.382
628.097
620.945
621.284
627.529
624.605
622.063
617.971
630.468
631.798
626.766
624.162
629.426
630.978
620.307
618.170
629.776
617.597
622.412
629.231
631.442
621.139
629.792
630.381
619.223
616.857
630.723
622.179
627.527
630.441
621.236
623.167
619.332
624.284
626.863
623.502
617.005
627.556
621.803
628.612
627.590
626.009
623.669
616.230
626.293
622.735
619.151
628.857
621.163
629.047
614.516
624.203
616.835
615.456
615.857
622.683
628.906
615.508
616.303
618.817
614.529
622.951
620.480
617.395
617.243
619.764
622.477
625.244
622.154
615.465
617.005
618.206
619.772
622.029
620.285
625.672
616.935
615.323
613.766
619.041
623.246
622.729
625.277
612.788
615.062
615.432
617.514
618.773
626.582
615.286
618.565
616.461
622.067
614.387
616.590
618.113
616.019
616.331
621.234
615.095
626.438
626.183
624.848
623.901
626.970
619.885
634.378
635.323
636.308
636.782
639.535
629.614
641.206
645.274
631.116
635.615
636.936
644.851
638.312
640.100
649.079
651.560
646.211
648.680
643.881
646.857
652.737
649.639
659.731
652.918
661.594
667.856
665.859
669.541
670.889
667.852
669.623
667.773
667.137
667.071
674.651
670.969
683.280
679.922
671.380
685.841
675.878
687.723
687.730
689.950
691.762
684.123
687.859
689.652
688.151
687.744
699.303
691.237
701.619
691.922
694.524
706.981
703.980
699.514
707.510
708.896
701.469
713.517
705.847
708.277
708.383
716.589
719.279
711.305
711.335
725.920
722.770
724.499
720.907
722.190
726.541
722.342
724.896
733.995
733.513
725.963
736.866
741.064
743.046
743.712
738.400
735.482
746.640
745.552
743.685
744.622
752.091
740.477
745.501
757.461
751.111
756.468
749.563
752.012
749.513
765.593
753.283
766.016
762.347
770.247
765.170
770.762
771.151
765.013
767.715
763.433
769.549
772.648
770.453
777.683
772.190
776.166
778.341
789.394
786.363
784.353
790.951
789.093
785.074
787.127
786.467
791.317
792.518
795.869
789.233
803.441
799.213
798.258
804.291
802.552
797.998
812.994
807.434
807.773
811.227
815.931
817.481
815.805
818.660
808.350
810.660
818.274
812.727
827.977
830.042
823.631
825.277
821.784
829.899
830.845
830.603
827.863
827.806
829.451
841.580
840.939
830.426
842.286
833.845
837.037
835.871
845.160
839.808
849.762
848.988
852.390
852.523
851.718
857.614
849.988
848.744
865.305
859.015
856.375
864.535
863.741
864.073
864.532
866.951
873.151
877.234
871.146
879.479
872.199
880.481
882.978
883.909
884.078
879.811
878.133
885.594
881.419
877.171
869.960
881.626
880.696
867.055
880.049
872.215
867.243
866.654
863.577
873.921
862.650
868.707
868.206
865.238
867.273
865.682
865.740
863.882
852.374
866.851
856.732
861.953
856.228
848.531
859.691
851.008
853.162
860.469
858.962
858.794
843.433
845.619
855.626
840.977
845.145
838.471
837.466
851.963
845.323
847.501
844.984
837.944
843.011
832.276
838.637
829.572
838.481
833.997
830.875
838.439
829.369
840.098
828.591
832.089
828.254
836.691
830.301
832.278
819.327
831.091
827.299
818.157
822.584
822.298
821.770
823.063
814.546
823.967
822.477
809.854
814.895
810.095
819.657
810.285
809.459
816.919
811.916
802.452
805.437
815.900
801.155
804.039
809.089
808.045
805.205
809.548
798.114
795.035
795.810
805.538
799.569
794.754
800.593
795.228
793.965
798.408
795.276
796.780
791.410
792.542
796.148
786.384
782.533
793.100
780.267
781.126
789.224
786.461
791.269
785.928
778.696
789.087
776.578
774.557
780.989
771.844
771.235
775.126
777.759
777.305
777.058
765.080
772.830
769.361
771.384
772.953
769.361
774.957
766.530
766.264
758.381
768.804
763.980
764.979
764.668
761.441
766.206
764.033
761.882
751.582
762.765
763.184
750.620
760.308
753.847
752.606
747.053
752.855
747.070
741.474
745.920
750.896
747.314
746.146
744.689
743.570
745.263
735.398
746.292
743.573
740.254
739.521
731.070
731.005
730.896
733.662
729.544
726.771
726.074
738.728
726.467
730.496
724.983
736.370
726.380
726.828
724.657
728.234
727.741
723.593
721.647
722.390
723.314
715.808
716.134
711.401
712.144
717.356
713.844
711.314
708.161
705.755
718.381
715.737
703.377
704.522
710.309
705.143
711.913
706.319
705.303
703.010
714.544
711.943
700.406
702.526
710.998
707.322
707.017
707.304
698.345
702.579
695.698
698.469
701.751
694.024
708.402
701.290
698.029
698.536
693.692
696.256
704.780
695.626
695.611
694.764
701.285
697.538
696.293
691.643
688.101
694.613
697.373
696.679
699.378
699.822
695.026
695.064
691.666
685.505
686.003
689.119
685.886
690.185
693.029
692.480
696.351
691.501
690.421
693.133
683.180
689.338
685.789
692.531
691.187
692.789
678.664
681.536
680.373
686.309
678.428
684.091
674.403
680.212
674.594
680.791
674.999
675.478
686.606
681.323
683.932
671.807
677.443
682.371
669.824
678.964
681.777
680.750
678.868
675.351
676.293
668.594
667.202
679.906
672.705
665.355
678.952
668.632
674.721
666.148
663.965
672.607
675.726
677.421
668.645
662.620
661.885
661.129
673.853
662.004
661.213
664.703
668.790
668.337
662.041
658.435
662.573
662.392
657.779
659.265
659.874
666.648
664.339
663.881
660.264
663.760
658.759
660.201
658.680
665.827
658.698
656.558
665.244
661.679
649.455
649.848
652.334
653.395
647.295
661.229
653.975
648.516
646.828
648.859
657.945
647.474
645.296
648.051
655.132
643.222
655.263
644.610
650.531
652.361
648.948
643.664
655.040
643.651
641.098
638.569
