139.181
129.690
129.898
136.867
132.329
125.450
132.139
130.613
115.551
106.227
111.027
137.740
149.176
138.680
121.964
102.165
103.149
104.005
146.044
129.537
116.061
145.482
150.061
127.182
112.939
149.305
142.151
119.907
122.569
131.028
110.414
102.942
149.955
126.586
108.993
143.151
109.843
135.989
137.408
128.180
109.919
127.640
150.273
133.655
107.781
105.886
150.796
123.916
129.033
143.014
139.168
144.947
138.480
125.680
150.615
123.598
137.006
119.809
128.484
110.864
142.799
118.806
110.832
103.530
147.307
106.795
109.501
119.888
138.185
144.521
141.665
151.874
152.800
118.095
121.070
127.076
104.483
152.083
134.602
124.294
135.344
111.502
150.481
117.774
135.271
147.411
131.685
139.374
150.983
144.414
138.014
107.532
142.626
132.588
136.879
126.558
122.654
149.812
126.430
113.690
116.437
119.715
152.396
142.666
117.299
120.130
127.094
120.216
146.399
126.612
136.899
142.789
105.942
150.373
121.284
118.441
145.875
104.773
152.799
149.929
141.385
124.840
147.631
143.837
116.218
141.813
133.463
112.277
107.118
144.043
145.815
151.967
119.579
137.656
102.579
148.521
144.353
104.908
107.880
136.969
123.423
130.713
133.831
103.686
103.699
111.044
152.873
148.743
120.649
129.201
143.084
120.200
124.050
152.030
124.046
136.683
109.128
113.210
130.067
110.036
146.645
120.693
114.533
115.614
116.214
144.108
133.612
113.983
140.138
108.473
119.346
122.777
119.661
144.279
136.910
124.479
103.272
117.545
122.644
131.632
115.626
151.685
116.659
139.761
149.224
147.230
129.636
136.710
140.567
145.294
119.501
133.264
130.432
106.501
116.708
137.769
150.833
134.282
117.250
102.192
124.325
139.212
109.125
118.885
107.576
125.832
120.715
141.498
135.271
139.938
118.019
143.387
105.162
104.045
130.545
129.522
124.964
146.882
105.838
143.336
148.531
149.288
118.169
152.593
112.198
151.157
101.807
135.555
141.984
113.239
125.294
109.848
137.396
132.976
115.214
132.903
145.888
150.107
124.281
125.191
103.421
139.047
139.599
135.543
108.331
123.560
149.036
103.617
109.807
114.516
119.902
151.396
118.961
116.767
140.131
102.623
152.452
146.898
147.328
141.125
120.121
102.290
107.275
106.091
102.012
122.751
142.460
102.560
123.588
121.439
134.787
117.820
143.755
143.473
131.149
140.520
148.528
135.941
131.798
141.862
139.347
146.330
110.587
152.390
105.768
118.457
108.095
139.049
140.557
105.797
145.337
131.246
148.918
114.546
117.829
124.888
128.341
119.184
126.486
112.710
103.417
105.863
117.067
107.713
110.793
134.404
102.675
124.788
126.407
113.191
137.984
118.868
130.496
149.867
132.858
129.343
125.129
143.398
117.436
144.340
149.878
125.762
128.298
147.843
144.533
138.998
141.059
143.970
147.541
143.834
120.364
147.969
133.076
129.139
124.743
117.774
115.741
144.474
140.139
107.069
151.220
126.930
106.198
124.442
121.994
132.165
145.745
136.695
117.571
127.284
127.619
111.654
126.625
111.601
114.844
136.108
142.660
137.669
104.355
125.620
131.924
145.691
113.766
106.485
119.980
135.568
113.513
120.616
146.290
116.231
112.194
110.274
116.270
134.237
151.053
126.487
136.752
126.288
103.084
131.198
109.827
111.257
103.911
123.239
151.262
138.727
116.100
117.102
119.730
135.908
110.120
104.267
141.678
139.468
150.835
131.973
106.612
110.363
141.124
127.447
134.881
140.044
136.826
141.479
112.385
110.867
142.896
124.368
143.592
142.103
130.836
105.444
131.089
111.683
131.345
110.871
114.583
121.840
131.428
129.184
140.964
110.709
136.904
122.644
144.750
103.819
151.842
141.958
104.457
132.534
142.166
131.798
110.977
136.011
150.501
105.628
111.733
123.745
103.566
127.345
150.318
129.472
132.586
139.949
136.298
125.334
102.471
126.012
142.106
103.558
120.579
150.868
138.001
122.238
108.801
108.632
107.323
135.765
102.893
150.315
138.503
104.273
118.683
121.109
136.681
148.330
135.100
134.130
126.583
108.421
110.473
123.200
106.707
139.093
122.921
144.619
145.377
102.461
118.438
140.084
109.478
134.985
142.019
115.440
131.546
149.360
138.361
149.168
145.560
117.490
114.469
146.728
144.028
134.574
129.817
118.637
145.701
127.841
135.675
121.381
103.002
123.706
112.250
118.431
112.631
118.414
120.123
117.372
149.285
122.046
138.847
126.419
144.360
107.943
150.472
131.680
135.814
113.242
116.098
106.449
135.712
143.453
143.644
131.805
139.059
147.044
143.271
137.942
108.763
111.617
138.426
141.126
125.150
101.415
145.193
118.873
131.012
145.114
112.757
136.738
111.110
116.899
138.775
137.390
111.892
152.906
138.203
102.895
123.150
102.065
146.255
145.461
114.942
127.954
150.467
115.115
107.770
123.553
109.258
109.435
139.866
123.849
113.974
102.216
147.572
107.270
112.799
129.430
148.525
125.282
149.974
107.045
102.229
110.165
139.186
121.186
125.297
108.942
105.930
135.100
136.418
127.830
130.287
126.970
112.565
130.796
112.754
149.195
140.071
114.270
99.020
102.843
117.489
120.168
130.076
145.102
140.263
111.430
109.134
127.831
110.831
145.242
118.639
132.155
134.448
97.501
123.859
138.104
105.055
110.258
120.371
142.008
116.676
100.200
114.829
145.888
122.840
132.182
110.890
127.619
96.063
146.163
101.279
131.467
97.163
121.221
133.730
123.955
96.814
107.262
146.342
115.284
138.756
95.367
107.537
111.513
103.190
120.001
110.367
106.386
127.237
119.352
98.036
103.418
119.877
106.823
145.303
113.926
139.164
98.882
104.390
110.123
145.330
107.338
110.789
125.098
130.441
113.001
143.208
103.940
144.844
134.063
120.655
140.171
123.953
145.884
133.550
134.645
124.335
140.276
144.491
108.970
106.040
116.005
133.351
138.190
124.944
127.385
137.376
112.624
109.705
145.986
110.819
139.632
95.184
113.126
140.721
109.612
135.105
107.211
104.989
96.282
104.648
115.913
131.126
135.465
129.237
135.392
108.504
131.706
124.237
139.088
129.996
100.167
107.579
144.179
107.281
141.520
145.389
113.231
100.619
110.684
101.094
97.045
131.416
129.130
135.079
104.363
94.911
141.157
112.214
95.536
100.901
144.549
124.492
111.638
130.782
132.427
145.693
99.215
97.490
106.803
124.247
95.502
108.672
143.536
111.973
136.961
121.872
104.901
114.924
96.825
133.462
101.577
116.151
108.441
120.376
116.345
143.491
133.912
129.441
94.861
135.574
111.372
121.575
97.044
133.033
137.914
129.266
122.629
119.740
142.679
133.212
143.046
109.024
119.300
112.034
136.321
142.796
143.938
140.306
97.315
102.700
135.013
145.958
139.519
111.216
113.975
135.009
110.663
119.352
133.550
138.236
144.331
114.845
98.874
95.668
139.241
143.840
100.286
115.352
118.141
98.969
94.890
108.670
104.536
103.049
145.992
103.505
134.858
108.378
103.527
137.903
142.479
107.339
118.865
126.580
111.556
133.067
110.373
107.362
102.114
136.084
142.767
144.161
97.827
107.311
96.143
119.974
115.286
136.760
136.348
108.619
142.943
106.501
137.482
121.163
142.424
113.459
94.990
113.216
104.852
120.418
146.590
111.727
141.778
142.879
145.094
119.501
126.768
116.060
121.618
142.870
132.302
119.920
110.374
138.112
115.540
103.044
99.449
97.953
105.301
115.968
129.597
123.963
114.246
133.299
132.197
135.318
115.184
130.628
102.127
103.048
100.626
129.328
129.171
105.951
144.041
143.112
129.194
121.871
99.701
115.090
101.180
146.744
145.142
121.735
109.237
136.984
112.746
96.348
96.360
105.869
114.782
96.139
139.938
117.691
137.160
132.619
140.650
124.218
130.860
123.940
121.055
138.838
140.448
102.446
129.572
97.122
100.783
96.194
128.212
104.574
98.468
108.343
131.853
100.721
108.927
121.090
96.045
129.150
109.255
116.849
123.159
134.518
138.470
127.532
107.387
100.752
96.927
116.885
112.268
121.020
117.296
106.061
129.005
132.263
113.728
131.818
143.121
134.066
131.416
133.954
125.910
129.901
145.550
136.298
118.602
128.524
97.808
138.291
95.870
98.984
128.195
113.921
115.841
111.962
117.860
105.255
114.461
140.718
146.207
120.510
103.598
96.325
127.833
133.821
136.383
114.941
133.215
119.612
117.006
112.331
142.198
117.972
108.111
108.266
100.272
138.163
112.529
145.155
32.289
36.528
34.874
36.950
40.477
33.490
37.673
36.622
29.709
31.793
32.770
39.363
31.226
42.800
32.124
39.587
34.077
40.920
37.095
360.893
362.333
356.903
365.636
360.841
386.319
368.787
379.309
370.862
394.546
397.875
403.332
405.919
399.571
404.673
406.171
389.441
389.039
401.698
400.357
409.854
416.571
415.977
425.257
430.077
414.960
429.119
415.601
424.439
416.562
437.874
445.355
426.936
431.008
444.175
453.055
434.386
444.093
437.075
447.542
463.203
464.843
467.348
469.562
472.468
461.803
472.096
477.534
474.232
484.789
488.837
473.458
484.906
483.363
471.778
480.652
499.877
479.564
480.679
495.508
501.025
491.079
514.883
508.446
514.976
500.460
518.701
511.216
514.491
507.693
506.702
517.885
528.481
515.215
524.370
523.820
544.931
535.163
527.924
535.181
526.687
544.660
556.078
552.495
541.992
565.338
555.089
555.813
559.166
561.927
553.460
577.628
562.793
573.202
582.881
567.357
581.813
585.785
573.359
573.120
329.338
332.336
320.577
333.236
327.153
335.968
336.751
330.800
330.555
332.804
344.288
338.969
343.944
333.197
339.189
335.402
346.038
344.038
350.510
341.928
343.103
347.024
343.367
349.739
355.052
349.607
359.238
361.006
352.892
366.402
366.433
366.217
370.768
357.480
373.633
371.213
370.179
367.120
366.571
379.255
366.253
378.733
382.153
383.208
370.517
383.202
373.945
374.999
389.065
383.203
380.709
385.009
393.152
387.389
395.558
391.410
400.250
398.742
387.523
396.642
392.563
394.193
406.817
394.258
400.883
396.263
397.746
407.234
411.143
408.071
406.648
407.578
412.484
417.564
419.120
422.744
421.986
423.188
416.016
416.681
423.022
426.933
421.057
419.893
419.364
426.367
422.558
423.098
430.962
429.075
441.467
428.090
443.333
441.160
446.340
446.048
439.299
434.178
436.376
439.753
440.516
453.756
445.860
447.747
449.764
451.874
457.085
451.668
453.428
453.828
461.289
463.524
464.113
461.070
459.874
453.648
453.967
467.926
470.360
463.874
470.108
468.007
469.093
464.263
476.873
474.485
472.491
465.457
473.345
473.408
477.066
472.483
482.833
473.884
484.275
481.281
473.679
483.493
487.080
483.290
478.280
484.259
480.476
491.427
495.300
496.690
493.697
495.863
486.756
496.742
489.493
495.019
493.404
493.954
494.022
506.182
500.538
506.708
507.250
505.429
501.253
509.578
501.062
509.200
504.004
509.595
507.237
514.073
514.348
519.466
506.371
507.958
515.305
513.606
523.384
515.676
514.610
524.797
518.066
530.149
521.920
525.729
520.013
533.266
534.595
520.945
526.722
528.788
525.231
526.533
532.837
536.258
539.394
538.482
537.329
542.202
535.566
542.597
534.548
548.134
537.505
547.105
549.841
544.727
547.390
549.616
555.571
543.685
555.855
558.315
554.846
547.088
558.673
563.587
555.022
557.956
555.572
567.582
561.432
569.263
564.888
568.826
558.969
572.073
570.025
562.827
564.455
562.421
576.716
574.923
570.242
566.431
570.955
570.747
578.793
571.171
581.442
575.025
578.533
573.733
579.045
587.522
585.088
582.231
579.356
588.373
582.110
587.705
596.433
595.427
589.403
601.123
587.200
587.373
599.179
592.547
603.624
592.260
602.666
599.992
597.866
608.412
598.891
606.848
601.972
601.488
613.034
611.267
608.730
605.517
604.014
611.913
606.848
615.228
609.427
617.408
622.718
616.822
626.542
622.530
618.230
627.491
617.869
617.683
626.112
622.535
627.089
629.382
621.542
623.163
626.102
633.652
632.049
640.769
628.208
629.855
633.996
639.958
635.389
637.063
644.986
645.186
640.632
646.621
640.908
638.294
646.746
647.095
651.350
649.846
647.334
658.254
653.060
645.723
655.554
653.274
650.355
651.762
653.584
654.997
653.966
662.706
653.601
660.047
668.675
669.968
664.934
660.029
664.946
658.726
672.633
663.496
669.113
670.615
668.408
666.213
664.437
666.380
670.728
679.180
677.595
680.087
681.076
676.023
671.543
677.724
677.071
686.351
682.130
675.691
677.046
679.596
685.876
690.625
693.670
688.143
689.555
684.219
694.142
686.572
699.215
693.416
700.829
698.549
702.376
698.821
690.278
693.671
701.302
693.578
703.934
701.684
693.922
695.919
706.974
701.022
705.381
706.686
700.139
702.971
711.060
712.125
715.827
717.839
704.310
718.856
707.519
722.238
720.969
716.622
715.577
710.219
716.040
723.810
716.374
715.221
720.279
722.569
730.033
720.538
720.997
732.041
731.480
732.729
734.891
729.242
726.638
732.213
735.423
729.640
729.836
735.105
736.387
729.495
744.835
743.479
736.049
742.826
746.490
735.415
746.107
736.735
742.078
751.777
748.123
738.679
751.655
745.129
750.988
744.316
754.051
752.682
751.052
754.939
759.324
757.335
755.764
754.236
759.366
764.249
752.737
765.815
756.650
760.731
770.121
756.844
760.929
765.848
765.943
768.955
761.053
765.619
765.646
773.883
769.794
775.900
767.628
779.242
775.310
780.832
780.822
779.824
776.736
775.157
785.680
774.818
782.355
778.527
774.661
776.797
789.835
780.535
789.953
789.064
787.445
781.685
787.904
785.748
795.511
790.277
795.660
800.621
790.702
796.211
797.125
796.491
794.752
793.323
805.533
796.115
796.958
796.646
794.984
799.507
801.442
806.476
813.505
811.427
803.707
814.439
804.304
806.425
813.515
817.003
818.022
811.582
807.888
810.976
815.201
818.310
807.458
807.209
805.381
813.563
811.411
811.623
809.320
807.413
812.375
810.290
808.662
816.314
815.489
809.685
818.038
808.603
818.951
815.281
814.405
821.816
815.841
817.112
815.359
817.131
811.581
822.634
810.010
824.938
823.338
820.480
821.386
812.183
811.171
817.105
815.919
825.124
813.726
823.901
827.200
825.568
821.033
815.401
812.958
825.193
825.991
821.094
827.111
822.851
828.944
824.048
822.303
825.993
816.982
819.354
818.994
818.933
827.466
826.039
819.291
829.572
821.230
816.522
819.102
827.522
819.814
820.374
818.254
822.395
828.904
827.736
833.124
833.996
818.412
827.656
832.106
822.989
826.901
823.567
825.674
825.407
835.029
823.964
826.673
835.474
828.990
826.189
828.363
826.597
832.467
824.566
836.668
831.490
827.411
833.641
829.021
837.547
826.601
836.653
824.547
829.308
836.694
833.322
826.661
827.165
826.096
837.576
835.482
830.574
837.800
841.783
833.950
831.059
835.481
839.830
837.642
836.422
828.528
836.975
838.412
830.738
843.484
830.473
839.438
838.018
843.592
836.734
829.484
844.673
843.379
841.921
833.051
844.156
846.088
836.478
838.641
834.092
836.288
836.961
835.338
833.302
845.390
837.885
842.169
840.429
838.628
836.723
844.677
835.879
838.010
848.862
842.799
848.968
848.652
835.807
837.248
836.175
844.700
846.232
845.347
849.710
841.975
842.997
838.264
845.451
844.669
838.379
851.845
847.192
839.879
851.275
852.720
842.468
853.696
841.265
851.699
851.426
854.063
842.111
845.067
841.904
852.074
842.825
849.564
845.369
852.200
842.396
850.600
854.205
854.029
842.636
853.175
842.813
849.832
856.366
850.054
843.635
846.020
843.263
852.703
849.929
838.411
844.685
845.398
850.650
841.825
843.025
846.991
848.248
832.147
844.609
837.917
832.492
830.799
836.185
838.297
838.040
834.243
842.353
836.621
840.519
840.357
833.978
828.951
836.630
826.002
826.815
828.413
824.571
836.479
823.877
826.729
823.626
821.694
826.448
818.658
821.232
817.230
825.782
819.449
818.174
828.476
820.588
815.741
815.893
818.163
819.742
820.043
812.656
810.063
814.506
810.777
809.521
821.706
817.742
811.286
813.215
809.828
818.522
808.425
808.470
808.592
814.328
811.380
815.679
801.588
799.836
800.036
804.309
802.572
798.360
804.071
797.139
798.002
795.061
796.460
800.665
807.408
802.483
792.125
793.407
792.567
800.762
789.473
791.144
789.664
796.328
788.898
790.607
790.561
798.191
790.018
800.183
784.652
793.227
783.655
783.159
791.972
792.624
795.135
783.155
780.868
788.465
783.550
786.237
786.606
779.546
780.880
784.774
779.273
789.479
777.661
779.198
783.026
772.420
776.443
779.127
783.917
772.804
771.960
779.919
781.347
782.245
771.707
769.935
767.779
772.118
774.277
771.871
764.061
772.845
771.123
773.708
768.504
761.104
766.979
765.664
772.386
757.881
760.263
761.251
762.581
760.645
769.677
769.878
768.462
761.102
763.078
762.980
756.372
752.608
755.883
765.094
763.361
750.498
753.013
752.916
753.811
746.332
749.062
746.192
753.335
753.869
749.185
754.928
745.042
741.814
746.163
743.267
750.378
755.084
744.470
752.664
751.770
745.959
745.508
750.616
745.983
744.819
748.798
743.040
742.435
738.751
742.216
740.308
740.046
736.871
743.438
738.579
733.997
727.707
741.367
741.413
735.815
730.418
734.892
740.469
748.208
740.111
741.704
746.012
