118.852
119.192
120.349
100.039
125.909
109.479
111.834
121.371
96.843
111.525
109.839
124.582
112.556
92.931
103.306
117.322
91.794
87.685
124.077
95.606
89.307
122.760
104.254
105.466
118.946
98.089
107.709
111.250
89.083
95.313
118.042
98.439
98.027
91.949
101.170
102.998
108.322
88.280
95.357
94.787
96.845
94.606
127.701
108.571
126.137
124.722
105.975
103.817
119.389
109.294
126.734
126.204
110.634
94.414
92.419
95.873
111.469
128.600
109.873
114.630
96.937
117.346
87.756
100.715
129.374
111.116
111.502
121.101
93.207
127.266
96.857
86.264
110.007
89.127
101.736
102.083
121.810
128.442
109.289
93.116
125.803
101.187
86.457
107.385
120.776
121.690
127.672
123.811
103.452
112.025
128.747
127.107
109.472
110.236
112.974
93.191
119.705
93.510
123.538
90.796
110.192
105.282
87.156
84.570
86.614
95.920
94.016
117.720
124.022
111.913
119.477
99.851
112.532
87.807
96.358
123.385
105.505
88.958
116.231
103.768
85.937
118.670
117.209
111.341
98.117
106.507
91.495
125.460
103.139
113.990
118.737
89.951
124.218
126.561
118.880
108.147
84.466
98.212
101.652
104.690
96.903
126.876
97.453
111.527
127.963
93.292
87.341
90.329
85.795
115.948
89.716
109.434
103.732
93.656
129.525
85.016
120.478
111.723
98.468
96.674
121.729
114.185
85.228
121.693
96.872
99.005
94.912
129.094
90.090
84.626
121.542
111.489
122.286
121.817
107.481
126.850
101.591
105.363
118.750
122.830
123.656
99.956
122.857
126.570
88.422
106.531
121.331
94.904
95.356
118.447
89.437
97.129
106.686
99.454
123.638
119.924
126.217
118.730
125.781
108.732
123.018
108.055
105.891
125.919
88.721
107.109
85.926
95.040
120.084
110.339
110.386
88.513
97.639
105.823
87.893
114.161
114.696
103.477
95.728
122.649
112.445
116.655
118.006
120.286
104.235
100.471
118.157
120.314
117.274
99.066
96.437
101.636
93.376
101.216
121.180
84.226
122.105
116.701
114.638
105.714
98.854
90.161
88.749
87.253
108.243
129.284
127.714
106.368
105.965
120.752
103.212
107.735
116.268
116.073
101.949
108.519
119.437
123.869
113.005
124.194
101.059
96.399
108.295
86.448
91.969
115.635
115.547
124.682
85.865
104.152
129.574
123.665
113.590
89.911
126.697
113.820
123.353
90.051
101.813
118.710
86.813
104.345
84.021
127.482
126.162
88.547
95.061
105.621
100.691
94.931
84.242
97.510
94.870
126.170
124.583
120.221
102.253
101.017
95.781
100.167
122.403
102.843
108.304
129.834
92.076
88.197
119.265
117.058
93.308
127.982
92.595
105.967
102.563
105.528
116.435
119.216
108.424
113.768
105.071
109.524
128.229
127.813
125.116
107.699
120.321
105.512
93.765
125.464
128.255
99.264
94.920
123.620
107.103
94.028
85.085
117.014
100.111
102.901
85.422
117.121
95.395
129.464
112.012
124.648
106.818
98.954
94.004
127.616
98.285
87.501
113.646
129.349
103.714
94.163
87.712
104.986
106.676
123.022
107.146
102.331
85.041
102.729
108.449
95.832
116.383
107.106
85.395
94.373
103.754
91.000
125.548
85.023
92.115
87.428
118.055
84.619
103.031
114.045
125.432
101.304
94.971
84.308
119.661
101.788
126.670
121.970
103.685
124.451
115.809
101.596
103.555
125.685
110.956
107.908
129.255
125.658
126.606
99.972
109.587
112.176
90.338
108.949
106.605
116.632
96.269
94.533
90.278
102.636
117.060
88.695
124.815
84.928
84.421
101.136
124.071
88.323
101.198
91.399
114.228
105.919
98.101
95.419
110.099
105.499
93.887
109.821
108.720
100.639
97.837
96.036
118.722
114.900
90.660
120.714
94.135
98.951
106.335
123.080
92.220
110.985
107.696
121.477
85.696
116.047
118.550
108.823
113.856
126.362
125.965
96.715
103.346
114.157
87.148
118.338
93.032
125.980
114.734
99.186
122.001
88.101
107.926
103.563
94.936
111.249
87.871
127.825
95.425
100.409
112.377
127.387
92.454
91.684
107.924
112.898
129.167
98.486
103.812
111.354
104.500
90.310
93.176
85.470
87.157
124.349
88.122
119.837
102.357
85.397
105.137
122.614
88.718
126.085
106.883
129.302
110.336
117.271
90.629
115.040
94.108
102.319
110.845
111.100
126.073
123.672
119.394
124.243
113.701
101.657
121.677
127.314
118.938
105.737
124.547
124.433
115.305
117.592
103.339
129.272
85.210
120.226
90.460
87.157
128.531
125.682
124.347
126.677
84.530
108.111
116.516
87.078
112.700
113.527
115.683
125.717
113.979
96.119
108.049
113.912
86.756
84.798
84.365
92.749
87.711
117.961
102.914
124.104
91.595
92.033
105.638
98.077
110.910
91.220
110.885
112.511
108.324
84.705
128.549
112.139
124.378
90.267
101.310
101.406
118.935
90.191
102.053
84.454
128.790
104.283
114.154
122.395
85.523
106.340
87.957
89.692
104.233
97.408
89.236
89.964
118.420
89.237
104.336
117.698
126.273
115.165
115.495
103.670
99.825
90.613
99.053
97.436
119.588
108.707
109.297
101.000
91.084
120.398
95.829
108.713
126.093
108.860
111.043
89.403
121.546
121.006
126.511
127.056
96.556
94.499
101.774
128.539
118.984
90.058
104.641
98.882
96.812
121.492
95.472
123.403
111.100
110.636
100.866
125.833
121.076
93.776
84.662
87.409
83.974
126.238
123.886
86.080
98.439
100.347
102.377
128.148
104.440
102.339
104.390
128.178
103.419
107.882
122.072
120.591
96.236
110.408
120.194
127.504
91.420
109.202
114.637
118.856
128.227
120.539
110.907
128.147
89.759
104.019
116.191
105.759
93.053
93.529
126.511
113.422
109.959
91.761
123.850
92.206
95.601
102.775
107.067
101.980
106.236
88.004
126.095
96.670
112.376
121.981
90.653
99.085
88.561
93.394
122.129
91.717
87.119
118.307
113.389
104.262
117.940
110.597
95.490
108.176
98.415
125.535
97.667
102.457
83.859
123.433
95.334
114.415
109.034
102.438
86.167
124.300
115.523
109.611
96.990
98.241
92.830
85.505
111.797
101.091
111.117
85.336
83.992
110.258
127.579
110.343
95.856
87.234
123.580
91.741
110.430
104.444
107.815
109.710
95.387
101.124
90.099
124.415
100.549
106.457
102.703
102.124
121.530
119.451
90.649
89.915
96.741
128.367
110.711
115.691
94.092
116.339
106.283
89.254
95.794
101.908
105.745
88.048
88.633
113.835
126.613
93.212
92.827
88.072
106.718
100.913
87.271
86.160
84.570
86.173
123.634
114.818
92.802
84.650
111.098
109.413
90.588
116.699
117.163
89.664
95.722
109.973
121.732
86.855
101.932
86.515
103.794
104.764
92.785
87.730
105.161
95.647
98.449
120.842
125.809
96.593
124.590
84.408
113.983
108.013
88.038
100.619
128.767
124.421
106.160
126.389
111.598
92.246
104.380
123.899
112.045
105.957
101.870
105.034
126.806
101.753
107.869
93.285
87.868
119.456
125.770
109.605
116.760
86.642
95.825
96.945
115.114
111.401
113.385
120.472
109.421
108.772
96.009
115.819
98.419
115.915
96.481
98.163
127.799
101.623
111.419
98.591
99.427
86.229
92.025
114.386
94.137
95.294
97.050
90.993
117.658
115.367
114.412
91.830
85.947
84.982
96.667
104.747
110.884
125.585
120.768
129.071
113.489
97.939
92.840
88.907
128.533
86.685
94.596
100.999
94.339
128.988
112.377
102.462
120.904
86.458
105.938
128.161
124.115
100.546
113.280
101.443
87.799
91.594
90.683
105.088
95.865
124.302
118.844
88.019
103.897
87.972
122.449
125.913
120.339
124.292
106.643
98.587
116.711
104.204
129.521
124.559
118.616
111.746
98.228
126.694
122.536
101.895
103.100
91.922
94.148
97.339
85.650
105.447
127.465
115.861
102.483
94.143
126.007
113.930
89.619
126.087
93.891
101.437
118.675
109.611
93.633
88.780
116.324
108.306
118.922
128.202
93.521
96.902
116.384
105.930
84.366
126.264
109.067
119.094
107.234
94.350
105.519
90.744
91.247
86.270
86.727
116.234
84.221
102.830
104.875
122.585
118.286
104.811
116.602
104.718
107.741
128.506
1103.587
1079.648
1089.082
1108.944
1106.665
1096.674
1106.532
1105.325
1111.596
1097.875
1095.180
1115.850
1109.714
1115.137
1113.246
1101.883
1117.648
1111.622
1130.174
1131.297
1131.995
1109.715
1119.100
1137.679
1130.830
1126.496
1121.044
1124.818
1139.621
1125.619
1121.535
1122.811
1130.162
1145.846
1130.272
1151.835
1146.257
1159.105
1136.090
1160.767
1155.407
1156.887
1153.796
1156.393
1153.653
1163.497
1156.414
1154.376
1169.879
1170.724
1168.936
1165.620
1163.469
1157.178
1158.424
1168.014
1158.367
1183.027
1189.205
1170.168
1179.126
1193.691
1177.795
1178.276
1176.900
1173.173
1194.768
1196.838
1188.777
1193.929
1180.640
1205.254
1188.600
1211.837
1213.181
1197.922
1202.490
1205.265
1199.218
1194.234
1215.852
1218.655
1224.108
1200.409
1212.585
1212.514
1213.095
1222.935
1211.351
1216.698
1233.148
1231.051
1221.385
1238.361
1224.169
1242.242
1242.818
1228.957
1233.447
1245.874
679.899
685.468
689.311
682.659
697.706
691.539
691.458
686.144
698.946
699.628
688.056
693.744
702.102
698.326
702.561
698.193
698.884
699.090
702.330
703.772
698.620
707.912
700.899
707.181
705.387
708.030
707.996
710.135
716.849
710.315
712.621
714.233
708.581
716.894
712.724
719.289
713.334
720.436
715.660
722.095
726.961
717.208
722.750
728.532
725.654
730.970
726.519
733.245
721.358
731.395
731.258
729.813
729.165
731.885
727.379
730.005
735.215
737.719
740.295
728.759
731.643
736.351
736.571
735.572
741.647
737.890
742.943
735.894
748.359
745.227
750.681
748.708
744.114
751.284
740.908
749.067
751.796
757.594
752.014
744.665
755.782
751.936
747.861
759.061
757.962
753.043
759.888
753.681
759.154
767.393
766.862
766.363
755.502
764.600
769.517
758.606
757.609
769.606
774.532
773.927
761.797
760.434
775.796
772.212
766.377
767.033
760.609
771.966
767.822
774.761
764.627
774.856
772.814
761.353
772.870
760.769
762.623
770.227
761.256
764.176
772.095
775.315
775.512
769.130
761.245
769.660
775.040
770.348
763.712
776.465
770.367
768.806
769.110
771.502
772.748
764.161
775.112
763.199
767.264
765.440
773.248
769.623
771.100
772.461
775.448
764.010
767.416
773.181
767.022
773.396
772.332
770.636
774.755
761.148
764.712
773.894
762.715
768.193
762.739
769.299
766.856
768.838
775.904
763.312
768.399
775.842
761.759
766.031
774.931
772.535
776.031
765.823
762.513
766.787
775.946
772.180
773.943
762.391
763.098
765.440
774.204
763.962
776.501
770.725
764.012
765.077
774.075
776.733
761.387
772.907
764.231
767.893
763.658
766.230
766.936
772.023
768.613
771.484
766.709
762.365
771.031
776.911
767.554
765.506
769.685
766.581
776.556
776.945
773.775
770.368
763.832
762.923
768.135
768.476
764.383
773.839
764.958
777.061
773.535
772.976
769.829
776.876
770.317
774.211
772.069
773.676
775.774
776.224
764.148
762.820
765.614
775.048
766.466
761.760
762.643
770.608
777.226
766.027
777.562
772.714
774.362
763.695
772.742
767.031
766.650
770.525
766.032
770.163
771.864
768.463
775.429
775.080
771.646
771.578
766.759
769.850
768.231
767.695
775.137
777.135
764.434
766.432
776.172
766.276
768.784
765.790
767.503
775.303
772.972
771.967
772.785
776.004
776.523
762.689
766.815
769.515
767.075
762.079
774.597
768.158
770.848
767.127
766.673
765.532
766.205
777.894
772.429
770.452
764.072
770.937
777.644
766.024
766.311
770.534
765.434
776.946
768.368
774.135
764.551
776.705
765.448
777.090
771.026
773.966
778.644
765.521
773.840
775.070
769.786
777.123
773.062
777.573
775.992
772.721
785.899
774.122
778.214
782.593
779.484
786.582
778.285
788.840
786.627
781.060
788.871
784.916
787.169
785.222
779.625
779.460
792.794
785.987
794.916
784.497
797.414
786.905
788.930
790.645
785.733
787.182
787.200
799.722
789.225
796.684
802.680
803.407
800.539
795.099
799.661
803.753
794.264
800.844
800.753
798.026
798.605
804.823
805.449
802.234
811.942
798.280
801.782
801.697
812.635
804.098
813.828
806.339
813.440
816.019
812.817
816.632
803.863
805.476
810.152
819.592
819.211
807.545
811.408
810.501
816.373
816.045
810.388
813.894
825.350
813.450
823.572
826.437
813.729
816.434
822.572
819.708
819.508
820.860
826.930
829.606
821.826
819.476
831.031
819.740
822.710
822.646
824.240
823.854
830.864
826.221
835.483
829.376
833.807
830.136
826.179
831.175
828.598
842.244
833.256
828.765
838.677
841.640
842.384
835.283
845.883
847.380
835.168
840.707
834.874
836.079
837.306
850.434
846.986
849.188
849.492
846.514
850.749
852.649
842.346
848.801
850.974
842.763
847.552
845.452
848.210
853.464
857.438
857.567
848.320
859.313
852.558
848.300
858.089
864.364
850.249
859.497
861.116
852.790
855.493
865.793
862.495
863.178
857.917
854.435
861.447
865.931
864.777
865.254
863.275
865.030
860.018
871.293
866.890
875.439
865.249
863.105
870.865
867.754
871.173
878.885
865.508
875.090
872.422
881.029
874.656
873.045
879.631
877.100
871.714
885.004
875.923
877.436
875.386
874.323
881.617
878.230
873.802
877.048
888.030
890.413
889.449
886.886
886.399
888.634
888.594
887.597
881.379
882.970
890.164
893.062
882.787
885.172
884.783
889.758
889.193
894.180
882.624
893.578
894.573
895.673
894.696
884.770
887.000
882.752
885.165
895.741
890.447
888.409
892.447
881.680
889.785
894.423
890.619
882.388
881.628
880.887
895.761
882.682
882.308
893.783
885.233
882.876
889.821
892.031
883.162
883.008
894.568
886.132
888.598
886.019
881.921
882.071
890.026
889.609
887.387
886.614
891.631
895.470
883.561
889.646
889.599
889.728
884.048
893.429
882.246
884.562
893.329
892.126
884.222
889.444
891.018
884.054
880.936
889.676
884.907
889.613
885.838
884.047
886.570
893.517
882.599
891.471
895.856
893.486
882.952
896.381
892.830
892.721
891.804
894.405
894.939
885.090
886.401
890.993
894.625
887.434
892.643
892.453
888.302
882.272
891.814
883.977
886.653
889.992
885.188
889.008
885.983
883.306
886.037
885.694
886.175
893.507
895.625
894.740
895.546
895.294
891.693
888.256
897.145
895.216
883.869
881.865
897.564
891.785
891.373
883.979
893.768
887.837
891.306
895.584
889.420
885.162
897.572
897.628
882.448
895.782
882.939
887.353
893.504
883.596
892.844
885.227
886.148
892.900
887.082
884.016
891.542
887.356
894.799
885.662
894.860
896.329
897.169
886.219
884.785
882.578
891.637
885.751
890.406
895.962
897.372
891.251
889.183
886.791
883.333
889.033
889.931
891.368
897.007
892.419
897.992
889.112
893.729
898.173
896.769
892.207
898.549
886.280
892.265
895.026
898.147
883.964
888.999
884.616
893.005
887.846
886.486
890.657
886.601
883.561
891.320
885.232
892.590
898.210
892.254
895.229
889.037
892.258
893.812
889.075
899.052
897.634
894.547
891.380
893.359
890.802
888.034
888.935
887.599
896.418
895.412
895.068
885.814
885.725
891.640
899.046
899.314
897.672
899.207
897.406
887.719
887.951
897.630
891.207
894.638
885.114
887.205
890.079
885.906
887.624
892.362
898.803
893.865
886.672
884.757
894.955
892.884
887.058
886.891
893.385
894.122
894.532
886.099
887.845
898.792
889.282
883.242
889.814
890.498
897.542
883.696
889.192
894.941
892.841
886.168
890.946
891.374
896.553
883.323
885.989
884.597
886.963
890.616
896.430
897.776
891.845
895.931
884.449
893.054
894.024
891.767
885.414
885.284
887.299
898.511
885.137
887.881
897.214
889.499
889.385
883.322
888.021
889.630
896.752
888.696
898.186
892.486
890.428
888.700
889.779
896.559
897.062
887.068
898.596
897.105
893.896
896.767
886.034
887.385
893.286
894.874
887.589
894.512
888.301
891.100
890.936
893.713
896.416
898.217
892.211
888.501
888.041
894.104
892.338
894.331
882.769
897.691
886.313
885.313
896.616
898.338
893.802
890.218
896.556
891.943
884.877
888.013
894.084
886.347
893.095
887.424
893.056
882.925
898.081
892.138
896.492
892.087
891.534
882.360
889.467
891.833
887.682
884.100
893.058
884.191
893.004
891.213
888.298
896.931
883.806
896.349
888.745
886.299
892.566
893.372
892.383
896.482
892.101
883.241
890.357
896.249
892.501
887.685
883.769
886.617
894.911
890.528
888.131
890.834
882.862
889.407
883.630
894.515
889.969
883.022
891.044
888.018
882.918
886.950
891.804
892.383
897.416
891.948
894.133
882.373
894.521
893.365
885.819
892.576
895.969
883.635
885.691
882.989
895.730
882.622
896.182
886.676
894.017
885.168
888.871
884.901
893.489
884.747
890.815
892.835
885.344
894.676
887.452
883.632
885.793
894.904
897.040
886.794
888.334
883.957
899.698
889.644
890.140
890.783
891.292
893.931
890.740
901.925
901.195
902.379
899.224
889.459
893.767
899.678
889.743
890.296
899.890
890.946
892.551
894.395
901.006
905.617
896.191
894.624
892.889
899.402
891.408
895.784
891.989
892.757
893.613
897.425
904.642
897.848
897.408
899.489
894.584
909.183
897.006
909.198
910.716
899.257
910.159
