41.423
44.490
32.180
905.372
916.828
929.229
924.759
938.394
942.748
931.739
943.355
955.345
962.680
950.358
971.010
955.446
985.110
966.959
989.012
995.713
976.751
1000.090
1010.425
986.798
1016.441
1015.127
1001.819
1013.449
1031.529
1014.673
1043.617
1042.882
1027.744
1051.058
1036.000
1056.583
1055.862
1047.092
1074.461
1069.500
1077.468
1086.791
1086.246
1093.369
1075.086
1094.372
1093.222
1094.036
1106.567
1116.873
1102.092
1102.502
1112.456
1126.788
1117.075
1145.871
1149.624
1153.834
1157.091
1151.421
1157.754
1162.019
1159.760
1170.510
1181.080
1185.936
1190.365
1187.506
1180.069
1177.736
1184.764
1205.153
1212.907
1221.023
1218.812
1215.243
1233.008
1235.835
1229.872
1219.188
1232.650
1234.583
1242.390
1241.045
1256.731
1248.887
1264.337
1265.386
1263.260
1286.830
1275.984
1270.489
1293.637
1298.856
1292.035
1302.931
1315.478
1303.428
1318.131
1318.626
1307.190
1317.255
1314.833
743.612
739.024
744.723
742.667
752.706
757.465
748.940
752.926
757.201
759.329
764.552
766.488
765.771
768.986
778.527
780.905
777.976
775.633
782.117
787.553
777.379
781.874
796.612
785.396
789.162
796.616
796.833
803.048
802.992
800.661
805.761
813.369
806.126
815.637
824.057
814.566
819.723
826.468
825.587
830.393
833.266
835.444
834.886
832.036
837.151
836.513
841.167
849.958
842.797
854.403
853.746
861.355
850.259
853.208
869.796
856.998
864.768
875.787
877.500
879.239
872.259
885.367
881.489
878.426
888.930
885.654
886.863
891.111
901.645
901.678
897.258
899.303
911.254
913.461
905.466
913.799
914.506
918.292
925.021
922.918
921.179
916.838
933.571
922.815
925.229
929.986
940.853
941.733
935.175
943.773
946.685
950.708
946.495
944.042
952.122
956.816
964.656
958.143
959.253
967.230
969.864
960.932
966.813
967.873
961.247
967.429
952.236
964.156
964.026
947.266
947.072
959.531
952.224
947.738
945.512
951.410
943.369
937.012
945.133
943.816
932.601
937.784
937.243
930.748
928.356
927.619
923.157
931.345
919.475
928.728
928.659
929.053
918.115
911.865
914.776
918.196
908.618
906.927
912.997
913.532
907.913
909.914
912.789
912.415
900.452
901.832
906.630
893.223
891.634
901.579
901.822
890.854
890.797
896.545
886.060
889.862
884.240
890.784
878.893
876.711
875.392
883.961
872.786
880.973
873.448
871.170
873.130
872.062
868.341
871.676
868.693
862.707
855.628
867.108
863.501
855.616
857.335
847.884
851.719
846.605
843.084
843.394
850.651
846.582
850.191
836.622
842.592
835.872
835.406
833.807
830.977
834.447
833.016
824.104
827.937
830.834
825.189
827.967
823.719
820.564
828.665
822.338
820.168
809.618
812.651
814.777
814.518
807.919
809.843
800.555
809.018
800.931
808.772
804.804
797.881
805.014
797.981
791.409
794.363
797.276
784.390
797.920
782.842
791.002
785.385
784.055
787.889
779.820
777.094
785.915
777.782
779.537
777.630
771.485
769.856
769.559
776.284
765.216
764.239
756.698
762.204
753.203
765.552
751.685
756.070
750.520
757.481
756.083
756.938
744.993
752.674
750.232
747.157
738.527
744.038
737.015
734.090
737.335
738.792
733.828
735.623
736.269
734.356
721.754
720.005
723.373
718.062
715.623
715.836
724.021
714.822
714.751
713.515
721.597
717.066
714.594
708.636
705.434
704.211
712.533
705.898
707.597
703.527
697.505
690.148
703.299
699.879
700.581
693.656
691.434
683.986
691.513
693.805
690.199
687.574
686.817
685.018
681.473
681.105
681.771
677.508
671.113
674.572
681.599
677.804
674.192
674.639
685.718
686.576
675.123
682.227
685.950
677.501
677.976
693.130
687.429
681.381
688.531
685.144
693.204
695.715
695.891
699.337
697.843
695.298
695.597
694.156
697.738
703.525
704.705
704.874
696.228
697.604
702.119
708.141
697.616
701.883
705.275
702.998
705.421
702.403
707.511
704.682
713.541
708.567
711.379
709.112
708.015
717.707
708.321
714.503
710.957
719.060
722.510
710.946
712.895
725.455
726.072
720.169
721.362
716.808
724.955
728.052
732.310
733.340
731.742
731.201
725.703
732.261
733.280
733.233
732.584
726.631
727.469
741.340
738.630
743.343
738.095
739.597
743.066
731.508
736.712
737.246
734.573
748.013
750.930
737.268
739.395
741.961
741.378
740.419
747.002
753.840
744.599
748.111
744.713
744.901
760.975
761.317
749.551
758.281
761.954
762.456
760.317
759.053
760.813
764.673
765.261
764.318
760.852
767.608
771.542
765.532
773.275
760.187
766.158
767.021
770.879
763.228
768.911
763.885
768.730
781.324
773.492
782.482
771.789
782.479
779.693
784.344
780.517
785.709
773.126
778.921
781.767
787.299
777.744
785.739
780.076
788.182
786.653
793.768
791.906
797.290
793.581
794.059
796.532
798.532
790.100
797.846
802.246
789.119
796.742
792.185
802.224
793.063
800.335
794.952
802.385
799.344
802.726
809.906
806.216
812.025
814.474
811.975
810.196
815.003
808.296
810.832
816.465
814.353
811.443
810.742
811.694
810.038
820.782
820.475
814.587
811.667
824.723
820.478
823.954
830.155
829.035
817.782
818.127
830.968
831.792
819.147
834.165
831.177
827.964
831.634
829.691
839.076
837.079
834.201
830.267
843.036
840.851
838.681
840.491
833.368
836.741
845.820
834.491
844.284
846.311
840.304
833.626
833.573
844.467
837.560
849.765
846.610
846.550
840.670
851.558
841.880
850.596
840.792
839.082
852.084
851.859
846.015
843.430
844.145
845.541
855.478
850.064
850.070
857.832
845.926
855.205
850.327
854.353
845.350
849.833
851.920
850.725
846.681
850.408
851.532
857.949
852.530
859.893
853.919
853.195
857.602
855.070
854.619
859.777
853.551
853.231
861.138
856.096
857.928
853.890
863.086
867.546
856.842
855.215
866.208
859.153
864.391
857.727
870.965
872.104
872.072
858.466
869.988
873.099
872.983
871.285
869.164
873.923
864.528
873.618
873.973
874.270
874.723
873.670
868.817
865.769
866.983
876.694
880.272
869.115
880.532
874.097
868.477
870.329
869.319
877.758
883.120
876.979
871.044
874.723
882.989
880.058
874.396
873.536
880.564
885.650
874.553
880.011
884.644
878.357
879.370
879.387
876.642
879.038
888.174
881.022
886.445
885.000
892.496
889.642
884.894
890.157
887.799
896.761
883.223
884.541
896.790
886.060
897.398
895.849
899.041
889.970
894.507
897.476
889.451
894.970
897.532
893.945
901.492
891.933
890.354
897.321
902.147
894.866
896.015
899.955
904.089
898.696
894.203
904.434
897.938
893.324
896.782
894.600
902.222
909.534
910.913
910.107
897.212
905.738
908.491
906.502
904.100
901.226
899.427
913.503
909.354
904.214
902.501
903.129
910.474
909.720
902.266
915.365
907.333
913.391
916.606
909.709
919.803
917.785
909.175
914.661
920.075
911.506
911.115
921.913
919.576
921.391
922.139
912.942
921.375
916.868
911.343
915.291
916.472
924.033
922.011
924.147
924.598
923.909
918.653
924.667
919.279
930.227
927.220
930.955
932.257
918.380
929.654
926.869
921.368
935.075
929.523
935.872
925.661
926.525
937.168
929.759
927.700
936.687
943.356
940.269
929.666
945.200
945.246
934.823
941.484
935.708
933.730
941.328
940.059
945.610
943.520
947.654
941.173
951.400
940.555
953.950
946.505
951.590
942.078
956.092
942.928
944.915
945.425
948.447
956.753
952.797
947.756
950.148
952.668
959.310
953.825
963.961
953.465
964.148
959.094
957.146
967.133
966.758
968.835
965.139
960.025
962.832
973.521
973.145
966.341
965.592
972.250
966.534
977.601
968.992
967.668
965.018
979.886
970.703
968.010
975.144
974.817
983.974
970.361
983.911
973.632
983.282
988.356
979.052
975.609
975.200
985.392
986.499
979.349
992.692
986.137
994.137
992.227
990.848
983.396
996.708
997.847
984.326
984.938
996.390
995.298
996.864
996.599
989.560
997.792
990.951
992.501
998.251
1002.454
992.564
1001.440
1008.157
993.909
996.045
1003.608
1005.743
1002.331
1002.189
998.042
1012.067
1000.060
1003.095
1008.333
1008.229
1010.797
1017.135
1014.908
1018.034
1009.873
1017.497
1013.524
1007.591
1019.911
1014.958
1019.351
1015.202
1013.042
1011.540
1019.302
1021.851
1027.976
1029.656
1021.616
1016.185
1029.754
1030.339
1020.786
1025.269
1029.238
1019.723
1020.494
1035.153
1022.640
1034.037
1030.742
1029.714
1029.894
1037.438
1037.449
1027.995
1032.656
1039.987
1043.468
1038.162
1036.305
1044.342
1047.468
1043.294
1034.862
1034.173
1040.643
1039.736
1049.748
1047.631
1050.249
1053.482
1046.195
1048.790
1045.715
1042.856
1054.640
1052.252
1053.853
1045.336
1049.288
1054.155
1051.497
1054.249
1052.427
1051.005
1059.703
1060.292
1049.906
1054.473
1054.850
1066.225
1059.103
1056.083
1056.382
1060.667
1065.453
1064.638
1062.062
1055.392
1059.897
1060.109
1055.118
1048.649
1055.802
1052.504
1051.274
1046.629
1050.376
1039.531
1040.797
1043.162
1041.157
1035.697
1031.794
1041.630
1040.286
1030.551
1025.776
1030.323
1026.534
1025.855
1026.846
1015.828
1015.273
1025.885
1014.409
1018.253
1015.851
1021.686
1011.914
1011.635
1009.840
1006.683
1008.219
1010.628
1007.534
1009.232
1005.373
998.266
1003.327
988.197
997.758
988.266
993.536
986.044
995.951
989.840
990.726
976.269
985.944
981.979
986.717
976.159
972.973
970.376
966.783
964.782
963.743
968.041
969.493
957.859
971.497
957.831
953.443
961.891
958.032
954.313
952.524
955.632
954.557
942.863
941.935
955.083
947.722
950.463
944.480
946.871
943.500
940.139
930.579
943.091
940.239
929.098
934.553
930.129
930.905
921.378
918.892
927.534
923.940
917.823
914.405
920.153
916.035
916.263
912.318
915.829
907.312
913.395
914.164
913.273
901.808
900.204
905.260
903.128
899.989
901.360
894.545
900.905
896.055
888.838
895.380
886.716
887.614
877.377
880.350
889.066
873.360
873.510
874.820
882.511
868.100
866.187
867.265
875.596
873.806
871.679
872.792
857.130
867.293
853.491
863.672
858.135
857.846
850.623
856.935
849.467
850.729
840.896
853.392
841.426
838.802
836.351
843.139
837.038
845.127
837.828
827.721
834.749
826.117
825.616
832.735
826.826
821.346
818.181
828.488
818.900
813.986
810.344
813.440
811.841
812.853
813.166
813.416
807.074
813.203
809.455
797.573
800.762
806.686
794.185
791.437
790.753
792.618
786.978
794.444
797.272
791.530
785.105
789.629
782.285
783.235
783.507
784.311
774.047
773.737
768.359
772.176
778.414
768.995
764.335
775.700
768.965
761.282
762.869
764.330
765.686
759.834
755.734
755.271
762.248
757.975
751.327
763.770
761.230
751.603
759.038
755.904
759.001
747.384
745.657
751.712
753.137
743.210
741.403
750.063
750.600
747.818
739.723
741.110
737.474
751.254
741.988
744.991
742.819
746.124
746.411
747.830
744.682
731.830
739.517
737.668
736.843
741.253
736.666
738.099
738.605
731.214
740.198
727.265
729.655
725.452
727.114
727.281
733.244
735.426
722.058
730.399
728.664
722.013
730.794
727.795
719.327
726.732
721.592
719.902
725.735
712.396
710.983
718.653
724.912
720.526
713.546
717.150
712.747
706.121
708.566
714.504
704.693
715.941
703.100
717.317
704.117
703.380
699.939
711.554
707.010
713.466
711.234
703.283
705.692
695.105
703.862
694.381
701.677
702.978
695.541
694.539
692.079
690.934
695.301
700.548
701.034
700.087
696.731
692.455
688.855
688.674
683.188
686.229
691.431
690.079
693.299
686.161
687.102
679.257
690.865
683.506
685.949
689.255
682.283
683.672
689.192
674.459
681.672
685.553
671.903
680.798
669.334
677.426
677.040
681.264
681.176
667.850
672.191
677.436
670.984
667.601
677.244
662.068
661.110
665.019
661.517
666.072
672.900
664.059
659.662
661.112
670.565
656.151
661.313
662.288
655.425
665.219
660.872
657.597
656.131
649.098
653.683
654.683
658.385
646.859
656.448
654.107
650.806
646.425
644.701
654.948
650.352
641.922
645.102
652.701
649.721
640.867
638.040
652.211
645.405
644.005
641.994
637.642
641.911
644.951
643.179
635.052
645.975
632.346
630.326
640.063
628.007
638.742
630.236
639.477
624.675
634.088
636.633
630.012
629.118
633.099
624.587
630.879
627.417
631.931
630.447
623.938
622.276
616.076
626.928
627.077
627.519
621.910
636.675
637.194
639.061
637.142
637.615
641.149
628.797
631.671
637.902
642.229
632.995
642.102
639.425
642.604
649.463
644.709
653.002
643.167
645.411
654.711
648.465
656.727
650.037
646.612
654.773
661.000
653.995
662.681
663.781
664.987
667.616
669.464
667.175
670.222
667.707
672.745
667.992
668.867
674.271
667.425
679.849
675.272
678.131
670.962
676.573
686.019
687.277
677.075
674.561
675.738
683.487
692.892
678.372
684.973
692.446
683.459
684.218
696.121
694.496
697.682
692.636
691.632
689.923
702.534
692.261
693.826
695.496
698.194
707.407
697.915
708.939
699.159
704.683
703.944
711.759
704.069
710.987
719.208
716.298
709.232
720.639
709.898
722.990
716.630
723.346
716.708
715.535
725.475
718.663
719.275
724.174
734.699
734.923
731.632
730.450
725.771
735.328
740.017
742.736
736.525
743.766
738.340
743.194
748.047
744.505
749.777
747.918
741.840
742.398
747.757
752.259
743.128
746.532
748.194
758.180
755.851
749.322
764.107
756.946
763.438
762.565
765.940
765.384
770.058
769.436
771.613
770.743
760.878
764.963
774.098
777.388
770.020
780.086
778.032
772.508
783.512
771.249
773.627
777.119
778.960
788.640
787.697
789.521
793.425
781.929
788.739
786.340
784.780
795.660
784.403
798.098
798.628
795.590
801.448
795.363
799.017
798.509
802.884
808.325
795.304
811.459
811.865
813.510
809.617
808.029
810.156
811.027
809.540
816.817
821.482
819.738
817.904
822.051
814.282
823.917
819.980
817.827
816.681
829.407
825.356
820.494
834.566
826.427
836.308
829.146
830.317
840.715
826.464
828.793
834.089
840.784
839.360
837.113
840.521
847.087
835.826
845.169
842.518
852.087
851.847
840.672
852.323
853.246
850.543
855.848
857.548
846.446
853.655
861.252
850.720
857.628
853.317
866.964
853.565
861.241
856.752
867.346
862.290
868.010
863.819
865.282
867.274
871.906
872.782
879.321
875.619
874.105
874.092
879.938
885.667
882.009
882.981
882.347
889.347
883.658
890.866
881.179
885.848
892.858
885.330
892.831
891.013
893.677
900.083
886.965
899.908
899.285
899.555
903.847
898.292
903.528
896.535
908.885
901.140
904.671
911.008
913.127
903.592
902.980
915.380
914.815
903.688
906.735
914.418
919.371
916.360
915.846
922.881
919.968
914.848
919.060
926.374
917.443
917.446
922.150
922.884
930.420
932.335
937.346
923.754
938.258
939.074
936.863
933.901
941.001
940.015
944.000
934.860
938.875
945.802
938.325
937.592
947.352
943.100
940.767
941.738
947.058
954.164
953.319
946.805
948.635
958.201
959.026
957.723
950.979
963.814
963.054
967.261
963.325
954.250
955.976
956.363
970.233
962.636
971.268
975.108
966.362
970.717
975.270
974.776
972.176
971.019
978.392
970.150
970.027
984.973
983.586
982.539
983.985
990.485
975.991
991.944
991.943
990.103
980.131
984.072
986.735
999.105
992.124
998.679
995.453
1002.224
992.761
996.956
1004.039
999.579
1002.979
1006.600
1010.442
1004.910
1007.063
1008.340
1001.998
1010.886
1013.608
1006.759
1014.170
1019.896
1012.004
1006.828
1021.650
1011.539
1014.871
1010.379
1020.178
1022.324
1015.942
1015.556
1028.368
1026.769
1021.423
1024.054
1028.592
1026.897
1032.458
1037.840
1031.714
1029.523
1037.743
1028.806
1041.717
1029.667
1041.844
1039.673
1032.551
1043.195
1047.818
1044.891
1051.084
1050.279
1041.090
1052.506
1045.379
1057.414
1053.749
1048.142
1043.070
1047.049
1046.630
1041.509
1048.755
1041.897
1042.193
1047.419
1046.888
1042.032
1043.882
1047.520
1037.585
1035.384
1034.054
1043.040
1042.672
1025.992
1026.308
1036.841
1035.149
1037.582
1035.226
1030.993
1021.837
1029.789
1023.072
1030.518
1016.734
1014.635
1025.328
1018.690
1012.089
1016.513
1017.856
1013.493
1007.757
1018.682
1019.214
1012.280
1005.009
1010.311
1010.400
1011.380
1011.215
1004.614
1008.508
996.086
1006.643
998.965
1003.209
992.527
997.693
997.888
999.682
996.862
989.151
994.459
1000.061
989.082
998.945
991.950
988.809
991.613
983.781
981.483
992.299
978.742
977.799
984.336
988.879
987.024
972.029
977.172
979.307
968.968
975.377
967.732
965.764
964.555
977.524
968.853
973.215
966.336
964.046
970.509
967.235
967.805
965.605
955.947
960.171
956.010
962.643
953.643
957.228
962.847
959.583
950.312
955.919
952.712
950.997
944.977
942.768
945.862
953.339
951.851
937.706
944.894
942.091
941.088
939.215
944.530
933.764
931.340
940.627
939.545
937.441
933.332
929.507
928.675
936.310
938.114
931.983
926.840
919.444
924.456
926.537
918.552
927.738
914.417
922.459
925.229
918.327
915.945
913.396
911.533
918.118
916.615
920.025
911.016
918.394
917.005
905.583
903.887
899.427
902.879
900.806
908.677
904.915
905.267
896.588
901.597
896.518
905.820
899.889
898.618
900.252
890.209
895.167
884.821
895.652
890.193
893.310
894.315
888.310
880.938
886.933
885.456
881.536
881.772
873.737
876.452
872.603
873.278
882.280
876.007
868.053
872.432
879.448
874.696
878.544
863.529
867.773
873.175
860.553
869.990
864.406
858.974
866.384
854.759
863.839
860.082
858.269
851.574
862.758
862.566
