118.191
114.048
93.491
110.360
111.158
105.427
114.262
120.957
94.735
123.578
124.608
116.262
84.791
92.023
112.394
100.852
126.820
91.025
105.149
108.903
116.849
109.146
120.398
86.706
117.653
127.288
107.612
124.999
86.833
100.822
120.788
110.049
102.062
113.508
118.473
112.970
88.364
125.622
127.713
107.068
98.632
83.980
111.246
96.297
128.639
99.785
104.018
123.284
113.979
109.193
96.866
115.259
103.517
86.119
100.505
85.638
94.127
100.954
90.884
115.022
88.727
110.574
89.734
128.648
88.732
85.851
96.102
113.611
84.221
120.706
95.276
111.593
85.362
126.083
92.557
127.155
109.982
120.420
112.870
129.539
87.601
116.224
115.802
124.618
102.787
110.817
104.943
87.097
86.347
124.673
106.607
93.579
84.167
84.070
87.172
84.407
103.096
95.253
106.560
93.385
120.066
87.923
88.344
110.943
115.816
116.582
118.010
115.440
101.311
121.705
99.729
90.261
128.196
88.402
86.021
107.874
96.738
100.335
91.290
96.681
95.093
102.086
97.409
120.541
128.850
88.064
120.093
92.071
121.574
96.977
90.894
115.417
110.043
97.009
123.877
107.760
129.371
89.700
95.888
91.314
89.335
93.076
129.676
114.431
89.326
100.990
97.222
128.655
97.113
103.305
116.922
86.082
120.289
122.845
89.865
108.229
126.211
117.053
95.564
103.727
104.130
88.671
87.661
116.063
90.626
112.452
127.670
105.787
115.948
106.702
103.219
121.532
94.895
112.875
99.058
126.817
123.176
110.117
115.245
98.740
119.590
111.268
89.563
87.362
121.381
109.241
101.773
117.792
113.507
117.334
99.476
114.488
111.492
86.035
96.202
110.752
125.365
113.601
88.712
113.070
103.361
120.650
125.772
129.171
126.341
89.474
85.705
101.841
94.912
86.592
92.235
94.567
113.578
89.223
107.606
114.586
106.001
112.938
88.873
85.463
121.836
87.760
85.008
126.117
84.967
95.056
119.690
126.397
107.779
91.934
128.498
85.657
95.850
103.471
95.920
89.990
117.762
95.931
94.157
120.038
96.702
118.889
110.863
123.463
90.044
107.880
120.034
96.332
113.429
97.653
127.271
104.222
128.731
103.579
101.828
93.678
102.460
100.195
115.232
97.923
112.248
85.122
115.308
114.823
105.025
121.240
87.368
95.092
85.263
102.908
87.801
99.288
85.261
96.142
117.854
121.394
116.410
86.461
109.619
120.733
110.903
116.940
106.226
117.106
88.391
120.966
99.582
124.617
97.204
115.863
125.803
84.466
109.570
88.667
121.096
96.563
105.440
127.859
87.565
111.223
107.130
128.828
115.052
122.534
91.501
96.042
97.181
116.752
108.933
127.312
108.405
94.267
94.955
112.674
120.061
107.039
123.153
110.674
112.961
93.798
102.235
100.567
124.262
92.303
86.639
91.871
118.912
89.960
114.755
121.473
106.929
87.079
129.309
110.752
123.404
89.320
117.722
86.607
129.391
101.023
86.385
123.862
84.441
94.946
93.280
92.890
111.776
128.404
116.541
116.510
126.972
98.002
87.643
108.899
94.294
101.179
122.135
106.639
128.976
121.816
110.324
93.062
109.265
89.110
93.570
119.796
100.009
98.368
118.956
91.778
112.284
124.507
112.376
119.741
109.268
120.946
98.988
125.953
113.861
89.864
110.022
117.943
93.576
112.272
107.883
84.174
97.386
127.589
114.434
116.608
91.723
127.364
128.263
88.523
126.290
113.150
114.465
103.947
127.254
111.778
107.895
85.864
125.038
85.801
109.888
106.462
105.120
119.008
128.705
93.311
89.673
97.113
98.868
103.727
100.126
103.275
85.582
114.075
91.386
112.715
110.194
105.468
107.803
101.122
122.393
86.704
115.777
92.901
91.869
97.576
106.459
99.618
122.644
128.295
118.560
126.092
87.626
107.934
88.387
88.479
91.053
102.657
86.094
85.132
100.003
93.943
124.553
124.521
115.254
84.940
127.448
86.802
125.446
100.458
113.196
99.955
126.753
84.290
99.457
107.360
110.589
86.818
115.507
99.189
106.584
118.584
106.108
126.837
118.717
86.552
114.729
110.241
104.500
97.029
113.329
110.200
88.497
119.920
100.359
92.506
118.736
104.012
107.367
88.748
125.751
90.124
112.088
114.087
94.480
93.575
85.064
103.354
96.487
121.091
90.749
122.524
91.064
97.191
120.887
113.500
120.190
96.709
121.456
115.374
114.774
117.898
124.560
83.958
93.130
103.436
113.687
104.216
90.396
126.651
115.631
100.907
121.620
114.298
92.709
94.424
103.216
96.417
125.553
90.056
107.805
129.198
126.098
107.403
94.322
126.140
122.520
99.282
113.954
86.815
100.860
118.932
115.023
96.592
122.709
94.975
84.422
101.261
85.133
92.660
102.572
88.968
97.049
119.521
121.338
87.663
99.470
108.465
119.864
94.849
102.635
90.165
95.006
111.546
114.017
89.438
126.917
95.852
105.267
108.547
114.011
114.975
102.905
93.268
118.746
100.609
91.803
98.063
106.460
122.947
120.062
127.120
84.488
105.077
90.376
87.012
104.092
104.477
100.020
88.975
121.292
127.853
106.468
117.195
105.785
116.755
114.274
98.430
101.801
99.163
127.053
120.706
121.509
105.880
118.167
95.096
83.841
89.377
115.800
109.568
90.624
124.727
114.930
123.456
98.560
112.432
106.505
91.831
127.781
121.885
122.103
103.644
96.759
85.881
121.404
87.959
116.088
100.209
98.941
112.296
121.371
122.876
83.853
95.545
89.490
104.498
101.810
83.837
110.242
128.092
92.206
99.250
89.062
124.644
103.849
98.039
124.756
123.500
124.785
116.558
98.970
101.101
92.834
104.275
105.712
109.637
123.472
128.631
97.354
115.830
119.278
114.885
109.998
122.648
100.201
128.192
96.612
113.379
101.165
102.154
91.294
99.632
92.622
101.313
89.315
111.855
99.625
111.381
100.999
116.711
91.999
97.433
118.788
89.787
92.775
112.952
106.169
104.539
112.643
113.174
87.950
115.005
111.957
123.494
110.406
101.545
129.802
94.718
106.513
102.553
115.098
107.111
91.459
89.402
88.037
113.400
88.787
99.642
103.531
93.655
95.572
113.073
103.513
128.156
125.013
87.732
92.294
120.114
121.293
128.372
98.657
88.856
115.525
90.858
116.329
125.521
88.423
126.371
84.541
88.795
97.773
98.779
101.773
112.799
127.004
98.005
114.643
98.116
120.710
106.085
91.203
115.029
90.539
105.838
96.281
86.164
89.277
112.655
88.854
122.483
91.692
124.544
103.874
123.621
104.702
94.419
109.936
104.389
85.474
101.908
94.416
90.580
115.718
91.735
126.288
85.294
128.046
91.814
89.679
94.141
108.452
107.412
128.629
116.430
116.755
123.640
109.210
126.974
94.536
94.229
107.079
88.827
119.011
100.911
89.218
105.748
92.847
90.151
99.931
94.314
92.258
123.662
91.329
96.175
92.651
104.604
110.997
100.142
89.023
111.771
127.650
108.022
119.157
99.795
129.271
94.396
92.951
92.855
84.159
107.379
102.682
125.119
96.713
99.479
87.167
101.217
113.742
110.683
98.285
88.317
115.272
119.162
93.422
105.760
114.361
86.411
111.124
115.665
105.453
128.757
91.638
103.453
87.814
95.315
114.911
102.963
108.283
127.767
105.895
89.373
90.124
88.187
105.098
122.638
106.441
98.750
113.205
87.468
102.678
128.926
126.086
84.685
110.664
111.850
92.962
122.594
115.301
111.776
88.545
112.337
121.753
90.576
101.206
112.559
86.469
85.293
90.674
91.302
124.381
105.331
114.477
99.442
93.650
129.827
97.306
93.114
105.877
93.880
93.125
91.463
118.751
121.677
119.701
99.150
122.408
98.809
111.745
95.218
125.264
123.774
112.521
85.132
101.545
116.275
120.758
87.111
87.821
128.297
106.050
123.160
127.748
99.048
114.991
125.961
105.828
90.288
125.531
91.568
119.111
87.344
119.266
109.792
121.649
91.295
121.429
129.320
112.781
97.978
128.143
116.257
92.389
112.731
94.538
116.007
93.771
126.938
126.488
86.369
95.242
99.284
114.273
120.273
98.049
104.435
100.172
94.905
86.451
109.203
102.105
108.135
85.276
95.644
97.254
92.485
98.925
94.640
97.942
90.689
119.272
99.135
113.795
96.715
87.185
87.330
120.028
128.948
123.847
102.296
101.495
128.490
84.119
100.317
112.129
103.822
108.004
120.964
107.090
111.065
107.267
105.930
88.882
95.212
94.416
99.379
112.502
99.941
96.077
104.247
117.333
92.071
110.103
92.512
115.930
126.271
106.875
91.045
95.333
95.382
92.000
128.381
104.900
113.659
108.307
118.819
113.229
108.004
97.371
111.459
102.330
102.547
92.586
95.845
113.817
87.724
124.803
100.220
106.710
86.589
97.600
83.910
88.614
114.409
96.167
102.761
103.953
90.629
101.706
113.685
120.466
88.559
112.050
111.735
104.041
97.676
100.747
98.805
104.852
87.934
123.303
110.941
122.180
103.693
126.132
101.822
106.043
104.221
85.833
95.564
114.011
99.855
93.752
84.787
111.774
123.416
114.120
113.057
93.425
90.210
98.550
127.448
113.782
110.800
119.407
104.286
109.078
117.165
100.905
110.597
91.931
94.912
89.890
84.849
83.896
88.732
129.266
120.007
85.643
114.592
106.560
106.153
108.780
126.359
86.032
124.396
94.724
124.254
114.226
104.663
111.607
101.690
85.903
93.085
84.666
97.811
85.056
114.475
86.004
108.831
86.940
123.723
102.119
87.103
125.508
88.404
118.117
87.425
101.279
86.691
99.597
112.532
125.585
105.212
90.801
122.780
110.682
124.239
120.100
85.105
104.076
94.086
104.614
128.432
108.328
100.437
128.759
103.999
90.152
103.622
104.935
94.631
129.523
99.884
123.194
97.521
95.868
107.625
100.252
113.062
84.255
111.266
128.905
84.529
98.389
93.696
104.304
122.538
97.885
106.464
119.393
86.411
115.782
92.347
111.341
111.415
106.721
109.865
122.785
106.798
101.721
88.405
87.141
91.614
108.983
85.846
100.166
105.876
115.216
125.351
107.041
92.555
119.462
120.599
114.057
96.271
117.647
128.513
119.985
124.955
101.971
103.856
119.608
119.158
117.883
104.549
116.091
89.980
91.237
108.275
123.046
85.125
126.920
128.759
99.258
125.461
124.157
95.355
88.539
100.181
112.540
113.633
105.218
114.318
85.972
120.113
108.909
91.430
98.013
109.295
103.950
104.099
88.108
114.221
87.693
105.479
88.114
89.714
108.835
114.035
119.706
103.035
111.407
89.572
114.940
91.651
129.567
104.808
85.219
105.528
127.438
86.180
103.020
90.245
108.166
121.315
99.732
95.989
102.479
89.419
104.935
98.790
101.849
108.140
100.975
97.039
98.901
96.656
111.544
104.036
115.223
124.867
112.550
127.918
89.722
101.190
95.307
87.080
105.735
104.758
120.001
91.717
129.274
116.909
103.197
110.377
111.790
105.236
100.346
127.209
104.461
207.337
196.498
194.810
209.892
199.765
221.906
229.229
230.192
207.779
234.608
231.019
212.514
222.214
243.110
237.060
239.813
236.394
240.974
232.720
239.775
234.709
247.299
235.823
251.390
248.298
257.863
259.072
256.862
250.507
255.488
262.794
272.580
258.434
267.505
280.875
279.046
260.957
277.649
271.532
290.792
287.870
278.557
288.706
285.412
280.985
303.300
280.534
296.797
300.802
286.794
288.015
308.064
299.935
295.146
321.783
297.604
324.420
306.613
319.169
305.998
323.369
319.005
321.246
339.572
341.160
323.802
333.525
320.964
340.504
350.276
329.973
341.136
332.747
358.212
348.317
354.676
353.982
363.560
347.629
348.240
345.654
352.583
365.680
377.284
377.888
358.703
360.914
373.156
369.330
380.898
381.354
392.175
386.429
393.896
399.297
382.208
386.282
400.295
394.373
387.405
219.241
218.846
228.519
230.206
217.603
220.858
229.557
222.493
228.364
225.045
233.280
228.257
226.791
227.264
243.147
240.570
244.014
232.060
234.301
239.539
245.296
238.485
251.184
249.484
242.489
251.459
251.754
250.563
254.391
244.564
247.976
258.007
250.491
252.880
255.418
252.598
260.129
268.364
261.851
269.544
258.186
262.182
261.309
266.341
262.163
272.577
270.805
272.877
275.959
277.608
281.443
277.064
270.718
275.816
273.753
275.277
273.922
285.865
279.871
287.555
291.988
289.816
279.869
281.325
282.197
292.874
288.544
289.528
288.677
302.488
300.586
300.090
292.097
301.728
298.218
297.279
296.662
298.669
311.944
312.537
306.293
305.554
304.659
308.489
311.899
308.874
315.575
312.925
309.373
323.580
317.931
319.140
324.458
320.463
315.688
324.722
331.917
322.609
330.791
329.644
333.153
324.744
337.934
330.980
333.523
336.700
342.564
339.873
344.114
330.343
334.353
333.264
342.886
346.828
345.643
335.911
343.906
342.063
354.554
340.828
349.009
354.416
352.334
348.939
345.447
349.402
353.382
357.383
358.527
361.374
357.960
363.912
367.438
359.295
371.167
371.058
358.755
359.093
361.225
372.159
377.355
377.215
370.261
376.215
378.240
370.584
368.384
378.951
375.493
378.662
374.241
377.670
379.214
390.166
388.799
384.747
392.288
391.889
390.852
391.260
391.425
383.249
388.871
400.653
397.396
388.605
403.284
401.071
400.416
396.216
402.449
396.099
409.365
402.530
404.937
400.570
408.428
406.659
415.663
403.715
403.955
406.660
406.757
406.981
406.734
420.396
415.813
414.933
422.254
427.362
427.614
417.529
420.168
430.886
432.633
428.432
422.046
420.946
436.894
424.878
427.852
435.816
429.072
442.146
433.594
438.303
445.025
431.257
433.445
440.663
434.872
436.719
440.293
451.914
450.269
440.784
450.413
450.683
453.641
446.053
458.936
445.071
454.057
447.643
458.672
450.587
456.999
452.234
461.553
467.516
455.988
459.373
457.501
459.172
465.548
469.009
462.284
475.760
464.583
475.511
473.873
470.482
473.235
471.499
471.174
474.518
478.440
482.451
473.704
486.671
484.372
478.663
479.798
492.179
488.025
490.838
487.686
485.093
494.244
492.053
489.530
492.875
489.999
493.538
492.993
502.220
503.624
492.660
502.576
505.894
504.051
498.965
509.615
498.007
501.907
511.407
503.385
514.849
504.739
511.249
509.927
516.111
516.550
510.077
524.616
523.659
518.731
515.207
515.109
524.292
519.816
526.843
520.536
518.841
523.309
526.530
526.036
532.165
539.266
535.989
538.348
539.012
531.752
535.230
536.140
545.670
547.401
543.861
539.363
537.712
543.438
542.483
543.838
541.445
547.338
555.537
556.851
555.838
558.998
549.839
554.465
561.633
561.218
550.030
561.064
559.790
551.673
556.238
561.729
560.308
563.459
557.802
570.854
560.269
560.134
565.732
574.367
562.074
573.361
565.230
565.490
566.750
569.747
577.077
579.137
584.478
579.469
581.686
579.400
587.609
582.265
578.870
591.562
577.487
579.647
586.363
588.576
582.714
586.305
597.649
597.468
593.523
594.627
600.395
588.104
592.234
595.973
601.605
594.751
595.657
605.646
609.499
603.733
608.173
607.069
602.840
601.620
615.724
601.857
614.363
618.287
617.458
620.189
620.611
617.688
608.235
611.771
614.014
613.943
624.845
614.424
623.370
630.356
623.419
624.119
619.983
623.365
627.897
632.010
621.918
623.725
624.361
636.002
634.701
630.538
639.271
628.947
634.743
635.854
645.865
641.827
646.524
635.184
649.664
641.039
643.781
644.652
645.371
646.142
646.516
647.253
648.968
645.603
649.699
653.290
661.187
653.121
654.960
657.247
660.654
666.488
664.144
666.614
663.671
667.637
662.777
663.823
672.076
659.495
673.680
663.756
669.566
670.099
666.285
677.086
681.175
680.807
677.967
680.701
677.952
671.805
677.915
688.594
679.093
687.448
683.885
687.522
689.190
681.393
687.264
683.586
694.720
694.710
697.305
698.259
692.407
690.075
695.547
697.489
694.838
703.899
700.520
692.646
695.985
708.626
707.300
705.913
702.125
706.828
701.918
710.340
708.799
705.759
703.156
710.308
717.307
716.674
712.634
710.225
712.360
723.363
724.676
726.957
724.166
723.974
714.748
728.357
726.330
718.093
725.892
729.609
728.277
731.530
735.891
732.401
732.110
723.847
727.752
733.252
731.507
738.410
735.552
731.042
736.159
731.804
738.663
731.063
728.133
734.663
740.479
731.520
740.303
739.740
731.426
741.553
738.728
743.541
732.192
730.408
734.557
741.400
737.845
743.640
731.784
734.639
742.788
742.785
740.653
732.683
736.499
736.628
743.940
734.721
747.424
738.335
739.442
747.751
742.624
736.410
742.747
739.114
749.646
749.146
741.223
752.647
741.234
747.757
741.370
745.672
749.159
750.783
740.348
751.176
751.856
751.542
751.690
748.073
744.096
744.705
746.772
752.918
743.985
743.299
751.679
748.485
755.792
753.605
754.324
751.814
760.212
760.192
750.486
759.176
756.723
751.047
757.620
756.990
756.684
754.546
749.446
753.576
764.504
756.308
753.190
750.009
764.035
756.947
758.574
752.149
758.826
766.550
761.977
761.152
765.489
765.827
756.816
755.657
760.116
766.929
768.178
766.054
755.739
767.479
766.889
756.841
762.344
762.843
759.820
770.773
758.680
760.391
761.110
768.139
759.597
759.897
767.275
764.956
767.071
763.197
773.394
773.389
764.868
773.155
776.547
771.270
772.101
777.668
778.742
777.133
780.042
764.579
774.858
769.864
777.322
781.071
772.383
769.468
