116.853
99.168
95.028
115.519
114.298
104.769
97.164
92.597
106.585
101.886
87.121
96.959
118.555
115.299
100.014
102.145
92.959
107.861
97.429
101.873
112.176
95.268
96.044
111.706
104.320
96.171
114.827
128.162
100.364
107.201
125.192
110.789
97.930
101.919
104.752
107.534
124.124
118.103
112.261
96.011
107.884
110.650
111.583
107.801
84.033
109.129
106.846
83.927
89.724
100.787
106.565
86.001
95.144
102.038
119.935
107.404
126.070
88.194
104.623
111.727
104.732
100.448
126.766
108.038
93.116
101.575
84.480
101.480
94.860
104.590
86.004
98.018
123.805
122.653
95.599
118.561
101.984
97.379
94.123
103.078
118.802
94.290
122.409
124.848
126.157
87.194
93.706
120.231
103.415
87.756
127.503
125.704
119.377
98.700
99.608
94.145
120.207
120.583
112.642
102.998
89.919
124.546
107.643
111.756
116.773
96.586
105.190
116.040
92.002
114.025
89.090
116.042
84.191
119.981
94.414
107.555
127.979
102.710
101.548
103.157
99.377
113.728
108.812
99.341
127.398
89.227
123.112
106.565
88.786
104.956
116.046
109.741
92.340
86.949
92.637
122.207
84.937
126.498
120.016
106.974
84.821
94.923
96.168
85.437
127.149
94.504
113.066
94.493
115.990
90.832
92.168
110.652
102.038
100.116
123.686
91.466
91.794
98.223
112.047
99.650
128.778
89.775
125.677
89.639
84.102
93.178
98.968
115.996
113.962
117.029
128.664
113.307
84.593
101.637
114.180
105.456
85.729
94.606
115.141
88.906
116.999
121.563
116.051
121.540
121.675
99.973
125.319
90.544
122.708
97.717
106.437
92.630
117.843
95.391
85.428
97.548
113.858
124.342
105.723
91.260
117.651
101.731
119.416
99.654
115.961
103.374
105.504
92.716
116.429
123.460
102.854
940.539
963.129
953.448
952.716
941.243
943.452
942.955
953.983
952.703
970.043
956.342
949.616
953.996
959.462
968.763
947.526
953.583
965.971
976.509
958.778
954.331
976.234
951.746
956.734
966.971
954.849
979.963
958.942
970.615
967.927
971.338
967.512
961.457
975.124
980.803
972.789
987.529
972.078
989.595
966.618
966.555
969.324
984.169
994.654
990.636
981.857
968.274
969.073
977.550
984.750
992.792
988.872
984.819
999.096
975.252
987.359
997.580
995.493
979.622
983.273
1000.686
1006.030
1000.878
983.739
987.157
999.553
998.923
998.071
991.688
1004.519
1011.217
1001.359
1008.466
997.584
1008.783
994.754
1010.217
995.711
1014.130
1006.321
1019.057
1015.377
1017.969
1002.745
1021.545
1008.280
1005.720
1012.117
1017.191
1026.240
1013.582
1013.200
1016.143
1016.560
1022.012
1030.781
1011.759
1005.096
1005.498
1016.790
569.679
570.797
560.977
566.910
563.125
568.123
575.508
569.095
569.740
569.861
571.569
573.295
576.672
567.976
572.275
569.697
571.977
580.933
567.799
572.721
580.127
579.350
578.470
568.775
576.698
573.770
583.716
578.359
581.214
575.271
573.337
578.782
574.360
584.482
584.352
578.199
574.990
588.094
585.026
579.599
582.295
577.495
586.210
584.236
579.747
581.311
579.734
580.500
588.924
585.949
587.967
594.873
591.871
584.621
582.229
582.918
592.586
593.797
588.414
585.498
582.827
583.890
595.976
594.959
594.605
585.533
591.997
599.041
597.363
596.443
598.966
600.036
593.341
601.374
600.053
599.680
598.956
595.713
593.858
601.074
596.901
592.654
600.980
602.236
597.886
602.970
599.777
606.575
596.613
596.512
603.080
600.263
606.597
608.862
600.103
609.387
602.324
605.030
609.063
606.904
612.429
611.147
610.059
601.237
606.541
609.136
618.377
616.327
611.448
614.443
610.579
621.381
620.392
619.503
619.657
621.474
620.146
619.239
621.317
627.222
615.812
621.985
623.597
631.050
622.885
626.794
626.263
629.773
621.607
636.195
626.077
632.226
625.281
640.345
638.767
629.334
636.458
629.735
643.050
633.000
642.676
633.110
647.180
642.015
643.171
640.452
639.589
647.631
644.013
640.878
652.964
650.606
656.020
656.674
652.907
655.602
656.580
645.048
648.377
651.749
658.324
650.792
653.993
652.541
654.657
650.849
664.095
667.190
658.449
662.998
659.389
671.458
666.709
668.507
668.500
671.045
670.592
662.817
668.195
670.660
671.350
679.191
678.859
680.500
667.189
667.999
675.025
680.242
674.537
684.088
676.037
685.363
678.797
685.625
675.784
684.052
685.524
684.215
684.870
680.294
691.137
683.931
687.639
688.321
698.287
698.518
695.270
694.736
699.845
690.944
697.739
701.259
700.550
704.937
692.147
706.835
694.583
698.430
702.756
703.362
698.686
699.946
712.671
703.322
708.307
713.641
706.981
707.129
709.472
717.419
711.611
708.969
715.442
712.925
721.801
712.605
712.555
721.564
713.009
715.136
722.776
718.832
717.589
728.853
719.735
723.552
723.279
726.711
733.208
733.235
731.772
726.696
724.022
728.322
727.806
725.566
730.400
728.208
731.903
728.165
733.520
731.471
734.103
735.503
744.535
735.273
746.582
738.422
735.817
749.891
745.016
748.317
746.665
748.402
746.462
751.997
755.580
755.618
753.943
757.525
747.606
746.850
761.353
758.485
761.791
752.082
762.464
759.266
755.512
755.179
760.467
758.046
760.596
755.737
764.900
758.545
767.130
764.195
774.133
768.106
775.003
767.791
767.799
772.833
771.488
769.877
769.179
765.403
760.687
775.099
773.194
769.114
760.461
767.605
771.546
768.761
765.837
770.766
765.822
772.268
768.749
762.332
764.775
775.373
764.648
775.516
774.224
775.551
775.018
772.877
773.693
765.031
768.997
769.604
762.030
774.492
770.555
762.590
762.601
766.870
769.748
768.393
772.936
765.475
765.964
768.610
762.257
774.794
771.609
776.188
765.497
766.581
765.009
764.801
762.790
771.832
770.571
768.068
765.290
765.324
774.158
771.258
771.014
776.849
769.175
772.525
767.599
769.939
761.336
765.647
776.336
767.397
766.814
773.912
766.350
768.783
763.210
764.321
770.412
764.760
768.376
766.512
769.632
763.757
773.430
772.333
767.251
762.373
774.035
772.094
775.458
766.555
767.529
773.514
762.468
776.062
768.814
773.251
769.038
766.482
764.631
768.718
765.727
773.124
771.717
769.618
774.168
770.839
762.674
763.088
772.279
762.083
770.869
765.297
764.559
774.731
774.210
762.482
769.394
764.922
769.730
762.347
776.080
763.365
775.828
771.689
771.684
776.381
764.481
767.831
765.135
763.161
764.489
763.267
762.341
776.041
770.353
773.988
772.609
766.675
764.990
763.420
768.206
767.148
763.318
761.873
769.031
765.068
776.186
775.941
768.742
771.060
775.390
767.730
764.839
769.517
766.028
763.939
772.630
764.459
775.365
764.575
763.795
775.152
765.849
770.118
775.401
774.383
766.196
774.644
762.129
765.789
767.594
765.784
762.084
777.020
777.751
776.984
762.753
763.167
768.961
772.420
777.478
768.935
774.059
762.689
771.624
772.487
763.755
775.319
771.175
767.439
762.396
771.602
772.618
771.862
767.727
767.094
776.012
766.807
774.644
762.957
770.944
768.031
766.848
774.118
781.210
770.232
780.586
771.679
768.724
782.085
769.573
784.653
784.982
779.672
780.138
781.878
779.793
782.120
780.786
788.214
778.132
777.545
778.170
781.533
781.762
778.887
794.025
789.744
794.254
791.997
796.970
783.133
784.183
795.618
797.086
789.020
797.737
790.765
796.362
788.797
791.630
789.578
800.445
800.344
793.603
798.506
801.009
798.671
792.078
795.626
805.110
795.268
802.875
796.037
808.765
797.305
798.250
804.784
805.838
804.122
801.456
802.204
812.161
813.351
815.978
810.829
813.474
815.993
805.790
804.290
815.517
814.549
810.078
812.979
810.966
811.574
813.658
810.786
823.932
819.824
813.081
811.172
814.430
818.735
827.899
816.001
828.333
830.485
815.085
817.114
828.905
825.021
819.612
827.664
821.975
823.879
824.271
829.263
833.294
828.434
831.965
833.819
837.690
836.478
831.920
839.935
841.106
828.878
829.499
837.537
832.673
831.574
837.713
839.142
831.809
836.225
834.867
842.439
834.405
849.168
834.290
845.107
840.938
839.031
840.073
839.220
852.189
849.648
841.928
843.949
847.841
842.705
856.864
854.012
850.165
851.413
846.348
844.720
846.507
851.596
860.717
859.682
848.162
859.186
860.589
863.860
862.301
849.825
860.579
860.332
864.897
864.739
863.125
865.316
867.983
856.835
869.375
868.488
864.474
864.939
869.937
871.370
862.492
859.223
862.425
871.073
872.012
862.231
866.183
869.101
865.357
877.824
871.857
875.846
868.272
881.584
879.192
874.754
871.571
869.711
870.303
874.753
877.181
878.342
886.875
874.874
885.200
874.039
879.008
884.546
875.543
885.599
890.862
881.340
883.438
879.287
884.380
894.658
882.136
890.976
888.307
885.995
886.344
885.883
882.938
887.826
880.364
893.420
895.238
883.022
892.540
883.363
893.949
890.239
884.703
894.548
894.911
886.085
895.696
894.630
892.626
882.105
880.215
890.615
886.085
895.505
885.961
884.406
890.694
883.189
894.806
881.031
887.408
883.740
893.569
881.280
893.159
891.759
893.245
890.975
891.878
887.237
886.649
894.779
895.818
886.558
890.133
891.560
890.150
888.990
891.521
892.834
887.165
893.743
888.419
890.335
894.812
889.865
894.706
890.698
893.637
896.077
889.315
896.684
890.272
896.423
887.972
893.140
889.861
887.430
892.840
889.649
892.762
890.999
889.517
883.384
888.165
884.577
881.321
881.312
895.484
893.762
887.831
884.140
895.009
887.911
890.123
884.491
894.301
889.183
883.366
889.415
887.450
889.321
882.736
895.746
888.533
884.583
882.717
890.105
885.275
889.781
896.355
885.720
889.107
883.402
894.322
892.303
883.843
882.710
884.168
896.087
882.268
886.954
892.924
882.910
891.668
896.243
897.544
883.572
889.427
884.642
886.864
887.603
893.994
895.155
889.216
882.912
886.754
889.486
882.517
887.511
882.419
883.293
885.807
895.046
887.486
889.443
889.466
893.934
890.532
890.870
896.550
893.777
892.165
893.247
897.401
892.861
896.484
884.053
891.129
887.340
886.030
886.086
892.802
892.920
891.860
890.790
885.831
895.290
886.299
889.141
882.793
891.831
896.934
888.550
887.684
891.581
889.605
891.618
887.572
890.008
897.211
888.353
898.256
890.739
896.394
888.056
887.780
883.935
891.096
894.599
897.940
895.925
889.024
896.998
890.800
886.168
883.945
898.247
893.445
892.484
894.607
892.448
888.351
891.206
894.899
884.196
893.672
886.133
883.476
888.402
883.526
896.630
887.576
894.630
895.646
887.068
886.887
897.634
895.348
885.134
893.120
898.592
889.380
887.382
884.829
895.446
890.807
896.073
885.997
883.416
883.520
892.446
891.230
883.447
884.729
894.794
887.648
892.408
890.269
892.693
883.631
893.523
892.994
896.298
892.640
896.087
890.190
895.785
896.051
884.725
890.486
885.877
884.126
890.295
883.850
890.222
888.112
896.221
893.698
883.907
890.266
886.724
888.375
885.099
884.296
889.857
889.221
887.897
886.207
886.635
893.938
893.696
889.081
894.807
896.655
898.001
894.822
890.977
883.264
883.122
883.450
888.004
893.192
886.429
891.876
890.548
883.237
889.330
891.050
896.887
890.929
897.642
885.043
885.431
886.171
896.275
891.211
890.635
894.216
897.672
892.650
887.280
882.613
891.125
884.101
886.784
884.521
887.563
884.167
883.760
887.845
893.394
886.343
895.811
894.341
893.343
892.148
895.518
890.485
893.447
887.567
895.134
891.551
885.526
893.296
883.197
888.211
883.498
895.154
892.961
883.255
885.191
886.972
890.333
895.953
884.822
895.213
895.360
890.548
889.572
891.439
890.070
897.687
883.300
896.632
887.501
895.964
896.627
884.841
885.525
882.658
885.943
882.876
884.837
890.016
882.224
886.644
883.546
895.289
890.809
888.808
895.382
897.652
893.382
897.497
897.068
896.552
895.157
887.573
886.536
882.296
881.905
895.490
886.114
889.794
897.435
884.159
893.333
889.594
894.177
892.314
885.069
883.809
881.788
883.076
890.892
886.349
885.724
882.909
893.582
897.222
888.850
886.864
891.359
893.187
886.636
891.055
891.804
882.195
889.860
889.083
884.017
885.652
884.575
890.803
891.248
886.284
889.650
887.322
885.447
883.853
888.991
890.620
888.515
894.756
885.553
884.602
892.719
897.215
890.822
885.628
900.202
897.169
891.115
893.681
891.758
897.729
899.827
899.900
893.527
895.290
899.621
904.036
898.641
897.945
891.575
897.450
893.746
903.464
903.460
904.360
906.711
896.538
900.352
902.674
899.056
893.035
902.439
900.454
907.245
898.239
898.672
904.916
909.037
895.976
904.709
910.726
902.686
900.655
902.827
899.198
908.806
898.050
907.765
903.234
908.150
912.219
913.179
905.597
908.251
910.001
909.048
911.716
907.970
912.726
900.900
914.567
901.341
910.177
911.288
906.705
906.437
908.969
916.205
906.346
918.654
918.275
914.644
917.165
919.678
912.034
912.067
914.282
918.005
917.424
918.864
910.958
909.169
912.662
907.529
914.386
912.070
921.487
917.363
911.639
910.933
918.438
913.323
921.729
924.134
916.335
922.493
917.680
914.551
919.477
920.066
919.037
916.414
914.683
924.243
915.837
919.486
924.343
928.825
916.084
919.200
929.882
923.669
920.737
929.444
926.254
921.711
931.650
929.136
917.232
920.858
930.195
917.634
929.108
925.904
933.507
925.195
932.323
920.619
925.547
932.472
930.365
930.655
933.008
934.942
921.674
929.899
927.938
925.151
935.628
923.687
937.531
932.538
924.573
924.551
935.356
937.220
933.713
938.770
926.384
939.581
940.464
928.285
930.471
932.561
929.338
935.887
929.970
941.490
935.747
928.239
932.540
941.434
936.481
938.159
944.648
942.524
939.193
936.859
930.920
941.555
943.363
933.546
936.919
936.755
944.334
940.386
938.471
943.989
943.664
948.030
933.548
937.321
939.555
937.785
945.173
940.687
937.063
944.530
946.440
941.427
943.454
938.912
945.745
942.614
944.043
937.296
946.232
934.973
940.111
938.555
945.761
935.460
939.126
936.205
934.258
933.347
942.663
938.017
933.298
932.315
936.203
927.462
928.043
930.149
936.553
929.087
930.197
922.681
920.998
920.216
922.002
930.088
924.904
928.973
920.772
919.499
921.236
930.990
929.524
924.067
922.446
928.814
917.760
923.652
925.074
918.441
916.488
925.318
912.711
917.409
921.750
922.362
921.185
910.733
909.921
910.039
905.439
912.322
911.720
916.193
918.137
916.727
907.641
911.196
908.665
901.892
904.436
911.732
906.245
909.944
897.873
897.049
901.981
910.166
907.769
897.987
909.905
899.877
896.644
892.914
892.285
906.232
903.810
890.198
895.324
898.606
900.049
902.327
896.148
897.571
893.451
889.624
891.888
895.522
887.987
896.995
885.994
887.216
890.834
885.158
890.454
895.082
886.328
892.928
882.914
891.933
888.672
876.781
879.409
886.353
885.339
877.797
879.020
884.704
885.579
882.562
879.064
879.063
875.893
873.500
879.841
881.151
882.727
870.539
881.713
877.996
881.598
868.774
877.914
875.678
864.804
878.064
869.638
874.087
866.135
863.762
866.456
864.813
869.299
870.587
862.300
870.192
872.870
863.487
870.404
864.249
869.604
862.690
860.681
855.602
854.677
865.063
858.444
863.822
864.566
861.961
864.901
858.946
862.309
862.152
857.602
848.374
859.626
852.223
844.914
851.346
852.745
849.705
847.741
853.701
852.567
848.866
843.663
854.587
842.290
841.408
843.666
843.924
850.095
843.910
845.984
840.618
835.881
846.212
849.328
845.435
839.050
842.392
831.705
838.222
839.417
842.585
834.936
828.803
830.129
828.468
840.664
830.538
827.734
830.570
827.954
839.939
835.600
825.859
829.430
826.357
838.956
832.006
836.192
825.319
833.968
824.312
834.103
825.790
825.407
831.262
829.631
827.516
834.367
831.485
829.323
824.900
835.440
831.141
835.974
835.795
836.040
822.707
826.019
836.837
828.777
821.875
832.094
829.500
830.346
824.462
825.067
824.962
826.242
823.349
830.676
827.776
826.950
831.261
821.854
833.325
831.655
828.115
820.168
824.078
825.765
819.170
833.897
829.288
821.546
824.646
833.806
833.388
825.589
831.277
822.060
823.272
832.170
821.756
818.965
830.525
826.763
832.415
823.768
817.101
827.239
831.636
830.965
829.802
825.440
821.922
821.852
828.055
818.234
819.378
826.678
824.385
828.985
829.068
817.389
822.530
814.791
827.787
816.997
829.995
829.493
821.786
829.039
819.118
818.614
829.188
822.110
814.340
822.483
828.036
824.439
816.615
819.745
828.755
814.669
815.072
815.965
826.248
819.231
822.166
818.204
814.095
822.287
827.115
817.573
823.795
813.917
814.860
820.355
826.716
817.753
813.386
811.681
822.136
824.213
825.017
823.595
811.048
813.373
819.317
821.793
816.483
819.248
817.946
814.058
822.355
822.941
820.311
815.630
820.587
811.793
822.631
819.295
821.579
817.012
812.887
815.665
819.037
813.578
819.393
812.023
808.297
816.404
819.257
819.774
818.268
818.572
813.093
806.344
818.835
808.018
806.559
820.839
807.544
805.862
813.333
815.701
811.794
807.228
813.369
809.638
820.187
808.307
807.317
805.568
819.566
819.348
808.889
814.386
814.240
808.140
805.145
812.599
815.287
809.290
809.211
811.551
803.467
809.027
