137.610
135.837
128.632
142.501
134.063
108.297
121.843
120.963
105.423
141.922
137.017
119.502
130.067
133.234
152.166
113.784
104.511
122.983
125.375
120.310
117.172
146.229
105.606
103.838
104.339
107.929
146.830
117.859
102.531
138.679
124.280
142.582
128.543
138.767
110.529
112.505
101.955
106.068
114.301
125.379
152.587
149.382
110.314
112.610
116.200
112.246
112.333
130.460
132.328
124.661
145.287
130.395
151.651
143.525
130.141
132.475
142.677
130.897
127.114
110.562
153.139
104.122
121.488
108.664
152.734
109.303
130.355
139.648
120.348
120.764
109.340
109.243
143.861
150.299
141.881
123.647
118.293
132.177
139.328
101.514
126.096
113.979
105.888
102.884
149.354
149.695
111.472
117.326
126.574
104.810
132.831
107.206
126.783
133.391
117.284
101.327
127.143
131.439
123.319
122.958
147.316
139.179
131.108
110.242
130.634
121.480
107.321
133.012
103.865
104.892
146.975
152.875
137.547
147.554
141.972
136.392
143.534
110.795
123.336
111.427
125.799
147.260
103.618
110.949
101.508
117.434
152.522
105.794
134.380
132.418
130.043
138.358
114.430
120.886
131.108
123.467
139.318
142.949
105.730
135.640
122.822
133.549
112.876
124.721
126.669
125.773
110.555
151.577
130.839
132.727
134.586
145.045
116.832
135.767
105.042
127.436
127.371
136.820
126.256
149.568
103.160
123.883
109.477
117.777
118.230
136.917
109.777
130.337
116.141
139.616
143.313
105.743
107.464
146.506
145.821
113.281
139.967
140.703
110.329
129.577
109.301
131.255
138.119
116.503
116.502
141.050
107.169
110.604
126.881
106.939
105.047
151.418
104.214
108.821
143.402
111.299
122.699
103.072
128.590
115.155
146.928
105.505
136.455
151.531
125.086
125.153
143.614
125.910
114.963
137.631
140.902
102.731
122.594
145.248
118.290
120.267
130.752
111.038
132.632
123.048
127.794
150.544
139.018
117.026
139.922
110.728
108.934
116.605
145.264
151.477
127.551
118.583
119.835
130.672
110.649
148.670
107.493
150.083
119.236
150.728
113.901
128.999
114.330
129.764
147.115
112.257
109.027
137.590
117.880
146.618
125.907
148.855
125.177
122.794
152.099
149.293
106.866
144.201
116.276
121.591
143.038
140.530
107.813
139.999
146.289
131.128
124.978
134.911
146.901
140.337
133.414
119.371
114.011
130.898
133.359
110.125
115.650
119.513
146.555
111.288
124.622
142.336
117.796
147.486
128.315
122.903
116.081
131.988
138.484
108.687
120.765
103.923
143.046
108.848
124.525
137.566
134.212
145.005
141.007
142.815
118.496
143.220
142.391
144.895
150.759
121.408
152.150
110.910
147.220
132.879
133.958
120.618
121.447
142.948
114.817
107.509
121.283
133.713
143.792
114.206
142.690
144.727
136.334
101.489
103.596
105.209
123.055
151.195
149.532
107.834
134.448
127.031
115.276
108.075
138.709
104.952
113.342
115.355
125.972
129.524
135.658
114.693
143.213
143.960
114.168
107.326
109.535
141.378
111.227
110.691
101.972
146.340
120.951
130.939
144.444
114.522
121.025
102.505
145.866
117.505
129.604
131.716
121.221
102.410
107.069
104.879
108.021
106.849
123.528
106.009
107.983
135.715
103.220
117.396
125.241
108.542
101.503
137.871
146.478
122.412
106.706
137.994
145.016
133.961
129.146
143.432
106.845
110.869
152.072
127.235
112.643
152.838
146.554
108.053
145.227
111.091
129.752
112.537
143.092
144.260
108.031
137.886
127.404
146.141
131.561
120.331
137.166
124.475
104.303
107.929
103.547
102.577
137.058
142.240
136.944
149.860
115.768
147.272
129.496
116.628
115.171
147.551
141.164
127.062
151.285
138.554
116.439
106.764
139.020
109.233
107.694
126.129
124.206
106.564
152.874
120.823
106.600
117.301
108.817
151.303
148.881
147.054
138.784
133.870
141.731
139.345
140.219
108.811
148.143
126.420
128.396
102.630
124.621
151.008
133.476
142.901
152.422
114.800
152.180
136.719
139.057
113.865
104.602
130.026
124.274
116.975
122.608
123.152
124.272
113.747
101.832
145.036
118.417
116.498
103.651
136.983
142.057
132.633
115.047
110.767
150.036
116.894
113.052
133.014
143.881
119.088
151.486
102.521
109.370
149.593
151.066
127.461
132.606
134.513
104.024
108.059
105.656
129.556
150.978
129.912
148.611
151.981
137.465
116.810
111.555
118.141
148.735
115.739
119.323
122.754
111.020
103.632
144.786
144.348
113.817
137.169
132.290
146.341
121.462
153.086
117.348
130.775
132.573
145.180
134.253
129.830
105.253
126.898
124.444
106.910
120.758
121.404
131.387
110.301
145.018
129.093
142.783
137.189
110.712
108.655
103.085
111.394
107.961
104.685
98.137
128.922
110.558
100.468
126.384
104.256
108.448
129.659
104.869
124.989
110.787
142.146
123.044
103.046
133.855
98.921
143.953
140.697
136.224
146.353
97.479
137.444
134.618
132.789
112.983
132.479
116.383
95.824
126.960
112.388
116.283
122.167
116.361
136.364
110.837
123.057
105.116
95.778
141.511
133.320
100.107
106.358
121.434
127.888
107.017
142.144
94.918
129.108
119.738
113.762
127.399
99.026
127.500
109.233
117.839
112.659
103.653
95.773
146.602
130.510
129.353
128.299
140.720
116.708
145.943
145.728
146.761
97.359
141.757
146.066
98.302
144.399
106.834
105.260
111.790
124.799
127.795
99.858
129.302
139.105
128.021
126.337
106.824
116.159
95.224
146.009
103.527
101.081
102.265
139.989
118.491
114.636
109.644
102.908
130.366
96.559
137.267
120.269
137.814
105.940
143.193
121.863
109.840
119.560
104.289
131.625
113.602
130.918
99.056
139.942
121.690
126.780
138.820
101.768
103.772
131.895
118.369
98.991
136.365
110.891
127.513
107.549
119.592
130.899
143.890
97.067
113.699
133.242
121.809
95.636
99.940
100.337
97.689
98.199
114.673
135.675
106.165
116.820
133.702
121.348
125.486
129.036
94.980
133.582
114.166
112.550
97.769
99.502
115.716
118.255
103.740
144.464
96.472
140.375
95.952
105.750
145.772
110.139
104.670
119.993
101.014
101.181
116.965
136.960
126.956
134.365
125.643
117.540
123.780
143.251
130.826
111.995
96.628
115.088
134.325
101.850
98.353
110.159
122.466
95.388
121.586
145.658
126.551
101.432
140.271
97.185
120.191
117.444
141.020
137.090
107.710
141.042
138.945
141.577
127.551
97.311
105.902
117.113
117.848
108.985
109.228
108.358
124.702
119.559
146.489
100.342
145.014
102.308
106.272
127.447
120.281
141.861
106.442
101.771
126.562
119.430
137.276
134.830
126.519
111.173
99.235
145.968
97.864
122.076
118.413
110.505
121.250
107.474
128.001
108.801
99.697
96.908
134.806
109.430
95.275
102.126
120.168
119.453
123.310
118.006
102.251
134.502
125.156
129.291
109.485
141.379
113.017
126.835
97.359
111.766
129.949
122.106
103.233
122.235
101.135
100.767
116.661
132.666
119.310
129.215
97.233
131.684
138.283
135.073
138.506
96.453
138.472
127.008
97.210
145.571
116.814
106.040
116.154
102.688
129.958
100.349
134.188
95.688
117.563
108.423
131.752
96.509
103.328
116.005
109.823
104.584
99.131
124.295
137.487
125.355
142.311
122.298
120.235
102.525
135.273
124.904
123.708
119.420
136.703
98.084
110.642
137.324
103.210
116.098
136.609
119.239
104.544
103.465
114.272
124.461
135.384
98.881
138.279
125.834
119.433
104.654
135.260
100.474
128.814
109.887
137.317
129.268
126.484
129.243
111.815
143.271
101.532
137.375
129.299
104.114
109.718
108.580
138.350
102.274
106.339
104.294
114.023
130.596
109.784
126.758
99.285
104.169
111.272
142.140
140.760
122.743
114.024
113.201
137.222
127.477
142.745
98.840
100.115
38.615
31.560
32.921
39.838
35.528
29.814
30.855
32.095
43.430
41.102
31.582
32.018
44.230
32.337
37.592
44.282
44.243
29.751
31.970
38.006
41.318
30.220
31.056
41.920
44.322
32.217
37.197
32.868
44.952
40.187
34.982
44.193
35.883
44.144
30.518
33.587
37.971
38.730
39.953
41.357
38.811
35.203
893.305
884.484
896.828
908.700
901.571
909.451
906.220
916.633
929.894
920.765
913.648
927.542
927.132
939.371
951.021
955.669
943.985
961.288
965.632
956.586
974.807
967.260
954.952
974.048
971.405
985.149
970.914
993.933
980.989
984.233
988.599
992.722
1001.218
1003.788
1007.311
1020.012
1022.732
1010.127
1032.270
1011.910
1041.780
1023.098
1047.798
1040.252
1043.246
1042.610
1045.042
1040.754
1068.786
1053.721
1048.997
1054.635
1077.534
1060.224
1087.667
1075.704
1071.701
1088.014
1095.339
1104.338
1101.978
1112.509
1103.385
1106.113
1116.068
1112.239
1118.176
1111.593
1133.176
1111.960
1117.103
1125.198
1141.989
1143.473
1136.110
1132.721
1161.194
1143.011
1168.205
1150.198
1154.394
1180.239
1167.146
1184.267
1177.743
1185.485
1169.965
1175.532
1192.172
1188.792
1201.488
1203.214
1213.951
1194.344
1202.161
1201.064
1221.786
1222.863
1227.367
1222.315
679.843
689.560
689.650
687.815
692.620
697.396
697.937
694.753
700.389
705.033
701.744
701.839
709.261
711.501
713.453
711.941
720.597
719.038
717.520
715.250
718.018
729.276
721.827
718.773
724.551
730.144
738.887
728.916
730.571
745.159
733.279
735.234
737.706
741.126
743.539
751.178
745.763
756.512
754.733
756.341
765.587
760.796
757.652
759.247
762.185
769.809
772.566
772.888
772.392
771.917
780.956
772.870
786.423
784.016
789.537
789.592
786.832
787.090
793.099
791.168
801.430
802.583
794.655
800.904
797.714
804.654
798.757
811.024
807.738
806.989
820.347
820.551
825.304
811.860
824.451
829.966
820.006
829.636
836.602
833.178
839.122
826.527
841.210
833.161
847.322
836.482
844.767
840.730
844.502
854.194
856.661
857.760
857.984
851.498
854.391
859.295
855.024
856.819
859.943
874.279
870.047
876.989
863.879
866.604
873.639
875.331
868.983
872.969
864.269
879.069
872.351
877.989
879.061
871.680
864.634
866.745
873.425
875.737
876.730
866.241
876.086
868.302
867.507
877.238
880.306
865.600
873.550
866.356
871.957
878.877
873.962
873.560
873.755
867.730
877.644
867.208
879.508
879.844
868.114
876.136
874.300
882.403
880.458
881.970
880.983
880.094
868.972
879.988
871.675
884.193
880.617
877.088
873.492
885.192
884.569
879.280
881.821
879.254
875.777
882.452
884.403
870.901
878.148
884.276
880.371
881.186
882.963
876.369
883.853
884.151
880.414
883.490
877.653
872.147
877.634
873.878
888.240
881.376
884.904
878.036
879.942
875.035
882.268
882.677
887.878
887.424
886.161
879.380
889.504
877.255
877.901
886.351
882.613
877.748
888.130
883.399
890.060
877.677
888.353
879.799
891.539
877.632
877.250
884.751
884.599
880.631
889.133
888.527
888.656
881.506
878.519
885.192
884.014
883.429
890.004
882.127
879.280
887.129
893.378
880.981
883.032
881.736
887.905
888.101
884.863
881.382
894.919
894.381
892.205
883.283
884.179
883.195
892.143
892.433
893.928
894.201
887.162
889.471
881.236
894.590
886.485
884.520
887.218
893.406
882.177
884.032
892.273
882.718
887.019
895.474
889.384
884.144
887.603
888.637
884.690
884.150
895.867
890.445
896.771
890.910
888.630
891.490
895.982
895.080
894.333
885.217
888.178
895.683
893.374
900.980
895.540
886.167
897.518
891.193
901.397
887.131
893.214
895.226
887.387
899.555
892.668
893.826
894.143
889.214
891.485
901.924
889.283
894.691
902.029
890.934
896.279
903.260
893.629
896.194
888.937
890.559
890.087
897.583
892.042
900.088
897.162
901.689
889.549
899.115
885.580
883.491
889.927
891.670
884.918
881.983
880.486
886.176
884.365
882.521
877.984
877.749
878.675
869.501
876.580
880.978
875.799
866.422
871.789
873.344
868.197
863.597
860.657
867.013
855.487
855.356
857.167
865.620
855.229
857.139
856.534
845.606
848.740
853.761
849.001
855.390
851.456
845.878
848.975
840.537
848.493
847.113
847.263
842.518
839.141
842.778
829.040
828.711
829.247
824.550
834.126
824.877
824.824
826.514
831.280
827.395
822.561
816.772
821.790
821.465
813.284
811.688
817.427
812.792
808.510
815.804
803.068
805.383
808.876
813.596
812.365
810.689
806.383
804.570
803.194
798.036
803.066
803.730
800.046
800.250
793.917
787.356
793.179
783.407
782.588
791.587
780.714
787.910
789.710
787.591
777.442
778.161
783.209
773.345
782.516
773.461
773.019
766.986
773.588
766.927
767.172
771.805
770.336
767.167
754.831
768.500
753.557
763.170
751.284
755.334
754.750
761.425
751.675
758.304
748.858
754.085
743.787
747.280
737.381
745.635
736.690
735.392
737.525
738.244
732.625
730.917
742.244
729.411
727.732
733.680
725.071
725.822
723.277
733.591
732.345
718.138
717.036
717.656
713.770
719.218
717.033
710.119
714.035
713.531
704.977
707.253
708.135
704.597
707.650
700.968
699.103
709.424
696.888
698.772
706.379
694.690
703.362
689.358
689.658
686.211
686.355
690.164
689.292
693.640
685.525
691.043
678.474
687.228
685.655
683.471
683.500
672.559
682.271
677.371
671.405
670.506
672.872
675.052
665.576
663.523
662.506
662.176
665.655
666.661
660.573
660.467
662.332
665.945
663.509
648.645
661.563
654.094
649.361
646.781
643.483
651.078
643.084
647.509
653.438
652.405
658.874
655.614
650.990
655.025
657.938
654.271
660.194
661.171
660.808
666.717
672.150
669.788
670.070
667.538
678.475
672.306
674.369
679.074
685.421
690.320
687.885
680.339
696.798
697.076
695.751
698.218
698.436
698.190
692.420
707.800
695.989
702.616
699.029
711.099
706.002
711.445
711.922
710.767
720.571
710.418
714.436
725.625
728.356
721.263
725.812
718.772
729.991
731.522
736.985
735.986
738.840
729.850
737.909
740.148
735.691
747.114
741.422
744.723
746.898
751.574
744.141
756.338
758.654
756.399
754.725
751.438
765.183
762.789
754.637
771.247
770.708
762.206
760.973
768.825
776.802
771.338
778.727
778.228
777.291
772.576
777.744
785.026
785.610
788.425
786.557
788.619
797.644
799.054
797.612
800.437
791.536
801.607
797.029
799.923
812.232
804.563
803.512
811.499
810.960
804.681
817.032
821.935
821.998
812.822
824.561
814.299
818.531
820.317
819.816
821.902
834.768
826.080
834.358
830.104
829.501
830.891
847.121
845.758
843.500
850.732
848.689
853.280
849.676
853.389
851.510
848.978
863.427
859.379
862.275
859.859
865.972
865.477
864.054
867.627
863.101
866.820
877.447
868.976
869.146
875.163
871.713
884.955
876.606
886.306
889.756
890.653
894.075
896.373
890.204
896.430
888.591
901.269
891.231
906.674
899.129
896.819
902.015
905.762
911.195
913.469
907.438
910.861
908.060
909.584
923.429
918.309
916.647
924.315
917.734
931.023
929.909
922.243
931.575
930.950
927.714
932.255
942.879
932.712
933.673
946.565
935.345
947.433
946.167
950.854
942.159
945.964
954.124
955.849
962.492
949.559
952.286
958.414
958.175
969.262
971.923
962.535
962.286
974.416
969.096
965.096
959.773
956.740
968.735
954.613
967.456
956.473
951.080
954.935
950.646
947.437
956.842
955.656
955.782
945.089
957.059
945.419
943.656
950.530
943.944
941.562
936.825
936.392
945.202
933.732
945.110
935.970
938.615
931.526
933.938
929.057
932.330
940.885
930.874
929.519
928.149
921.727
924.163
927.366
920.679
927.803
918.598
923.856
924.523
918.882
925.899
918.244
917.025
911.243
909.243
917.619
909.425
914.050
918.692
917.978
905.498
914.872
904.071
913.741
905.012
900.153
909.419
908.837
906.616
906.496
904.411
906.192
904.541
897.451
894.845
887.807
890.824
898.792
885.934
892.600
898.414
895.864
883.099
881.441
883.659
884.400
881.333
890.678
875.470
874.470
887.624
879.314
871.442
883.474
875.456
870.811
880.471
866.275
880.860
871.521
873.806
862.634
875.165
867.167
862.720
866.495
861.920
858.161
859.862
856.856
857.858
857.488
857.670
855.869
855.416
863.683
858.955
860.610
855.700
853.644
843.355
843.423
842.527
843.599
846.665
841.155
840.404
847.325
840.655
838.226
843.003
838.452
845.243
834.071
831.753
843.699
841.716
827.885
836.813
833.097
836.581
827.340
821.895
831.528
827.743
833.389
825.633
816.721
831.121
823.637
825.721
817.542
813.509
824.378
823.848
815.027
822.189
806.871
807.941
819.104
813.674
817.284
813.549
807.495
806.731
799.777
806.362
797.424
809.819
810.241
807.166
792.963
806.021
801.810
800.905
789.469
789.822
801.766
801.695
791.662
787.683
788.754
784.489
792.948
780.551
781.718
791.617
784.438
784.497
787.410
789.534
776.678
785.244
778.845
779.970
770.965
771.176
775.160
768.299
768.434
772.671
778.713
770.987
771.658
773.960
765.176
774.847
774.208
766.859
761.100
759.613
773.571
764.251
772.724
766.776
761.709
767.620
762.424
762.318
759.284
767.120
760.939
768.546
761.836
754.781
761.116
754.007
765.488
756.039
762.821
757.840
756.132
750.887
751.580
754.300
748.371
759.709
761.498
751.475
748.257
757.364
757.765
758.614
747.147
747.067
747.511
754.083
745.874
747.682
753.397
742.947
748.681
749.727
743.446
738.583
745.794
747.928
748.899
742.040
741.569
741.695
748.279
742.346
