146.073
135.691
141.510
131.643
102.175
125.158
113.276
136.047
129.109
129.208
103.024
117.022
126.054
143.537
145.679
101.724
148.756
129.929
118.972
147.616
115.956
131.795
122.445
125.783
119.913
142.783
107.601
136.677
103.140
113.013
132.840
143.326
113.396
137.655
137.864
104.349
141.161
119.276
147.084
120.619
116.025
119.774
122.314
146.868
108.646
121.253
126.869
144.302
152.853
118.378
104.885
128.072
110.227
152.960
113.734
116.945
138.896
137.803
120.681
130.652
151.509
104.621
110.815
145.486
151.997
152.041
147.431
131.235
111.725
133.253
107.481
108.063
102.120
138.592
122.459
121.107
111.033
132.405
110.795
105.036
139.138
104.926
106.330
104.783
132.830
129.633
107.474
111.162
140.675
109.753
151.392
145.525
137.378
142.137
144.538
101.227
132.538
141.609
102.261
114.079
138.517
105.982
116.178
107.637
122.798
146.211
150.097
149.690
108.857
116.693
143.780
146.124
101.754
102.653
148.615
133.505
122.435
109.684
141.384
102.441
136.544
132.791
150.182
101.326
101.611
104.308
129.195
143.477
143.668
138.888
136.645
123.305
102.576
149.711
126.353
123.030
116.740
124.219
139.280
114.668
134.982
121.083
122.267
102.893
112.847
121.815
115.092
125.507
137.284
131.061
134.741
110.857
103.691
135.555
104.485
140.037
133.790
153.105
121.481
106.447
110.275
109.737
105.698
141.782
138.964
143.277
106.231
149.992
140.531
122.790
105.543
150.031
145.241
132.213
103.290
109.656
116.393
148.075
111.119
136.150
142.444
134.197
109.205
134.119
115.135
103.177
107.020
133.068
131.740
108.417
147.827
132.719
119.062
127.393
147.522
127.970
110.010
126.611
118.299
152.373
114.158
129.276
139.270
112.417
147.263
152.601
105.795
121.100
136.815
107.218
125.632
131.418
104.866
148.990
132.100
148.986
151.713
139.517
148.050
137.289
102.982
138.096
148.528
146.376
121.318
115.124
120.597
112.742
128.167
147.490
138.002
146.707
129.049
139.297
130.205
136.063
109.425
136.212
134.117
133.998
103.360
130.185
144.610
117.996
135.673
140.024
136.942
145.203
125.344
129.628
149.578
149.912
134.986
123.087
127.450
109.334
144.328
102.234
119.941
127.371
107.321
141.294
110.610
110.892
122.949
147.914
113.822
113.534
140.918
130.395
132.562
127.771
127.507
117.045
139.280
109.863
113.774
111.306
142.445
146.311
145.250
143.116
134.881
127.747
138.057
99.748
107.078
127.979
119.091
106.477
114.635
118.348
102.533
111.840
144.033
133.650
100.643
143.188
115.567
132.451
135.036
112.292
141.022
122.686
131.784
128.330
145.412
110.138
116.204
121.377
108.144
145.141
131.935
131.332
146.099
121.186
116.797
102.240
109.905
97.756
134.656
104.941
139.873
107.842
114.495
142.116
129.147
117.539
123.176
139.339
146.338
129.494
138.440
134.769
145.435
119.915
96.241
105.402
111.926
141.409
134.224
109.016
135.743
105.603
120.240
95.518
110.524
104.270
129.982
115.979
120.739
117.785
111.662
142.433
134.995
108.256
118.897
127.694
101.050
137.869
103.432
105.958
130.451
143.327
108.608
99.062
124.225
116.252
115.929
140.215
143.499
131.951
137.523
141.772
118.131
124.231
131.020
145.814
98.798
108.793
139.694
146.338
113.265
143.620
107.001
132.070
124.902
144.281
111.910
114.948
95.980
143.255
103.527
137.878
105.452
142.601
130.845
132.725
129.959
144.987
141.468
96.445
104.993
111.284
96.595
115.521
97.447
133.018
134.565
117.609
136.456
137.513
119.537
119.676
96.551
135.736
106.134
131.243
104.865
128.742
118.833
123.384
130.506
116.219
138.137
122.153
137.400
108.112
118.979
130.522
136.378
120.868
107.867
113.704
145.030
106.234
96.907
126.698
130.765
118.310
125.504
141.569
144.794
142.284
130.167
145.057
129.696
123.074
108.475
103.097
114.201
121.075
126.012
115.696
122.173
139.859
108.251
137.835
116.058
117.678
132.648
134.924
146.281
106.488
104.822
144.106
109.743
140.423
116.033
122.859
119.525
108.442
118.187
135.512
112.866
138.562
104.488
119.241
108.712
121.384
124.426
115.705
145.278
103.129
105.461
110.370
127.285
109.485
137.978
140.769
116.125
101.161
123.688
145.670
115.037
123.308
139.064
106.888
143.421
106.120
109.583
137.787
137.918
138.411
133.939
113.686
95.845
107.119
141.567
99.391
99.088
102.836
100.628
101.297
146.181
118.545
118.869
98.137
144.290
132.401
133.843
134.879
122.175
143.909
127.305
103.856
127.384
146.402
123.109
123.137
140.135
131.662
138.101
126.200
137.518
136.328
111.909
115.960
105.962
116.265
108.548
104.077
111.694
114.718
113.861
141.550
130.284
120.655
106.225
136.173
138.044
127.485
128.395
133.571
132.245
143.880
121.271
104.111
114.350
126.957
116.286
95.055
103.445
127.633
129.377
140.279
137.866
101.068
136.546
116.694
96.726
136.217
102.644
116.208
102.991
141.283
109.933
95.808
98.001
103.518
133.872
113.936
115.112
116.413
141.229
129.422
122.606
137.232
124.360
142.095
131.572
102.378
112.040
131.089
134.972
137.464
107.320
100.222
117.728
107.274
133.362
112.859
127.908
124.443
139.179
99.831
129.648
145.126
109.121
126.999
142.633
108.689
139.137
128.054
106.468
98.009
140.861
122.959
131.114
124.417
116.480
137.602
98.902
136.575
96.235
135.491
100.666
123.350
109.158
109.843
104.430
98.411
122.355
141.740
129.050
108.421
129.898
138.897
115.145
134.289
112.247
115.176
124.787
112.705
131.588
113.756
102.162
145.207
142.224
117.896
104.915
135.707
99.078
125.048
140.958
137.930
135.523
118.752
129.559
137.831
134.768
135.599
122.105
126.386
104.849
102.440
116.001
124.393
131.632
115.862
99.440
95.391
133.135
121.745
101.244
103.676
29.180
41.956
32.187
34.017
40.670
34.524
339.275
362.429
355.848
376.368
366.370
361.470
384.823
366.056
383.323
396.348
383.830
380.394
380.057
410.152
407.024
403.532
418.008
414.547
422.203
405.363
413.823
415.226
432.372
447.658
423.365
431.840
434.032
449.364
437.213
448.276
445.947
461.342
455.611
479.465
459.513
474.923
488.270
480.513
475.170
487.707
496.909
496.777
499.063
490.644
501.766
518.430
504.776
525.371
531.148
510.876
516.929
543.768
544.058
539.622
537.717
554.238
553.780
550.953
545.984
563.643
560.592
578.346
557.420
576.460
573.113
580.340
579.609
602.251
599.200
602.254
611.966
598.750
593.288
623.142
609.297
610.062
616.171
630.144
622.660
619.771
642.718
649.269
654.915
633.699
639.155
654.398
642.161
648.505
670.016
653.112
663.793
664.521
683.598
668.208
674.640
699.564
688.898
685.582
692.518
693.245
388.086
387.435
392.595
398.439
403.363
401.695
398.349
410.539
414.116
410.030
412.571
410.771
421.617
422.279
421.118
415.279
429.688
426.816
432.532
424.972
436.895
429.674
440.674
429.600
445.496
447.672
438.796
441.052
441.222
447.361
443.486
456.633
455.621
464.719
462.992
453.545
467.846
465.621
469.624
465.801
477.545
468.067
474.283
473.509
484.965
480.587
478.650
476.970
481.099
481.612
488.245
494.287
496.846
502.960
502.854
502.460
503.577
501.384
507.133
510.986
507.114
506.316
521.724
515.217
525.735
514.373
520.829
529.741
519.819
524.075
526.320
534.053
530.713
540.930
533.769
546.819
542.836
543.413
552.900
549.109
544.082
556.753
553.224
556.021
559.335
561.332
563.955
567.675
558.058
559.297
574.516
575.147
575.665
567.914
574.641
577.198
579.816
588.762
578.068
581.230
587.988
591.141
588.441
595.949
589.462
595.868
600.679
601.852
594.479
600.558
590.982
595.720
603.449
598.191
597.273
610.209
609.871
611.732
609.357
611.102
605.538
603.752
607.363
617.595
604.420
610.448
614.822
618.610
611.093
611.512
623.579
617.664
626.749
621.178
621.993
625.759
619.732
628.213
618.172
624.899
628.911
626.058
626.174
633.040
628.203
630.174
638.694
639.587
640.743
640.266
644.706
638.561
644.239
638.618
636.325
650.133
646.140
651.433
652.241
649.420
640.877
644.938
654.300
643.649
648.189
646.834
647.773
658.720
650.525
655.249
660.117
659.692
661.178
659.083
657.130
660.161
668.733
667.628
672.467
664.959
661.997
675.356
674.899
666.609
670.208
678.328
677.591
669.341
668.165
678.461
682.106
685.544
677.343
679.799
682.780
685.695
682.929
681.807
690.252
685.955
684.337
692.914
688.655
693.101
698.888
696.913
697.327
700.543
699.106
699.499
691.465
700.834
703.340
695.706
697.915
698.145
704.283
707.213
700.585
710.760
701.331
709.698
712.492
714.578
718.673
709.493
715.305
710.493
709.367
717.644
717.174
713.197
716.985
723.152
713.916
722.374
730.135
716.040
729.660
723.166
729.878
731.275
720.776
733.440
738.587
732.615
728.281
737.534
741.814
740.078
733.498
730.013
735.708
735.251
739.057
746.226
735.213
744.802
741.580
740.663
744.082
743.738
747.363
745.305
751.569
752.506
744.931
746.679
757.572
754.007
748.935
759.108
760.620
752.194
763.443
760.061
768.877
765.367
763.216
763.041
767.755
774.273
765.550
774.980
764.956
770.028
768.314
770.330
779.569
776.889
772.126
784.934
778.826
784.236
780.713
782.597
781.359
776.711
788.841
788.781
784.448
787.755
778.656
792.751
779.274
782.180
790.487
782.530
780.580
788.988
785.943
777.262
782.457
778.490
790.430
782.549
787.928
781.879
775.406
790.658
775.017
789.633
787.665
782.764
780.772
774.562
774.322
785.117
777.198
773.233
777.383
783.266
787.297
779.658
773.688
774.438
785.931
779.488
783.455
771.691
776.634
773.360
776.657
783.760
779.544
770.572
778.658
778.197
781.195
777.357
778.602
770.685
784.469
777.470
778.786
774.101
778.330
778.785
778.724
768.921
768.717
771.911
768.091
777.388
782.468
770.030
774.989
778.064
768.497
779.466
773.382
780.172
778.514
779.213
770.006
776.247
771.002
768.462
767.811
776.426
766.108
764.561
766.187
777.788
779.723
765.529
767.176
763.921
764.888
768.926
777.011
769.318
778.597
775.620
763.475
776.328
764.428
772.994
766.658
763.827
764.616
765.621
776.525
776.099
776.388
765.660
774.399
765.117
773.432
766.030
761.662
765.849
763.714
768.774
769.497
763.125
764.811
762.842
759.311
769.345
773.905
760.344
759.833
772.563
767.890
762.308
760.253
771.154
766.374
757.289
767.006
757.335
765.053
763.138
771.013
763.441
757.150
762.982
762.947
763.827
757.685
769.348
759.818
755.095
760.816
763.614
763.245
762.826
765.412
760.057
766.207
755.300
754.967
768.067
754.556
760.270
759.146
754.716
764.432
766.879
752.980
760.550
761.992
756.526
762.511
765.783
752.217
750.204
756.174
762.538
750.591
762.002
760.252
762.246
752.493
758.277
754.401
754.234
758.126
762.041
753.204
752.794
754.735
752.391
756.211
762.237
758.341
749.627
748.554
754.856
756.815
757.811
759.855
758.281
753.055
756.101
746.909
756.666
760.647
758.430
745.098
748.351
753.271
761.560
763.140
757.716
755.630
757.679
771.769
772.610
773.277
774.869
779.204
774.977
775.844
780.210
774.388
785.045
780.288
789.875
790.673
792.437
792.144
791.186
796.414
791.009
794.847
793.659
800.501
805.471
814.042
801.967
814.999
804.922
812.786
823.631
822.548
818.119
813.993
816.695
823.722
830.730
835.855
830.541
827.192
836.426
836.701
831.665
845.927
844.106
848.936
842.678
847.769
840.589
851.736
855.123
850.047
849.046
854.725
858.983
865.022
861.044
863.367
860.893
871.689
870.937
864.687
866.927
874.916
878.993
883.224
873.190
879.978
888.758
893.691
881.518
895.915
893.919
892.724
897.113
897.434
906.082
899.070
897.297
906.369
905.568
913.119
904.632
903.508
914.265
920.656
918.361
925.503
921.652
929.656
920.786
921.053
919.193
933.111
932.505
927.771
932.589
936.028
940.447
939.291
944.234
940.210
939.591
947.331
942.382
955.164
951.919
956.025
961.351
953.701
955.619
957.999
968.553
961.660
971.142
972.344
976.793
977.147
973.774
972.151
980.173
973.239
982.202
979.330
988.991
981.983
981.084
990.268
991.768
988.540
999.599
995.111
999.921
1006.501
999.242
1010.755
998.498
1007.664
1017.269
1006.752
1008.761
1015.071
1022.519
1014.746
1014.268
1016.127
1027.242
1026.195
1020.450
1026.411
1037.538
1036.091
1031.748
1042.806
1039.383
1035.723
1048.189
1040.149
1042.297
1050.392
1050.151
1044.374
1049.003
1048.728
1051.341
1060.987
1061.161
1065.439
1067.994
1067.664
1061.009
1067.281
1070.038
1076.641
1081.948
1070.402
1084.158
1083.304
1076.616
1079.760
1079.384
1084.057
1081.162
1092.833
1089.233
1097.000
1092.143
1095.726
1103.806
1096.092
1102.573
1104.469
1099.825
1113.186
1113.047
1118.322
1114.672
1107.600
1102.579
1106.876
1109.013
1098.049
1097.822
1098.165
1098.189
1099.609
1097.394
1091.421
1089.348
1084.298
1091.812
1080.668
1077.035
1082.717
1075.491
1072.395
1073.091
1075.168
1072.268
1068.357
1061.334
1062.822
1055.028
1062.492
1057.483
1062.425
1054.025
1053.014
1058.913
1041.856
1049.695
1038.641
1047.305
1043.195
1041.170
1042.529
1043.588
1037.772
1028.370
1035.381
1021.399
1029.993
1027.485
1026.937
1015.287
1023.396
1021.473
1014.660
1008.502
1013.493
1011.957
1009.091
1007.762
1007.173
1002.531
1005.295
998.272
1002.907
989.475
1001.275
998.248
989.842
989.240
989.849
983.199
990.115
980.546
971.208
977.683
971.266
971.622
969.546
964.670
968.360
960.567
962.664
955.676
961.334
962.576
962.407
959.506
957.645
943.245
949.872
944.591
942.768
936.630
942.766
934.912
933.168
940.813
933.417
930.596
936.977
932.390
922.114
930.248
926.725
922.061
915.280
922.808
915.989
911.122
915.239
911.426
907.157
898.618
902.096
895.287
899.681
892.361
890.886
889.990
895.622
883.402
893.915
881.612
889.516
885.790
888.903
887.696
881.523
874.235
872.992
879.786
872.604
866.145
874.073
871.063
859.529
860.561
864.543
853.448
852.603
852.480
849.985
847.350
854.444
842.349
837.375
847.357
836.467
835.801
839.797
842.772
826.505
831.743
826.560
827.446
821.457
817.492
826.972
826.900
815.341
819.654
811.336
819.368
812.993
814.205
801.346
799.474
802.435
804.833
801.087
795.678
797.094
802.641
789.205
791.436
788.612
783.028
786.573
786.116
780.326
784.492
784.409
779.546
774.011
770.114
767.516
768.961
772.989
770.208
758.648
762.339
760.143
755.807
759.467
754.731
751.865
742.406
755.000
747.283
744.049
742.113
741.969
741.350
736.933
744.526
742.973
747.003
743.151
744.229
751.656
747.866
748.572
750.716
755.320
747.684
751.966
757.322
750.104
759.650
761.719
755.659
755.930
766.058
767.405
756.802
757.624
763.411
764.998
772.477
767.835
772.508
765.887
777.703
775.465
769.930
775.676
776.584
767.137
779.384
775.101
784.039
776.436
780.779
783.708
785.165
783.613
789.642
786.101
785.586
781.281
782.780
794.259
785.488
788.427
798.010
796.668
793.884
800.525
799.560
795.948
795.122
798.296
796.451
798.386
803.026
795.383
803.896
802.746
806.160
799.415
810.508
802.691
802.583
805.218
812.643
810.793
804.494
819.013
807.910
812.207
820.627
817.917
808.318
824.489
821.572
815.198
821.256
825.526
819.054
830.332
819.564
830.999
821.484
824.572
827.002
824.911
833.113
837.092
837.900
825.477
825.920
835.612
835.825
832.518
843.161
840.748
841.666
845.610
833.919
838.299
846.886
835.642
840.880
849.697
838.059
851.482
844.742
856.181
852.140
850.309
844.241
852.457
854.667
860.290
857.018
861.562
861.095
855.388
858.492
860.223
862.759
868.302
868.884
860.834
867.265
868.217
868.952
872.796
862.214
863.271
867.360
873.465
868.674
866.113
875.006
873.531
878.709
879.821
883.860
880.538
884.230
872.560
882.425
889.289
879.321
891.341
889.454
887.538
894.516
890.721
890.217
883.017
884.151
884.132
898.581
900.319
892.224
901.411
897.509
889.034
893.995
902.230
901.745
905.571
900.124
904.054
906.906
903.348
906.343
913.689
909.697
906.649
904.391
911.196
906.987
906.833
911.904
920.485
908.477
913.121
910.982
923.585
918.340
919.805
925.880
917.229
919.948
926.259
924.979
918.441
919.159
924.531
928.541
934.250
928.879
924.358
919.671
921.235
927.951
918.458
925.539
923.347
918.990
923.627
923.969
920.373
927.511
931.152
921.192
927.743
933.450
919.708
918.279
929.924
930.217
929.079
930.254
932.036
930.883
924.972
930.310
920.739
920.816
917.554
917.803
918.993
920.325
928.835
926.214
922.359
926.066
924.928
921.238
919.818
923.232
920.885
926.990
926.478
930.024
930.796
923.391
926.430
917.184
923.471
932.076
921.994
920.081
918.666
929.285
919.385
921.519
927.196
926.238
924.441
925.936
932.051
921.373
919.396
925.080
930.561
924.031
921.882
922.631
920.553
917.805
925.477
925.598
921.445
917.080
915.842
916.188
924.283
927.462
924.332
920.171
919.163
927.837
924.076
917.773
919.395
919.605
921.790
927.121
919.409
920.814
919.544
920.058
919.773
925.049
925.313
928.105
922.975
923.907
928.547
927.900
930.602
929.643
920.030
918.355
915.797
918.998
928.891
919.541
920.261
914.524
928.693
925.263
916.213
915.315
