119.923
127.932
117.855
124.857
113.149
129.754
128.215
127.285
108.320
143.085
109.853
133.100
103.802
115.211
121.825
144.292
125.750
141.253
96.401
123.398
145.170
107.629
126.439
102.533
99.054
116.134
126.181
96.186
112.157
138.088
138.571
110.194
106.520
101.813
144.470
111.310
103.306
125.518
108.924
100.622
114.776
101.216
134.387
143.033
107.336
145.757
133.886
113.932
138.469
106.343
119.252
108.339
98.245
143.318
113.397
145.341
99.043
139.873
109.357
126.113
101.516
100.187
141.478
113.745
112.384
124.547
138.461
138.809
142.516
119.037
142.729
124.700
118.591
101.150
120.509
104.442
103.910
145.488
144.765
135.697
126.918
140.809
138.041
114.742
142.640
115.730
139.985
119.268
120.444
97.703
100.588
118.764
139.592
121.571
102.944
119.204
145.565
100.966
126.933
146.159
106.544
116.932
142.921
120.889
112.243
124.914
97.431
142.130
144.915
115.316
98.763
133.294
108.911
96.005
120.138
114.685
94.816
143.366
144.599
125.541
136.445
138.612
114.491
132.180
114.608
131.494
131.285
104.845
124.089
109.655
110.187
140.380
140.151
123.522
125.115
146.280
121.016
135.299
120.749
133.691
135.439
129.347
132.765
142.223
107.671
100.660
142.801
109.549
108.996
98.516
95.456
137.076
140.273
125.794
112.528
106.101
125.630
98.936
126.655
128.626
124.986
118.369
132.500
122.693
102.906
132.897
136.508
102.266
137.544
104.891
107.995
132.966
117.285
116.119
103.005
130.063
133.527
129.824
101.781
98.696
145.398
127.099
141.589
140.410
132.418
136.535
137.941
112.850
125.512
112.421
146.692
99.903
110.465
107.085
110.552
100.481
98.456
107.944
129.673
114.956
128.428
138.878
137.991
146.079
126.242
141.144
132.360
129.144
129.147
138.404
99.586
145.017
97.276
125.343
146.444
104.573
109.546
128.142
145.891
104.654
124.490
121.371
140.810
118.913
144.127
124.094
115.046
106.454
99.075
115.600
133.131
120.217
108.165
145.856
133.499
102.784
97.966
98.714
127.027
127.346
135.117
98.137
137.439
143.903
129.431
99.512
109.766
95.312
144.660
134.228
99.546
119.880
130.118
143.072
122.786
128.065
124.483
110.928
109.885
94.931
127.695
108.990
133.762
123.832
108.897
112.531
129.655
138.064
138.317
121.868
142.502
122.367
134.871
144.285
115.812
136.642
133.298
108.510
108.491
107.075
121.582
141.808
142.094
125.284
114.862
122.655
100.352
130.002
116.049
137.128
141.650
139.356
121.632
100.044
142.463
97.597
130.861
130.503
142.530
139.084
118.550
96.380
114.968
128.915
138.266
139.656
106.651
135.539
135.687
135.342
129.576
102.406
109.769
102.648
96.630
142.767
96.518
103.668
111.963
105.474
105.591
119.902
96.188
104.283
102.507
136.459
114.749
99.736
128.291
97.036
136.896
146.332
119.724
104.481
120.712
102.106
133.769
109.977
98.078
120.212
110.804
139.156
121.661
137.169
110.674
111.575
125.353
118.867
131.135
145.005
126.553
135.522
94.936
103.387
103.616
108.702
114.914
116.872
135.435
140.995
129.060
112.847
105.580
118.746
142.546
129.548
97.860
141.291
137.653
134.831
146.486
131.684
102.525
116.835
119.287
97.761
142.199
97.553
122.055
128.061
130.549
113.019
98.970
118.841
100.301
139.934
119.588
117.934
133.477
104.789
111.639
143.916
138.769
140.741
96.042
145.096
133.945
136.869
135.449
137.306
127.212
111.094
96.982
132.277
138.902
130.503
145.846
118.393
100.021
109.826
132.482
95.085
119.172
133.572
109.849
106.504
113.068
129.934
112.864
131.536
104.518
98.756
110.372
100.137
113.125
107.177
95.691
122.708
100.755
106.773
122.616
129.465
122.129
109.749
132.642
97.947
101.186
125.291
119.710
129.961
94.909
121.897
96.668
104.439
142.451
114.593
108.900
135.289
129.138
125.051
130.204
114.357
98.483
116.355
117.422
118.366
105.317
104.844
98.227
139.062
107.940
103.292
134.681
136.275
121.769
132.113
117.784
131.883
123.663
96.621
103.427
104.776
141.831
138.887
145.302
117.853
120.406
122.874
113.598
143.674
118.268
108.488
109.482
95.290
114.340
138.257
101.427
114.518
111.468
127.961
138.753
103.080
112.770
139.421
97.120
130.876
110.120
119.619
127.209
119.817
140.839
108.353
125.147
136.614
123.420
143.628
146.161
111.692
114.263
133.466
126.147
104.211
134.540
110.685
113.472
139.603
101.568
109.559
132.358
115.596
133.560
134.782
109.825
119.471
146.026
136.941
94.950
111.671
100.694
99.987
128.952
123.362
108.896
112.305
119.959
117.571
124.991
140.668
105.090
146.633
145.551
133.235
140.220
104.324
123.697
114.654
141.461
120.077
107.877
122.636
143.555
120.929
125.063
109.686
127.345
96.564
118.928
96.603
135.094
143.256
123.271
98.219
97.267
132.646
136.657
137.894
102.661
136.700
142.822
133.070
128.774
127.011
119.360
107.925
101.079
135.724
100.519
115.668
145.564
113.501
146.531
137.690
139.971
137.330
113.819
145.069
113.313
136.121
101.100
132.611
99.249
135.832
140.204
98.005
106.434
119.110
100.265
106.996
132.537
118.940
121.332
104.259
96.930
127.330
106.508
135.509
117.554
109.725
135.743
105.865
139.685
101.908
111.816
106.191
117.771
96.700
95.981
145.301
103.592
97.824
141.841
129.024
132.278
127.189
120.439
135.355
107.202
136.045
110.580
112.377
100.192
103.767
101.034
98.011
146.670
102.150
143.501
106.203
116.361
103.968
115.222
111.255
122.941
112.455
116.736
141.917
119.715
97.918
121.616
141.738
126.465
145.047
104.907
130.906
142.329
122.731
120.193
117.636
110.212
95.518
107.073
134.111
101.571
112.054
141.296
99.208
114.094
125.646
124.731
113.859
122.126
111.251
98.306
118.387
110.134
132.972
106.490
113.706
134.478
143.978
110.108
133.814
97.480
116.790
101.104
137.720
140.792
131.255
137.867
116.663
117.027
114.996
113.101
122.651
112.430
99.644
113.684
141.329
123.694
140.072
144.678
135.673
109.775
142.529
102.785
95.257
98.671
137.569
107.913
129.360
135.161
142.552
129.175
146.057
104.986
99.876
137.937
121.533
142.924
99.831
132.447
115.450
112.455
103.085
126.413
121.479
100.005
139.432
113.648
112.343
133.977
119.339
128.055
144.154
121.123
138.200
122.910
111.908
111.163
125.720
107.838
113.134
102.671
134.709
111.549
111.438
142.742
125.708
122.250
141.529
112.411
110.609
138.889
98.462
137.839
96.857
111.905
109.030
130.682
96.049
122.624
131.283
97.032
138.719
96.381
123.948
123.117
109.110
143.262
97.051
108.471
118.907
120.282
114.845
125.500
114.177
118.420
115.064
131.911
144.262
94.838
105.682
146.552
136.178
105.411
122.852
100.323
134.393
123.965
139.280
128.502
144.164
138.492
142.203
126.905
99.658
133.734
113.494
119.059
113.659
134.167
131.462
99.989
142.801
100.779
111.286
146.749
121.529
114.456
125.808
112.319
115.502
122.620
140.533
132.774
136.701
100.808
136.230
107.249
144.756
139.970
130.528
117.134
95.384
124.154
130.190
143.702
146.101
97.464
96.277
131.047
139.682
101.635
143.807
128.739
145.421
103.938
137.346
135.287
122.487
111.219
116.113
110.667
98.850
131.052
138.503
138.620
140.532
124.003
129.679
125.284
114.889
108.954
114.918
136.032
130.801
95.676
134.860
145.081
126.275
119.165
127.290
131.999
111.163
143.247
128.434
100.860
122.836
105.061
124.464
113.389
130.413
98.023
143.425
96.856
133.019
115.745
98.472
146.756
132.871
128.324
118.684
98.324
127.453
140.447
136.352
136.907
140.859
99.529
126.401
108.962
131.237
104.228
98.488
122.762
117.426
120.884
104.561
103.902
145.734
120.565
116.869
125.732
112.866
142.135
106.544
124.129
111.504
146.071
129.958
144.190
140.458
138.651
136.811
124.952
102.037
144.908
140.623
135.113
141.584
111.101
119.000
105.602
128.512
122.964
110.991
137.632
130.397
116.577
95.222
142.775
125.334
142.242
127.399
102.908
96.954
103.727
107.423
124.795
112.809
143.373
119.667
123.881
139.995
98.239
127.506
113.457
132.581
130.418
118.064
121.247
110.282
140.522
128.897
121.122
131.673
125.848
137.695
130.344
115.725
134.244
111.516
119.453
101.489
111.998
113.495
129.493
100.870
143.892
111.177
141.419
117.528
128.045
122.085
131.577
137.967
120.873
118.797
142.166
108.326
139.645
117.281
127.355
138.995
108.118
123.903
101.292
128.744
139.360
109.483
110.346
138.946
142.817
117.032
143.596
131.759
118.067
134.721
105.374
97.694
99.882
128.993
115.626
144.170
106.414
128.760
137.111
106.202
112.388
122.717
95.502
116.762
123.282
135.168
133.052
112.217
127.782
117.429
111.419
135.473
121.810
100.144
141.135
126.985
100.281
108.064
122.806
96.783
117.470
124.195
121.780
120.458
133.858
95.311
110.625
102.710
141.800
99.065
97.703
120.634
102.458
113.301
145.055
97.945
126.144
122.368
135.552
94.991
96.955
112.523
103.042
128.824
105.014
104.673
116.664
122.548
120.718
143.383
146.077
133.463
109.201
137.962
106.196
145.175
127.621
117.346
108.475
109.091
131.581
143.952
122.933
109.197
143.153
128.003
122.454
134.930
124.139
131.310
102.327
125.291
107.389
135.728
142.802
137.983
135.098
145.075
133.135
117.812
134.996
140.206
140.272
116.567
135.531
130.995
123.932
122.784
138.033
99.551
134.150
138.593
129.237
145.203
145.341
126.951
145.562
137.671
103.192
136.774
96.394
138.115
118.400
130.065
109.387
126.450
128.000
119.703
97.177
95.782
111.982
144.738
139.845
106.352
103.046
110.379
100.237
107.411
113.925
129.095
138.578
130.933
97.482
100.463
143.564
107.075
108.020
118.450
137.921
123.840
125.718
131.874
135.671
99.554
142.175
124.767
113.839
97.386
115.919
108.582
113.574
115.275
119.435
131.677
137.638
144.428
130.197
104.153
135.395
107.035
127.586
117.482
126.384
110.821
113.116
122.205
131.206
112.131
97.401
110.793
144.499
119.057
95.562
101.946
116.925
145.889
129.505
31.202
43.444
45.040
38.127
30.057
40.857
34.841
41.765
37.967
29.378
45.068
44.957
42.147
34.183
43.567
42.547
33.622
36.714
29.950
31.165
36.483
33.910
43.754
34.255
44.221
37.032
30.018
33.272
43.092
40.412
36.389
38.605
32.289
44.710
31.064
40.667
30.967
40.995
33.344
37.530
39.417
31.021
816.429
790.826
805.555
819.132
806.876
797.484
815.752
811.985
804.624
822.726
828.576
812.661
829.647
838.172
818.369
818.894
829.664
831.171
845.737
841.532
831.335
852.874
840.145
842.526
840.076
842.771
836.711
844.825
865.605
860.725
845.569
842.987
864.682
852.021
867.390
865.908
870.855
871.505
857.918
865.559
882.431
877.961
867.426
875.700
879.867
887.461
872.387
881.811
880.585
884.717
888.026
893.504
887.812
907.877
906.924
910.679
908.889
893.199
890.462
899.971
909.921
906.819
903.491
915.083
909.332
907.337
932.686
922.300
911.532
909.985
915.293
928.977
929.666
928.820
918.927
930.730
925.210
939.879
950.853
931.799
955.537
942.796
941.325
938.209
948.542
944.607
959.345
944.232
965.556
969.429
963.532
950.218
977.230
964.610
973.937
967.635
962.610
978.172
964.109
987.049
539.147
551.368
546.819
551.873
540.599
542.589
550.231
552.750
555.242
558.007
556.109
548.436
559.261
548.275
561.117
551.762
564.377
559.694
563.046
563.289
556.097
564.165
566.747
572.682
571.868
568.597
563.233
562.819
577.968
571.043
567.869
579.971
576.004
570.337
581.513
577.346
575.934
587.612
579.511
580.677
581.530
576.450
581.918
590.898
585.628
594.260
589.492
585.871
594.049
598.755
592.715
592.824
592.066
594.640
604.242
593.889
602.747
599.498
598.805
594.819
603.810
595.199
600.605
606.254
608.864
608.004
607.319
609.579
615.694
614.178
612.474
620.207
611.729
608.408
608.765
610.472
616.956
623.470
617.492
624.913
624.610
626.611
620.667
621.515
630.584
626.600
622.507
623.853
628.687
633.300
638.239
637.266
633.945
636.576
641.307
630.876
635.472
635.552
643.164
634.930
634.299
644.379
647.023
636.662
646.470
645.541
644.387
646.699
654.243
642.919
641.908
650.112
646.894
652.522
646.079
649.523
657.336
660.709
657.096
651.439
658.615
657.852
667.044
656.834
668.368
658.812
667.146
669.813
671.344
663.423
668.113
663.945
660.726
672.271
670.478
670.870
676.440
666.420
674.663
678.518
674.745
676.707
678.660
674.256
672.567
683.518
681.655
683.469
688.099
689.834
689.760
676.989
684.679
685.827
685.392
682.378
691.148
681.219
696.740
693.152
693.774
697.349
691.524
694.388
691.609
696.178
689.527
689.945
702.364
698.188
693.426
700.162
696.556
699.032
697.487
698.716
709.647
712.866
704.544
703.436
702.807
716.214
703.481
710.013
708.317
719.679
712.373
720.572
716.695
720.347
710.441
723.309
714.190
712.331
726.898
725.559
722.604
723.199
728.690
717.578
729.560
724.497
727.627
731.931
726.528
726.428
736.410
726.473
726.108
739.554
741.120
734.634
733.041
737.220
738.845
734.341
733.293
733.970
748.199
734.985
742.246
739.981
737.094
749.400
753.251
745.369
743.640
746.073
754.399
742.080
753.105
745.879
744.467
751.708
760.954
762.577
754.878
749.641
758.965
760.265
753.117
754.167
768.245
754.304
763.482
769.100
766.493
772.425
764.918
759.185
772.673
761.000
763.278
762.929
768.335
769.723
775.726
770.840
776.678
781.506
779.810
771.340
785.065
780.342
782.045
776.868
784.557
781.679
776.322
791.225
783.855
787.374
790.487
788.014
791.141
790.326
782.995
789.285
783.220
799.584
797.194
788.737
799.565
798.874
792.914
791.227
792.969
793.816
794.790
801.136
807.955
795.874
808.712
810.286
810.875
800.440
803.178
804.273
810.891
802.372
807.427
816.749
805.745
808.614
810.602
818.230
810.138
804.535
803.900
810.814
810.543
803.797
808.306
811.788
810.144
817.516
806.074
816.788
820.154
816.469
821.079
806.811
817.134
821.012
810.656
815.165
812.069
810.038
821.339
817.172
823.496
818.548
810.007
823.991
815.644
813.820
824.409
821.234
810.030
811.417
813.808
823.932
826.012
815.788
823.132
814.289
820.790
824.449
822.809
822.497
824.730
821.463
813.739
825.193
819.845
824.372
821.167
824.449
827.316
817.090
827.938
818.810
814.501
816.122
824.487
825.210
816.685
819.417
818.690
824.014
823.017
819.707
829.707
823.814
826.640
824.499
820.136
819.693
821.975
824.961
828.564
832.311
828.003
829.607
828.012
828.529
821.303
831.228
821.558
830.739
828.130
829.945
832.807
821.770
822.789
822.202
833.621
834.467
827.967
836.049
832.900
834.079
824.297
832.024
828.679
834.447
838.855
833.421
826.628
830.434
834.131
836.079
825.139
838.026
837.392
825.544
839.475
835.182
839.195
829.261
839.038
832.217
826.822
838.538
841.771
828.712
833.644
842.464
831.190
843.047
841.598
832.279
840.322
840.512
836.038
838.888
833.789
830.337
831.178
836.666
843.179
841.500
831.729
842.382
846.886
836.447
836.909
842.873
845.378
839.994
834.905
836.773
837.950
837.725
834.233
836.850
848.133
838.571
846.468
848.256
848.571
838.696
847.424
835.533
850.025
835.775
842.014
843.754
847.682
848.918
840.714
837.493
838.775
848.051
846.933
851.840
850.323
847.435
851.945
851.605
853.530
843.453
840.183
839.796
854.623
853.764
843.827
848.366
846.183
849.158
850.015
854.126
840.873
854.078
851.554
845.102
856.677
846.471
853.337
854.895
849.750
851.367
847.690
852.683
847.328
851.289
843.210
840.247
840.702
848.477
848.404
847.856
850.470
841.984
846.552
836.340
834.860
832.875
843.280
834.957
834.565
843.140
833.970
830.956
839.544
840.041
827.828
839.020
839.888
834.361
833.699
827.153
831.131
834.664
828.876
827.818
825.847
832.720
836.029
826.035
825.935
826.911
832.226
831.047
827.148
830.217
829.104
824.474
821.510
827.060
823.525
822.054
825.137
816.806
814.488
821.501
813.768
822.680
815.506
811.184
815.314
819.934
822.034
819.889
813.510
818.732
814.678
815.467
818.070
809.045
813.859
810.669
815.619
810.117
801.260
804.781
801.536
803.527
802.638
800.891
798.225
801.014
800.262
801.661
795.236
802.897
802.141
803.144
803.391
798.212
805.685
800.744
799.508
791.339
799.520
798.741
791.569
798.586
797.661
789.624
794.542
792.540
796.073
789.719
794.754
791.345
792.179
796.016
786.605
782.105
782.001
779.930
784.359
788.759
789.255
790.894
782.649
786.712
780.806
781.893
775.397
776.883
782.591
785.261
773.593
776.162
781.775
775.000
768.805
769.081
770.721
766.889
767.738
773.638
769.485
765.375
778.314
778.556
775.933
775.308
765.610
764.589
772.600
768.521
760.959
773.603
772.044
772.100
764.671
762.462
756.039
766.707
765.660
764.456
754.626
759.576
762.395
752.344
767.291
752.477
760.175
754.303
756.760
758.898
758.848
749.766
758.247
760.809
755.314
749.408
744.839
759.191
758.843
752.321
744.162
751.192
747.457
746.704
746.567
749.539
749.257
751.882
741.678
