146.512
148.612
107.544
124.279
127.301
152.147
142.808
105.918
119.626
144.020
144.789
130.293
110.647
110.882
121.948
148.516
103.449
147.618
118.701
117.502
134.754
126.996
129.992
118.965
103.476
146.650
138.338
123.397
126.149
128.102
150.040
114.737
112.269
150.978
113.393
107.108
120.051
115.973
110.164
105.402
135.727
151.379
133.242
133.665
112.374
101.531
130.856
125.873
134.950
151.490
144.924
123.967
151.386
141.007
128.664
143.461
122.190
123.783
136.710
151.711
135.676
144.772
135.835
122.363
118.158
113.463
121.334
138.107
124.475
149.229
118.706
105.748
150.787
106.369
119.385
146.521
151.132
128.796
135.411
124.930
120.199
139.171
113.450
139.494
151.071
125.364
128.510
130.135
152.982
152.171
120.157
120.707
150.151
119.217
148.041
105.015
109.996
152.804
147.758
121.792
106.951
111.294
101.520
132.480
137.552
119.499
147.198
121.843
152.145
132.367
124.460
138.430
113.181
117.651
147.899
141.935
118.955
151.310
152.114
106.841
139.351
136.868
119.814
122.432
139.564
115.056
101.971
124.567
151.514
109.563
102.327
101.631
125.272
147.734
116.076
125.728
125.637
140.706
105.931
149.871
138.230
103.695
111.204
115.894
146.418
134.886
142.602
139.418
123.399
149.346
146.659
133.584
105.161
142.779
112.332
130.001
137.088
121.520
139.883
125.115
104.802
120.019
130.358
128.261
147.143
120.596
149.214
113.696
125.400
151.129
126.000
150.079
140.540
143.313
115.559
134.592
145.869
149.086
142.353
115.931
132.238
151.665
134.716
124.323
122.614
143.121
126.364
138.880
108.607
151.461
127.723
140.771
124.429
125.093
113.952
102.174
127.693
110.115
139.283
101.256
152.658
139.784
116.451
148.678
102.018
115.233
147.889
146.472
127.034
107.664
138.029
110.937
137.409
120.373
124.867
144.628
133.748
104.009
107.281
127.713
142.109
146.373
146.407
109.393
151.456
152.050
124.119
134.152
134.633
120.662
104.423
125.247
106.371
111.023
136.892
117.262
116.480
141.251
117.890
102.542
104.384
101.422
124.495
126.476
116.510
121.650
107.704
106.592
141.842
121.960
148.661
139.102
126.614
138.350
119.451
146.325
120.668
143.638
137.136
109.293
148.499
150.131
148.615
150.743
127.370
112.587
104.698
117.065
102.087
150.038
143.234
138.327
120.286
111.839
107.521
140.019
129.575
147.604
120.805
144.389
134.540
141.653
111.290
129.021
113.236
134.360
120.728
104.776
112.105
106.713
113.815
137.025
101.491
106.364
130.115
130.011
142.563
121.257
112.602
142.676
151.016
138.604
146.189
147.273
129.310
147.522
141.313
112.011
136.823
149.571
137.229
127.172
121.423
129.576
124.110
119.258
128.072
151.194
114.393
146.136
124.681
135.947
115.284
117.133
105.747
117.571
141.905
108.339
125.439
144.287
142.066
127.736
142.020
118.708
138.112
132.689
119.983
118.315
112.341
130.048
142.298
109.113
150.685
125.500
111.763
151.857
112.738
150.702
109.284
142.171
151.822
148.579
144.601
129.212
126.802
143.141
148.687
145.888
135.306
110.683
142.962
129.016
143.075
129.357
137.201
104.502
119.303
137.929
128.009
140.085
108.604
101.853
139.980
109.476
131.516
137.639
139.858
144.638
127.479
124.851
110.291
120.449
101.915
149.824
143.841
103.083
148.816
103.510
120.638
105.417
125.889
134.071
118.098
110.209
112.385
114.803
144.336
109.021
144.295
108.757
142.025
148.683
104.896
109.790
103.962
101.630
140.679
127.756
120.522
114.375
105.360
120.901
150.802
103.444
110.824
114.141
121.439
140.416
108.583
117.796
121.331
103.501
125.762
110.781
151.265
137.893
112.879
112.374
106.617
120.607
108.643
140.242
135.612
136.060
108.705
143.348
130.101
115.629
138.417
124.556
120.688
132.099
134.974
111.032
103.514
140.885
129.252
146.439
125.724
106.528
143.682
140.001
121.049
105.356
151.625
108.181
106.356
120.411
147.876
150.563
122.030
132.603
108.588
116.653
102.980
125.286
151.070
148.163
151.040
108.831
136.629
104.463
150.289
113.625
151.618
132.309
140.794
120.805
132.971
104.649
144.331
125.842
120.044
143.714
125.584
137.394
107.409
103.855
142.736
139.430
146.720
141.511
127.764
138.026
127.777
142.107
134.836
144.629
101.220
131.879
133.134
144.471
132.940
120.787
125.804
134.105
144.889
127.022
125.575
107.365
129.005
125.949
111.143
106.036
144.991
107.764
109.627
147.320
125.100
152.628
142.235
114.370
130.482
107.720
103.547
107.142
121.782
111.030
137.706
145.898
127.384
108.094
150.822
101.862
126.032
144.816
143.935
150.354
135.127
133.233
104.958
124.808
105.412
140.946
124.488
143.968
132.259
139.287
120.103
135.279
103.488
153.088
131.138
151.387
135.110
101.552
116.690
128.133
105.160
147.289
107.447
128.054
142.442
111.401
110.661
150.460
144.802
135.381
117.430
140.883
132.744
120.312
135.929
129.236
139.111
106.749
129.940
122.019
112.979
130.233
121.058
145.040
134.625
111.921
109.776
119.421
106.738
144.832
126.742
115.747
123.276
126.048
127.823
127.018
112.264
144.098
135.377
142.648
135.530
147.747
132.765
147.299
148.275
111.268
108.365
127.641
128.081
105.508
146.706
108.564
132.170
105.170
101.800
119.928
134.687
149.876
145.908
135.834
120.011
138.944
148.339
148.278
122.139
101.455
118.191
109.294
116.493
116.505
117.751
104.137
102.938
150.903
149.992
139.270
114.853
102.957
103.204
144.244
132.523
130.322
147.697
106.832
134.809
141.096
104.187
143.134
129.310
106.797
148.603
141.354
117.692
103.557
132.508
104.597
122.201
138.021
106.907
128.209
144.106
116.469
148.472
152.630
116.859
105.378
138.680
132.113
117.892
140.729
133.657
118.044
138.692
109.220
130.459
149.596
127.297
107.376
135.880
128.986
134.337
152.441
121.417
120.359
126.867
127.304
126.726
148.219
140.294
122.159
149.169
126.412
118.172
137.196
103.667
145.420
115.995
122.132
128.027
136.093
112.922
104.901
146.825
141.566
131.500
122.060
148.122
117.762
119.346
133.521
126.993
152.249
149.014
134.952
104.702
139.902
146.391
144.460
129.506
137.748
111.118
102.836
129.419
143.246
113.089
110.098
112.243
135.224
146.091
139.626
146.993
147.968
145.141
111.449
118.231
116.355
121.530
118.533
109.266
149.676
114.305
146.140
144.657
120.395
113.999
101.347
127.085
107.189
118.221
147.406
103.667
101.716
130.274
149.746
131.794
101.442
102.816
116.537
112.283
126.937
116.062
103.374
152.017
139.508
112.097
101.715
105.644
123.026
141.308
129.242
105.148
107.274
144.164
123.269
142.697
119.599
151.379
104.977
135.285
138.067
111.602
133.812
113.266
138.109
134.247
133.653
122.711
111.761
114.971
101.889
115.499
134.622
151.827
138.128
116.867
119.819
141.994
134.240
149.431
137.505
129.619
147.570
124.365
124.922
122.251
143.490
147.695
143.649
104.561
122.909
102.413
138.244
110.222
121.406
117.079
106.936
122.209
113.368
108.924
109.296
139.372
109.979
113.474
136.367
134.325
142.748
122.879
140.000
121.284
125.238
107.763
142.297
142.154
116.751
101.837
121.821
107.619
146.481
151.391
139.124
148.629
102.720
143.756
137.688
103.229
109.011
120.944
119.332
114.559
139.970
146.133
142.784
142.182
139.671
148.841
132.370
142.542
106.390
139.376
125.127
109.570
145.111
140.911
144.128
132.215
115.144
126.435
122.842
139.653
119.173
128.284
122.549
109.003
148.114
107.688
145.823
133.067
102.958
121.914
120.162
149.796
113.423
113.596
123.216
109.720
132.393
118.655
139.175
117.609
128.803
129.275
145.561
115.249
134.406
150.161
132.278
140.183
106.027
130.031
101.607
104.663
107.520
142.620
111.970
123.301
134.761
117.052
103.222
148.800
112.166
110.242
109.839
133.385
105.954
102.032
105.659
116.852
128.592
122.654
150.897
138.262
131.691
152.966
136.969
131.194
149.751
136.156
133.213
151.176
113.680
150.718
137.877
132.107
136.749
135.245
110.249
123.159
138.395
113.376
142.362
141.844
149.658
143.408
145.256
142.120
121.480
120.451
110.569
142.469
107.436
114.155
141.675
101.673
122.523
117.856
126.717
111.730
134.443
113.066
103.767
101.524
110.508
106.654
149.134
102.109
151.667
109.469
105.113
130.753
132.383
124.608
146.996
124.295
106.269
109.271
142.065
122.570
102.113
132.524
135.194
123.263
107.113
150.798
127.557
139.519
152.709
108.467
111.857
132.496
102.352
128.803
134.196
134.994
146.637
152.594
149.744
121.352
120.611
149.033
122.736
150.642
144.879
139.035
114.610
136.722
102.659
136.295
126.779
130.099
118.892
109.011
102.863
121.926
111.731
128.267
151.475
120.369
110.315
108.132
151.940
121.391
146.937
114.486
103.815
123.834
113.574
106.075
111.023
105.812
116.790
114.587
128.519
112.376
114.336
104.381
138.651
111.910
136.465
128.162
122.291
138.043
107.688
150.034
134.685
123.992
114.551
108.875
152.356
119.130
141.297
136.091
103.267
144.630
126.660
134.172
128.903
152.138
145.923
115.821
113.190
135.150
114.223
117.435
104.825
116.071
102.277
132.799
125.197
106.018
146.555
131.485
102.761
137.844
125.392
125.233
109.154
122.794
139.830
126.719
147.636
129.480
136.150
141.641
119.272
112.278
151.430
117.192
151.142
144.788
105.642
120.268
126.993
132.596
117.974
140.101
110.561
136.487
107.395
103.298
116.744
116.595
133.712
121.374
139.559
103.695
126.064
136.675
108.853
123.404
146.916
103.723
122.890
147.082
138.024
137.207
125.565
110.509
106.296
102.832
136.312
135.639
131.948
127.286
144.954
140.040
142.830
137.588
124.494
116.469
118.397
148.899
111.868
152.659
104.949
106.500
143.036
103.655
129.017
145.183
133.326
135.218
114.672
112.837
140.438
125.574
103.709
120.498
149.862
132.906
113.818
115.039
133.506
106.485
137.860
141.685
102.686
142.865
151.268
120.018
144.782
148.500
119.130
112.979
137.733
135.557
107.410
121.770
104.351
128.133
115.258
114.341
151.994
107.239
138.681
141.543
120.413
138.645
103.253
140.970
129.143
114.028
105.999
122.158
136.484
130.554
129.580
107.087
125.317
130.562
132.499
117.932
116.094
101.090
97.159
120.480
95.966
115.270
118.047
110.714
125.213
113.113
135.827
142.614
129.070
130.938
124.987
143.133
143.184
111.741
101.933
137.051
123.043
109.532
128.673
95.691
146.072
102.120
121.932
146.658
115.132
122.459
131.104
123.852
117.545
118.276
143.822
101.674
101.211
112.290
131.922
141.381
132.060
126.975
137.754
101.463
106.420
115.344
103.577
145.079
120.433
107.913
105.615
122.428
117.896
113.600
109.659
127.366
102.245
106.919
100.944
110.411
131.873
134.534
146.720
126.481
145.490
123.810
127.332
139.207
101.152
105.303
133.489
118.608
97.917
128.333
108.295
104.225
102.123
134.701
145.712
136.308
120.205
101.107
126.860
116.841
131.209
110.241
132.845
95.870
117.604
95.590
95.090
99.179
142.370
129.020
125.137
106.067
142.477
138.113
123.379
130.577
95.396
135.031
104.470
105.870
129.805
123.778
103.598
103.569
104.475
107.556
136.881
113.363
136.117
99.260
107.024
143.905
125.473
138.503
131.147
96.749
107.834
95.406
142.213
137.341
95.965
140.176
129.334
106.759
134.051
138.778
140.595
106.243
109.646
101.542
126.338
126.522
101.935
124.937
139.326
101.675
113.450
114.502
127.246
113.173
140.442
140.917
130.801
113.613
112.811
140.544
117.803
115.407
123.628
105.303
119.748
138.280
141.357
126.409
136.181
104.775
104.243
124.722
131.788
103.674
100.625
122.641
131.723
114.481
108.796
144.027
124.734
114.449
99.951
140.234
130.281
140.479
114.521
132.932
114.750
134.352
97.236
132.102
144.549
112.271
142.576
140.571
138.919
134.010
131.831
100.748
98.415
109.408
138.200
141.799
95.879
95.568
135.867
134.347
141.498
108.469
122.096
125.341
140.876
108.915
104.868
128.559
123.067
126.124
109.330
114.308
139.080
121.947
95.199
105.889
137.331
99.420
124.735
98.307
130.955
120.232
132.334
115.417
133.464
108.583
133.259
143.014
143.380
118.983
137.144
106.386
141.449
109.513
128.701
133.306
97.148
98.725
117.705
104.792
122.089
93.908
136.432
93.751
116.081
104.387
96.839
92.817
96.276
92.793
119.769
143.325
102.767
128.999
98.804
105.512
119.817
133.222
102.365
113.292
133.968
123.339
114.502
103.762
132.651
119.017
115.550
128.651
107.015
124.534
134.061
101.977
137.287
93.775
128.188
104.333
106.177
130.955
109.689
135.740
135.319
134.306
100.378
93.006
92.245
136.597
126.424
136.561
130.532
137.468
96.756
109.986
95.854
91.572
115.785
137.763
141.550
101.120
134.487
98.402
103.517
112.429
102.533
104.747
140.339
101.664
109.594
97.742
139.922
121.452
105.940
135.263
115.910
125.900
140.562
120.209
130.374
127.526
94.439
124.705
108.783
121.748
141.513
109.391
139.266
115.133
115.033
132.431
99.215
102.128
95.441
118.458
95.369
113.091
93.368
137.670
123.512
122.017
111.937
35.294
41.173
39.163
38.618
35.069
42.472
39.708
41.864
40.782
31.930
38.155
31.640
39.304
34.483
27.705
37.134
30.287
33.389
32.422
28.527
29.404
36.429
33.330
33.701
34.093
36.103
42.389
36.219
34.478
30.147
30.856
27.972
37.953
35.724
29.149
41.893
32.291
30.675
40.373
35.571
27.617
41.706
41.379
28.895
38.116
40.496
1427.292
1417.000
1410.525
1404.542
1418.364
1400.512
1413.509
1414.186
1416.257
1404.744
1417.681
1419.048
1403.801
1415.124
1400.286
1410.842
1397.338
1418.325
1422.825
1400.051
1401.854
1421.951
1398.334
1409.232
1397.876
1417.629
1396.732
1395.300
1419.416
1392.226
1413.113
1418.390
1398.022
1416.425
1413.564
1400.241
1398.344
1389.526
1413.229
1410.487
1415.126
1416.640
1412.470
1394.351
1402.372
1400.322
1405.069
1403.373
1410.678
1393.989
1387.165
1386.448
1387.363
1403.211
1392.965
1394.971
1406.738
1389.756
1387.087
1385.684
1393.121
1406.059
1401.572
1392.414
1385.044
1390.390
1405.360
1395.721
1402.380
1393.729
1397.095
1400.334
1398.941
1391.419
1399.389
1403.337
1391.431
1386.913
1385.307
1394.690
1377.840
1390.988
1398.114
1394.361
1376.354
1381.615
1402.584
1400.100
1391.324
1385.861
1399.871
1382.068
1379.924
1399.388
1387.291
1395.387
1388.024
1373.312
1379.593
1391.267
772.312
772.394
766.947
764.120
766.894
764.043
775.377
760.169
760.518
760.019
772.615
774.708
761.113
759.846
759.715
774.331
766.309
759.123
767.956
759.121
763.294
763.691
761.039
760.039
758.944
770.517
766.192
771.683
769.016
771.173
763.591
762.108
766.958
763.351
767.868
756.980
767.375
764.543
759.161
761.670
754.703
768.668
758.640
757.413
756.905
765.863
763.809
766.601
758.417
759.686
765.830
761.434
767.628
767.696
758.037
759.180
767.336
759.504
752.180
763.284
760.580
751.483
763.618
763.734
765.044
753.247
754.813
757.611
758.720
760.815
754.285
765.300
761.606
755.729
760.922
762.352
752.425
758.788
764.258
760.038
758.972
749.971
761.448
755.767
763.078
752.095
761.355
748.499
748.097
759.917
755.082
746.831
753.607
746.791
745.766
746.769
758.174
753.420
756.672
754.544
750.991
746.992
752.853
759.736
755.041
760.506
758.925
760.257
768.784
769.336
764.840
771.820
777.856
783.938
777.953
778.174
786.459
789.202
788.328
785.820
790.281
788.822
794.586
790.057
792.596
796.874
800.631
800.454
802.480
798.614
813.181
809.470
809.172
813.274
808.927
820.243
819.453
818.308
820.289
830.170
818.788
828.270
834.601
824.273
824.837
840.968
828.007
841.964
843.015
835.926
835.675
850.986
839.797
842.698
849.876
859.377
853.399
847.249
854.064
861.627
865.239
867.312
856.374
869.582
867.588
863.034
864.948
867.479
882.134
879.150
872.264
880.873
876.989
880.850
890.426
887.369
882.284
895.792
895.341
901.590
899.024
901.141
906.867
908.789
899.915
903.792
901.421
902.693
914.499
910.553
916.186
909.267
913.242
923.832
923.340
917.164
928.533
931.193
925.235
933.173
933.446
932.739
941.547
938.593
935.226
943.269
949.079
946.391
947.475
946.393
948.741
959.436
946.352
949.771
958.267
955.163
962.171
958.123
967.190
973.428
961.352
963.495
969.839
969.697
975.428
983.286
984.193
975.087
989.777
978.633
988.627
995.557
990.774
998.922
999.711
1001.176
1003.509
992.638
992.991
1001.733
1003.820
1007.325
1005.932
1007.884
1006.932
1006.846
1013.316
1013.078
1015.106
1017.365
1015.093
1022.665
1023.014
1025.676
1023.134
1036.167
1036.938
1041.630
1038.062
1042.784
1040.677
1037.653
1040.652
1053.292
1049.003
1047.729
1059.222
1059.519
1057.820
1056.942
1065.122
1060.950
1060.400
1066.316
1068.321
1065.656
1073.535
1071.402
1069.764
1072.677
1079.923
1070.817
1085.273
1075.120
1088.131
1088.141
1086.635
1091.713
1093.874
1099.630
1095.050
1092.850
1098.723
1105.575
1107.159
1099.907
1104.593
1100.835
1103.286
1105.528
1108.153
1109.469
1103.503
1107.674
1109.969
1098.290
1096.230
1106.314
1101.795
1092.992
1101.586
1085.543
1089.395
1094.188
1087.652
1081.007
1089.090
1082.185
1072.445
1084.923
1070.819
1073.048
1074.693
1061.832
1061.482
1066.403
1068.070
1059.212
