99.754
145.944
114.031
115.764
117.243
123.749
101.090
146.057
113.987
125.374
94.947
141.559
104.791
119.919
112.235
136.036
111.718
118.076
106.264
97.985
144.591
109.911
124.053
125.783
99.779
115.818
106.474
143.092
116.824
118.224
124.433
101.923
98.787
110.104
129.729
113.393
95.559
127.213
100.068
118.208
105.629
129.217
145.489
108.048
135.278
144.738
121.025
118.023
97.225
106.331
124.557
113.863
117.222
111.285
109.955
146.208
133.870
102.484
135.349
142.941
96.137
100.286
133.113
106.103
120.299
142.580
102.760
140.496
121.357
120.709
121.189
138.818
127.932
118.697
95.036
118.736
145.594
122.329
127.600
141.272
107.070
139.241
120.392
146.119
104.537
143.935
105.970
107.603
136.764
135.082
107.402
107.808
102.455
126.829
108.981
119.845
108.315
97.210
136.751
129.163
123.494
124.778
114.729
123.603
108.302
102.668
145.665
119.654
124.427
96.676
133.295
138.206
120.476
121.155
114.831
95.487
139.938
118.660
101.479
115.887
105.584
125.592
100.846
129.176
116.060
98.656
124.714
112.196
146.013
140.451
146.765
129.659
102.827
130.537
112.941
98.960
125.564
144.040
141.348
100.947
136.810
97.080
109.686
146.533
143.260
145.557
119.038
99.677
99.148
97.227
97.593
117.760
102.856
104.318
109.722
143.585
113.595
136.422
130.411
122.055
143.434
110.905
122.886
104.901
111.496
124.382
130.756
145.197
144.618
145.082
103.879
121.706
96.812
98.538
109.236
115.674
99.165
97.225
128.260
123.535
139.514
136.308
101.855
99.360
141.492
132.599
117.653
130.226
138.583
104.446
110.040
95.286
121.714
130.860
144.081
145.603
132.575
139.784
117.610
98.950
137.604
119.767
127.578
131.006
111.177
131.143
135.022
118.714
101.630
108.581
96.854
133.415
137.803
116.043
131.594
145.540
109.002
138.671
111.620
109.544
145.478
122.230
133.703
103.844
113.104
114.954
95.469
120.266
140.859
135.038
105.032
133.739
96.953
135.573
108.843
107.003
129.139
100.393
100.628
103.970
112.723
119.131
129.737
100.667
107.435
139.444
111.377
135.376
123.567
131.950
137.035
101.565
121.498
141.922
99.015
142.997
143.840
113.644
146.063
137.886
123.301
143.533
115.937
101.958
146.013
141.055
108.670
126.072
133.772
98.401
139.883
139.276
106.711
109.560
100.496
110.070
140.220
125.915
112.692
104.412
97.878
102.859
139.980
113.891
141.950
107.034
135.502
129.601
139.280
120.399
115.825
136.492
110.016
99.015
122.427
124.412
126.254
117.778
132.258
106.875
144.010
106.212
116.617
143.316
105.329
134.428
119.590
106.316
125.052
123.865
145.945
105.655
120.125
113.916
131.379
114.698
104.715
121.582
140.740
139.234
141.495
101.942
128.783
118.044
123.315
95.889
123.950
126.332
120.051
94.900
126.856
95.281
129.886
119.416
137.092
138.031
109.926
103.178
135.372
144.589
146.162
101.910
138.733
134.596
114.531
120.168
127.994
141.911
98.179
100.704
101.732
99.778
134.819
131.641
135.805
116.990
109.572
96.911
111.844
115.901
112.062
109.667
128.942
97.816
95.380
120.995
102.747
95.014
119.731
102.795
95.331
95.083
132.964
123.828
135.337
100.709
124.742
109.255
132.688
146.754
114.475
131.823
134.808
104.450
114.239
138.813
94.944
98.783
139.284
108.499
116.278
112.505
102.303
105.286
98.234
127.677
146.267
113.789
145.739
105.427
102.737
96.808
123.562
100.166
140.282
129.769
105.197
113.784
95.297
142.759
114.596
126.108
97.776
133.748
134.005
146.306
127.810
141.638
120.389
122.593
115.997
113.387
111.992
126.137
139.965
129.781
102.372
98.147
100.039
124.638
124.287
117.660
123.049
119.896
136.239
145.871
116.658
141.414
117.805
110.837
134.283
138.708
108.035
125.262
115.249
100.444
122.023
98.077
124.853
127.908
121.911
124.245
144.215
111.134
135.697
117.629
115.161
137.015
139.479
113.467
99.370
121.497
109.850
140.048
102.186
125.132
146.361
97.086
96.444
114.271
128.000
101.227
121.917
127.221
137.546
139.913
117.671
104.813
133.949
140.622
111.918
142.881
138.090
115.515
134.948
140.014
129.793
99.793
109.679
107.575
110.927
129.988
103.968
103.857
100.802
140.565
119.365
136.598
134.886
123.872
127.168
97.476
97.348
108.761
107.719
141.449
112.555
107.735
140.356
128.223
111.483
124.691
115.456
99.355
94.786
104.921
131.954
145.804
129.766
108.672
109.595
124.775
131.988
95.100
100.247
104.196
99.000
120.893
143.788
145.327
115.461
110.295
146.110
132.339
115.647
145.057
106.188
109.815
126.655
115.020
144.800
124.882
112.229
128.860
114.733
141.076
97.436
105.954
114.953
129.175
145.252
97.447
105.349
127.125
117.302
111.607
102.831
135.090
139.631
100.326
112.982
115.619
143.399
105.351
142.761
114.926
133.254
113.836
118.151
111.319
118.813
135.469
135.291
144.587
127.808
96.218
104.944
125.073
95.706
117.570
130.140
144.080
103.712
143.812
138.584
96.281
123.561
106.563
126.206
132.182
136.595
102.190
122.010
118.253
112.320
138.476
130.884
111.303
119.220
129.838
110.235
114.256
134.368
127.351
127.196
139.972
97.000
138.658
102.705
136.336
131.650
96.037
134.722
102.792
103.330
101.056
126.762
112.286
110.265
123.309
98.232
125.845
136.904
126.945
104.909
143.502
112.454
111.987
129.056
142.503
98.320
140.109
128.609
119.708
121.854
137.009
96.716
127.715
128.148
106.780
116.959
126.133
105.667
98.570
124.795
126.243
122.668
130.301
122.614
146.670
137.201
144.042
100.114
143.288
119.830
145.623
100.145
119.055
99.692
102.621
106.424
137.983
117.067
141.439
114.290
100.186
143.383
99.348
111.030
115.010
123.096
139.637
113.700
124.913
122.019
102.317
138.772
133.521
143.442
96.598
139.086
95.214
99.582
114.304
116.926
133.887
110.762
113.180
109.074
122.806
106.727
99.113
117.702
127.779
118.068
96.813
117.400
136.056
133.780
125.359
141.054
132.491
132.631
135.374
125.758
121.197
127.629
115.411
132.323
145.221
114.826
142.976
136.071
106.616
129.752
107.430
108.531
115.629
100.878
141.486
115.321
115.778
122.320
130.626
125.134
122.618
145.557
139.547
103.791
100.817
101.173
98.822
136.755
105.575
139.095
141.173
99.491
100.080
104.139
120.915
144.720
111.462
124.557
111.573
139.014
97.286
125.841
99.335
118.428
100.336
95.546
115.126
128.825
115.496
140.431
95.189
141.935
98.954
111.901
140.392
145.963
117.770
136.905
117.752
136.984
119.123
135.299
117.692
126.500
121.897
111.705
116.975
106.609
134.148
144.983
132.515
140.373
121.244
100.344
107.838
110.749
134.281
129.828
145.790
137.799
119.777
122.471
96.992
108.075
111.535
123.079
116.874
113.523
135.683
135.664
108.705
96.529
106.527
133.648
110.778
140.306
97.269
125.866
113.921
96.305
113.353
145.172
109.268
120.113
133.741
131.745
120.085
98.819
121.786
98.823
116.513
102.010
110.943
139.128
103.924
131.323
112.673
96.892
137.784
139.414
131.093
96.418
109.154
121.589
108.854
134.118
106.159
95.934
118.111
111.645
109.603
131.060
130.901
143.931
122.193
98.927
140.615
97.355
101.333
112.410
110.579
112.905
107.333
103.203
144.910
117.104
96.005
124.093
120.021
137.618
141.815
122.244
111.140
135.883
101.270
103.657
112.079
121.523
145.569
133.438
133.833
133.595
128.555
108.958
98.130
123.773
105.990
146.090
100.270
102.540
123.199
139.123
98.362
97.788
99.999
110.430
145.252
145.956
114.857
102.685
137.648
120.621
138.833
117.493
98.999
124.641
130.635
101.118
128.516
110.026
110.972
106.895
141.521
118.712
94.905
133.362
140.759
95.072
100.836
136.020
140.296
112.399
103.879
111.927
139.338
107.015
116.442
116.471
118.761
128.235
98.330
138.481
102.318
118.595
143.908
96.785
106.104
96.320
100.351
116.929
144.855
117.103
97.104
107.210
120.158
125.354
94.997
104.697
123.010
123.837
100.094
107.967
140.434
132.862
127.793
98.487
119.914
97.152
144.795
114.216
129.713
110.075
99.767
137.478
110.202
102.940
130.557
133.690
100.088
101.502
116.576
129.095
116.210
102.839
145.073
102.515
97.682
104.259
109.073
134.492
134.131
137.550
94.942
108.444
101.069
111.328
120.378
111.821
128.351
97.948
117.722
136.703
135.984
112.368
118.538
126.556
110.250
143.765
130.489
97.872
116.095
138.049
112.486
118.983
145.744
140.583
127.921
104.472
108.126
107.579
98.602
105.237
95.980
103.012
103.682
104.190
104.009
124.039
146.135
140.356
118.618
145.523
95.760
112.012
98.099
96.787
133.498
133.639
146.682
139.440
116.414
99.876
108.594
120.783
142.303
97.927
138.900
138.071
139.477
114.253
105.451
119.504
109.365
104.463
123.727
113.764
125.342
109.241
116.804
98.306
114.930
121.626
118.065
108.873
138.025
118.882
102.185
115.666
123.469
128.570
136.338
120.637
100.111
143.134
104.169
123.582
145.224
143.098
129.649
116.604
99.196
132.123
122.289
134.858
112.947
134.831
142.265
108.095
97.785
145.833
119.291
115.573
145.518
106.089
103.568
119.374
103.387
133.602
108.671
110.989
110.003
133.650
139.297
145.319
104.655
121.878
134.074
142.530
109.344
137.677
116.946
129.122
104.367
139.489
129.753
110.482
102.390
123.260
134.183
109.431
109.501
95.338
135.709
100.469
133.932
128.761
120.825
134.858
115.846
144.679
103.299
107.349
110.639
112.560
111.187
123.328
146.644
103.569
98.113
126.557
101.741
97.303
124.224
98.178
104.107
134.942
128.830
122.509
143.385
119.003
127.771
128.371
140.096
123.033
119.476
95.952
120.603
112.154
105.313
144.637
117.514
121.195
102.276
141.712
137.853
123.079
131.334
133.823
144.906
143.576
124.449
126.432
132.503
146.704
142.798
132.619
126.078
123.453
108.397
128.518
122.599
120.571
120.235
96.999
138.967
112.177
145.642
121.802
110.527
118.495
127.445
105.798
126.053
143.338
121.591
106.108
119.833
97.816
98.044
130.412
102.200
143.988
129.865
119.239
126.789
98.519
111.692
95.540
141.914
112.600
129.732
127.716
130.621
99.315
114.144
104.414
122.308
119.574
145.513
125.466
95.985
110.049
145.400
114.983
105.208
109.058
131.650
111.106
107.392
95.636
98.546
119.158
142.953
125.865
119.509
124.165
133.067
137.495
129.942
105.083
145.353
106.530
98.814
96.104
128.717
144.798
136.989
116.671
102.989
125.978
135.765
145.902
112.909
112.063
143.842
122.959
146.417
138.245
100.086
128.487
132.850
105.097
137.131
112.133
104.558
136.759
144.123
96.852
124.773
104.672
104.668
117.375
104.825
116.173
115.348
114.040
96.150
96.541
142.688
132.936
112.783
118.183
113.310
140.012
98.977
134.726
143.395
118.568
112.403
97.179
95.099
129.795
124.779
98.839
121.628
111.988
137.123
98.839
126.070
123.762
101.991
107.847
134.596
101.605
122.758
131.607
116.472
135.706
126.077
134.699
101.681
128.199
103.340
119.626
103.517
140.806
120.519
142.714
108.511
96.850
138.279
135.042
138.677
120.718
127.175
138.377
130.449
119.698
143.456
117.707
140.679
117.611
132.975
106.868
139.941
143.829
131.737
102.587
110.185
94.775
139.248
106.058
110.014
128.065
131.597
103.502
128.715
114.919
128.686
114.782
105.217
118.618
125.802
114.702
135.843
116.683
144.183
140.124
140.384
144.559
135.012
110.355
130.220
117.960
119.421
99.445
118.714
99.666
103.872
136.319
109.740
101.318
127.407
129.980
116.960
108.156
125.532
107.862
130.937
116.159
107.618
140.450
112.182
132.102
101.799
123.410
121.521
119.565
118.750
134.632
110.746
109.032
124.184
97.481
131.089
128.252
109.189
109.317
117.937
109.851
120.430
121.961
105.650
117.819
129.564
97.672
122.329
102.778
134.790
143.846
127.711
109.008
119.990
146.322
109.936
107.192
113.653
124.171
131.409
115.362
114.774
142.695
107.875
124.252
138.137
119.740
121.711
114.871
106.024
122.606
129.381
125.813
145.156
117.369
133.770
127.508
109.623
113.838
129.867
104.337
105.685
143.970
131.873
102.712
110.528
121.215
123.601
117.738
139.559
120.891
99.174
106.473
143.875
108.805
111.574
111.217
94.972
130.728
101.686
136.798
120.743
140.995
104.376
131.056
141.546
113.231
96.713
120.462
144.368
141.804
114.170
98.206
143.006
114.571
127.485
96.495
142.761
105.847
96.696
126.252
120.484
132.024
145.323
132.460
142.870
141.094
117.628
94.800
95.470
97.699
99.649
122.361
133.008
110.591
143.970
123.737
97.845
131.637
125.352
117.982
113.095
130.737
127.912
135.424
99.580
111.883
120.447
142.565
123.005
96.958
131.892
100.888
100.353
133.092
143.821
133.040
121.824
118.280
130.943
122.745
139.266
129.939
114.496
141.014
100.981
109.026
107.589
102.269
125.630
131.721
104.370
144.081
134.366
131.797
141.348
110.311
137.868
118.689
95.066
135.364
125.620
104.823
142.881
146.087
117.364
122.290
122.014
143.073
140.414
103.621
105.790
110.540
138.602
100.174
118.208
94.807
132.982
119.876
126.624
110.749
99.716
136.181
110.160
133.034
97.397
124.942
142.283
125.460
144.960
98.464
134.357
97.408
116.663
124.200
110.301
133.494
128.225
145.757
143.957
100.183
97.672
98.224
120.990
98.768
115.765
104.041
136.276
127.831
132.720
133.708
105.232
136.692
100.604
95.708
140.586
98.518
111.830
126.549
128.770
129.229
133.836
110.961
122.684
96.521
106.725
112.440
124.916
128.644
131.662
135.308
126.458
101.520
126.070
101.545
104.573
123.352
137.569
118.528
111.323
133.418
140.193
135.878
134.977
34.617
29.611
43.420
40.696
41.330
38.610
44.724
37.150
38.125
40.603
33.890
32.769
38.302
37.822
36.059
43.937
41.861
41.609
34.659
37.754
33.241
34.638
40.923
43.531
44.087
37.888
36.516
44.087
32.103
39.760
34.651
31.674
37.312
30.711
39.116
29.288
37.066
35.140
43.054
34.239
44.070
31.560
34.175
33.714
40.644
35.875
40.837
1557.545
1553.376
1568.002
1567.696
1579.302
1554.699
1577.586
1563.202
1554.862
1572.166
1564.429
1573.401
1560.038
1569.848
1577.198
1564.785
1564.635
1578.931
1575.573
1583.690
1584.527
1563.098
1561.070
1573.590
1563.409
1574.605
1569.063
1568.556
1563.848
1585.391
1565.309
1570.968
1572.808
1578.956
1564.086
1579.340
1563.359
1579.943
1587.587
1582.821
1584.179
1571.598
1575.342
1577.688
1576.807
1571.328
1572.071
1578.959
1576.757
1580.086
1573.074
1582.122
1575.239
1587.702
1579.562
1592.726
1571.865
1582.977
1581.094
1578.697
1578.664
1580.564
1576.043
1572.598
1582.199
1568.688
1576.027
1573.526
1581.624
1575.609
1571.365
1581.084
1573.684
1578.372
1570.127
1580.963
1592.174
1598.704
1594.489
1588.891
1586.431
1578.133
1592.507
1598.743
1594.710
1585.891
1574.760
1582.143
1600.538
1578.849
1594.969
1582.907
1592.981
1578.378
1589.360
1586.868
1597.881
1589.267
1583.572
1590.863
891.486
876.694
876.624
879.925
891.449
885.209
876.629
885.137
887.707
887.020
879.105
881.765
885.538
883.368
885.313
877.854
887.135
892.327
889.417
880.775
879.813
890.104
887.828
879.345
892.382
888.058
886.322
886.450
886.084
895.643
886.020
889.919
889.906
890.561
891.938
880.583
881.852
884.748
887.563
882.530
896.590
892.788
895.608
886.151
885.467
888.570
891.677
888.352
882.561
891.165
890.313
888.623
884.439
889.033
890.930
884.584
885.420
889.482
895.464
886.047
886.731
887.039
889.442
889.312
887.376
890.463
900.499
886.480
887.366
889.093
888.810
900.138
888.061
888.245
885.896
898.642
898.500
901.198
897.267
900.761
901.079
901.517
889.182
887.122
890.912
895.922
895.109
897.255
887.909
891.635
895.492
898.222
900.740
890.767
901.169
902.701
902.755
898.764
899.794
903.034
902.820
901.050
893.739
889.296
894.736
893.811
894.783
889.495
894.278
883.063
891.389
890.835
880.533
875.517
873.205
879.505
885.074
879.951
882.831
875.962
866.838
869.235
873.295
860.775
874.618
863.252
863.409
865.521
857.368
853.136
857.702
854.641
859.481
860.997
856.865
853.403
853.833
849.928
855.648
842.437
848.473
840.950
840.649
839.798
840.390
843.945
835.754
841.227
843.655
841.744
832.781
838.216
828.133
834.780
833.984
830.016
831.258
822.434
830.972
819.100
827.869
822.740
820.690
819.296
810.578
817.178
807.981
812.222
808.661
812.099
816.656
803.183
809.840
798.834
804.308
798.385
810.017
795.385
795.504
794.965
789.709
803.941
798.018
786.461
786.881
787.457
792.014
786.734
781.240
778.194
778.812
780.634
777.586
785.183
787.055
773.215
783.279
781.625
768.026
768.378
765.851
778.533
770.074
774.595
773.626
772.393
769.084
763.789
766.190
765.358
763.009
764.579
760.686
763.677
758.601
752.562
758.575
752.803
742.204
753.385
744.683
753.222
739.085
742.719
742.556
743.313
742.503
733.498
736.354
736.673
737.491
736.491
726.865
732.931
729.835
735.806
728.310
721.901
723.196
731.416
716.194
725.305
714.684
717.428
724.314
722.576
719.976
710.537
704.227
702.959
703.952
707.036
714.569
710.227
711.663
