130.622
108.998
145.456
98.410
105.594
119.345
122.220
106.250
110.949
138.840
120.914
118.346
95.069
140.344
112.922
131.210
126.911
141.060
121.931
132.197
118.870
101.733
137.131
101.381
143.802
101.987
99.616
144.126
98.304
100.359
121.582
119.920
139.048
103.548
114.689
142.128
139.577
120.153
109.168
137.599
139.863
104.549
113.021
116.508
141.744
122.894
107.340
98.018
97.095
96.585
144.180
132.833
139.208
121.367
124.505
104.758
98.122
121.875
112.248
132.687
104.689
109.789
97.645
130.788
136.404
124.201
98.220
121.783
98.205
138.208
111.121
102.749
142.576
108.561
123.005
96.887
112.471
135.660
104.754
133.354
126.163
140.693
131.765
109.230
131.178
136.700
99.637
130.405
143.646
133.986
98.887
137.425
119.479
132.061
95.045
142.635
124.650
94.854
139.934
130.113
141.786
129.594
137.715
144.088
97.978
104.058
106.916
101.266
128.185
133.143
111.935
104.817
109.455
115.491
129.182
126.041
109.783
132.342
140.365
99.800
104.268
107.689
99.474
138.613
104.401
143.713
104.559
122.804
123.507
133.259
123.605
96.238
124.598
102.184
103.021
115.483
99.829
105.550
123.338
95.471
95.540
123.779
106.568
145.238
137.597
136.174
117.982
135.256
123.219
101.629
122.335
106.671
126.686
126.892
142.319
109.267
96.246
105.309
114.878
126.238
138.970
125.212
145.562
118.181
105.777
109.411
141.335
115.924
106.845
104.514
145.961
113.854
110.548
112.486
121.731
144.929
100.044
118.991
97.074
106.420
123.386
115.043
128.789
109.915
107.383
123.591
144.462
140.288
125.523
119.745
140.965
113.569
97.038
121.871
141.434
133.427
98.746
103.285
127.096
118.401
115.773
100.886
104.380
118.378
108.691
101.772
99.019
136.196
114.834
119.266
125.547
136.201
118.284
130.753
125.914
101.820
110.433
125.996
111.354
117.607
126.126
127.065
120.387
103.299
110.397
128.836
101.054
103.014
107.773
107.857
140.807
98.745
145.972
133.547
135.473
101.104
109.824
108.009
95.918
139.816
110.214
130.192
104.103
100.988
100.298
109.847
128.049
129.174
125.653
135.263
112.635
130.591
116.784
105.940
141.677
108.975
124.964
130.768
117.173
143.928
129.924
134.239
135.855
144.170
98.446
105.850
97.069
95.041
126.141
127.908
97.655
127.325
145.084
102.185
123.143
95.788
126.351
144.167
96.009
109.654
101.963
126.586
112.859
133.826
129.359
120.351
106.860
117.504
103.454
137.535
125.927
130.987
100.409
140.523
126.323
134.119
111.665
134.899
101.962
115.023
146.040
98.156
119.809
131.221
109.964
144.362
142.282
118.353
103.034
135.037
135.718
96.462
95.763
100.751
98.222
130.394
139.287
114.188
129.811
100.229
102.988
104.382
113.652
114.852
144.165
146.381
112.112
111.391
145.957
108.428
32.225
39.048
33.137
39.036
42.280
36.793
34.288
33.967
42.390
43.836
41.832
44.064
38.879
44.695
37.371
38.933
33.741
37.657
32.145
30.979
35.041
44.142
37.064
31.822
33.784
40.540
29.668
43.657
36.852
43.576
40.617
34.016
36.061
40.663
42.791
31.083
35.032
41.342
41.948
33.728
38.094
32.984
31.697
30.549
31.490
34.684
33.475
1572.336
1564.447
1572.364
1560.605
1574.583
1563.110
1557.163
1576.897
1555.329
1560.122
1578.993
1574.851
1571.355
1567.508
1571.489
1566.968
1578.499
1568.618
1575.706
1577.070
1584.870
1574.439
1582.852
1565.056
1566.439
1573.402
1565.633
1570.951
1586.209
1577.084
1572.570
1577.484
1568.029
1568.531
1561.298
1568.804
1568.043
1563.724
1575.033
1563.361
1581.191
1582.507
1563.544
1583.615
1570.196
1562.768
1577.573
1564.505
1571.792
1586.065
1572.389
1569.722
1586.619
1587.775
1589.508
1574.096
1576.096
1588.042
1586.363
1579.700
1571.282
1587.603
1587.717
1575.721
1593.426
1570.893
1568.497
1571.147
1581.549
1572.166
1583.846
1584.462
1572.846
1593.794
1574.925
1577.481
1580.172
1597.818
1594.486
1591.863
1571.464
1586.254
1590.311
1578.858
1585.774
1578.712
1592.859
1584.680
1575.683
1585.466
1577.198
1596.122
1584.310
1603.095
1586.716
1585.054
1583.616
1576.107
1577.398
1601.271
877.477
890.246
877.001
888.649
889.353
889.018
879.587
882.133
880.565
885.982
884.281
892.679
882.184
887.684
879.949
880.195
885.957
889.278
879.538
894.098
888.575
882.918
886.871
880.852
888.938
882.017
887.294
879.613
889.736
894.710
884.971
885.490
884.445
890.818
882.159
895.843
881.238
892.475
886.995
895.861
887.925
888.547
882.854
893.385
889.691
887.361
884.170
895.486
894.738
890.054
897.558
886.660
895.531
892.171
889.021
890.803
890.895
889.287
883.987
898.113
886.068
899.519
893.237
899.218
886.865
884.830
892.727
898.804
890.308
889.007
885.938
894.279
892.220
901.491
885.992
886.248
900.177
896.614
887.805
900.182
893.994
900.552
887.616
900.623
900.653
893.854
897.620
902.915
894.848
903.825
897.154
894.916
894.980
900.834
896.739
893.215
899.209
890.164
902.818
899.706
896.347
895.872
894.806
901.406
886.666
887.901
885.006
889.838
886.248
893.411
881.580
877.496
887.826
884.867
875.024
874.576
870.576
869.223
869.224
869.884
869.210
869.018
870.496
871.495
872.829
870.066
870.089
857.380
866.890
865.505
864.418
851.137
856.769
853.119
852.188
853.947
846.926
851.590
841.955
846.858
842.634
844.767
849.367
850.238
848.572
838.620
837.562
839.553
835.571
843.310
832.607
826.608
830.324
835.835
835.979
827.848
832.309
820.738
829.769
817.848
822.916
819.133
821.819
816.942
823.825
812.699
817.656
809.793
804.360
810.386
808.884
810.264
802.107
808.509
798.859
795.653
809.183
797.054
801.889
804.876
800.113
793.573
787.565
790.243
786.076
793.464
793.239
788.756
785.951
789.164
780.437
791.332
783.738
780.389
784.675
782.262
774.923
768.218
776.685
769.507
768.963
764.624
762.400
775.896
765.442
768.661
760.996
771.032
762.620
766.618
758.337
759.933
763.017
757.242
748.168
758.526
758.498
752.638
754.784
754.590
754.597
742.957
747.814
741.825
743.805
740.545
741.593
731.226
744.538
732.435
734.922
730.855
725.732
723.564
724.303
722.254
724.798
723.317
721.462
715.850
717.859
716.748
718.541
726.220
715.295
714.220
719.067
712.820
704.714
706.785
709.544
712.809
711.683
697.976
702.234
696.706
702.228
695.933
699.986
703.672
693.789
702.481
688.639
687.078
693.945
684.044
691.927
684.518
694.945
687.125
681.264
676.108
686.569
686.657
679.745
677.165
669.881
676.974
679.270
680.126
669.638
667.971
676.980
661.529
669.267
661.033
660.168
669.808
662.157
656.412
664.773
665.829
657.669
654.285
658.305
657.101
659.793
649.519
655.916
650.265
647.363
642.481
655.176
647.777
655.561
662.781
660.084
657.987
654.669
667.104
665.666
659.357
661.336
673.047
674.589
667.815
671.189
677.055
670.546
673.971
676.715
674.069
674.870
676.539
683.206
683.325
690.470
694.163
696.893
688.009
699.880
697.168
703.945
705.216
709.141
696.219
710.498
702.943
702.723
712.151
704.023
713.140
709.047
722.928
722.212
724.899
715.495
726.297
723.130
720.700
720.987
725.708
723.457
728.909
729.697
737.092
735.210
731.807
744.080
740.864
743.874
740.448
747.834
744.717
747.555
753.043
752.087
761.879
761.352
758.660
762.940
766.912
767.193
763.030
768.220
761.054
766.375
773.790
765.616
771.531
769.395
769.953
771.302
772.965
775.912
786.742
781.818
789.798
793.450
785.569
783.794
801.004
793.354
799.587
792.067
802.306
803.961
806.458
804.488
809.526
800.861
805.019
813.360
808.997
811.113
811.482
823.152
813.844
814.691
821.898
820.490
832.284
819.729
822.206
825.814
835.843
830.214
831.755
828.668
839.518
846.542
836.658
845.362
840.320
849.910
840.944
857.092
845.647
852.887
849.381
851.086
858.728
864.598
859.676
862.862
870.138
865.354
862.927
872.584
862.075
879.000
868.066
869.458
876.962
884.570
886.847
877.415
880.087
883.173
879.871
886.967
895.920
893.837
890.757
901.931
892.512
892.044
904.771
907.646
909.351
898.550
900.039
899.914
914.460
914.085
917.029
907.059
914.518
919.225
916.805
924.244
929.086
919.672
930.830
926.723
931.755
922.629
929.007
927.954
936.313
938.846
938.713
941.674
941.821
944.896
941.705
952.040
951.791
955.955
945.993
948.469
954.713
950.324
963.672
958.740
959.910
965.581
957.005
972.153
968.939
962.570
962.633
973.691
961.906
959.324
965.057
957.689
957.806
956.320
953.917
959.009
961.746
955.058
951.354
953.000
952.174
951.507
953.781
955.321
955.617
946.425
942.779
942.273
938.691
945.285
945.312
936.058
947.471
935.711
939.728
931.916
930.786
928.689
935.832
938.209
931.609
930.629
928.215
922.305
933.626
926.275
934.934
925.206
925.132
925.446
927.843
923.262
917.606
915.043
925.542
924.405
922.807
918.031
918.050
909.123
908.243
914.976
914.133
903.737
910.414
903.279
914.107
902.998
910.638
908.977
906.330
898.933
902.332
903.250
892.115
895.992
897.726
891.964
896.574
899.552
898.167
889.687
897.492
884.793
881.822
894.934
887.646
890.230
892.615
885.145
877.884
876.318
880.213
882.931
876.205
872.289
875.442
870.176
873.659
871.171
877.406
879.134
871.731
878.295
865.602
865.988
869.655
870.379
858.135
867.531
870.394
864.874
869.239
863.835
866.842
852.348
856.951
856.968
859.835
852.675
849.156
854.865
859.979
858.872
849.250
850.338
855.518
840.058
850.668
847.185
849.923
845.006
834.640
837.354
847.165
841.317
845.256
843.582
842.083
837.319
826.548
831.228
839.852
828.509
824.746
832.450
829.394
827.279
828.271
831.459
826.485
819.917
824.513
825.416
820.521
818.247
823.412
818.605
811.211
821.685
809.171
818.881
815.914
807.678
815.987
815.373
813.784
808.595
808.558
804.266
798.311
811.344
805.237
802.746
796.795
796.650
792.133
790.683
804.911
797.178
792.808
790.742
789.676
795.486
786.414
790.249
783.199
790.426
779.565
778.679
784.691
785.283
785.745
781.642
783.422
773.507
776.191
784.259
783.703
769.007
768.020
775.499
772.521
777.791
779.073
772.925
772.792
771.824
764.229
773.916
762.556
762.422
767.068
766.832
766.597
765.968
772.126
765.746
758.579
760.052
770.540
766.580
762.239
762.114
754.364
757.729
756.860
756.238
761.316
764.984
759.435
762.480
764.341
765.098
762.116
759.373
757.707
757.414
761.904
748.432
760.276
748.508
754.219
759.556
748.197
746.229
746.141
744.512
756.169
748.433
744.225
748.492
745.087
747.728
753.649
754.704
742.205
741.685
747.947
745.133
743.846
746.875
740.874
746.880
743.251
748.248
741.689
737.463
748.219
739.183
734.947
744.384
737.850
743.243
740.373
739.910
736.351
729.152
739.323
741.780
738.292
736.779
741.822
725.895
731.790
740.658
738.830
731.327
735.079
732.129
731.589
723.533
736.354
729.411
729.617
729.410
721.375
731.680
732.694
731.723
725.437
723.967
731.697
721.860
725.177
716.772
730.639
721.810
719.809
720.433
720.100
720.691
713.684
722.529
725.065
724.005
725.434
713.275
717.069
721.810
714.413
713.944
713.462
708.047
711.189
715.428
706.995
712.668
710.804
718.849
705.891
713.461
716.946
705.904
713.364
717.016
704.497
711.011
700.441
707.459
705.697
709.689
704.876
703.708
703.536
706.251
698.235
711.583
696.607
708.669
697.985
709.739
701.495
697.689
707.127
699.752
702.398
694.155
693.903
693.241
701.552
699.675
699.832
691.598
691.788
698.287
687.413
700.126
689.769
699.039
699.605
699.324
688.846
687.971
690.550
685.220
688.390
690.771
687.226
681.203
691.401
691.368
693.758
678.833
678.620
691.632
686.236
689.427
677.445
685.339
682.559
682.596
674.951
687.909
687.143
688.271
673.131
674.971
684.903
675.858
683.044
676.716
680.753
674.078
670.076
672.609
667.782
677.640
677.090
667.017
668.442
673.579
660.002
665.190
659.596
657.616
658.229
661.710
664.239
658.212
656.427
654.538
660.173
650.673
655.922
646.247
654.116
645.456
649.156
650.153
649.981
646.296
651.196
638.832
643.183
635.330
640.513
636.198
629.478
628.462
639.888
632.315
628.597
623.105
626.394
623.290
633.017
624.067
620.269
625.767
615.062
614.678
618.966
613.504
610.536
611.707
614.948
611.056
608.063
610.656
610.773
615.632
605.262
602.767
605.776
607.681
604.024
595.847
597.546
605.219
603.577
599.122
594.855
596.319
588.977
586.477
582.919
596.070
581.673
582.329
583.125
579.324
586.609
579.527
583.173
571.803
577.505
571.884
571.681
575.035
574.293
564.727
564.309
576.209
565.627
571.964
571.955
562.876
564.914
562.799
560.820
552.786
553.371
553.546
550.427
552.504
555.677
549.047
544.631
556.859
554.161
540.567
548.510
540.149
550.896
539.899
540.799
535.792
541.167
541.795
536.533
539.604
529.486
536.944
524.766
529.646
526.086
520.724
522.895
520.588
529.481
514.925
514.196
526.827
516.070
509.954
509.973
507.778
512.150
506.408
505.986
516.418
508.223
514.687
509.281
503.902
500.072
500.635
498.154
492.792
491.483
497.346
498.553
493.589
497.182
491.140
487.151
483.895
484.863
480.508
480.040
482.949
490.125
485.090
485.817
477.791
478.585
473.286
481.387
475.372
474.221
478.536
479.333
472.678
471.805
473.081
467.794
471.768
465.148
456.977
467.371
469.051
467.346
460.652
456.423
455.307
453.104
456.903
448.311
449.236
452.562
450.704
442.254
447.532
451.055
452.163
438.985
446.951
434.394
445.427
433.225
439.124
440.583
441.593
436.171
429.684
434.618
442.433
439.968
440.817
441.496
447.232
436.302
438.949
444.729
452.092
444.313
445.574
453.584
456.348
450.318
450.880
453.056
464.179
452.797
458.665
461.598
467.177
463.151
463.735
469.313
463.607
464.555
463.055
464.985
473.640
470.940
476.210
476.153
478.441
486.038
479.495
483.881
477.521
484.141
490.287
485.710
492.419
498.965
498.063
488.923
495.742
492.101
501.713
496.870
505.711
497.204
498.624
510.089
514.659
503.305
515.240
517.827
509.992
515.584
511.136
524.245
520.236
525.551
518.435
524.946
523.599
528.681
533.415
521.442
526.982
527.650
538.999
537.367
540.672
528.895
543.240
538.909
543.774
536.823
539.676
550.441
553.005
541.236
555.030
550.983
558.312
557.044
557.475
548.722
562.896
550.968
554.643
557.461
565.325
557.462
562.248
558.870
567.876
566.924
575.984
576.212
572.376
573.416
575.902
584.876
583.199
575.947
574.552
586.317
581.525
593.701
594.981
585.828
596.020
590.783
589.671
587.246
603.497
600.840
592.218
596.003
594.809
597.717
600.153
605.952
614.276
606.837
607.131
604.280
619.928
615.173
612.823
610.692
621.869
618.322
617.292
617.466
626.301
625.747
630.823
624.470
629.059
635.526
629.479
636.676
632.566
638.503
640.838
638.367
644.820
645.818
638.757
651.995
648.320
654.079
644.940
643.672
657.104
648.379
649.537
663.153
649.763
653.179
661.543
658.159
654.763
671.467
666.383
663.515
667.253
668.953
670.986
668.331
668.419
672.578
684.257
670.122
678.509
683.005
687.645
689.418
685.812
683.854
691.369
682.003
686.277
687.027
694.682
691.355
702.713
691.324
691.761
707.078
702.133
696.579
705.832
707.697
710.313
715.282
715.662
703.751
697.885
704.647
694.524
697.920
693.138
690.663
690.261
683.995
686.095
684.676
669.215
673.110
670.821
661.527
658.994
668.188
659.183
653.974
646.604
650.949
654.144
651.424
649.774
647.047
640.890
640.841
627.734
635.762
632.636
621.065
619.133
620.804
611.219
620.009
613.070
609.848
601.945
599.749
592.779
599.511
587.086
588.366
594.733
587.976
584.018
577.040
584.104
581.631
579.474
567.393
572.919
566.999
553.352
556.633
558.944
558.276
554.069
544.015
542.132
534.136
535.439
533.256
526.898
530.080
527.922
530.773
523.287
520.890
509.887
520.333
513.221
501.847
513.293
498.524
507.923
501.836
495.644
486.265
489.081
492.560
477.490
479.619
476.772
474.899
466.610
473.305
467.218
459.811
464.290
457.717
462.570
450.603
455.677
442.613
447.238
445.132
440.957
432.310
430.652
433.818
427.212
428.059
415.366
421.253
423.063
413.389
412.128
404.560
405.882
411.141
396.857
405.697
395.171
386.868
394.239
390.071
379.692
389.484
375.521
383.764
368.373
375.642
361.625
363.332
363.388
363.405
353.185
355.217
348.593
345.010
347.187
342.493
341.005
343.299
332.208
327.168
323.145
325.027
316.090
323.198
325.965
318.541
319.022
309.772
313.806
300.740
306.555
302.249
302.656
292.037
288.612
293.421
286.612
284.574
283.276
271.430
271.201
265.834
269.951
273.134
265.222
267.541
255.737
248.350
259.632
250.910
253.358
249.657
244.064
231.714
235.095
228.182
237.639
226.876
223.179
222.713
225.665
219.659
218.087
206.697
215.541
205.565
206.102
203.799
197.901
196.361
194.895
181.813
179.416
186.502
173.774
183.013
182.480
173.363
166.608
171.551
164.597
163.166
155.183
164.927
158.400
164.706
155.119
157.093
160.938
151.500
156.219
151.060
148.863
147.960
152.768
144.639
151.831
152.435
155.008
464.158
501.587
468.124
475.267
491.393
502.153
