132.915
109.785
108.087
108.794
121.570
143.331
123.380
135.797
118.676
119.965
98.627
116.868
131.032
98.286
125.673
109.927
106.853
115.297
144.576
139.673
102.955
108.433
136.723
138.094
96.446
120.471
112.453
96.033
110.907
115.299
122.478
120.361
101.735
113.408
109.915
140.630
101.020
107.811
118.356
117.392
125.884
142.905
96.022
138.580
112.336
109.655
134.096
134.776
108.984
142.266
141.312
106.112
123.890
127.005
112.753
124.179
134.120
123.426
102.779
110.491
115.625
145.926
140.595
107.277
143.408
111.549
145.577
143.216
122.232
104.778
142.763
101.239
109.739
113.853
118.246
102.318
146.370
119.729
134.321
138.711
94.917
124.714
136.380
145.115
106.507
107.016
142.160
123.860
96.173
123.874
104.212
134.248
145.512
108.479
102.810
113.791
106.100
95.031
103.654
120.989
128.861
110.637
104.533
109.910
127.130
107.901
135.292
124.032
98.185
135.822
109.041
118.209
123.451
143.011
137.607
104.333
141.002
98.545
119.087
116.476
103.427
127.851
107.560
133.703
106.158
118.105
142.796
143.007
112.071
132.796
106.079
112.053
106.023
122.502
95.246
143.368
98.264
117.389
125.635
138.204
130.303
124.077
122.240
110.313
131.586
133.568
132.930
123.926
137.134
141.111
134.035
104.296
138.814
107.348
136.155
105.268
123.866
130.413
123.451
143.676
113.293
115.815
108.167
129.984
103.312
111.318
128.055
110.567
123.082
140.043
110.386
117.969
141.108
122.674
101.618
137.537
137.197
134.133
99.864
131.330
128.024
131.655
113.685
98.537
135.860
106.833
138.116
114.804
143.306
114.101
124.887
132.349
98.821
99.039
103.370
103.435
114.522
123.011
103.611
125.189
111.263
99.333
105.291
119.432
138.292
101.771
142.627
136.856
145.727
131.994
138.033
139.673
103.171
97.475
127.021
101.476
132.282
129.333
110.937
141.331
105.739
109.126
107.697
107.139
136.693
118.065
137.811
145.101
94.818
112.096
102.840
142.110
132.614
130.520
112.996
129.251
111.887
140.673
144.682
125.702
116.300
104.764
139.198
141.843
128.622
142.120
133.001
128.985
138.420
121.206
114.169
101.605
132.810
119.202
133.526
115.293
131.783
114.158
112.109
124.103
105.889
123.536
133.738
130.328
115.693
136.533
129.262
132.472
112.173
132.328
123.800
140.099
140.264
128.693
140.387
123.566
143.360
107.885
115.802
104.970
135.288
119.298
136.867
132.607
142.943
121.457
108.431
119.834
97.032
136.936
120.786
109.153
115.306
96.207
102.976
101.179
141.982
128.185
132.163
102.530
107.724
108.811
109.736
97.500
113.020
139.644
108.409
131.509
102.919
109.802
124.644
96.608
106.420
98.469
108.075
112.595
132.595
134.141
103.552
111.382
136.208
140.629
138.342
135.671
135.242
125.047
105.435
116.887
129.956
106.697
141.343
134.409
106.303
118.295
142.752
110.183
107.325
139.099
101.829
143.314
141.651
128.500
95.658
142.052
132.216
143.667
127.403
100.350
102.966
95.268
130.073
135.679
135.999
128.401
142.193
123.316
94.991
104.191
139.642
130.938
143.691
131.045
102.700
137.162
114.194
132.529
104.786
108.579
118.977
99.614
130.330
113.948
134.909
139.850
114.007
120.407
106.906
105.943
105.601
129.186
105.162
132.821
132.464
100.736
116.095
142.422
118.534
132.905
113.674
140.789
138.745
138.117
135.284
126.771
113.186
115.994
132.407
94.921
146.187
133.717
127.745
116.979
113.735
139.813
97.011
138.374
120.831
123.028
103.458
144.688
95.209
146.000
102.011
137.198
144.309
129.248
104.159
102.932
142.344
129.233
122.076
110.676
105.014
110.688
125.225
139.305
108.754
129.165
138.671
146.621
132.844
143.907
107.315
138.804
118.862
121.087
129.487
106.609
141.192
95.693
122.738
98.506
109.064
143.096
103.365
119.654
121.597
127.678
142.662
116.429
126.696
134.551
117.181
114.340
123.399
98.949
127.522
126.586
141.638
128.146
136.865
131.551
131.935
124.370
111.645
136.008
125.338
142.035
102.602
108.616
105.683
128.013
142.000
94.806
138.946
139.147
142.762
129.812
139.411
113.290
127.111
100.744
104.290
102.584
110.957
118.656
138.511
129.658
113.295
140.424
119.360
133.283
138.628
113.158
117.551
109.266
120.068
134.135
98.604
130.703
146.669
130.034
136.499
116.110
144.786
131.790
130.185
123.307
95.005
119.098
104.368
104.490
112.527
141.054
116.577
95.958
131.780
141.232
133.138
125.834
134.748
134.745
129.964
123.046
135.683
142.562
95.271
133.794
140.696
109.526
126.491
132.789
103.794
102.050
94.940
104.966
122.556
150.961
150.677
130.122
101.180
102.640
141.612
109.910
133.523
105.203
104.592
134.743
109.089
127.911
135.103
117.822
134.394
148.494
134.692
107.172
121.595
110.227
106.165
149.236
111.353
114.696
101.823
147.654
138.807
115.972
110.363
150.553
146.301
153.039
149.159
101.643
111.209
105.766
126.181
148.547
116.974
102.471
138.921
105.371
130.618
148.973
139.891
147.259
125.541
124.913
131.928
131.116
123.103
143.306
144.906
140.613
114.817
135.981
109.826
130.558
116.688
150.801
129.117
145.282
118.097
119.495
123.903
112.865
133.895
107.035
138.358
131.605
149.755
134.536
124.892
115.631
124.702
148.413
111.532
128.468
131.884
121.811
124.232
103.866
125.258
134.906
145.387
113.547
133.591
145.814
116.723
139.382
122.430
148.437
142.989
139.834
131.317
123.599
127.288
107.457
128.385
114.134
108.052
101.866
145.779
109.189
107.480
130.148
148.077
113.848
137.191
149.168
127.499
106.587
113.218
107.725
103.403
153.071
115.688
127.632
117.339
129.472
144.938
140.411
103.379
132.214
145.483
115.101
136.045
116.720
128.360
110.892
117.156
112.578
110.486
133.098
123.324
119.182
144.674
115.278
145.042
103.407
151.653
122.663
139.743
115.550
142.101
146.922
152.758
133.226
111.057
135.604
120.013
108.363
105.720
108.267
126.527
148.457
122.146
139.369
124.501
136.427
144.495
117.306
108.218
128.912
106.568
131.422
111.387
120.840
128.833
120.841
127.293
112.799
122.186
136.305
117.220
134.484
125.401
146.541
112.661
121.534
130.975
134.146
107.214
112.056
147.117
113.961
124.352
145.433
120.183
123.335
126.296
131.049
137.211
116.404
127.583
130.798
151.458
152.222
151.275
108.749
116.023
125.668
107.787
148.982
107.669
115.412
103.671
127.197
141.012
148.147
126.795
126.145
114.672
141.552
147.436
147.991
152.712
144.262
132.180
119.174
144.997
130.372
139.167
128.070
126.284
128.648
140.497
117.822
150.320
113.067
107.942
141.385
104.843
151.620
109.445
104.414
144.227
150.155
114.392
124.208
107.574
120.861
114.858
125.634
102.127
130.715
114.359
117.424
152.400
101.339
141.047
149.255
123.137
137.896
148.009
135.161
123.342
144.398
149.082
117.519
150.719
137.676
109.047
137.067
152.525
108.975
113.103
101.708
117.887
115.581
123.445
103.554
114.662
110.254
122.042
128.249
128.034
102.163
137.207
126.925
129.345
149.785
149.409
145.739
134.192
118.403
140.520
133.417
121.726
139.031
120.422
143.798
112.314
141.025
144.868
138.604
122.599
113.181
151.793
143.397
149.922
120.820
134.983
131.416
134.573
142.566
150.729
109.162
114.451
125.777
110.373
110.092
133.787
138.175
120.683
105.755
140.683
106.718
146.267
137.905
104.836
101.614
142.767
140.103
121.479
114.463
129.359
145.522
143.747
147.408
146.726
132.003
113.606
124.799
138.189
147.498
115.842
116.742
147.985
120.449
124.568
145.446
106.883
142.026
148.816
116.087
129.193
112.422
140.496
118.613
126.779
145.739
131.585
145.344
133.317
126.173
104.026
146.821
117.451
115.786
143.978
150.650
102.787
147.889
125.041
126.688
125.918
111.093
118.904
125.969
134.498
142.231
135.549
107.405
118.385
106.533
116.206
135.591
102.513
104.405
138.028
133.145
105.578
123.770
148.275
136.664
123.423
104.993
101.758
103.865
102.313
143.103
127.177
140.479
129.806
138.397
128.920
697.672
764.610
766.751
718.614
775.109
734.128
776.485
770.128
823.605
797.006
794.679
803.606
821.698
848.047
875.556
808.803
805.262
877.600
268.321
278.240
278.052
263.238
271.794
280.001
276.569
274.452
290.866
295.840
292.612
290.869
295.464
293.805
280.943
309.597
303.089
303.440
299.076
303.849
295.673
295.198
303.494
310.745
302.326
306.961
314.664
308.057
319.872
333.085
319.053
344.361
328.670
340.780
339.965
348.612
338.549
332.669
331.255
343.757
352.590
343.070
356.388
361.737
348.583
367.702
349.392
375.493
358.576
371.177
379.055
362.722
367.175
382.236
389.179
367.986
380.046
385.155
387.932
377.099
390.799
403.765
405.630
386.196
408.251
396.472
401.385
397.998
418.627
403.232
402.927
405.846
408.533
426.553
415.027
417.591
440.027
430.884
444.166
419.296
445.885
446.132
237.176
243.963
239.718
245.268
255.716
244.145
258.412
257.201
260.250
250.325
257.926
255.168
250.706
259.521
262.041
256.050
266.267
270.837
259.502
266.363
270.934
274.150
267.165
278.099
280.314
269.974
270.491
273.410
275.528
286.328
286.177
273.702
275.128
279.866
287.074
288.882
286.516
286.300
292.965
291.618
298.674
294.928
290.546
291.887
297.863
304.349
302.796
295.867
297.399
294.938
300.402
302.654
307.310
313.873
304.287
314.628
313.331
312.734
310.612
313.095
316.331
311.716
316.063
311.598
319.847
317.197
319.160
327.697
329.251
333.571
325.705
328.900
333.720
329.024
328.042
327.955
340.977
338.413
330.905
338.838
341.055
341.869
338.281
347.772
343.593
342.741
340.306
354.998
356.207
352.267
357.788
360.723
346.349
358.934
351.960
355.358
365.927
367.606
356.825
370.044
358.974
370.626
362.390
364.296
366.191
374.801
365.710
362.410
377.036
369.857
376.021
378.710
368.513
369.281
378.957
377.800
372.758
380.446
384.344
374.782
377.056
373.991
377.463
373.577
381.348
380.659
381.768
384.391
390.583
389.631
378.779
380.601
383.671
392.498
394.732
382.226
397.541
397.313
388.783
389.630
388.055
398.199
389.594
399.283
397.513
392.328
393.461
392.035
396.880
395.221
401.053
400.866
407.852
398.434
402.721
408.190
401.689
405.056
400.775
405.360
412.796
407.141
401.496
413.626
407.416
404.895
419.839
405.870
419.779
413.731
419.603
415.086
415.706
417.684
415.405
418.301
426.808
413.563
419.377
420.721
414.440
421.425
428.159
430.949
421.672
423.062
426.421
433.433
426.529
422.521
431.634
430.618
434.216
424.561
438.435
438.634
431.731
432.768
432.947
436.326
442.607
436.687
437.739
435.746
433.771
447.124
445.363
445.495
441.507
441.654
447.820
448.808
444.637
444.518
447.966
449.749
451.283
456.459
449.358
445.432
455.617
448.978
458.787
454.790
452.207
456.393
448.627
449.953
456.188
456.162
455.104
463.101
455.354
459.539
458.627
468.861
463.639
470.917
460.361
465.169
473.602
473.095
471.535
462.357
473.103
468.554
475.277
474.843
475.406
467.947
473.269
473.640
473.018
476.755
484.327
483.156
476.046
485.442
479.243
481.880
473.150
487.927
483.218
479.578
491.114
481.195
491.246
485.463
487.730
494.012
488.911
487.468
493.231
483.026
492.058
489.721
493.445
499.508
492.475
488.048
502.739
495.573
491.215
503.671
492.362
506.432
503.514
495.222
496.890
503.366
501.717
495.873
511.387
503.098
501.811
500.192
513.934
510.092
508.183
506.240
505.601
516.800
521.122
513.527
516.934
515.085
521.087
531.431
521.114
535.429
525.920
539.735
536.890
541.354
537.433
548.502
540.587
550.323
556.384
560.232
554.648
552.168
560.744
567.640
559.310
561.776
575.300
570.088
567.613
583.113
583.189
584.648
587.436
591.962
583.067
587.502
597.863
593.254
603.230
597.473
601.722
596.602
610.028
615.027
608.971
618.048
618.288
610.232
622.389
619.544
632.115
623.180
634.301
626.478
637.587
640.403
633.060
636.230
645.545
639.089
645.504
649.249
659.875
658.884
658.096
664.200
665.874
660.312
672.717
670.228
666.328
668.639
678.984
680.856
684.535
675.191
681.584
681.816
694.991
692.653
696.276
692.539
703.515
700.611
697.112
698.539
708.073
715.684
715.574
717.504
709.620
724.965
726.857
725.273
722.837
731.715
724.640
728.232
729.718
731.904
742.307
735.146
750.650
746.317
745.392
754.315
759.330
751.319
762.476
759.630
764.564
765.335
768.499
767.745
773.508
774.903
775.921
772.334
778.485
784.535
778.066
792.336
784.655
799.228
790.054
801.922
805.177
801.887
804.203
803.911
807.554
815.535
815.003
816.511
816.117
817.750
817.621
824.624
829.533
823.268
826.992
830.629
830.292
830.762
844.784
841.461
840.127
843.799
854.795
852.470
849.360
860.576
856.435
866.726
865.548
866.244
868.684
877.233
871.083
880.812
871.596
880.539
881.693
884.952
891.084
895.366
883.608
895.362
902.202
903.792
893.290
898.058
910.507
912.476
913.232
911.556
913.140
916.822
918.708
920.089
928.807
917.582
920.504
921.146
932.750
934.639
931.082
936.389
946.968
948.779
944.248
939.729
950.615
955.239
954.598
952.192
951.840
959.705
963.482
962.740
969.363
966.685
969.024
969.655
967.245
958.590
958.094
958.565
959.292
947.382
952.177
951.118
951.937
949.252
948.298
951.410
950.015
935.120
945.032
947.829
945.257
932.194
933.901
926.599
931.767
931.434
922.945
928.999
928.589
924.840
925.292
928.355
924.866
913.777
921.999
914.058
915.491
915.583
918.574
916.110
915.079
905.864
911.166
899.822
901.318
904.738
897.208
894.288
894.125
897.995
901.408
888.176
887.048
885.741
890.377
883.940
882.365
878.079
884.477
885.732
875.662
873.522
882.722
869.852
867.016
870.667
872.750
863.405
863.530
861.066
866.217
866.874
869.278
854.508
862.907
851.133
858.395
857.633
848.985
857.294
852.904
843.722
842.952
842.945
845.603
842.748
840.703
842.479
844.672
832.346
837.623
838.787
833.648
828.306
832.770
822.545
822.217
831.008
823.498
820.036
821.865
817.890
820.125
822.745
813.475
814.110
805.968
808.848
813.437
814.497
800.657
798.322
806.854
805.625
799.869
801.544
794.712
797.807
789.933
792.318
790.836
789.296
794.067
788.266
785.145
787.204
779.334
783.616
782.396
785.985
784.732
772.927
766.593
773.809
766.751
776.745
773.331
768.145
767.079
768.899
764.500
765.108
767.405
753.278
761.870
753.384
760.600
757.603
750.592
748.642
754.261
745.957
745.688
743.209
737.966
738.280
746.101
733.312
731.944
731.282
735.391
731.110
730.657
735.870
721.795
726.350
721.394
726.819
720.834
714.616
711.020
714.115
721.978
707.103
720.204
718.775
712.612
701.714
711.824
699.189
700.734
694.813
694.974
694.427
699.682
697.601
692.090
701.079
687.196
686.494
685.406
685.066
681.314
680.827
681.345
682.728
688.267
684.133
670.275
674.547
667.181
675.884
669.598
681.261
672.650
676.219
686.226
687.596
681.044
685.448
690.249
691.152
684.531
681.067
684.162
681.638
681.678
683.365
690.100
696.025
684.171
697.831
689.824
687.941
699.661
700.546
699.979
702.579
696.307
700.137
705.597
695.722
694.691
695.693
694.140
698.244
698.564
704.124
709.137
704.240
708.144
707.513
715.976
712.186
713.621
709.310
706.462
707.735
706.481
713.300
716.994
715.271
709.376
709.678
710.879
718.081
713.303
724.516
715.068
718.600
721.675
718.638
723.630
730.048
722.031
734.104
721.760
732.741
727.476
733.978
734.647
724.214
738.968
737.306
739.160
734.077
730.154
731.418
744.925
732.183
738.538
744.704
746.966
737.853
736.477
746.973
739.600
751.319
752.434
741.694
753.306
753.007
746.301
754.011
754.127
754.104
744.830
757.895
759.285
760.085
756.578
750.043
760.740
754.656
758.995
761.903
767.507
756.281
759.152
759.795
770.772
760.954
764.066
773.136
766.585
770.728
768.682
774.710
766.267
769.840
767.436
777.566
781.190
773.656
775.195
775.006
780.320
784.492
783.217
786.174
782.078
773.516
776.777
784.463
782.303
778.065
788.992
786.045
788.562
794.875
782.394
781.433
790.243
798.228
795.883
800.012
792.501
801.296
799.864
790.350
795.417
795.763
794.928
791.983
797.613
803.374
808.202
798.472
805.217
796.653
805.316
798.116
813.779
801.718
811.301
811.305
805.345
808.904
808.144
807.828
819.535
806.591
806.219
820.814
822.909
812.139
825.111
825.111
814.617
821.478
817.736
826.287
820.800
824.207
827.462
828.460
819.827
819.380
822.722
826.630
831.762
825.871
825.030
833.633
831.353
826.792
836.326
834.134
841.890
839.356
841.081
837.805
838.665
830.069
841.745
844.395
840.730
836.861
838.581
840.110
843.557
845.202
839.353
836.237
845.187
837.629
843.888
837.393
842.026
844.395
850.503
851.097
850.964
843.975
842.423
849.731
842.098
856.056
847.161
843.638
854.716
855.236
844.281
854.198
844.938
857.633
855.014
852.368
857.835
853.309
848.596
855.800
860.632
862.526
852.977
857.530
863.978
863.365
863.172
851.958
850.427
851.538
858.737
857.538
860.919
858.461
854.554
856.267
854.236
863.942
859.984
858.702
867.353
871.123
864.288
