141.736
96.238
129.350
111.716
144.168
106.826
97.643
115.363
129.075
107.628
135.343
135.853
130.189
138.510
115.858
136.093
109.263
143.937
120.548
102.318
105.487
114.103
121.487
126.703
104.695
146.392
131.679
110.822
112.890
114.911
117.170
141.221
102.641
144.139
116.649
119.473
118.686
129.727
95.097
95.111
111.970
141.453
108.486
133.030
104.004
109.362
107.056
127.511
107.684
120.515
129.261
137.674
113.860
126.471
121.268
124.947
133.878
141.871
129.015
109.327
126.509
129.119
97.444
129.930
136.092
97.693
145.661
99.392
137.088
131.538
124.695
144.519
145.044
136.325
105.369
128.854
146.523
125.888
100.226
137.659
119.727
127.607
100.903
115.714
114.470
102.605
119.175
129.972
110.534
116.404
103.000
130.323
128.672
114.779
133.432
97.960
132.409
120.801
120.776
137.907
127.287
96.287
112.424
133.747
125.578
140.307
101.640
103.293
98.397
112.433
140.425
132.535
143.948
126.551
132.546
138.815
107.351
132.608
144.433
122.892
142.474
110.999
110.348
141.552
102.157
139.909
103.238
99.202
111.061
142.040
133.207
112.086
99.514
121.328
141.034
111.135
112.869
145.099
96.771
124.674
114.878
140.226
116.684
137.798
136.204
126.468
113.799
122.221
95.779
142.276
99.753
113.198
123.041
102.258
134.634
105.070
144.792
97.743
130.365
110.377
118.282
98.835
142.278
100.261
120.790
124.505
116.443
113.877
112.475
141.656
111.367
122.540
117.970
123.523
99.360
127.236
144.867
110.435
115.226
125.189
128.206
107.923
107.328
113.389
123.291
118.387
119.296
124.959
109.726
98.031
145.788
134.450
139.025
138.044
119.068
135.417
125.521
114.922
143.102
129.491
144.384
126.604
140.399
118.186
124.145
126.991
132.426
140.888
112.976
120.839
127.045
98.763
121.522
114.876
127.672
145.402
105.131
135.944
98.382
132.442
121.610
125.998
106.843
134.143
96.483
122.983
128.690
108.602
98.160
107.307
114.388
137.529
98.390
124.436
129.226
110.966
125.648
132.257
144.453
101.327
100.914
132.463
137.824
107.778
111.646
135.151
106.435
114.719
127.736
110.247
133.124
96.622
108.515
99.745
98.626
96.133
138.593
134.656
136.967
98.052
119.225
102.758
103.992
136.368
129.595
110.415
97.027
131.099
120.107
134.612
133.959
138.566
102.620
131.506
114.986
142.794
144.257
125.301
146.610
119.959
123.815
131.653
134.902
121.383
120.698
125.499
99.297
108.053
121.263
141.364
123.579
99.781
122.511
135.771
128.305
121.839
102.994
108.103
107.567
140.364
101.208
99.402
105.157
108.702
98.361
101.341
108.331
105.744
130.128
120.739
111.947
128.878
127.366
123.777
129.033
109.746
122.534
135.220
132.798
101.566
133.027
109.470
121.921
118.679
135.853
128.863
140.895
108.829
111.734
133.472
113.680
108.353
111.651
105.949
101.030
98.618
138.844
101.836
117.594
136.748
141.934
131.734
138.954
96.733
140.584
142.991
109.672
129.927
104.033
138.152
123.423
105.483
127.493
118.831
101.510
105.063
137.487
105.067
97.184
141.370
118.388
110.327
128.685
100.607
125.228
117.353
138.180
146.569
112.919
107.536
126.118
109.636
142.737
100.503
107.608
104.139
100.184
141.696
112.041
140.543
108.384
112.140
112.693
141.441
101.273
144.551
101.274
120.126
129.862
128.201
122.099
115.145
129.522
114.636
108.199
133.972
97.185
104.266
103.773
106.849
122.403
118.607
101.009
138.314
116.456
109.331
110.604
112.166
146.161
146.283
117.724
140.660
106.125
111.488
98.888
120.178
108.638
100.959
125.773
106.752
94.860
105.103
142.675
143.039
122.698
105.173
142.129
101.025
143.098
140.868
120.029
146.655
135.084
117.318
122.087
116.888
128.460
101.033
102.681
144.845
135.213
145.290
116.412
97.798
114.817
134.603
133.283
128.366
102.143
141.371
143.785
105.902
105.022
113.377
141.584
101.173
130.279
114.468
122.324
137.017
116.855
145.918
99.679
128.881
140.482
113.026
146.565
121.916
104.743
143.487
97.828
142.855
109.586
130.462
96.279
97.810
141.730
141.122
119.044
116.753
99.019
96.612
117.232
126.578
114.767
123.592
125.474
105.540
139.778
144.979
95.431
114.145
104.324
127.854
114.816
119.967
138.129
100.048
144.124
132.080
144.738
111.645
96.963
116.051
112.849
142.884
144.330
122.038
120.925
139.650
127.880
130.262
140.261
136.844
129.086
126.854
108.715
120.374
113.947
136.583
144.056
139.759
119.469
122.096
123.548
140.332
107.182
100.503
127.356
114.434
120.158
119.607
131.739
131.216
136.844
119.053
141.669
125.144
106.099
119.252
105.372
118.628
127.752
115.418
99.120
96.566
123.172
146.565
111.918
119.060
141.425
123.226
137.726
134.597
143.060
101.344
137.174
103.296
138.924
125.958
124.793
145.736
101.052
123.618
98.813
141.281
106.228
142.117
128.453
115.199
135.417
142.194
136.728
97.006
125.843
96.216
110.259
95.607
100.280
101.920
117.290
123.420
119.352
126.661
119.415
138.304
114.701
103.825
115.869
144.155
136.714
122.138
138.717
121.371
102.688
139.949
115.865
137.236
112.540
119.373
115.060
112.418
109.855
134.997
115.304
128.885
95.429
140.907
141.060
122.931
122.252
141.613
144.092
124.583
141.529
104.612
139.077
133.546
106.719
123.929
122.647
98.845
134.327
97.889
123.376
110.590
100.703
137.484
119.024
143.159
96.495
130.833
114.768
119.847
122.697
141.770
102.996
131.381
115.551
115.594
138.800
112.385
112.976
131.222
128.993
108.829
96.666
97.279
120.410
130.992
143.095
96.592
121.335
118.545
122.825
138.863
142.956
129.948
144.036
95.813
122.697
133.115
127.724
110.827
105.738
137.778
140.878
127.704
104.187
110.256
118.415
118.597
118.335
109.499
110.401
120.007
131.446
118.595
102.753
116.973
120.751
122.774
126.923
118.663
121.160
112.266
98.546
138.788
139.138
142.499
100.504
134.559
95.116
115.468
129.255
122.866
117.651
107.210
140.103
117.762
129.062
94.985
133.529
101.933
111.861
95.991
113.109
128.076
136.513
106.174
111.215
110.641
97.659
102.731
130.149
138.583
104.115
127.569
135.729
119.570
123.599
126.582
126.002
97.730
95.235
129.921
141.075
95.673
104.331
142.112
107.386
133.448
135.040
97.841
106.871
134.120
112.989
96.292
109.376
136.266
97.252
119.478
121.813
116.583
100.105
109.659
119.892
96.207
135.379
132.943
113.476
130.319
122.260
97.241
138.813
124.837
112.624
106.533
111.141
109.590
125.180
108.546
140.080
113.436
123.858
128.250
108.196
118.330
110.293
133.283
112.842
131.363
145.116
95.718
136.761
102.874
96.688
132.431
131.406
98.330
118.431
102.884
145.087
145.305
141.116
113.136
131.100
142.549
144.451
139.608
133.567
116.831
136.989
117.921
99.913
146.134
117.533
127.528
126.909
118.013
136.321
120.115
108.855
129.578
134.901
130.162
131.904
104.936
97.232
111.053
126.696
104.528
138.536
115.824
117.653
128.894
120.696
119.755
103.971
123.576
96.322
132.313
100.143
111.554
144.440
115.032
94.941
105.522
103.600
105.265
134.398
108.494
144.452
123.652
115.755
109.897
102.821
126.286
138.786
133.852
136.635
124.672
146.735
98.567
141.889
134.627
135.806
118.875
102.821
110.068
139.607
101.106
104.387
124.467
97.305
101.235
102.395
113.108
119.802
133.839
111.749
137.495
144.760
146.074
113.607
100.979
119.417
124.236
142.866
117.057
125.685
115.130
140.719
115.786
116.671
121.924
121.022
126.001
122.025
102.667
116.781
99.496
111.940
123.209
112.944
115.889
118.777
116.819
130.424
111.422
111.155
105.923
138.799
102.706
146.231
133.601
134.547
113.311
112.410
102.837
116.160
146.730
124.922
143.289
131.332
117.977
125.510
139.014
136.512
146.289
138.822
128.594
113.795
133.677
134.686
135.477
112.453
113.943
98.607
124.714
112.214
114.606
136.389
107.686
115.140
106.652
127.472
118.161
101.673
119.977
114.622
95.039
146.392
118.764
115.339
112.659
134.803
130.443
113.140
107.851
112.747
123.983
128.777
115.546
127.947
111.575
117.619
98.522
122.030
142.950
103.626
106.421
98.890
121.881
107.721
129.061
126.264
109.299
136.572
105.361
135.086
117.377
128.658
104.619
108.967
124.352
109.063
137.185
129.349
100.629
138.893
98.659
121.707
106.603
125.370
137.829
110.883
132.655
94.877
131.295
109.331
129.020
124.366
102.102
142.609
98.604
127.739
130.771
99.595
118.815
104.836
132.701
122.946
109.458
103.282
128.778
133.101
123.216
119.886
125.238
104.293
117.930
119.858
118.009
106.808
125.103
122.550
135.345
134.467
127.602
111.253
115.761
134.212
141.818
106.208
141.338
132.358
97.792
145.106
107.708
134.922
117.224
120.290
109.988
130.967
133.585
122.118
116.039
106.660
112.033
97.300
117.365
100.616
128.516
130.471
139.975
101.055
140.671
136.464
139.540
134.713
112.606
100.323
97.494
100.373
129.442
145.882
120.880
101.947
108.242
142.984
109.231
120.646
99.147
144.535
130.735
108.731
142.817
105.419
123.298
102.898
136.904
95.548
124.888
136.098
40.787
33.195
29.658
33.122
38.258
33.223
40.822
38.025
41.601
44.276
34.563
44.465
38.369
41.070
33.944
40.318
43.962
44.325
42.107
33.340
39.593
39.460
43.831
34.410
44.312
32.528
33.220
34.410
38.900
39.285
36.061
43.229
33.707
44.779
40.064
34.505
35.976
37.116
43.707
42.660
43.716
39.025
32.261
31.798
33.233
1097.548
1097.155
1100.072
1081.126
1094.064
1098.796
1090.675
1112.019
1092.683
1098.854
1103.113
1110.526
1122.258
1110.017
1102.093
1116.409
1111.134
1110.431
1112.112
1107.492
1117.281
1119.929
1111.316
1132.805
1129.116
1122.545
1131.367
1116.261
1143.934
1124.706
1129.351
1137.920
1125.766
1142.339
1129.637
1136.327
1139.779
1151.191
1134.682
1151.647
1135.167
1163.575
1165.671
1155.815
1145.437
1149.138
1160.402
1155.648
1153.281
1172.228
1163.960
1173.561
1171.893
1179.477
1156.984
1175.113
1182.509
1170.195
1185.397
1188.429
1186.982
1171.350
1192.347
1183.473
1174.905
1186.383
1182.186
1185.970
1202.531
1198.889
1185.308
1203.565
1184.068
1204.262
1206.684
1206.651
1211.496
1217.262
1192.138
1209.207
1210.737
1199.816
1210.389
1204.757
1209.599
1205.423
1210.919
1222.603
1229.797
1227.467
1234.174
1217.423
1234.985
1220.297
1222.440
1240.381
1242.279
1228.319
1233.992
1222.321
679.273
691.363
686.705
687.532
693.796
697.367
689.721
689.324
695.840
690.914
701.815
691.518
691.300
698.624
706.161
692.396
700.884
699.227
702.034
696.901
710.389
706.052
700.941
707.315
708.578
712.083
706.227
712.366
701.931
713.140
711.385
710.511
712.069
710.721
719.851
712.634
723.797
719.970
717.928
722.371
712.724
714.060
714.363
717.595
726.582
721.602
724.139
728.918
733.372
728.775
730.576
724.667
721.851
732.824
729.200
731.574
734.195
740.987
732.493
735.721
740.560
740.697
739.938
738.250
744.549
738.193
748.353
738.213
743.368
750.362
750.242
749.480
740.102
743.351
746.573
744.336
755.357
746.206
751.770
758.435
755.312
755.196
752.556
755.917
758.184
758.994
750.213
752.034
761.834
761.182
756.927
766.955
760.292
767.733
765.308
766.787
758.389
765.775
766.784
760.368
771.963
763.698
771.424
773.130
775.417
766.081
773.557
772.520
762.090
762.676
775.023
761.995
775.434
773.622
772.788
772.916
769.330
767.534
763.445
765.823
761.692
761.411
765.106
776.379
763.804
763.382
775.923
773.012
766.349
772.138
776.035
770.757
769.962
769.741
761.178
774.035
768.161
762.647
768.439
775.826
775.367
767.168
776.479
767.430
775.545
776.471
769.385
764.872
761.449
774.570
772.086
775.571
775.159
776.762
768.771
771.120
764.400
773.859
761.077
764.780
765.769
771.625
771.118
771.616
765.550
769.299
776.178
762.322
761.219
767.386
767.510
767.231
763.381
775.015
763.920
770.724
766.099
775.447
774.235
770.790
763.389
771.719
765.293
773.547
770.038
767.109
776.896
776.135
769.449
761.679
775.023
770.543
774.215
775.417
767.274
771.177
763.540
774.395
765.790
767.437
762.378
769.427
763.795
764.004
764.015
768.144
761.637
762.549
771.411
777.111
775.501
768.224
774.525
769.663
775.133
773.456
777.050
767.453
769.117
768.744
771.934
763.832
776.700
773.851
762.655
767.511
773.551
774.797
775.426
769.829
769.880
765.942
764.014
762.395
770.498
763.463
769.200
762.616
768.185
772.397
775.614
767.498
769.529
777.496
770.069
777.100
777.062
777.634
776.001
772.472
769.210
776.002
773.719
770.527
775.731
770.228
776.801
762.053
766.678
762.894
775.967
774.002
777.484
768.712
765.599
776.709
773.242
774.423
764.976
766.879
764.042
770.468
768.669
770.121
762.365
773.597
766.417
762.326
762.512
768.345
774.683
776.308
769.608
764.155
765.553
770.364
776.825
764.262
773.156
772.382
762.960
775.671
773.344
776.341
777.891
777.298
762.894
764.972
764.336
770.556
773.959
763.263
774.811
768.535
765.238
776.422
776.332
775.702
781.824
770.115
781.679
773.372
783.514
773.307
784.757
777.950
777.600
772.332
775.701
775.755
780.376
778.090
784.718
784.984
779.677
782.732
777.911
788.902
781.501
783.065
780.711
795.283
786.204
795.747
793.973
792.569
785.987
797.430
792.402
798.888
794.543
795.687
796.662
793.983
796.947
803.929
799.533
793.137
804.747
802.244
804.192
793.601
797.555
802.099
797.212
803.594
800.057
805.154
799.024
809.970
811.525
798.918
807.907
800.457
800.446
813.472
812.485
808.155
811.958
809.757
817.544
808.513
817.972
818.926
810.129
821.086
819.352
808.506
811.559
823.942
814.431
810.736
819.487
819.489
819.060
819.456
820.118
825.908
829.667
818.993
830.166
819.257
822.214
826.654
828.273
831.788
830.003
827.913
825.354
833.982
828.798
823.489
830.180
837.705
834.934
834.306
834.886
830.818
828.242
830.825
830.210
842.354
836.415
833.538
844.452
840.049
835.991
832.959
835.595
843.876
834.819
845.092
836.139
847.602
837.137
849.814
840.839
842.786
839.154
843.414
849.858
847.184
846.843
849.626
844.419
847.316
848.184
846.601
852.872
857.639
845.921
849.597
861.395
849.976
862.498
853.306
858.641
853.985
851.150
859.247
850.894
864.962
866.835
865.674
856.013
861.410
858.064
863.878
868.870
870.688
859.410
861.474
859.153
862.457
861.355
869.922
861.818
869.711
866.598
863.294
873.951
875.497
866.583
877.849
867.947
868.302
878.436
870.898
870.877
869.031
877.065
874.736
879.437
871.383
874.039
877.850
885.338
886.842
877.946
873.514
878.815
879.500
875.633
876.637
884.913
892.402
878.373
887.675
882.770
893.865
888.421
883.691
884.127
885.153
891.027
883.539
884.396
893.757
881.499
881.675
894.796
885.785
882.400
890.117
891.482
893.873
891.975
888.001
893.859
889.863
893.589
895.138
895.546
880.452
885.742
880.968
880.716
883.232
889.785
884.878
889.793
884.603
888.499
880.626
895.967
883.776
893.470
881.244
885.494
886.026
881.211
894.279
889.268
880.683
882.499
882.845
889.005
896.490
886.692
887.449
881.530
891.793
893.061
893.884
881.950
892.998
886.470
883.274
884.000
891.519
887.349
885.557
884.180
894.466
883.248
882.475
890.317
896.701
881.969
887.667
895.668
895.390
881.451
887.546
890.716
882.630
894.251
893.714
887.900
881.276
896.472
882.496
896.511
882.386
891.732
893.090
885.748
885.389
895.169
895.284
892.585
892.651
893.587
894.247
895.484
885.768
889.026
886.941
888.905
894.391
893.431
887.779
893.876
887.879
897.024
893.243
894.973
893.988
895.631
882.194
895.077
885.145
887.146
894.432
890.279
886.396
882.345
895.613
897.672
897.109
882.589
891.898
896.996
882.395
885.354
892.201
891.561
896.507
895.505
895.396
896.556
895.978
884.382
889.716
891.339
893.972
886.500
892.306
889.478
897.174
885.615
894.927
890.119
891.408
886.480
888.971
897.106
892.219
890.566
897.453
892.210
890.704
888.630
884.428
889.716
897.153
891.344
897.273
894.039
889.309
898.113
898.682
883.159
895.548
888.023
883.398
890.082
894.691
895.135
883.321
885.860
895.754
891.357
891.553
898.356
897.221
892.576
893.376
893.333
897.115
888.469
884.536
896.087
896.294
899.022
895.504
883.857
886.851
891.531
885.396
896.405
893.447
883.451
892.326
897.046
886.320
885.413
892.515
896.192
892.175
893.496
886.542
893.055
892.885
889.701
889.602
886.508
895.652
896.892
888.208
885.671
887.691
885.169
894.590
893.696
896.963
888.700
885.941
899.110
885.107
888.244
889.962
887.029
895.625
883.457
897.271
891.625
884.506
895.758
897.854
890.736
888.626
893.878
893.998
897.161
887.441
892.571
898.555
889.788
893.443
885.095
892.504
883.880
892.445
898.184
893.769
894.169
895.323
896.657
890.515
889.109
888.746
887.985
885.882
885.677
897.796
896.022
886.179
897.340
883.401
886.433
898.180
885.285
892.614
894.577
886.476
891.551
893.200
898.249
892.743
894.010
892.070
885.949
897.368
898.122
882.988
886.883
886.376
891.081
895.335
883.172
886.889
888.532
893.860
887.552
893.626
889.426
885.548
883.935
898.527
