117.596
123.529
118.091
113.442
137.934
104.001
125.088
143.915
133.819
108.467
137.586
135.954
100.541
138.946
130.176
98.812
116.514
96.959
115.001
113.187
95.976
99.997
128.066
104.754
99.643
108.435
106.936
108.304
97.528
96.556
119.519
112.724
116.624
103.245
105.760
96.116
98.202
140.445
122.287
124.643
124.541
108.864
130.299
117.084
124.400
95.013
101.838
126.126
106.687
115.790
107.708
130.460
116.204
130.593
111.716
98.849
140.526
116.861
109.528
110.245
102.006
95.752
110.997
122.139
132.535
114.488
126.200
126.554
145.668
116.885
95.909
139.343
127.607
95.590
131.385
122.824
110.437
105.352
123.284
102.216
140.653
133.682
129.907
109.903
97.298
112.915
136.853
125.419
121.092
124.385
97.312
144.860
121.133
127.508
113.665
126.713
97.111
139.743
142.966
98.467
134.954
126.597
136.678
102.004
105.802
134.030
123.046
125.636
143.278
110.530
106.040
113.991
107.249
102.595
120.949
96.109
106.082
101.267
122.252
117.846
96.373
130.351
141.110
104.362
102.454
100.091
118.894
146.737
131.496
134.786
122.390
135.007
140.758
122.090
116.853
105.991
132.200
112.541
117.399
121.108
140.075
114.703
128.281
116.359
97.842
111.064
142.903
108.841
115.609
105.151
116.777
146.288
102.593
95.719
104.699
131.843
128.400
110.750
126.843
137.514
113.899
121.048
123.541
141.538
122.741
104.731
128.584
144.232
135.286
103.632
145.033
98.930
144.541
144.620
138.555
142.717
107.990
135.610
115.385
115.981
143.725
136.550
110.469
131.040
112.106
115.000
95.545
107.002
139.751
107.737
114.998
128.313
115.152
113.310
95.244
119.862
124.360
109.025
128.166
123.023
104.936
101.234
111.216
137.180
135.684
110.176
99.000
105.650
99.380
129.116
133.955
137.121
100.501
111.003
107.449
113.079
145.288
136.396
135.086
129.764
117.980
127.117
138.076
96.169
145.801
144.718
146.723
116.588
99.138
121.685
109.605
136.707
105.906
134.561
110.163
106.781
95.072
101.614
98.224
146.598
101.239
138.372
114.538
120.828
121.031
137.837
103.484
142.529
114.615
115.831
98.103
128.779
143.894
107.086
135.396
121.428
115.594
121.165
94.947
98.680
138.402
118.605
127.189
118.013
101.776
101.909
119.585
138.511
141.374
118.338
138.584
112.522
100.379
124.797
128.546
124.217
128.008
113.786
102.719
135.399
127.537
115.061
119.741
145.120
121.275
135.347
107.588
107.108
124.370
110.503
146.180
114.093
131.185
120.376
118.104
116.462
140.115
131.513
121.858
105.957
116.583
144.493
108.574
96.121
140.810
130.767
128.016
120.865
100.858
107.956
138.961
97.136
106.280
139.741
118.910
131.876
124.510
140.247
96.715
100.693
131.489
137.842
99.320
120.470
112.022
106.580
134.327
143.804
119.153
111.325
112.954
107.222
124.023
142.852
97.057
95.136
117.479
138.448
110.861
130.219
145.131
133.694
98.235
106.111
105.945
143.953
101.251
111.497
140.385
114.273
141.746
95.331
99.301
125.004
138.366
141.513
143.693
145.950
142.974
96.511
139.286
144.945
146.623
107.860
99.076
103.298
117.506
132.629
137.630
146.154
98.964
132.613
133.930
137.399
127.163
99.106
111.020
96.965
103.204
121.371
125.788
128.412
116.585
136.754
105.863
128.006
138.637
106.156
96.143
125.412
123.207
114.226
99.348
101.894
137.817
121.073
99.368
138.074
132.658
95.110
111.438
144.195
101.762
127.183
117.593
143.570
143.183
136.464
140.245
95.397
126.378
137.059
109.175
146.450
109.222
97.889
105.051
112.837
98.551
102.312
122.766
115.275
114.264
138.592
118.130
95.895
132.114
110.084
122.464
117.282
95.567
116.957
135.840
120.153
108.699
134.693
134.337
98.332
127.258
99.152
102.257
108.185
143.239
126.391
99.968
120.402
112.111
135.018
99.350
116.547
123.527
128.298
146.014
140.058
128.629
124.381
97.801
121.714
104.550
123.821
107.550
96.074
110.491
140.491
120.077
104.118
119.860
112.921
117.309
111.650
112.867
99.254
144.500
94.881
129.312
129.514
99.108
98.638
103.980
126.575
138.133
129.846
111.842
101.601
101.284
105.760
140.371
125.269
129.519
100.830
118.698
145.838
105.968
98.503
129.190
135.980
96.162
129.544
144.913
104.750
126.463
95.922
115.313
121.368
118.568
133.234
140.715
136.791
125.754
118.019
117.310
138.475
109.273
109.209
116.602
102.483
134.280
95.456
96.242
138.182
104.227
133.231
108.387
109.123
145.842
110.858
142.343
141.176
138.985
100.748
137.388
140.607
99.838
135.485
144.423
95.813
116.062
111.606
123.545
98.714
145.939
106.353
128.404
128.514
95.446
143.569
121.975
135.785
105.653
113.053
142.302
122.552
127.250
97.932
134.378
123.336
127.712
106.673
117.211
107.936
144.662
113.813
121.584
101.401
141.535
121.219
116.553
102.843
117.201
146.002
97.475
124.229
95.529
123.106
108.239
95.976
118.157
100.832
138.439
130.578
108.924
122.516
107.091
102.023
117.754
110.362
112.898
119.916
146.467
142.964
146.727
126.614
119.154
143.925
100.112
145.207
97.592
126.156
96.950
117.470
99.503
139.426
126.475
115.318
116.029
115.223
117.086
114.744
102.610
121.853
98.432
132.789
118.859
128.847
121.168
101.028
139.040
124.828
117.210
141.217
96.826
132.240
112.115
95.857
145.013
95.568
101.158
104.334
125.813
119.566
143.422
112.307
100.412
143.608
140.077
122.205
145.177
127.563
105.983
130.395
106.813
145.914
125.841
141.530
133.777
127.460
128.958
142.703
109.315
117.352
129.183
122.562
139.579
109.872
136.997
139.594
136.668
141.764
139.380
105.344
139.012
126.462
135.588
120.103
127.866
137.167
106.072
38.292
38.915
32.168
40.084
31.464
42.908
30.159
37.937
44.866
45.023
41.737
31.179
41.080
39.643
29.409
34.922
43.954
38.032
39.769
30.321
40.551
39.307
44.763
38.818
43.918
44.791
34.487
43.729
42.999
41.203
41.649
30.602
29.547
31.718
32.423
33.327
41.398
29.589
29.936
40.071
41.913
36.430
32.892
29.247
36.493
38.148
1409.955
1413.796
1425.117
1427.878
1416.211
1420.293
1413.649
1419.532
1402.234
1401.469
1424.194
1408.307
1412.784
1405.956
1421.721
1417.753
1415.484
1409.464
1409.672
1415.506
1417.761
1422.405
1421.666
1413.812
1401.324
1395.425
1409.780
1395.584
1393.907
1419.061
1415.559
1419.620
1397.884
1417.714
1402.770
1394.433
1401.112
1406.281
1409.685
1389.991
1398.095
1416.387
1397.725
1390.909
1397.837
1414.213
1390.135
1389.343
1405.663
1395.474
1409.092
1395.718
1398.518
1393.816
1400.957
1408.811
1396.919
1400.710
1385.925
1398.823
1401.105
1387.847
1384.173
1402.366
1386.683
1382.230
1400.179
1384.959
1392.488
1388.292
1402.999
1379.357
1397.607
1397.071
1394.397
1399.974
1385.506
1385.107
1385.898
1393.617
1377.012
1389.292
1379.892
1378.270
1381.760
1398.491
1377.838
1398.929
1389.624
1400.064
1387.245
1383.603
1385.964
1395.288
1396.358
1378.814
1390.168
1375.335
1375.520
1371.288
773.791
772.627
769.764
762.290
769.657
771.148
766.690
775.508
764.571
763.887
764.191
763.518
765.308
762.467
768.075
763.545
764.127
771.653
773.377
763.417
764.080
757.940
767.300
763.314
765.644
757.238
761.191
757.025
760.383
760.895
759.477
768.241
762.250
758.679
770.433
759.544
756.194
763.526
764.287
765.487
764.075
761.955
754.859
761.104
768.039
761.481
754.043
763.635
767.207
762.718
765.104
755.917
764.529
767.902
756.266
767.065
754.541
753.404
754.860
752.728
761.570
766.168
763.789
760.335
761.408
750.950
758.680
751.182
751.610
751.892
750.969
754.767
759.066
759.383
756.301
758.157
759.072
752.848
760.205
753.321
758.303
758.428
759.536
749.544
756.003
754.900
762.963
753.369
748.965
753.531
751.169
758.895
752.178
760.753
750.212
752.077
748.570
746.955
752.641
756.680
747.428
758.258
748.459
760.462
753.631
758.460
760.810
762.679
763.669
768.491
767.861
775.455
773.277
781.695
778.158
777.980
774.950
783.680
788.460
792.220
781.786
795.209
788.827
787.969
803.187
799.253
807.350
796.987
801.462
809.714
799.216
804.092
805.305
818.786
818.047
820.175
810.424
821.495
813.330
826.316
828.670
825.301
829.783
829.096
826.655
841.581
837.845
830.821
840.264
839.651
837.262
841.301
848.723
840.064
843.562
844.307
856.150
858.523
858.485
862.981
867.031
857.283
866.174
867.760
866.115
868.403
875.465
873.193
867.230
882.351
877.656
879.121
884.236
884.528
890.675
893.382
882.188
894.776
894.940
895.710
899.895
904.703
896.981
907.294
906.234
912.347
910.920
905.304
912.431
913.805
913.352
909.168
919.603
913.642
924.161
919.247
921.782
930.291
928.040
932.636
930.575
931.099
933.814
930.543
944.809
942.694
950.676
950.688
940.994
944.554
949.987
946.094
955.628
956.751
952.823
960.047
960.385
957.552
956.963
966.071
972.240
976.112
972.121
981.189
968.690
969.985
982.204
985.329
979.170
977.040
992.110
989.184
987.765
998.149
997.458
996.617
1004.363
1000.107
996.872
994.966
997.268
1006.904
1015.325
1008.970
1005.755
1015.072
1022.174
1021.977
1024.011
1017.866
1021.282
1026.956
1021.529
1029.389
1026.814
1031.637
1029.654
1031.455
1035.782
1038.827
1039.354
1037.461
1037.189
1047.689
1040.070
1051.029
1043.862
1060.336
1049.449
1055.638
1054.372
1054.660
1063.503
1056.805
1070.051
1072.316
1065.598
1067.550
1067.988
1072.306
1073.903
1085.545
1076.247
1085.340
1078.186
1085.397
1082.010
1086.895
1092.582
1088.016
1087.664
1100.349
1092.382
1103.968
1096.135
1095.682
1104.294
1111.141
1116.422
1115.218
1120.139
1107.852
1103.287
1103.431
1106.978
1100.361
1108.321
1100.485
1098.668
1097.189
1086.814
1085.635
1084.659
1089.173
1091.137
1087.098
1083.573
1075.847
1084.155
1073.583
1073.330
1069.676
1072.528
1061.924
1075.568
1068.947
1070.745
1068.878
1066.279
1057.691
1061.964
1062.005
1052.245
1046.058
1050.117
1040.729
1046.230
1049.081
1033.897
1040.901
1033.586
1032.668
1041.572
1039.654
1029.691
1031.027
1027.919
1019.758
1019.363
1020.028
1024.632
1014.502
1009.075
1018.601
1016.713
1010.473
1004.303
1010.076
1004.184
1004.787
1003.992
995.309
1003.094
989.032
986.574
990.192
985.348
983.218
978.726
982.623
982.485
988.023
975.844
972.610
978.767
970.597
970.095
962.073
973.808
961.495
962.813
961.009
964.016
964.217
963.918
960.955
954.096
947.429
951.108
945.202
943.632
941.633
945.014
934.714
943.276
942.731
941.639
937.692
932.400
926.100
921.689
922.648
928.659
928.107
917.485
914.292
916.430
906.882
905.554
913.581
914.808
905.195
900.693
894.830
896.398
905.423
892.630
891.446
891.407
892.348
883.113
882.543
881.598
876.146
882.688
881.920
873.118
873.850
881.719
868.675
869.682
869.847
870.568
871.519
861.849
857.466
861.986
858.068
849.223
859.263
844.480
847.843
847.481
846.277
839.155
845.057
834.500
842.131
845.489
839.316
827.951
826.855
824.838
828.058
823.331
828.136
825.740
813.652
813.277
822.375
809.492
818.258
816.732
807.904
806.229
802.122
801.602
800.280
794.016
793.276
803.255
787.350
793.464
790.630
795.852
793.623
787.581
777.353
779.167
784.910
777.579
775.368
768.876
777.637
778.195
774.545
769.756
762.983
766.921
763.581
766.319
757.497
749.979
748.302
749.101
744.295
748.165
741.389
746.596
746.986
747.647
738.317
748.871
743.504
740.014
745.027
746.356
746.559
754.092
751.004
743.671
754.355
745.969
745.769
746.666
749.265
760.129
763.022
754.034
757.378
759.443
758.876
768.735
758.095
756.917
763.706
771.157
763.369
768.180
773.347
760.975
767.566
774.707
769.592
767.227
780.374
775.785
778.631
771.051
778.243
779.758
774.130
781.079
776.182
779.231
781.643
786.397
786.888
783.639
790.935
787.282
781.239
789.365
793.079
795.745
792.042
800.149
798.962
798.677
803.009
792.170
800.249
802.994
805.978
795.356
800.177
795.262
805.675
797.514
811.823
808.249
806.756
803.468
809.668
805.410
812.399
816.622
807.802
813.806
820.020
807.445
811.464
824.103
815.180
816.856
819.898
825.041
820.019
816.006
817.255
820.683
818.882
822.671
825.430
829.018
836.325
822.589
834.264
829.747
840.458
839.088
842.160
842.881
842.022
833.038
837.649
831.498
842.049
846.810
843.040
848.777
838.690
842.084
840.731
854.618
854.695
847.406
853.577
854.779
846.713
855.632
847.625
855.840
859.004
849.076
860.858
855.368
851.658
867.542
854.344
854.611
869.404
867.929
865.202
866.162
862.105
863.293
863.715
875.490
872.528
878.802
864.195
866.600
881.311
874.185
882.757
879.972
885.198
875.684
873.415
877.550
881.205
875.792
875.118
877.814
889.865
888.579
885.154
884.080
886.218
892.024
888.377
898.082
891.674
898.894
891.048
892.755
903.640
896.448
905.316
897.890
894.580
896.173
904.278
901.603
899.035
906.526
900.251
898.517
908.939
912.808
901.344
904.056
904.663
917.111
910.733
917.339
918.291
907.563
919.229
915.709
917.386
920.186
925.641
923.469
918.608
920.164
918.711
929.434
922.326
932.858
925.057
924.580
926.686
927.157
926.525
928.179
927.981
931.721
922.749
929.373
927.883
920.839
922.286
930.100
925.574
932.834
927.758
926.483
931.672
919.071
923.611
922.676
930.846
922.889
929.886
922.901
922.384
928.402
924.427
928.734
930.038
918.099
928.698
930.086
933.118
931.378
922.953
923.802
932.616
931.029
928.356
921.324
919.385
924.549
927.849
932.668
928.803
927.152
917.350
928.830
921.812
925.147
917.992
931.491
930.421
918.797
917.033
927.843
925.686
926.348
926.891
929.812
923.666
929.479
918.553
927.079
919.585
924.697
925.236
922.099
922.531
926.220
918.134
927.224
920.021
924.004
919.151
918.008
921.193
915.700
928.404
930.112
924.806
920.201
918.935
925.000
930.377
926.283
926.375
922.156
917.524
920.614
921.933
915.936
930.929
920.861
920.379
922.884
929.797
915.455
922.519
920.240
917.182
915.335
927.185
923.940
925.957
926.428
929.709
922.702
926.506
918.830
926.839
925.792
930.045
926.546
918.264
925.445
915.076
916.045
924.225
927.264
922.444
918.825
924.067
921.991
921.855
925.199
919.503
926.451
915.326
920.675
916.133
919.952
927.564
927.686
921.708
920.889
920.455
918.843
913.925
914.629
913.291
917.871
926.796
918.269
925.924
913.543
918.173
916.453
926.125
914.813
925.048
927.656
921.559
925.826
927.556
914.223
918.593
923.051
926.305
919.845
915.690
920.071
925.476
914.226
925.103
920.067
920.011
920.963
921.962
922.921
917.589
919.378
916.182
921.055
920.595
921.100
922.725
924.615
914.072
914.011
915.549
922.089
927.339
924.086
918.160
917.421
923.809
918.952
913.082
919.194
924.230
915.481
926.105
922.588
918.166
924.192
915.172
926.351
911.454
910.329
922.036
914.520
910.751
905.424
901.512
911.428
911.882
909.214
899.377
897.979
894.117
892.829
903.179
890.535
890.343
888.064
895.598
896.302
880.716
895.094
884.210
889.022
886.072
877.515
879.433
886.484
878.614
878.747
875.824
870.032
874.386
865.263
874.693
864.311
860.090
868.993
859.983
856.293
858.828
861.737
852.756
850.158
856.737
858.000
852.602
844.426
841.130
850.705
847.825
842.893
846.582
837.406
838.821
846.336
832.983
841.917
832.053
839.627
829.538
822.667
830.809
831.739
824.486
818.355
816.683
823.366
816.925
814.217
821.796
818.412
813.469
816.202
803.489
810.187
809.565
812.780
812.716
799.721
801.588
801.604
795.470
798.950
788.869
799.201
801.068
799.650
788.045
790.583
788.046
786.661
780.391
787.194
787.205
787.134
772.408
782.106
773.255
772.817
768.605
778.174
765.601
772.955
764.848
770.703
772.536
769.470
757.282
760.953
757.963
763.951
750.278
747.905
761.281
757.909
743.172
750.302
743.748
742.189
737.383
746.101
734.784
740.143
731.501
735.101
732.347
736.825
734.823
735.066
736.844
732.096
724.186
718.503
726.037
716.494
722.465
721.640
718.225
713.404
720.531
721.014
712.809
707.236
714.826
709.783
706.068
709.341
702.290
701.220
698.733
692.753
704.776
701.487
699.210
694.409
689.884
692.796
687.947
688.234
691.269
681.843
688.230
684.665
685.875
683.034
674.315
678.704
682.380
676.129
671.036
676.310
676.574
671.512
664.581
663.897
657.964
667.314
655.782
653.304
655.266
653.090
648.150
661.361
655.952
652.686
647.461
641.131
647.520
641.589
638.593
637.041
645.719
636.305
632.732
643.155
632.937
631.917
631.780
633.731
633.161
635.734
638.735
628.868
634.442
640.854
638.517
635.895
630.981
633.029
635.297
637.300
646.573
643.134
640.183
638.884
637.780
642.111
639.922
649.801
651.580
642.016
641.507
642.116
655.954
648.028
651.126
656.530
646.912
646.901
654.454
648.026
653.763
659.902
661.709
660.031
652.325
659.719
654.432
653.821
657.481
662.615
665.669
662.526
660.941
666.503
669.348
666.919
661.738
664.538
663.973
669.133
663.940
663.676
663.520
678.060
674.655
665.300
670.892
678.902
666.608
680.553
670.338
678.289
675.103
684.965
681.898
674.160
675.399
678.512
682.807
677.616
681.462
682.113
680.743
679.989
689.486
690.887
680.458
695.013
680.566
695.674
683.774
687.324
695.893
695.408
