117.262
148.313
126.988
120.484
131.942
121.107
126.658
115.024
135.530
106.723
128.915
106.377
103.017
113.820
151.697
134.296
114.974
137.917
120.306
125.392
112.948
140.340
136.214
122.232
136.636
129.748
129.662
128.210
146.729
111.729
101.931
121.176
123.879
149.559
112.291
129.431
130.024
111.781
130.719
102.175
129.501
129.290
138.022
139.678
139.511
133.758
128.514
126.407
140.523
103.707
149.793
118.229
151.633
112.912
149.375
110.775
137.828
145.515
115.658
146.720
111.220
106.506
105.719
115.013
137.371
121.058
144.409
115.710
136.039
142.650
144.123
121.838
105.353
152.987
133.578
138.612
123.417
146.250
134.415
138.433
136.336
102.131
149.431
132.572
151.639
133.312
119.640
133.961
101.749
115.210
150.172
103.306
120.815
125.371
120.458
112.697
145.549
140.990
140.839
123.012
130.448
109.659
133.538
138.170
113.636
149.758
124.875
135.436
107.341
145.713
137.120
110.011
103.697
141.580
137.811
106.129
147.339
149.611
148.418
132.780
122.873
127.259
142.136
140.134
133.273
129.419
115.972
113.328
137.602
104.969
151.352
125.564
138.689
109.914
148.370
148.242
119.323
144.327
130.422
150.949
106.314
140.534
101.853
144.952
137.384
117.144
138.289
129.509
102.793
131.719
102.720
136.347
114.281
108.335
137.647
124.993
139.329
106.741
146.391
101.522
134.361
139.602
105.284
109.201
112.304
138.356
124.931
150.816
151.122
106.132
136.051
138.739
119.983
124.032
115.557
112.562
103.009
109.678
111.684
128.813
130.996
131.551
136.051
133.596
102.284
133.456
106.065
137.523
110.089
148.155
115.850
127.101
139.488
108.478
137.422
110.320
121.278
110.713
121.593
130.167
117.259
119.771
145.187
103.158
113.361
122.780
115.337
117.306
149.803
109.577
148.871
118.926
121.111
140.460
135.616
108.221
138.398
102.370
135.398
149.468
136.893
137.750
135.148
102.686
138.485
104.631
146.916
152.163
128.441
124.266
141.836
138.800
103.030
129.758
114.264
102.462
129.469
111.498
111.602
134.418
117.669
129.913
118.081
124.402
105.362
150.687
129.227
113.852
130.607
147.807
138.468
133.700
153.076
114.259
118.816
117.622
127.162
135.780
127.083
118.824
145.706
130.217
126.072
141.062
102.511
129.392
143.297
149.508
119.630
152.626
142.543
129.764
112.515
141.261
124.571
105.347
102.105
134.732
113.833
115.569
120.649
145.326
122.284
128.754
142.192
123.221
118.234
119.657
134.936
118.260
127.269
143.181
110.259
115.742
104.350
122.961
102.988
104.392
108.089
132.288
125.934
133.011
136.789
150.935
105.789
112.121
106.792
150.517
113.968
130.393
124.818
146.908
103.643
116.201
135.397
101.833
128.250
142.063
117.288
120.309
110.444
115.122
143.642
101.145
125.837
129.716
140.808
109.392
143.083
134.496
134.696
102.140
152.921
120.992
122.538
114.008
110.967
104.010
115.010
108.727
150.098
148.751
105.480
121.346
136.844
149.984
125.598
148.161
105.511
112.904
125.598
125.882
114.224
132.427
116.062
105.898
115.276
136.613
119.484
150.624
102.162
110.250
124.637
107.706
128.723
135.485
104.806
123.131
135.765
144.680
122.095
133.975
123.204
138.754
145.357
111.832
133.319
135.835
102.757
150.121
101.223
104.756
125.700
138.802
102.407
133.624
114.599
114.644
104.396
103.601
111.789
148.638
126.791
152.548
106.660
128.881
151.320
120.020
101.441
143.390
108.824
104.153
103.081
113.804
111.173
109.731
130.106
104.571
137.369
115.853
134.618
148.259
101.176
124.352
126.391
128.748
149.992
105.856
104.322
138.712
125.957
134.266
127.580
108.634
108.350
143.859
143.679
137.983
113.151
122.566
109.825
151.279
116.726
112.745
119.103
107.866
136.143
127.950
124.873
103.419
133.048
108.055
123.213
127.594
111.226
101.413
108.398
120.878
124.680
145.633
136.754
106.204
127.298
110.399
125.069
111.400
101.557
125.188
128.777
111.796
131.949
147.912
152.850
116.751
133.516
124.964
113.324
147.899
131.135
152.673
101.842
150.179
123.509
110.392
152.046
107.217
138.061
117.924
137.943
140.395
119.237
112.114
148.305
133.780
143.128
139.485
124.218
138.553
102.187
144.821
131.950
105.703
107.700
123.294
116.487
108.889
101.191
149.915
120.359
120.811
123.734
149.118
135.156
103.499
151.134
121.974
140.005
108.550
139.871
129.242
118.745
137.042
117.355
136.643
123.333
113.291
123.350
135.987
140.627
137.936
125.981
115.353
131.338
144.670
141.809
114.550
118.810
145.358
115.386
127.342
120.553
147.803
134.909
107.761
150.955
112.481
135.230
104.770
119.783
123.511
118.709
132.990
142.875
117.856
117.757
115.089
115.965
125.765
142.376
116.281
112.486
111.206
142.183
108.886
110.457
145.024
104.593
105.892
116.309
140.133
145.203
137.896
102.650
103.636
124.399
116.859
145.145
114.179
140.032
145.404
127.076
120.634
133.030
140.236
103.614
134.201
113.012
120.117
110.608
117.022
143.010
140.193
136.763
105.760
144.433
143.500
117.856
138.174
108.137
114.994
112.927
110.962
118.669
117.761
138.620
148.735
108.827
120.546
144.923
108.630
112.250
120.732
136.268
137.823
125.423
122.990
132.149
153.124
132.770
125.120
129.180
110.650
107.898
114.379
114.782
125.573
128.394
145.201
126.948
144.637
134.677
104.066
145.980
131.080
142.786
106.191
108.811
144.244
134.829
105.491
105.646
119.706
102.431
146.228
153.031
116.128
132.598
139.980
144.432
127.037
135.470
125.609
151.807
118.756
139.819
123.727
151.132
150.813
129.587
135.467
135.099
108.282
133.708
150.020
111.341
113.220
128.918
131.002
115.850
137.886
143.932
114.126
138.921
150.024
115.196
146.052
112.275
147.956
152.490
103.705
111.278
115.089
140.118
102.341
144.644
109.475
105.589
144.099
104.747
141.101
106.462
114.734
107.619
103.741
141.594
117.863
120.194
128.534
127.892
131.999
146.850
143.335
121.384
107.921
116.671
141.546
151.302
126.439
121.349
127.384
131.887
118.024
110.996
136.189
139.936
150.214
140.533
106.887
117.808
121.025
119.859
149.659
139.238
125.017
150.386
123.593
109.682
118.565
122.047
140.424
141.134
104.221
113.593
143.907
151.169
143.079
110.353
108.720
134.699
124.964
127.123
146.501
122.632
119.354
143.049
124.061
125.321
113.999
108.697
124.413
118.152
102.622
113.729
133.141
140.901
132.614
143.763
116.864
111.286
101.938
135.002
149.314
142.012
111.918
132.042
126.543
105.204
108.325
102.441
119.357
121.719
119.782
115.015
139.308
126.846
119.377
108.725
139.067
130.411
145.006
121.740
139.039
135.141
143.903
114.901
146.188
125.451
139.403
136.419
121.793
147.963
122.340
151.356
109.378
140.636
109.494
116.049
150.638
108.718
129.539
146.776
135.934
107.371
135.690
103.395
139.394
122.741
124.387
108.368
123.429
126.422
127.654
152.344
134.911
141.206
145.559
145.138
116.610
144.967
104.233
144.610
129.809
123.106
150.026
105.408
105.613
135.240
119.367
129.695
138.046
115.012
147.529
134.335
120.520
103.150
124.125
129.935
113.553
151.758
152.963
151.174
111.269
126.008
114.178
136.694
138.479
137.324
114.296
148.269
133.236
151.114
107.761
131.513
105.093
151.160
151.989
116.286
116.217
135.024
110.219
123.773
130.962
139.160
135.917
120.651
104.693
143.284
125.916
110.717
133.863
150.135
142.357
115.341
110.203
112.262
129.907
139.868
141.306
148.057
152.361
119.468
138.099
146.657
105.646
122.318
151.171
146.030
147.082
111.761
114.262
114.331
118.417
107.698
129.282
117.306
103.496
123.950
101.837
112.050
109.702
117.840
143.737
126.441
135.478
129.864
142.372
145.781
145.483
122.024
129.354
146.934
109.155
115.761
130.971
142.435
133.811
106.149
116.364
144.402
109.501
123.492
117.840
105.927
153.099
143.761
138.111
138.639
135.665
141.975
116.949
134.312
131.980
103.371
144.289
141.560
128.942
140.986
151.952
139.223
136.946
145.899
140.661
114.026
141.841
102.910
131.281
117.926
138.739
129.294
127.364
129.143
106.552
151.404
133.634
151.536
117.696
142.647
150.036
110.081
108.875
137.513
106.980
144.167
144.022
117.663
152.878
107.547
103.246
138.517
122.665
147.423
110.927
109.865
114.951
112.810
35.453
35.550
42.817
46.788
45.525
40.846
45.369
34.114
35.380
46.937
46.912
41.574
33.126
44.873
44.551
41.918
46.670
33.434
39.326
32.102
45.368
44.065
44.811
45.162
39.123
37.011
36.079
33.795
35.823
43.555
31.411
41.937
35.032
38.507
47.119
36.565
40.595
37.521
44.851
42.768
34.062
40.755
31.845
43.788
947.197
968.104
977.635
967.832
956.907
974.444
978.806
967.622
963.685
977.841
978.557
967.701
991.350
995.502
990.862
982.474
981.346
989.337
997.372
990.713
1003.473
999.321
1013.417
994.457
1012.248
990.888
996.816
1004.673
1008.327
1010.541
1009.935
1008.387
1010.980
1016.010
1033.310
1009.090
1021.669
1018.962
1024.901
1021.441
1017.434
1037.190
1046.603
1038.365
1043.857
1028.677
1036.252
1043.108
1037.896
1059.135
1041.565
1053.863
1050.872
1067.247
1057.428
1042.795
1066.390
1049.923
1071.849
1061.867
1065.324
1060.399
1077.552
1078.362
1083.746
1079.215
1089.835
1088.643
1074.436
1066.765
1089.337
1070.298
1077.335
1073.776
1098.435
1101.188
1086.683
1100.397
1086.093
1094.181
1109.211
1093.776
1093.179
1111.568
1106.707
1113.981
1102.579
1117.523
1100.081
1124.024
1115.297
1132.857
1133.277
1117.973
1125.933
1137.716
1140.001
1119.843
1138.947
1133.559
631.440
625.486
636.052
627.033
641.158
639.281
639.900
639.424
631.285
641.746
635.750
646.383
636.400
638.573
651.616
641.521
648.312
650.171
643.459
641.887
655.015
646.262
654.927
654.810
647.614
650.422
649.648
657.285
660.055
654.848
658.638
668.461
658.601
662.009
660.211
657.740
668.201
667.260
667.513
670.051
676.301
665.376
666.412
676.603
667.411
670.193
674.196
678.353
676.006
679.102
673.937
685.751
688.364
682.172
682.902
689.192
676.760
678.317
680.538
693.455
695.809
684.202
697.748
692.305
687.183
691.533
699.988
698.269
703.444
690.555
701.155
694.643
700.366
704.389
697.110
701.139
698.106
697.241
706.327
711.434
702.780
703.959
705.890
715.737
715.725
704.814
710.783
708.933
712.280
722.933
712.696
724.451
717.370
720.006
718.415
722.389
729.939
728.173
728.403
724.190
733.585
727.369
728.009
732.157
728.742
725.216
722.646
736.491
729.079
723.959
727.074
723.747
730.076
733.983
727.720
727.602
736.624
735.672
728.487
735.434
732.125
727.808
732.839
734.989
735.413
742.862
742.808
732.450
729.891
728.848
735.424
731.674
736.050
737.530
738.724
741.681
735.337
736.730
732.437
742.005
732.329
732.904
744.901
743.732
743.575
735.911
742.988
743.321
743.176
748.088
742.187
748.046
736.551
748.997
745.882
748.886
739.449
741.817
740.625
747.947
740.934
744.901
746.883
740.696
740.469
753.533
746.263
742.269
747.276
748.007
754.518
757.128
748.654
750.242
756.949
747.310
752.055
745.391
758.012
747.351
752.014
747.952
751.270
752.781
752.840
755.192
750.662
760.541
747.875
763.182
752.659
749.232
759.631
762.034
755.153
755.759
755.588
754.616
759.475
766.477
758.336
752.531
759.945
764.611
762.144
766.030
759.469
754.789
756.533
763.380
761.640
763.025
770.528
766.435
771.937
757.154
770.535
769.208
761.209
761.234
773.274
771.410
768.886
769.016
774.505
770.833
762.392
770.307
769.459
769.670
774.576
775.468
763.867
762.430
772.774
763.584
769.109
772.890
773.133
771.316
779.595
776.983
774.415
775.955
780.181
774.159
767.186
777.932
772.836
768.882
777.224
774.685
768.877
773.231
774.950
778.967
771.288
774.202
785.463
775.184
785.717
784.342
783.459
780.947
780.364
782.767
776.932
788.771
776.318
780.108
779.637
775.491
776.343
781.172
779.184
778.579
778.612
790.791
791.288
777.538
778.868
778.710
789.168
779.180
791.898
791.163
790.372
780.082
789.333
793.767
780.781
783.117
786.344
794.715
787.375
784.757
785.065
788.526
784.342
787.753
786.638
794.120
791.212
788.763
788.588
799.811
796.407
794.020
799.772
791.103
792.983
791.193
791.220
792.620
798.931
800.735
801.936
791.177
805.010
796.573
801.483
794.990
795.895
807.502
807.248
807.474
801.862
796.208
809.223
805.743
811.309
798.093
801.512
802.089
799.884
807.187
812.507
806.218
802.422
814.767
811.596
805.975
815.105
814.724
809.933
809.044
815.756
811.182
810.826
813.467
815.363
806.325
813.249
807.192
814.566
822.467
808.141
819.614
823.430
821.093
813.028
823.984
822.702
823.141
818.275
817.995
824.908
817.643
822.828
819.272
823.755
819.001
815.555
822.561
816.937
827.887
827.275
824.527
822.084
827.307
823.770
830.898
826.206
827.760
831.737
833.476
827.722
828.625
834.765
837.328
832.590
832.379
828.012
838.332
836.374
835.780
826.843
834.601
841.729
836.185
837.548
841.947
841.971
831.699
835.659
838.256
842.653
832.198
832.874
835.109
838.280
833.892
832.071
846.371
839.073
843.891
834.681
837.825
844.160
838.708
835.468
837.228
843.899
845.064
848.178
842.792
845.340
839.824
844.473
846.545
852.824
845.379
850.894
855.459
848.141
851.162
855.144
852.699
856.140
844.731
844.269
850.081
850.149
845.848
850.038
856.578
860.391
857.593
848.343
857.660
864.049
855.859
862.691
861.880
856.336
864.682
852.801
856.157
867.538
857.913
859.191
868.642
863.939
854.668
864.665
869.509
864.963
864.349
871.020
865.886
867.803
860.580
866.132
870.875
874.443
859.336
870.575
873.831
867.201
865.321
864.451
866.490
870.819
866.804
868.917
864.140
867.394
868.622
866.760
875.409
869.822
878.134
876.917
879.974
880.533
870.687
883.685
883.831
877.211
871.806
875.301
879.156
874.362
873.725
870.082
871.530
881.243
873.091
868.625
874.760
868.640
874.421
880.371
874.897
874.626
877.362
881.383
868.126
880.869
866.957
867.286
878.276
876.969
866.870
878.148
870.228
879.615
878.954
866.722
879.377
871.576
865.507
871.074
878.300
873.972
865.157
866.931
878.471
876.211
874.028
871.271
875.778
870.574
878.958
868.165
870.191
871.089
868.666
865.277
873.396
876.095
866.404
867.321
870.625
862.502
870.586
866.815
862.607
875.006
868.318
866.385
865.741
863.953
874.036
866.171
863.322
866.421
875.256
865.664
863.181
860.784
868.562
863.389
868.219
874.133
861.208
863.305
866.537
860.166
859.548
863.476
871.594
871.433
870.048
869.941
866.794
861.746
860.713
857.131
870.266
859.599
865.162
858.926
865.909
860.483
856.110
866.163
867.900
855.928
859.715
862.044
865.014
858.041
868.849
867.917
867.023
863.755
860.584
855.967
854.794
862.870
857.056
855.085
853.769
853.598
860.404
857.263
867.073
862.286
866.758
855.079
860.738
862.794
863.070
862.156
856.853
861.452
864.720
860.091
852.303
856.599
860.761
854.134
864.941
861.429
849.999
852.421
858.448
857.810
860.877
860.576
855.649
861.681
862.949
853.682
857.248
857.610
852.570
860.167
858.160
858.085
850.996
856.981
857.661
851.690
849.614
852.640
852.827
857.029
858.090
850.714
856.295
847.326
859.602
854.250
854.520
852.304
852.180
850.291
850.083
846.187
855.826
851.699
856.170
857.536
855.653
850.625
845.417
852.743
855.173
853.007
848.176
842.662
857.081
845.110
849.458
855.344
853.445
854.588
840.702
853.324
849.533
846.435
848.796
844.086
851.240
846.100
845.899
845.461
841.238
847.197
846.576
841.514
839.344
847.999
849.908
837.083
847.289
844.840
847.332
846.458
840.277
844.340
846.460
838.197
845.917
836.247
845.196
836.591
838.078
837.031
840.682
845.363
844.809
839.794
833.057
839.739
838.466
839.307
845.097
830.531
838.139
837.763
837.212
834.097
835.779
842.393
834.546
842.284
832.655
841.736
839.775
836.395
832.536
831.568
831.765
829.991
829.597
830.580
839.235
830.439
825.603
831.098
832.267
822.959
836.930
837.575
822.304
825.396
828.059
830.329
826.924
827.516
823.588
833.886
829.415
833.059
829.758
833.168
824.419
824.723
829.718
828.254
829.677
825.883
831.380
820.181
827.569
824.296
821.613
828.729
828.552
818.433
825.455
818.304
822.763
823.815
824.025
825.160
816.157
823.439
823.408
825.310
822.024
818.339
818.369
816.092
812.598
818.602
823.814
817.614
819.853
819.189
812.772
815.096
808.681
811.455
820.079
820.601
816.580
817.379
816.379
812.988
818.535
814.122
809.254
814.264
804.805
810.543
816.842
810.574
805.549
804.676
803.666
811.999
815.171
817.062
812.532
811.622
815.024
814.169
810.710
807.966
814.536
807.359
800.408
804.195
805.591
813.822
797.829
800.931
813.038
804.498
808.126
800.530
799.335
799.432
808.603
800.915
799.614
797.464
806.954
805.382
795.615
803.404
805.626
799.662
798.921
794.174
799.008
807.457
802.918
797.317
795.107
795.856
802.937
793.597
795.468
790.899
798.085
795.422
803.980
796.947
788.302
788.094
791.146
793.144
797.730
793.401
794.342
794.039
799.295
794.904
800.863
796.047
787.568
784.757
792.079
791.903
789.889
789.584
