135.249
98.410
109.878
136.541
100.607
97.915
109.421
126.507
119.117
141.192
146.328
113.589
142.926
98.005
138.868
125.091
143.680
132.157
99.323
126.692
145.157
95.478
110.901
130.879
137.135
103.943
146.711
102.830
121.152
95.595
125.658
130.423
120.732
136.766
124.049
114.745
132.645
134.410
132.391
117.515
138.605
144.117
135.719
119.358
125.058
126.311
102.759
118.453
97.605
118.259
135.546
121.241
109.858
135.769
125.911
123.755
116.390
116.025
140.891
106.916
114.291
121.053
121.425
134.376
105.334
117.500
125.946
143.976
112.807
125.980
109.963
145.420
116.566
131.173
111.518
137.612
136.535
122.980
125.723
117.754
120.324
138.833
123.845
144.948
139.814
106.956
112.301
118.989
117.538
133.458
106.615
144.587
139.128
129.822
109.403
136.917
101.886
120.648
124.441
118.311
95.761
114.088
129.212
119.763
132.219
146.409
106.664
142.572
127.154
125.997
94.829
109.457
125.222
107.551
114.753
123.995
135.345
104.402
102.427
115.512
128.406
118.212
142.052
121.627
140.365
103.429
128.994
98.611
118.474
121.188
123.183
127.391
132.473
145.274
124.285
97.578
101.194
131.820
127.042
124.439
125.857
112.388
128.730
132.140
128.197
140.782
96.063
98.601
122.724
140.878
146.290
123.730
110.424
113.915
99.967
101.487
129.669
143.242
114.589
95.323
125.710
96.247
127.532
97.638
130.761
103.346
108.138
95.790
107.985
96.179
124.551
95.994
107.255
143.497
101.091
95.752
144.065
115.956
97.483
118.272
98.563
104.170
97.538
131.624
114.767
100.318
101.385
118.118
137.710
141.110
125.633
113.605
137.504
142.327
103.899
146.287
144.524
108.650
136.408
122.429
127.599
102.858
136.107
113.368
102.638
125.619
96.091
96.925
101.929
113.064
144.647
132.000
116.436
141.137
113.295
130.343
117.387
96.411
105.559
133.423
120.895
120.528
115.235
97.100
128.743
121.537
103.014
131.021
96.814
132.080
99.267
110.345
145.103
95.340
125.238
132.761
136.080
135.577
108.315
140.904
122.628
137.210
132.884
139.103
117.510
116.482
110.459
103.398
106.694
117.621
138.435
134.081
112.742
98.388
97.257
141.573
106.876
129.588
117.526
104.164
141.147
99.972
100.776
123.369
121.223
119.578
128.382
99.632
142.374
127.168
96.950
136.604
139.481
144.952
130.943
129.476
95.374
115.981
100.684
127.930
100.323
114.909
96.903
120.835
143.265
143.676
97.493
121.335
123.023
100.694
143.042
110.531
133.098
109.747
127.406
100.433
123.964
106.586
110.986
113.628
114.525
145.242
118.904
105.507
103.477
136.519
119.182
135.689
127.883
98.927
143.970
114.933
140.045
118.520
133.680
144.624
119.523
128.360
105.525
123.974
98.203
107.773
107.189
131.236
99.087
105.372
99.091
100.581
114.669
112.988
110.735
132.523
140.786
124.252
110.233
138.861
95.310
105.896
135.292
116.377
130.311
132.180
120.988
114.056
101.065
120.311
145.321
141.168
121.029
141.120
122.511
135.396
115.478
107.557
107.619
132.082
139.329
117.995
119.698
139.269
116.251
128.789
137.617
114.035
120.011
105.549
104.533
99.132
146.720
146.527
123.611
105.281
105.662
105.369
107.858
123.022
125.875
129.640
138.556
124.678
143.276
128.188
140.757
99.796
131.337
96.893
127.212
128.921
110.770
109.874
109.928
123.706
95.243
110.656
118.777
141.445
100.449
129.130
102.677
126.300
108.557
125.265
118.699
144.712
105.241
114.887
140.891
130.769
101.100
115.376
103.307
95.102
119.568
144.835
135.867
110.266
104.255
140.792
102.067
116.880
126.520
103.132
138.360
122.189
134.662
113.214
112.165
136.917
100.834
124.078
96.065
98.472
104.446
143.453
115.602
146.443
135.431
146.141
137.573
118.057
138.513
107.717
124.459
127.134
128.599
130.783
95.977
145.107
141.941
130.331
127.528
135.958
126.564
120.154
105.330
102.679
131.530
117.931
135.033
130.661
96.367
139.876
102.217
144.921
101.995
136.182
101.867
120.681
130.710
106.304
116.457
121.123
135.828
112.869
108.294
113.015
143.725
100.024
106.216
125.994
128.815
95.342
107.953
128.770
134.453
122.266
120.612
127.894
99.389
138.870
136.170
108.716
124.588
108.668
105.679
126.116
115.772
133.462
125.720
122.165
106.412
143.349
137.716
103.545
137.151
137.080
100.945
110.649
121.272
114.597
101.659
115.382
141.144
136.266
100.114
143.832
96.423
134.616
104.200
113.003
141.632
135.920
99.686
140.422
99.807
122.546
95.505
113.084
137.446
116.617
138.329
111.062
110.646
96.867
117.888
105.499
94.894
142.119
129.465
145.299
130.914
106.198
111.941
109.414
134.817
136.758
104.557
126.395
127.571
131.177
140.033
145.791
113.061
108.614
102.690
133.710
117.036
115.999
129.591
141.881
125.022
101.851
107.313
140.896
141.518
127.559
126.163
120.028
99.258
121.980
118.340
131.954
117.514
136.259
134.522
139.546
141.933
124.114
138.370
124.388
103.491
136.462
106.302
109.838
113.222
99.650
116.805
115.277
119.605
120.725
125.425
133.334
130.159
121.291
122.099
122.707
118.804
146.693
95.925
102.068
129.235
143.675
105.244
112.268
113.460
127.593
133.487
135.144
97.161
102.408
131.597
114.813
135.968
98.203
101.307
108.409
129.000
127.512
113.258
125.418
101.153
117.888
145.270
95.697
98.703
129.418
132.369
104.239
116.953
123.375
122.585
110.388
107.914
126.874
123.136
134.846
110.970
129.642
138.579
129.158
138.200
99.247
115.408
118.941
122.712
146.687
115.734
133.757
122.434
125.895
135.568
136.149
120.645
104.133
97.139
136.061
135.741
141.706
127.910
143.699
106.885
126.921
133.640
123.799
98.539
128.538
125.852
133.346
101.156
102.158
126.713
145.691
95.656
137.746
141.699
130.573
131.460
98.075
95.226
111.021
146.191
98.151
95.629
129.245
103.652
98.618
142.862
113.218
143.956
127.554
109.256
117.816
103.166
117.757
130.310
105.830
137.051
140.002
98.576
95.910
94.874
118.837
100.364
104.670
132.905
127.627
122.609
112.101
101.295
120.929
108.572
137.680
146.507
104.714
111.432
104.663
108.221
97.249
116.290
109.574
106.351
120.935
137.111
124.012
97.552
144.173
100.429
106.681
101.403
146.604
99.804
103.806
99.526
108.167
124.781
136.542
111.380
138.467
97.061
113.904
97.072
111.817
118.991
118.288
114.568
107.303
106.277
138.767
130.430
99.682
139.757
136.830
119.467
139.037
120.003
120.853
124.914
139.570
123.998
110.568
132.552
95.941
109.032
102.251
139.606
95.721
126.019
134.386
95.661
109.594
111.201
143.417
96.601
120.269
140.532
136.397
95.977
95.459
136.381
138.453
99.928
123.402
137.996
128.971
103.480
122.511
132.922
129.228
130.964
141.834
119.910
102.239
98.383
124.350
122.721
125.274
123.608
122.541
131.546
98.645
102.572
111.908
136.918
129.745
134.107
104.437
139.814
145.745
142.969
137.945
109.408
145.244
139.602
96.637
113.107
129.081
140.534
127.513
118.866
125.112
104.121
138.716
144.710
106.212
107.885
139.383
109.669
131.319
144.591
99.862
121.412
100.836
136.901
129.050
140.338
114.612
97.398
143.289
122.182
128.099
140.353
101.497
109.503
120.721
141.313
99.141
104.483
110.631
97.707
97.338
113.084
128.179
114.369
107.823
132.702
121.905
135.712
121.806
111.053
135.206
98.823
141.480
107.036
117.815
95.063
124.623
130.199
128.629
109.472
113.109
112.493
137.071
130.327
114.819
119.461
126.548
107.641
132.242
108.904
108.894
132.456
125.167
145.372
128.998
114.021
139.853
120.535
102.707
135.127
145.656
142.643
139.535
127.927
136.058
119.614
98.122
101.063
121.558
110.919
109.907
114.139
134.130
101.696
105.513
127.229
143.191
117.081
144.011
132.862
108.552
125.013
124.255
113.038
116.115
140.426
142.263
144.265
135.819
145.787
128.575
123.268
139.756
100.085
136.065
105.997
145.972
137.659
130.169
108.676
131.107
118.123
99.582
109.866
95.439
99.770
129.216
133.037
132.105
116.158
140.367
126.903
102.615
134.038
98.617
131.793
101.996
113.100
146.399
111.540
117.664
134.841
141.553
108.522
115.059
140.528
119.402
108.015
130.663
113.071
100.073
111.155
136.160
125.087
135.424
99.147
123.769
125.467
145.444
134.521
112.064
132.502
112.155
136.597
99.304
140.732
101.080
122.025
120.346
123.030
100.500
115.918
133.548
111.809
132.526
131.290
113.698
102.512
122.970
137.934
115.292
98.622
110.418
145.119
122.845
136.291
100.671
141.130
115.729
113.634
100.440
134.184
116.855
100.107
103.699
132.068
116.841
102.388
141.873
133.160
106.669
103.083
141.156
115.916
116.166
98.672
145.674
134.654
131.648
146.072
127.810
105.622
128.761
122.023
146.682
119.516
98.751
124.943
142.505
103.955
123.778
120.682
95.264
133.122
116.803
105.113
136.053
134.809
108.812
102.497
123.472
113.102
97.257
144.212
105.624
128.341
130.838
96.184
109.011
108.052
104.401
139.497
110.672
103.559
116.620
108.228
141.074
101.715
145.181
121.989
105.176
132.793
116.988
115.813
97.935
129.839
120.604
140.344
117.292
141.238
120.991
146.740
143.299
99.380
97.090
108.058
139.403
107.872
140.182
106.127
137.460
126.564
139.627
139.628
97.227
139.078
95.731
99.325
124.786
139.565
145.667
96.023
132.318
124.988
140.065
142.177
108.676
126.315
135.592
104.953
116.014
107.527
136.298
105.589
106.883
124.533
110.948
99.833
110.269
103.884
126.435
101.478
94.816
132.048
113.153
129.260
143.029
113.334
145.652
98.395
115.780
129.170
139.870
103.402
141.176
123.743
145.140
141.090
133.463
135.842
112.678
137.894
136.668
124.630
97.895
106.887
124.965
145.764
101.033
128.126
107.270
101.502
121.197
122.308
101.851
113.609
100.391
120.939
99.083
142.731
130.121
103.125
116.884
141.860
135.073
140.955
123.039
131.390
112.529
144.317
135.901
110.111
115.686
144.932
120.254
108.216
133.095
132.461
122.517
128.628
140.057
104.017
138.031
140.481
106.798
145.316
101.455
132.863
129.581
131.159
125.969
109.678
98.745
137.945
105.804
123.300
110.315
134.835
137.135
125.367
146.326
139.761
116.293
135.422
99.228
124.847
112.243
113.730
119.279
112.053
126.452
133.675
96.538
130.337
132.507
122.392
130.440
143.158
134.086
133.249
113.337
121.897
137.467
104.387
143.040
97.092
131.359
121.010
121.799
109.680
131.927
127.473
136.718
119.923
113.119
129.180
125.750
101.308
94.772
135.755
122.867
128.525
95.883
114.306
136.595
118.306
99.273
125.097
95.208
115.786
131.726
122.367
128.952
96.147
108.095
123.872
103.037
101.688
119.312
131.821
125.314
97.872
95.345
103.311
114.257
127.046
95.286
130.167
121.510
129.670
115.632
144.200
144.269
99.558
101.563
95.618
112.228
115.191
121.602
112.782
130.969
115.003
101.332
112.799
114.752
95.041
104.892
101.583
146.764
113.179
141.733
117.569
110.666
107.763
118.715
136.726
107.955
126.130
124.655
129.369
113.165
123.826
108.524
107.001
102.603
131.244
116.346
106.304
108.200
141.987
137.231
116.710
116.298
132.370
111.705
111.249
122.122
120.293
112.114
124.994
96.288
109.868
115.348
146.693
113.886
139.825
134.720
116.663
134.504
143.585
131.875
122.022
129.099
119.178
142.480
141.149
122.768
104.422
130.952
125.557
122.542
107.299
116.050
138.481
128.128
126.766
144.553
130.829
109.941
109.127
104.531
111.225
135.668
105.943
97.654
142.848
111.112
100.203
109.198
115.497
112.218
129.783
124.411
145.600
114.959
115.705
101.990
110.871
122.300
116.050
130.385
109.335
125.680
118.997
127.100
113.039
143.183
143.102
142.540
121.161
126.830
107.035
100.518
105.093
140.948
114.227
129.466
131.145
141.289
118.343
100.160
136.988
108.013
145.400
129.923
127.608
105.793
108.861
108.902
94.936
137.982
127.882
97.195
127.101
103.356
112.385
107.318
96.991
99.544
144.807
141.990
139.800
122.101
133.583
128.890
110.953
124.233
117.500
109.814
112.464
100.283
96.445
100.722
99.741
132.096
104.393
123.633
96.413
140.679
102.395
99.459
96.882
126.547
142.319
146.443
101.172
141.257
120.865
139.997
137.476
139.937
132.413
102.595
96.616
101.275
106.056
129.966
137.469
144.543
120.959
107.013
135.902
127.787
109.464
145.404
141.811
104.705
97.445
143.819
134.723
111.818
133.239
110.887
103.251
128.514
107.226
107.868
126.003
95.556
125.142
102.779
106.213
126.563
134.429
141.382
130.690
140.293
114.035
144.643
112.614
113.746
134.831
138.729
123.885
99.684
127.746
121.657
141.921
113.985
126.485
120.267
144.520
131.501
103.528
129.992
109.292
144.306
138.946
100.895
122.320
102.192
139.804
140.353
124.418
127.783
107.987
117.290
105.472
118.665
145.950
103.519
113.861
103.252
100.541
122.106
118.511
130.928
95.466
106.785
137.517
144.559
115.000
140.875
140.818
136.736
95.179
144.532
146.220
116.670
131.758
99.269
144.253
125.823
107.851
134.173
105.403
143.325
130.671
116.895
108.474
107.065
142.851
111.343
100.708
136.982
144.843
144.565
105.065
121.455
105.249
102.249
116.391
102.349
111.822
104.815
96.680
142.051
122.972
99.380
97.174
98.001
137.969
108.020
98.952
97.536
121.057
96.336
125.372
145.452
106.126
131.851
114.282
132.972
138.452
117.340
132.579
141.701
139.990
116.897
98.654
122.000
145.633
100.708
105.722
124.889
127.494
104.649
142.920
143.455
110.718
99.662
126.566
98.397
122.511
113.510
110.630
135.316
112.665
104.201
141.249
138.789
108.238
107.230
137.537
117.774
130.022
120.484
131.792
142.779
97.545
140.249
100.759
143.073
98.750
125.369
102.731
113.959
106.956
132.763
121.653
130.035
105.961
138.968
125.415
124.926
131.244
133.829
111.798
115.913
121.498
130.483
139.961
99.698
96.878
131.629
114.979
122.763
136.495
134.303
114.253
114.750
145.743
95.588
128.686
117.829
118.276
125.117
95.432
110.754
102.645
133.439
123.167
126.261
100.566
113.596
128.382
99.948
145.238
115.847
111.025
111.616
132.666
130.674
126.311
95.253
96.311
144.114
128.206
115.454
121.897
108.797
131.437
142.298
131.881
143.695
111.562
109.265
128.115
102.128
103.516
98.962
128.975
136.521
116.058
144.527
137.857
133.959
126.693
118.651
136.726
117.054
111.717
101.833
106.747
145.347
115.877
100.619
113.755
133.597
127.708
94.957
99.840
132.170
101.468
135.267
110.233
101.593
132.605
115.231
103.888
140.182
117.178
110.658
141.284
140.171
129.521
132.705
95.607
119.743
117.766
96.973
125.645
145.691
117.802
118.159
132.210
108.538
144.135
118.381
117.933
131.128
133.333
121.743
143.298
145.083
107.362
100.559
137.502
106.723
132.090
135.292
115.687
138.884
122.224
127.648
138.955
129.239
99.130
101.356
122.517
106.640
103.913
129.442
142.295
103.391
141.296
97.758
106.461
105.938
108.573
104.042
97.156
125.785
117.014
138.852
127.472
95.596
145.233
126.519
95.346
145.511
102.123
137.522
139.688
133.648
111.703
145.107
142.219
124.917
103.189
97.294
132.734
112.746
122.377
122.368
112.948
124.824
106.115
134.906
121.494
133.778
97.401
104.170
120.424
101.915
139.177
113.588
100.975
137.656
101.516
136.696
107.959
130.700
135.565
96.632
98.469
101.352
138.517
146.534
113.866
105.433
118.304
140.689
118.210
130.403
104.402
122.599
128.864
131.222
131.228
105.087
100.006
144.564
111.945
111.334
129.397
108.935
124.896
109.142
137.895
130.339
29.727
35.691
34.583
42.220
43.554
33.293
29.225
38.993
31.601
37.638
32.914
33.761
30.265
37.868
30.221
33.885
38.960
35.685
33.219
38.054
31.316
43.430
33.166
39.861
44.878
39.900
43.088
42.154
42.147
31.545
40.996
33.590
34.036
43.216
37.447
34.631
35.973
29.211
29.816
42.739
31.893
34.829
35.881
38.170
34.982
41.562
897.429
888.940
889.151
907.363
896.763
903.411
905.185
924.945
922.838
937.002
913.825
917.001
922.705
945.990
931.523
947.130
959.992
937.570
953.841
966.966
955.601
953.301
977.441
982.591
960.599
975.901
974.587
979.143
981.040
1001.234
994.942
1001.444
1003.303
1009.768
1006.595
1007.689
1009.684
1020.260
1026.980
1028.503
1026.297
1019.601
1044.016
1030.650
1041.685
1036.726
1034.569
1052.018
1062.401
1053.258
1050.903
1069.094
1059.852
1061.138
1075.842
1076.843
1081.283
1073.055
1090.116
1083.825
1107.216
1089.132
1097.808
1113.829
1122.621
1117.883
1103.425
1125.108
1108.374
1122.385
1120.470
1128.054
1147.045
1147.587
1135.705
1147.847
1137.979
1156.894
1146.381
1152.545
1158.116
1157.336
1170.268
1174.197
1171.381
1180.611
1172.299
1198.121
1198.365
1204.723
1190.899
1208.476
1209.723
1194.137
1201.725
1200.449
1213.558
1210.106
1233.014
1232.603
687.210
678.667
686.927
682.417
685.117
686.446
693.860
690.502
691.295
699.391
701.360
707.265
713.151
699.863
711.811
712.335
720.477
713.130
710.129
714.757
715.314
718.761
729.350
720.344
735.329
723.106
734.499
739.220
737.425
737.777
734.153
733.185
741.288
752.533
