111.636
122.668
144.015
110.965
121.105
121.524
118.906
95.583
135.346
131.074
99.515
126.687
135.626
135.637
117.554
98.795
144.301
140.651
142.615
127.881
121.973
128.329
126.295
130.884
109.734
146.444
131.538
133.316
124.694
102.134
143.773
109.460
143.538
143.237
131.239
131.450
120.681
128.397
124.683
137.175
99.742
99.197
134.628
103.734
132.563
142.739
114.803
95.896
139.822
102.631
117.093
97.236
109.095
102.293
101.168
127.061
124.432
131.694
116.919
115.500
113.601
118.983
120.054
137.124
126.685
125.557
115.589
137.411
128.683
99.273
137.608
104.918
109.938
119.894
138.864
96.145
103.323
132.902
137.379
99.404
146.312
145.979
117.835
132.765
113.945
113.169
135.597
128.839
145.965
141.986
119.435
140.381
111.113
136.119
141.969
112.702
106.603
113.844
124.813
142.066
141.343
94.942
98.631
143.428
117.789
132.252
101.372
98.324
108.940
124.205
127.534
105.559
131.525
133.879
115.580
101.426
131.932
107.915
95.412
103.364
138.141
137.334
143.469
121.466
140.695
121.668
107.837
95.419
112.039
128.114
99.195
143.796
100.450
135.100
132.412
97.623
102.115
107.077
124.180
133.971
105.618
110.305
119.639
103.893
117.302
137.442
95.012
128.618
96.234
135.644
111.052
128.787
142.051
115.000
117.096
107.575
134.204
135.062
129.136
104.400
128.321
117.765
120.979
103.784
129.472
99.477
99.373
102.257
121.170
104.628
115.626
129.151
146.065
146.341
128.602
146.506
111.217
96.410
109.572
110.585
125.731
145.087
135.194
144.041
95.124
110.304
142.290
111.153
132.502
116.518
121.529
121.120
131.490
98.427
99.320
144.120
100.490
133.949
125.808
125.936
95.222
109.016
103.462
109.285
101.381
119.248
117.133
132.525
111.760
138.495
98.407
100.429
143.196
97.794
119.660
133.747
143.623
106.304
109.846
130.364
130.084
129.732
129.186
142.230
136.968
101.241
106.164
145.727
95.328
111.742
142.866
105.972
125.411
109.737
130.820
134.884
107.050
136.291
95.984
122.700
118.733
95.401
116.364
146.541
124.652
133.748
117.733
145.028
123.205
138.066
97.156
99.127
99.725
106.342
99.365
118.234
114.896
135.622
130.058
104.868
130.754
109.880
140.417
136.561
128.679
126.591
125.894
124.821
108.344
96.268
137.768
109.216
133.836
131.032
133.241
137.270
138.198
138.478
112.364
105.527
143.588
142.760
137.521
118.195
129.402
139.368
105.097
111.074
117.599
142.090
104.076
128.628
143.693
139.055
108.269
131.043
119.759
121.035
95.322
142.741
137.672
136.069
95.397
126.979
122.177
124.815
121.939
120.058
128.833
97.549
101.016
104.093
130.105
112.812
141.648
139.102
133.564
107.242
138.681
110.504
112.911
121.398
106.751
135.196
143.209
127.766
116.989
109.403
105.938
116.072
106.004
123.071
132.749
139.740
138.122
100.960
115.085
121.008
124.203
139.257
104.906
95.977
110.489
124.901
141.761
102.448
119.295
129.978
118.003
128.613
131.362
116.887
97.765
100.013
142.507
143.081
115.400
114.431
118.877
119.473
115.909
144.940
108.539
125.184
144.572
119.216
136.044
125.833
115.549
144.693
129.993
108.305
95.392
122.038
129.705
97.351
138.759
130.960
110.162
127.920
95.986
95.353
124.096
108.068
135.000
135.334
111.608
145.759
104.954
139.040
109.425
123.097
107.365
131.657
105.671
96.115
109.089
95.396
99.815
137.434
143.946
115.179
142.030
96.556
125.806
133.511
125.260
142.121
128.535
103.043
139.757
108.086
112.347
101.108
133.096
100.787
119.387
106.471
95.144
115.204
116.196
132.208
105.012
143.827
108.146
117.824
114.363
110.494
41.982
44.170
42.484
35.669
31.583
31.134
45.040
31.475
31.703
38.227
40.138
40.002
36.659
38.154
38.993
29.699
37.572
35.979
42.422
30.953
44.000
40.635
39.077
43.679
42.990
40.893
40.545
38.182
37.570
30.225
33.279
40.163
662.686
653.562
666.388
644.897
651.036
658.323
652.943
663.516
652.416
667.255
666.903
660.090
666.953
673.008
663.129
668.073
678.322
672.183
682.949
677.161
681.733
688.753
697.563
694.882
680.057
699.058
703.131
678.488
681.070
697.055
689.627
692.826
698.130
699.551
707.013
711.474
697.652
690.626
716.845
695.249
718.260
705.879
718.577
714.450
712.191
705.837
715.626
719.940
715.155
716.046
717.057
720.776
708.840
721.041
726.234
725.686
714.392
737.826
736.376
728.376
746.338
745.600
750.460
748.848
727.154
733.692
728.392
741.299
745.383
754.302
753.873
750.320
752.103
761.631
766.039
763.696
762.634
765.394
762.552
760.772
750.097
766.944
750.875
775.426
773.652
758.170
764.820
756.194
758.857
781.727
764.322
780.417
769.072
769.132
777.372
766.348
793.259
796.015
783.325
794.081
439.931
437.437
439.711
438.455
441.400
443.838
442.595
449.829
449.614
448.819
438.413
446.699
450.227
449.627
445.248
443.982
444.207
455.838
445.837
451.660
451.128
447.572
459.283
459.081
448.703
459.847
453.273
458.943
462.230
454.371
460.324
460.593
462.397
456.301
468.450
469.569
464.881
464.201
463.502
468.468
466.545
467.018
474.279
469.324
473.107
463.785
470.039
471.024
478.244
465.307
476.318
475.675
480.242
482.035
482.075
474.137
481.479
486.605
476.403
477.537
477.680
486.726
478.278
488.683
480.536
489.243
488.897
492.819
487.406
492.754
481.601
485.549
487.130
492.984
497.857
490.803
490.228
492.437
497.200
495.590
493.588
490.951
493.250
495.168
497.473
495.665
505.378
507.581
508.748
507.898
509.228
502.975
511.666
509.399
510.562
514.292
509.603
514.986
515.524
509.949
504.366
519.687
522.271
520.608
524.971
528.841
524.554
519.620
530.263
529.836
530.381
536.365
539.016
535.209
543.603
545.457
544.735
547.112
558.026
551.510
562.122
550.972
555.684
569.496
558.876
571.427
575.570
578.574
580.687
579.805
576.277
578.829
583.546
579.305
590.701
586.082
586.623
599.756
600.785
598.958
597.154
604.256
613.820
614.590
608.956
618.504
617.896
619.343
624.929
618.772
628.941
620.064
625.912
631.479
627.911
643.547
645.662
637.370
642.182
652.702
641.590
648.337
659.088
654.445
651.295
662.038
662.516
667.428
660.923
668.353
675.845
669.577
672.592
677.015
674.282
685.700
692.104
679.907
693.493
690.875
688.452
697.460
695.155
702.028
709.769
712.565
711.139
708.089
708.241
721.602
709.214
725.422
728.467
729.943
726.546
730.240
725.844
727.167
731.274
729.348
732.604
741.322
746.242
742.547
741.620
753.727
759.041
755.218
751.192
763.140
766.720
759.782
772.574
767.263
764.811
774.626
776.747
774.003
778.611
785.087
789.309
791.634
788.327
790.780
787.656
796.613
799.165
801.778
803.308
813.054
811.919
802.733
805.590
813.147
818.682
825.454
828.314
820.735
820.652
831.543
829.445
837.312
831.645
841.971
838.389
839.732
843.045
844.984
850.669
850.503
849.142
860.813
856.541
857.506
862.825
862.874
860.873
864.428
874.362
867.787
880.049
871.314
887.227
879.056
887.285
892.652
885.233
894.930
894.937
896.849
907.025
893.718
897.212
913.364
905.498
908.534
917.365
921.408
912.947
916.416
928.551
918.977
921.215
936.599
932.632
933.544
930.553
932.231
946.848
943.340
945.695
952.414
949.360
949.374
958.730
950.344
951.879
966.128
961.727
969.379
972.730
967.245
965.369
967.033
965.451
957.495
954.355
958.633
962.563
958.651
955.780
954.901
944.096
955.177
954.875
950.355
946.681
949.449
947.174
937.580
943.392
941.650
937.292
936.481
926.119
930.039
925.543
930.238
927.301
925.581
917.310
922.952
923.790
921.308
917.107
923.061
916.315
911.845
919.192
908.301
904.595
901.936
902.860
904.380
896.745
896.744
898.208
896.447
895.776
900.628
893.663
899.931
894.249
882.552
887.694
888.853
890.800
880.557
886.259
881.590
871.815
872.054
869.845
875.009
874.124
877.483
865.363
872.655
866.449
861.034
865.755
859.212
855.354
852.773
861.278
865.643
860.635
861.260
858.348
856.218
848.240
845.146
844.471
843.070
838.967
842.312
843.775
843.812
832.936
842.405
836.329
841.954
825.615
823.477
829.670
829.585
821.345
830.276
820.679
826.051
821.302
821.374
813.556
812.456
819.780
805.885
814.415
818.055
807.146
807.533
812.993
797.400
799.344
799.096
797.278
802.524
790.557
801.737
790.475
791.385
795.938
789.875
781.353
793.902
792.221
776.621
787.076
788.758
773.507
782.396
778.227
774.518
766.431
779.491
773.525
762.707
772.783
759.639
768.239
756.553
758.256
768.036
757.549
756.238
757.890
754.753
746.553
744.935
758.502
748.885
752.748
752.580
748.701
751.238
743.782
743.420
740.312
732.695
740.351
740.426
738.588
739.046
722.720
732.267
725.723
718.919
724.590
720.714
718.665
715.500
723.106
718.177
716.415
709.892
708.638
714.640
706.475
715.303
702.716
701.646
707.311
699.752
706.298
693.336
698.466
697.004
691.005
698.588
689.325
697.474
687.966
682.100
690.988
686.289
680.634
685.605
682.234
673.398
673.081
674.579
680.162
677.435
668.507
669.385
683.363
681.026
671.584
679.538
675.557
686.627
686.644
690.182
680.659
692.133
689.462
684.570
686.876
680.569
689.792
693.569
691.964
694.134
686.063
697.836
688.992
695.052
696.694
694.649
697.463
701.970
694.437
695.199
693.070
703.560
706.837
696.226
709.322
697.771
707.756
699.593
713.150
711.546
716.491
709.576
702.688
710.085
717.323
718.591
715.892
721.592
720.635
712.236
722.397
717.661
710.869
724.104
725.958
718.062
725.726
719.308
729.412
731.663
729.587
726.940
733.011
729.933
728.492
723.708
732.731
731.645
733.464
725.330
730.604
733.222
733.740
737.852
737.415
741.594
733.985
733.975
743.843
741.514
748.398
745.546
743.721
749.840
741.995
742.505
741.101
749.807
744.604
748.529
747.824
742.049
752.376
759.184
746.341
747.225
754.751
751.704
761.640
761.679
751.314
764.339
753.249
763.643
763.863
760.092
765.715
758.049
764.740
769.789
763.253
771.403
770.413
772.011
771.180
773.979
776.417
770.197
767.325
767.516
773.568
767.365
778.131
779.121
774.586
771.237
785.551
777.347
774.663
784.072
789.425
789.679
784.172
791.177
781.697
784.849
783.882
784.564
785.243
788.725
790.273
792.676
795.537
799.541
789.977
786.291
788.436
794.599
795.977
789.279
800.705
806.364
794.756
797.663
799.488
800.998
807.333
802.816
808.121
804.562
812.214
808.011
811.741
813.469
813.566
804.934
804.825
815.217
815.690
811.641
820.911
820.000
817.626
814.088
813.058
810.548
823.555
811.857
814.092
819.642
827.974
830.507
821.189
825.145
825.860
824.714
829.545
829.692
830.415
837.006
826.461
828.914
832.516
839.277
835.484
836.734
830.964
840.205
838.135
842.989
844.759
830.427
835.931
845.270
834.579
842.369
845.091
838.611
836.647
833.493
834.770
836.468
850.614
843.871
846.303
842.504
847.377
852.183
839.732
853.554
838.470
852.214
846.029
851.908
847.823
856.225
847.615
853.193
848.237
849.403
850.852
850.305
847.161
854.611
853.042
857.032
849.807
849.981
858.912
858.491
859.560
854.393
857.731
862.084
863.745
858.415
855.097
861.964
853.182
851.289
866.334
867.315
860.843
862.877
863.137
862.866
863.007
861.511
867.499
866.419
869.398
863.462
860.231
863.867
867.665
859.576
861.085
859.790
860.183
864.551
862.294
860.322
866.204
870.170
872.107
866.360
876.318
877.489
878.968
866.623
879.129
867.653
873.653
876.294
874.049
877.258
879.193
881.851
876.608
877.895
877.601
874.331
873.204
881.883
871.898
880.574
874.585
875.733
885.813
879.479
874.617
877.503
881.922
879.476
879.747
880.393
883.296
889.973
886.925
883.358
878.593
883.839
885.295
879.747
892.173
882.366
883.219
891.046
885.319
892.553
886.648
893.343
895.232
896.828
897.029
896.878
892.005
898.076
887.744
891.971
897.660
890.958
895.617
889.867
900.434
889.585
899.392
893.971
889.132
900.850
902.807
895.549
899.874
900.322
893.778
903.952
904.907
897.376
904.206
904.488
905.712
899.488
910.350
899.049
904.332
912.151
899.799
905.231
905.649
898.062
902.504
900.940
910.821
904.336
905.525
912.014
908.551
901.523
904.363
909.127
915.479
904.049
905.691
917.410
909.164
909.478
913.073
921.435
912.273
914.219
913.760
916.645
920.387
922.584
921.447
923.129
920.333
911.973
919.680
911.979
912.060
924.030
921.266
928.173
925.067
921.263
913.938
926.694
928.282
920.086
925.493
922.570
921.656
921.022
934.048
920.388
922.122
934.799
932.895
937.535
923.745
925.512
935.514
939.889
932.574
942.145
932.145
928.474
935.380
935.841
932.414
941.495
943.299
940.779
937.411
943.456
944.063
946.902
946.883
937.650
938.264
952.322
940.953
940.959
946.825
943.053
952.803
945.118
945.593
956.759
958.347
957.143
954.102
950.491
959.879
953.165
955.475
962.108
956.591
953.174
962.077
954.155
953.329
958.116
963.287
968.139
956.268
961.554
972.833
971.752
961.907
964.270
962.918
964.025
969.385
962.362
964.236
975.102
974.317
979.160
970.437
968.944
977.528
983.031
970.499
972.111
969.660
981.419
975.364
983.054
981.184
981.302
977.363
986.811
983.190
991.507
979.029
980.432
980.679
992.480
991.954
990.740
984.455
987.254
996.168
985.904
996.067
993.841
997.764
991.405
991.504
995.770
1002.298
993.801
995.391
997.753
992.236
1002.192
997.510
996.500
1000.673
999.709
1009.224
1008.081
1003.223
997.709
1002.538
1004.416
1014.323
1006.273
1015.350
1007.199
1014.958
1013.464
1003.978
1016.532
1012.575
1009.586
1020.429
1014.239
1017.606
1020.676
1009.624
1022.263
1022.227
1017.905
1013.514
1016.324
1022.649
1017.292
1025.089
1017.929
1027.784
1029.515
1026.564
1028.523
1026.826
1029.728
1030.998
1024.309
1024.336
1037.362
1024.407
1028.100
1033.100
1036.198
1034.646
1026.718
1028.666
1040.562
1044.215
1043.370
1040.248
1035.516
1043.071
1034.709
1045.046
1039.137
1050.100
1042.795
1050.736
1049.785
1047.713
1047.895
1038.789
1049.083
1048.110
1040.748
1048.753
1048.997
1057.331
1046.610
1059.183
1056.142
1051.677
1050.689
1061.979
1055.756
1063.763
1063.418
1059.863
1053.994
1061.430
1054.972
1068.656
1060.663
1067.606
1065.529
1063.695
1060.379
1065.501
1059.074
1062.488
1058.029
1049.407
1045.459
1044.879
1042.228
1041.907
1051.083
1049.684
1037.841
1039.486
1041.786
1042.034
1045.058
1034.055
1027.644
1028.769
1033.113
1026.973
1022.806
1030.497
1032.279
1032.160
1020.141
1027.733
1019.371
1017.221
1010.821
1014.484
1018.185
1008.662
1010.088
1017.237
1006.790
1011.845
1009.163
1002.072
1009.670
1006.735
1002.018
994.456
998.140
996.341
991.212
984.266
990.082
982.905
989.697
977.751
984.111
987.044
982.007
974.399
984.131
976.259
982.554
975.994
978.296
973.375
964.472
959.279
972.426
963.825
954.856
957.737
958.008
965.173
948.987
959.578
959.362
957.963
945.689
952.713
954.637
944.067
939.195
936.856
948.785
938.205
941.118
932.421
928.142
938.694
934.275
924.180
930.404
922.201
933.712
929.739
919.830
923.678
921.362
915.418
921.718
908.841
907.349
916.302
914.662
911.857
902.280
908.726
909.588
902.706
897.832
901.551
894.515
892.814
903.310
890.625
900.925
897.369
887.068
889.198
891.842
881.702
886.813
885.116
882.132
873.221
883.581
875.832
869.885
866.046
870.017
864.984
862.680
865.001
873.645
861.342
857.961
857.302
862.022
859.766
856.092
863.600
848.614
857.302
844.168
846.280
845.472
847.581
848.128
850.050
836.685
843.904
846.287
835.931
835.602
827.897
830.946
829.344
828.050
823.172
823.843
819.415
817.981
820.411
816.830
823.112
821.965
823.449
817.445
814.165
810.385
805.006
814.390
805.104
804.561
809.342
800.423
797.209
800.585
801.654
789.517
794.507
798.865
786.880
790.527
784.263
787.106
789.160
792.300
784.027
789.677
778.108
777.948
775.135
776.031
779.424
772.617
766.473
777.183
769.150
761.085
758.866
756.671
757.049
768.963
761.168
754.929
763.868
760.379
750.813
751.801
762.720
763.467
751.231
756.773
748.373
760.842
753.800
750.218
754.978
748.927
751.105
745.914
753.798
745.581
746.156
744.732
748.768
740.325
738.552
741.162
749.325
743.179
743.662
740.093
732.650
734.209
741.352
742.537
733.416
731.693
742.432
741.139
728.763
736.284
725.627
734.713
738.889
730.862
736.682
729.180
725.105
730.735
722.106
725.427
725.020
729.654
717.141
727.205
719.464
730.041
718.870
717.367
721.687
726.689
726.746
719.241
711.927
722.711
723.981
712.409
714.058
713.892
710.554
710.584
710.128
714.885
715.807
714.225
703.184
711.657
705.762
705.102
714.284
712.254
703.195
711.716
704.501
703.035
697.513
701.194
696.969
707.135
705.186
698.663
701.754
694.764
702.505
701.534
690.624
687.928
693.630
700.831
685.562
693.797
687.915
698.678
688.602
684.682
693.638
686.511
694.641
680.175
692.814
690.197
690.998
676.613
681.416
689.736
689.924
686.194
676.714
680.662
684.930
675.918
675.866
681.929
669.743
681.897
677.960
676.171
674.127
676.475
676.634
667.489
665.655
675.374
669.721
672.582
668.414
669.019
673.707
669.536
