37.518
44.889
39.134
30.264
32.018
33.759
1200.000
1205.115
1207.003
1214.115
1238.335
1229.068
1235.369
1252.244
1255.345
1239.488
1260.346
1246.148
1267.611
1264.731
1274.152
1268.066
1282.942
1277.826
1275.091
1297.028
1285.968
1309.727
1316.778
1305.524
1300.319
1320.921
1330.239
1324.385
1339.877
1323.822
1347.318
1326.637
1353.206
1353.587
1339.186
1366.368
1356.172
1372.860
1360.615
1381.400
1386.419
1383.236
1393.621
1400.766
1386.984
1406.347
1412.249
1411.750
1408.890
1409.247
1412.644
1426.196
1433.247
1429.466
1430.749
1455.633
1455.083
1454.678
1460.788
1457.551
1455.017
1468.921
1484.990
1461.968
1476.224
1490.784
1481.699
1487.373
1502.143
1510.802
1512.184
1502.242
1519.737
1526.847
1527.640
1523.557
1538.365
1530.439
1534.320
1550.967
1558.889
1537.528
1554.172
1572.280
1572.849
1556.309
1568.110
1586.247
1579.170
1577.462
1579.640
1603.792
1600.981
1607.770
1607.556
1618.115
1603.924
1621.362
1634.576
1630.971
913.019
905.078
912.501
906.259
923.246
916.888
924.852
917.549
917.811
934.293
933.293
926.103
928.359
943.649
943.705
941.631
951.510
945.140
945.148
951.123
947.414
949.254
954.091
962.355
959.374
959.582
967.736
962.602
975.661
968.957
983.517
972.151
984.937
982.484
991.591
993.485
998.136
987.261
987.655
994.990
995.708
1005.691
1000.227
1014.369
1002.873
1005.038
1021.211
1015.582
1019.521
1025.499
1022.247
1029.817
1028.343
1030.753
1039.969
1029.597
1035.613
1036.426
1040.176
1047.260
1048.441
1052.540
1045.706
1048.951
1053.703
1064.774
1066.424
1067.052
1068.146
1072.300
1076.996
1073.319
1077.443
1081.537
1082.796
1084.697
1081.927
1084.449
1090.824
1095.846
1089.856
1091.801
1094.058
1098.659
1094.535
1096.809
1107.057
1114.403
1112.561
1116.307
1115.970
1111.902
1118.143
1120.432
1122.018
1132.229
1134.381
1137.879
1141.167
1137.579
1143.573
1143.265
1133.356
1137.943
1134.303
1145.359
1137.523
1141.626
1139.833
1131.467
1133.233
1143.554
1129.058
1139.615
1130.772
1139.220
1138.940
1127.218
1133.982
1129.584
1140.516
1131.540
1138.772
1126.696
1126.093
1125.711
1123.689
1128.977
1138.103
1124.654
1127.186
1135.926
1125.613
1123.008
1120.810
1120.376
1123.161
1126.680
1126.637
1129.977
1120.714
1132.295
1131.576
1127.707
1127.306
1130.907
1119.368
1118.314
1124.672
1119.488
1119.062
1130.204
1129.019
1121.637
1119.951
1121.591
1126.291
1126.838
1115.787
1118.998
1119.625
1112.680
1124.130
1118.384
1122.326
1113.751
1121.081
1124.960
1113.464
1117.636
1120.944
1123.930
1114.170
1122.819
1120.370
1111.221
1119.636
1107.060
1117.437
1110.752
1111.238
1119.859
1106.805
1118.937
1119.614
1115.849
1111.186
1111.955
1116.365
1102.780
1117.666
1110.435
1106.491
1101.220
1113.735
1102.325
1112.240
1112.745
1101.686
1109.419
1101.902
1101.997
1099.032
1102.138
1100.365
1099.561
1112.250
1096.925
1107.444
1111.288
1106.867
1108.809
1105.016
1109.194
1108.216
1100.048
1100.817
1100.266
1103.680
1094.405
1095.337
1103.035
1106.950
1099.458
1095.044
1104.732
1093.589
1104.960
1092.679
1093.157
1099.301
1088.598
1097.624
1096.579
1100.203
1090.044
1101.715
1097.586
1100.483
1096.278
1095.263
1097.180
1093.486
1087.460
1092.980
1087.294
1084.955
1091.008
1094.581
1097.438
1093.740
1085.241
1087.458
1094.265
1084.304
1089.826
1089.346
1080.197
1093.839
1088.091
1089.802
1089.701
1078.757
1085.088
1081.797
1081.877
1077.181
1089.938
1091.143
1082.804
1083.946
1081.438
1080.025
1076.259
1077.239
1081.357
1074.400
1072.972
1079.622
1084.991
1084.112
1079.760
1083.733
1077.579
1074.004
1072.721
1072.874
1084.875
1070.125
1074.993
1081.522
1079.451
1072.888
1077.766
1075.305
1076.586
1082.442
1075.267
1080.258
1069.333
1067.843
1073.215
1071.370
1064.646
1063.431
1057.740
1067.118
1061.869
1055.558
1044.676
1047.061
1052.439
1040.257
1036.905
1040.898
1043.791
1031.389
1037.527
1030.640
1027.647
1026.662
1027.776
1023.913
1020.168
1018.259
1021.337
1010.215
1013.711
1005.988
1009.695
1007.344
1009.398
996.938
992.083
991.739
989.524
986.152
991.160
987.442
976.515
989.033
982.002
970.770
977.550
966.928
964.800
959.892
969.812
962.202
959.764
957.252
953.077
951.071
948.390
941.322
941.823
952.036
939.064
937.612
931.871
939.973
926.415
932.171
932.554
921.685
926.811
925.729
918.948
911.711
920.965
914.541
905.129
907.314
902.231
906.334
903.117
898.434
891.068
890.345
894.446
881.605
894.158
880.628
880.115
883.794
875.873
871.673
875.095
878.197
876.428
870.641
871.879
867.967
860.269
859.356
863.019
848.209
845.898
842.239
841.419
839.969
836.920
844.686
832.267
838.481
833.404
837.655
830.537
825.940
824.544
826.642
812.670
808.900
818.305
812.095
806.523
807.699
810.267
805.258
793.719
802.215
788.120
796.639
792.710
789.961
784.638
776.214
777.905
777.353
781.267
772.178
774.821
763.102
761.451
761.099
764.662
763.806
765.538
751.852
747.951
756.852
748.497
746.309
740.132
741.508
744.315
733.354
741.272
740.768
734.155
735.948
719.037
721.996
729.437
724.202
714.699
722.578
710.455
715.026
712.209
702.643
702.909
696.181
704.593
702.273
693.232
698.484
688.932
693.123
686.487
678.661
673.997
671.386
682.103
673.717
673.002
665.286
667.077
661.378
663.926
656.773
659.915
656.705
649.074
658.012
656.247
642.415
639.742
638.146
639.800
639.177
630.729
624.272
623.828
621.891
620.304
620.991
614.348
625.091
612.164
606.789
614.689
612.156
617.062
620.065
615.325
624.834
629.078
624.982
617.258
621.025
621.877
624.811
633.752
621.669
624.506
629.940
632.075
625.278
626.286
641.903
628.723
633.930
632.090
638.907
646.983
642.066
641.638
645.169
641.475
644.899
648.168
643.143
651.442
641.994
649.794
649.285
649.281
657.473
652.523
655.591
657.647
653.557
657.214
665.462
665.615
661.953
659.819
667.037
668.715
670.866
665.204
667.738
662.547
677.200
670.297
680.056
681.295
671.011
668.626
679.704
670.737
679.924
680.151
684.290
683.748
688.556
678.225
686.479
679.538
688.746
680.728
695.295
691.929
693.139
697.778
696.436
693.033
697.432
690.852
691.967
706.389
703.805
693.320
698.615
702.393
705.537
702.469
713.336
700.649
707.320
709.360
708.276
704.271
708.247
713.902
706.495
722.754
712.843
722.850
717.313
722.580
720.877
728.710
717.215
719.973
717.558
723.057
731.361
735.619
728.547
733.982
723.167
738.821
725.983
736.447
729.286
736.448
732.682
740.022
736.484
737.655
747.799
735.562
736.253
746.141
746.433
752.544
740.390
748.644
750.272
751.387
756.123
754.660
746.384
750.579
763.673
756.421
763.952
762.025
755.621
766.933
754.637
762.378
764.152
767.982
768.709
761.770
762.158
767.937
766.728
771.194
774.387
769.146
771.713
770.312
781.654
772.656
785.734
774.935
781.989
775.580
775.459
786.622
791.783
781.339
781.017
794.151
783.450
795.828
793.802
789.494
793.476
800.800
803.041
798.038
793.691
794.343
803.920
798.780
802.534
807.394
805.690
798.113
814.033
802.863
811.589
809.464
807.831
807.824
813.912
806.338
822.073
821.357
820.164
813.100
824.123
817.221
820.444
824.799
828.885
829.450
831.564
817.677
826.416
826.734
820.779
828.294
832.056
827.950
830.702
824.307
829.368
828.050
830.848
827.908
830.116
837.570
838.582
843.020
841.990
829.600
844.198
838.694
830.537
846.401
844.557
843.781
839.567
834.586
848.341
836.632
838.503
838.787
851.461
851.541
850.650
846.169
848.002
845.517
856.003
849.110
843.708
848.109
843.150
851.634
846.112
853.138
846.997
857.989
856.956
854.248
861.055
857.166
852.342
857.625
851.546
858.015
864.204
862.647
855.974
860.147
866.052
858.349
858.196
861.307
859.707
862.713
867.135
861.971
868.409
867.409
875.168
871.339
868.428
864.611
870.187
878.889
871.122
879.873
875.071
869.293
871.507
878.021
882.956
872.310
881.862
881.482
886.414
880.085
872.416
886.858
876.822
883.757
883.044
885.878
889.648
882.282
892.439
881.685
893.868
894.830
892.734
884.566
885.096
892.676
896.667
899.029
898.005
884.707
900.823
897.309
899.594
898.773
902.126
896.341
892.554
904.060
890.924
897.845
904.262
897.952
899.481
895.736
906.819
909.238
897.115
901.947
908.255
898.918
913.017
905.225
909.337
908.521
909.277
907.193
903.596
914.661
907.528
911.439
906.610
911.439
919.380
909.413
907.522
914.118
920.772
917.546
924.559
911.049
910.616
918.893
922.210
921.182
913.345
918.740
915.426
918.150
926.522
932.050
924.913
919.452
919.668
933.576
923.752
924.969
922.412
929.740
925.570
930.961
939.095
936.353
930.561
935.931
927.338
926.759
928.840
939.146
938.377
937.549
940.790
933.846
935.303
934.213
943.374
937.293
942.287
936.670
944.793
936.359
940.414
936.780
950.653
948.117
945.152
944.819
954.186
953.927
953.168
943.172
957.695
951.724
944.245
942.499
953.130
938.809
946.240
952.528
950.446
948.602
937.477
945.694
944.025
937.461
938.492
942.761
940.767
940.197
936.990
935.486
936.363
932.365
941.777
936.550
940.459
930.619
925.196
927.282
929.959
930.609
936.693
926.126
930.797
929.335
933.812
919.485
924.098
921.887
926.351
929.514
925.285
916.284
922.424
915.895
915.208
911.081
915.374
911.528
915.630
919.222
907.635
912.491
915.109
908.725
914.125
911.967
907.759
917.305
910.161
903.019
903.197
908.181
899.583
902.812
907.410
907.275
904.377
899.292
904.113
897.251
899.127
908.362
905.533
902.677
897.006
892.136
893.042
889.072
899.220
891.047
902.154
889.018
891.776
889.388
897.823
898.008
893.170
886.873
888.499
888.746
881.886
894.820
886.246
885.929
881.947
881.865
882.697
889.970
874.475
879.464
873.329
883.320
887.116
873.427
878.989
878.822
880.019
872.703
871.613
882.077
876.163
876.303
873.588
866.746
873.839
870.953
867.170
876.890
868.850
872.361
873.916
866.109
869.113
866.623
866.847
865.799
859.000
861.773
864.641
856.282
853.479
851.283
852.895
859.107
858.886
862.321
850.196
857.534
849.502
854.184
860.692
854.364
845.797
846.144
843.245
849.664
849.863
847.962
847.441
840.682
843.578
843.678
839.545
850.845
836.661
848.677
849.384
836.847
843.136
846.502
842.574
842.306
834.918
837.027
841.153
829.718
838.949
826.414
828.358
834.421
835.050
824.055
831.864
830.118
830.852
834.803
823.467
826.518
819.075
828.252
821.607
823.767
830.377
815.336
824.545
829.351
814.531
817.352
819.341
822.197
813.958
820.460
822.865
822.018
818.688
814.884
818.877
814.741
805.412
814.152
817.433
816.044
809.048
820.490
825.197
811.344
826.576
823.434
828.998
825.305
824.140
824.297
837.687
827.694
827.892
829.048
834.397
830.898
845.799
846.359
839.681
847.832
843.718
846.727
845.698
852.971
844.242
845.960
861.897
863.296
860.075
858.631
868.957
861.534
860.869
872.232
868.204
863.248
871.624
866.267
874.054
872.741
880.576
879.451
872.195
880.215
876.909
892.175
883.540
886.107
894.851
886.685
895.908
899.366
893.949
890.721
895.004
896.642
894.959
910.320
910.839
912.266
908.725
909.896
905.335
920.077
906.441
919.366
910.895
925.424
917.497
919.163
918.475
919.737
926.772
927.616
929.819
934.019
937.041
938.156
942.576
941.247
931.531
939.928
935.184
942.755
946.266
947.326
940.460
951.302
948.410
954.046
953.597
955.473
961.578
961.446
958.921
961.001
971.287
962.705
966.005
972.137
974.358
966.590
965.019
979.379
971.522
975.672
973.254
988.153
977.815
976.076
981.808
987.956
992.188
984.762
995.725
992.184
989.084
990.923
997.003
1000.980
1008.547
1007.899
996.210
1005.429
1011.301
1014.721
1013.637
1007.176
1011.518
1009.779
1020.348
1017.935
1014.115
1021.824
1030.602
1031.009
1027.043
1030.373
1036.735
1035.462
1032.696
1031.130
1029.845
1040.352
1042.012
1033.646
1041.533
1040.383
1040.683
1053.093
1040.061
1056.865
1053.702
1056.620
1048.401
1060.088
1061.707
1057.919
1060.124
1054.071
1063.142
1063.659
1060.610
1062.064
1068.136
1066.771
1074.826
1066.679
1070.826
1083.947
1071.937
1082.117
1078.758
1084.913
1087.825
1092.075
1093.302
1082.526
1090.019
1086.225
1097.123
1101.504
1093.070
1100.381
1094.281
1105.351
1110.462
1108.500
1111.393
1108.874
1114.445
1115.458
1117.982
1115.696
1114.852
1115.645
1126.822
1119.912
1124.207
1119.438
1119.747
1118.684
1116.755
1114.606
1116.700
1121.608
1122.224
1111.846
1110.408
1116.201
1109.361
1118.359
1107.972
1118.388
1111.223
1114.189
1106.545
1113.742
1102.916
1109.308
1109.175
1104.042
1106.351
1107.501
1102.949
1113.163
1104.646
1107.036
1108.538
1099.996
1103.222
1109.101
1095.925
1093.922
1105.040
1095.326
1096.720
1091.702
1092.059
1105.505
1101.348
1089.584
1098.562
1095.298
1089.326
1098.108
1092.265
1093.170
1084.395
1090.133
1089.435
1093.597
1095.960
1090.738
1081.890
1085.600
1092.179
1082.180
1083.270
1080.804
1086.870
1087.441
1084.116
1078.387
1076.984
1077.961
1080.525
1079.878
1080.641
1083.484
1079.009
1075.517
1085.295
1079.148
1081.338
1076.500
1081.862
1078.827
1072.185
1074.293
1067.557
1078.008
1064.938
1075.240
1064.544
1072.456
1069.558
1074.904
1067.058
1063.545
1069.938
1068.009
1073.793
1073.468
1071.460
1064.149
1057.300
1070.811
1061.650
1060.092
1069.353
1056.080
1058.251
1065.588
1062.528
1050.711
1050.458
1054.708
1058.537
1058.645
1055.706
1047.330
1049.786
1048.248
1048.262
1050.801
1056.845
1054.686
1044.633
1057.078
1052.110
1044.319
1055.510
1040.688
1045.443
1043.557
1039.630
1049.710
1037.171
1047.279
1048.212
1042.223
1037.785
1036.479
1034.162
1040.963
1040.386
1044.807
1033.154
1034.999
1030.877
1029.828
1029.029
1030.838
1033.050
1039.126
1036.841
1040.816
1032.142
1026.099
1031.172
1034.254
1035.083
1036.565
1022.282
1031.507
1020.844
1028.089
1033.005
1030.926
1031.004
1021.176
1020.777
1027.668
1018.115
1021.912
1023.099
1017.011
1015.544
1025.371
1021.372
1017.204
1015.040
1023.050
1010.841
1024.183
1013.825
1020.053
1011.738
1011.325
1012.359
1018.391
1017.589
1013.186
1017.939
1013.118
1005.043
1009.780
1011.373
1003.274
1002.693
1002.436
1008.099
1013.580
1010.180
1007.156
1011.155
1008.406
1001.119
1004.443
1003.883
1001.830
991.929
997.164
1002.991
1002.715
987.640
998.951
999.072
998.038
995.671
991.985
984.508
990.496
990.328
984.418
983.183
983.925
980.065
976.828
985.194
984.256
968.016
981.452
971.779
978.664
972.117
972.196
974.743
973.632
965.479
960.393
963.052
958.112
962.859
964.295
954.706
965.223
955.167
956.907
962.187
949.182
957.732
950.386
944.726
953.037
951.700
954.158
939.818
944.828
940.244
944.128
934.322
941.707
939.905
939.520
943.064
934.848
932.322
936.235
927.514
931.911
928.416
924.664
922.639
924.817
929.600
927.223
923.458
930.135
916.925
920.653
925.520
922.541
922.906
922.621
916.454
907.101
911.592
909.145
918.200
904.550
908.246
904.647
899.801
910.216
901.508
899.074
900.712
895.001
904.657
900.487
893.881
895.181
889.293
888.595
899.725
894.823
898.154
884.188
885.923
893.698
878.426
891.660
877.142
874.797
879.374
881.163
875.893
872.063
884.781
880.726
877.661
873.606
877.590
866.350
868.497
876.049
872.337
862.657
870.592
868.556
859.641
856.364
857.784
866.533
859.432
862.609
851.190
854.939
858.164
849.212
852.879
855.999
852.810
852.587
854.287
842.343
847.283
851.593
849.332
841.174
841.623
840.350
835.702
840.166
841.499
840.578
826.469
827.689
829.843
823.624
825.491
834.082
824.466
820.390
824.291
827.371
820.483
819.532
815.694
822.802
823.777
822.332
814.957
823.191
814.155
817.300
807.026
810.307
810.487
802.283
814.439
806.859
799.424
807.604
798.929
803.005
802.992
802.508
791.235
800.012
802.562
802.173
787.501
792.495
793.058
792.583
782.464
787.673
780.007
784.170
777.805
783.252
781.928
780.635
783.707
785.071
780.855
768.304
766.535
777.915
767.308
763.365
765.176
757.490
755.105
760.943
758.931
757.098
756.970
748.499
745.720
747.239
750.778
736.162
739.206
731.855
734.433
736.585
726.952
730.348
731.971
716.871
722.816
726.388
722.122
721.215
707.327
712.936
706.610
711.142
709.738
696.385
697.996
696.171
692.865
691.648
684.623
691.942
690.575
689.593
684.635
684.262
677.297
674.887
675.133
675.563
673.341
666.563
664.091
660.672
662.544
652.740
662.031
660.055
650.434
650.147
640.961
644.482
633.862
639.254
629.777
642.592
630.525
625.702
635.036
631.046
624.485
617.624
623.959
617.835
617.307
607.203
610.374
613.946
601.988
612.210
600.783
607.297
591.820
590.903
589.847
590.981
587.602
586.911
584.470
589.255
578.321
572.119
577.762
567.608
565.968
564.245
565.557
562.529
556.364
567.442
559.303
561.228
552.357
547.554
545.307
550.167
540.359
546.784
545.321
541.639
532.049
539.457
537.363
537.059
532.156
518.108
524.081
519.420
515.161
512.596
515.648
509.947
503.300
506.741
512.276
509.949
493.419
496.666
492.593
498.690
497.217
487.690
493.406
492.191
480.020
481.766
486.391
479.928
476.234
469.552
466.396
469.917
466.036
458.440
454.649
466.248
459.437
458.371
459.486
452.303
443.454
447.542
441.230
434.475
437.282
430.747
432.465
432.743
436.201
421.928
424.358
416.672
427.797
416.071
425.212
421.178
411.496
407.011
405.798
408.215
397.681
398.895
405.145
393.424
401.204
398.448
385.382
389.381
382.251
377.068
386.249
383.678
373.462
371.982
374.531
371.803
367.110
366.325
370.345
364.423
356.777
354.987
362.072
357.408
