101.526
138.530
103.692
128.301
101.287
106.242
140.330
111.703
107.049
118.113
120.105
123.701
98.210
106.752
116.724
145.819
100.312
97.319
129.848
95.961
109.872
120.355
131.705
134.455
111.146
132.861
106.178
97.392
95.280
141.201
116.724
109.632
127.144
119.314
129.321
126.712
104.531
146.025
96.163
108.183
109.039
137.569
140.031
105.706
130.295
107.014
124.726
112.703
111.165
125.227
104.822
128.847
122.514
120.970
122.607
109.081
108.652
104.723
130.549
146.187
114.453
140.887
109.329
103.916
95.216
101.997
132.308
104.926
101.505
136.833
132.172
141.980
141.962
96.927
116.783
129.533
122.603
134.946
94.976
135.266
116.337
142.483
109.915
112.524
139.886
97.123
116.114
129.606
121.554
145.019
143.088
142.409
144.957
121.170
110.700
112.827
111.427
105.764
95.545
145.656
124.440
133.600
114.291
108.094
136.716
115.207
142.398
125.070
127.131
115.215
124.157
118.420
99.985
102.845
97.245
138.509
131.271
97.882
130.507
110.528
127.104
105.801
105.484
115.571
99.339
141.783
130.177
127.921
144.228
141.430
110.046
124.825
142.538
144.942
131.115
112.280
144.389
129.800
111.256
105.701
144.657
111.784
142.931
99.337
110.006
140.081
144.439
139.321
145.287
139.773
146.540
105.734
121.865
120.219
127.462
106.681
124.313
100.849
96.740
132.221
128.977
109.379
97.979
103.811
112.748
130.166
113.353
123.230
131.663
102.503
146.492
114.917
119.178
145.686
103.498
137.414
115.037
95.079
117.853
143.518
107.747
100.146
108.390
146.205
122.777
120.788
114.458
125.971
132.042
128.358
142.511
145.821
130.078
133.454
99.104
135.733
122.323
108.681
119.701
95.416
134.550
145.465
142.209
129.800
120.351
131.992
109.401
134.311
107.081
122.362
145.400
122.414
116.197
111.999
108.897
96.522
122.373
115.382
111.062
146.299
112.617
121.274
106.614
103.265
104.357
101.115
123.273
122.733
134.576
96.460
114.874
142.865
109.433
119.419
95.013
114.150
110.996
125.469
97.176
106.509
121.268
129.111
129.250
97.179
142.880
141.240
105.149
133.977
108.005
137.407
122.715
143.592
99.069
133.303
110.042
121.445
101.175
127.193
124.678
106.053
137.364
118.800
127.431
135.006
137.948
137.073
109.940
131.182
133.998
115.221
141.343
112.707
110.534
122.573
129.092
124.112
97.171
109.468
146.047
103.532
128.580
136.878
113.321
127.953
129.681
139.498
116.284
122.524
97.253
102.860
133.332
96.263
144.831
112.022
130.397
133.998
103.355
141.452
146.099
122.546
129.477
134.334
115.302
140.234
99.099
95.146
130.053
100.390
105.583
98.191
124.294
123.199
115.829
122.979
142.709
97.885
135.086
106.150
96.549
132.570
119.473
95.977
103.057
119.249
117.829
138.792
121.446
131.938
99.865
112.163
102.771
110.737
145.356
104.596
110.245
123.886
124.437
125.161
100.217
99.786
95.360
126.601
143.654
99.349
121.205
110.506
111.607
96.039
137.329
117.271
112.365
115.193
101.282
121.400
97.622
134.631
133.908
123.898
98.600
136.535
139.808
122.223
113.995
105.659
139.332
97.267
119.051
99.023
98.213
120.376
113.425
112.140
143.675
101.401
109.145
108.734
109.120
112.148
127.780
143.808
134.702
143.324
132.296
135.741
114.838
97.103
133.537
120.508
141.937
115.593
121.487
130.724
140.163
103.635
99.170
138.078
119.224
106.717
97.931
105.410
106.546
138.028
117.544
122.254
109.583
106.467
123.642
101.865
144.081
100.111
141.557
108.044
143.085
108.185
137.374
111.029
111.292
145.256
132.665
143.753
102.887
98.630
139.770
144.345
136.984
145.224
112.481
100.377
133.250
122.263
105.810
130.944
101.229
98.216
114.852
126.364
129.559
119.339
124.399
112.890
126.235
117.397
139.163
121.848
122.198
123.624
107.766
105.101
104.762
138.052
117.295
115.945
108.212
127.623
121.542
97.668
119.367
129.000
111.014
109.567
114.793
133.527
114.635
96.292
107.444
113.325
130.871
120.390
118.597
101.570
137.059
112.809
122.815
113.826
136.470
118.713
145.850
133.524
126.667
122.657
125.199
102.071
115.408
143.990
136.489
114.125
107.860
115.619
120.596
105.329
125.358
120.950
128.515
139.209
137.927
102.481
132.232
111.849
126.565
144.877
96.992
97.523
116.432
117.435
135.321
140.543
105.065
109.691
119.920
110.329
106.007
138.484
131.969
127.163
124.578
112.103
118.794
119.003
139.220
125.493
132.328
109.423
127.211
130.324
109.700
115.915
129.684
125.999
101.771
95.501
121.665
145.987
106.539
121.459
102.292
130.684
142.425
108.641
146.676
115.039
122.367
95.352
131.891
142.671
108.292
141.794
131.461
116.535
135.641
145.733
126.305
142.510
139.074
103.629
109.186
131.491
130.126
106.124
139.935
98.443
120.910
136.191
106.080
113.743
126.630
139.477
130.970
103.950
110.465
143.546
109.059
112.467
142.313
141.609
97.685
146.349
104.635
99.222
118.896
135.226
109.689
131.754
144.031
127.367
138.174
129.430
106.238
123.717
144.483
136.370
118.543
144.872
125.068
124.911
144.402
95.294
123.497
97.082
103.007
143.752
116.742
114.689
124.993
97.277
132.382
111.189
117.880
132.410
146.252
136.183
109.760
96.003
103.090
112.376
137.943
110.445
134.262
128.829
108.437
95.163
123.425
116.961
116.937
115.213
111.256
107.500
113.489
142.911
103.623
145.129
137.153
114.404
105.753
130.964
143.362
95.947
109.719
103.397
140.326
139.375
109.177
119.550
135.664
110.289
108.965
134.620
101.840
145.809
134.400
139.709
108.051
144.619
113.201
118.947
98.407
110.150
108.916
142.092
105.980
133.024
129.374
115.006
101.947
96.341
122.347
99.133
101.364
106.793
109.722
103.485
137.610
132.423
139.767
100.033
138.326
131.578
127.794
139.287
105.207
131.308
95.481
96.501
124.018
112.723
131.943
143.780
117.350
141.503
137.008
137.371
104.112
97.173
139.778
113.116
144.739
132.043
146.730
105.545
115.961
105.924
126.170
138.585
106.177
105.636
100.452
117.614
105.050
126.780
98.041
108.075
132.005
145.918
131.394
98.456
134.626
103.553
139.771
116.790
127.325
132.771
98.012
113.840
124.964
110.214
126.674
108.186
111.539
139.473
101.533
119.521
105.283
112.553
96.999
145.123
96.755
128.349
119.806
112.559
140.690
118.381
135.747
136.224
133.395
128.910
140.955
112.563
145.971
119.278
101.499
127.250
123.630
110.591
142.558
116.720
108.132
130.389
122.225
126.772
143.866
113.325
130.278
96.995
143.718
140.572
113.853
94.771
131.363
112.079
98.217
107.289
96.850
97.506
134.617
105.554
103.704
136.703
112.348
103.661
117.760
116.400
120.202
121.625
142.459
120.402
105.522
110.688
132.820
111.095
118.790
136.579
96.710
128.045
144.679
127.738
128.226
125.760
107.888
116.857
142.535
110.202
133.625
99.001
98.403
134.997
114.016
140.187
130.746
98.634
100.009
139.013
115.031
128.352
97.992
133.135
142.829
145.548
129.117
119.955
129.878
138.393
117.781
133.585
102.607
126.007
115.642
135.993
103.560
139.929
94.950
129.645
131.392
125.298
106.661
135.509
104.252
97.723
98.776
105.965
144.407
130.290
144.955
136.256
146.203
98.579
129.215
131.557
139.483
102.358
142.162
108.882
142.504
135.712
97.696
108.585
127.662
132.745
143.996
127.433
136.509
116.864
126.927
139.504
107.401
99.394
107.551
120.595
122.970
124.948
138.390
141.529
129.108
115.491
110.178
108.922
125.761
100.183
103.059
122.586
131.466
126.170
129.245
138.767
97.919
99.349
132.785
115.060
131.038
132.362
121.577
121.171
95.617
136.936
101.278
106.418
112.447
100.811
141.864
114.232
120.284
141.832
141.768
118.452
126.426
110.509
121.124
95.029
102.923
134.855
106.715
114.073
132.933
127.030
113.867
135.544
97.086
110.163
135.525
145.911
142.088
114.953
126.137
132.488
140.543
112.548
115.038
118.205
112.940
121.489
100.901
130.574
138.285
108.910
97.774
105.861
108.593
100.126
135.066
101.973
126.921
104.134
122.054
109.548
128.460
141.541
141.079
137.066
136.316
141.742
105.980
111.688
98.533
100.881
103.044
119.250
110.125
117.480
133.834
137.027
125.118
120.824
140.272
143.267
108.160
118.660
100.286
110.049
102.004
101.065
118.695
98.675
115.916
101.028
142.959
129.752
120.804
130.869
140.068
120.107
95.089
95.372
106.386
97.455
122.143
116.018
102.764
97.288
124.034
131.709
140.475
137.130
107.299
108.634
111.340
123.479
125.288
124.604
121.566
103.529
103.604
112.688
94.816
111.977
100.079
114.482
113.395
137.197
104.136
119.067
104.426
122.116
142.100
132.281
95.074
131.058
101.958
124.337
119.451
140.385
139.870
134.391
115.072
136.439
146.373
112.246
117.233
126.327
106.729
118.862
135.693
139.705
109.106
95.042
119.779
104.622
140.458
123.990
137.576
98.618
112.734
95.112
104.829
102.129
105.479
96.509
109.926
104.290
126.256
115.520
96.803
114.519
105.837
142.893
143.709
111.662
128.226
123.046
113.573
137.194
138.020
110.232
112.989
101.388
139.991
106.510
117.387
144.327
117.657
112.175
137.638
115.327
117.925
102.767
118.279
143.136
120.847
104.633
123.528
133.250
116.903
132.372
142.821
134.590
108.639
98.610
146.574
119.915
132.713
139.612
137.537
96.900
118.502
97.454
115.994
104.513
133.888
140.549
117.823
95.215
115.504
129.101
116.159
127.193
142.770
110.367
118.604
119.250
101.946
139.196
130.030
142.058
140.121
112.448
107.705
133.566
116.114
112.502
101.397
117.338
108.755
138.749
119.700
122.461
101.247
138.635
133.547
112.029
131.716
108.580
121.968
97.185
138.760
137.489
108.311
133.510
133.274
118.394
105.962
117.689
127.190
132.820
146.347
128.002
112.783
129.977
100.967
145.103
100.243
138.151
143.605
108.080
146.281
99.880
127.742
126.396
134.418
130.930
143.962
141.467
95.000
115.565
140.199
139.317
127.311
123.753
134.429
145.424
138.110
112.033
138.293
109.098
131.276
135.781
104.606
116.668
107.126
108.223
99.641
100.605
110.185
100.896
97.731
125.796
116.454
107.962
128.468
125.877
119.541
131.739
104.320
123.700
146.483
128.024
115.504
102.709
145.054
123.315
131.090
111.887
123.660
104.891
127.917
114.946
121.861
117.304
106.740
120.312
112.173
119.175
114.800
139.363
126.373
101.863
117.970
114.477
104.154
104.984
94.923
115.618
112.017
121.014
135.843
114.958
99.675
144.347
124.771
115.645
110.967
130.963
144.126
113.430
111.068
108.752
102.782
135.690
121.929
102.068
105.794
104.965
133.920
102.276
100.895
113.076
131.236
127.904
132.106
95.183
105.096
105.701
111.639
107.314
139.545
99.231
126.053
97.839
129.273
146.372
141.892
125.745
137.957
145.165
140.970
125.204
118.573
124.242
99.119
98.654
113.760
105.310
126.333
117.780
110.151
95.279
136.093
129.744
131.074
124.722
121.738
123.445
129.150
139.245
104.951
100.908
116.710
125.985
133.855
139.191
110.283
131.623
122.105
127.476
116.403
142.477
98.961
107.876
123.156
100.826
99.637
118.600
102.449
106.572
126.806
146.117
142.085
113.497
110.856
95.970
96.844
117.409
102.436
113.433
128.809
123.696
114.930
125.299
130.322
138.898
126.452
114.239
115.897
115.509
136.271
141.911
118.717
140.925
99.365
117.258
103.500
143.017
107.839
138.243
120.885
144.535
112.309
139.476
124.874
119.061
131.053
141.888
132.835
133.894
146.476
114.371
145.535
125.984
120.352
118.143
139.255
144.490
123.887
124.972
118.373
122.900
127.082
146.467
96.932
100.501
112.998
134.514
116.969
97.720
118.386
132.574
112.806
144.755
144.957
145.843
127.385
142.824
143.020
135.749
122.780
100.167
134.846
128.242
98.000
144.552
111.067
114.536
120.581
96.958
143.726
140.935
129.069
116.074
140.934
104.453
130.558
134.552
112.356
145.121
116.417
143.824
109.779
115.053
123.446
122.924
117.222
106.444
146.044
146.126
141.398
136.646
123.659
103.773
118.264
132.881
108.584
130.717
99.145
146.539
133.066
129.946
112.365
126.631
104.420
131.953
112.223
123.771
136.626
97.903
113.455
140.231
109.635
106.256
144.750
120.181
99.957
116.749
95.171
120.250
101.644
99.801
96.371
118.574
112.552
141.895
125.342
103.135
141.361
126.432
100.006
127.253
142.347
137.896
116.557
95.226
146.091
135.832
135.918
144.031
140.144
137.418
120.892
116.713
144.032
137.464
99.894
121.586
131.499
96.473
115.585
103.314
145.477
140.642
108.579
145.028
132.555
106.126
126.769
113.578
111.301
140.774
102.717
34.690
30.732
44.320
40.519
30.264
37.964
33.514
36.707
35.846
31.364
41.077
32.743
35.730
43.838
36.241
30.695
37.569
35.091
36.883
44.233
36.204
31.394
43.903
43.844
37.993
34.985
29.535
39.394
34.395
34.533
41.433
30.020
41.124
36.280
43.814
41.581
38.356
29.365
30.161
41.471
32.977
42.894
38.294
907.314
917.982
917.354
936.162
922.156
925.463
956.223
958.750
964.455
958.297
946.451
956.227
975.042
981.902
989.498
973.945
985.322
989.512
1000.497
994.583
992.454
997.375
1012.735
1022.212
1014.905
1031.159
1027.106
1022.816
1044.765
1030.026
1048.263
1047.668
1064.159
1052.234
1055.087
1062.236
1058.289
1068.552
1084.040
1087.194
1075.575
1091.302
1093.167
1086.631
1088.111
1103.390
1097.767
1102.883
1111.269
1108.688
1114.330
1135.530
1132.171
1123.507
1154.971
1157.733
1160.445
1161.872
1146.833
1160.239
1153.370
1160.969
1175.898
1183.639
1171.506
1183.430
1203.782
1189.144
1190.108
1213.969
1198.087
1209.987
1209.249
1228.283
1222.725
1223.477
1224.318
1223.281
1234.780
1235.508
1240.117
1261.817
1264.805
1274.541
1251.156
1256.864
1284.231
1287.866
1280.656
1285.565
1287.048
1300.359
1295.072
1315.516
1300.027
1300.499
1307.935
1323.055
1315.433
1312.847
746.336
741.793
737.985
743.643
747.786
750.749
745.321
751.184
751.554
765.675
762.724
764.354
766.966
770.862
771.764
775.453
771.164
783.854
784.259
778.253
783.015
785.509
789.808
786.286
797.442
795.265
799.357
798.663
797.394
807.777
805.814
811.681
817.210
820.368
811.586
816.818
823.044
826.939
818.162
826.835
834.554
832.157
835.718
837.630
833.419
845.685
847.921
842.026
853.408
846.009
853.440
863.626
863.015
864.443
857.513
859.346
872.428
861.473
863.940
868.581
875.289
874.592
883.389
879.646
886.173
888.157
891.917
899.417
901.378
895.240
893.098
894.810
897.976
908.260
900.884
916.454
905.010
910.774
910.946
912.292
922.787
927.482
926.020
923.600
936.884
933.034
939.110
935.360
939.510
942.842
948.269
955.006
945.049
944.942
959.425
954.135
957.051
956.035
970.494
969.038
963.745
966.795
965.448
961.231
966.988
955.508
956.844
954.548
960.611
950.700
960.667
943.797
945.984
940.863
948.244
939.217
945.347
948.439
945.508
935.040
941.648
929.206
927.533
929.081
928.008
925.377
931.617
934.662
921.108
922.906
921.914
930.132
927.171
925.596
910.902
908.541
913.025
907.242
908.267
906.575
907.639
907.034
912.353
897.684
905.404
903.885
892.316
894.636
896.670
897.389
895.589
896.980
890.165
890.477
889.600
884.934
882.948
879.047
881.417
877.137
887.744
871.273
876.136
875.394
870.499
868.909
871.996
876.698
863.496
864.965
873.013
866.592
868.463
854.524
865.691
852.510
855.045
858.174
850.315
855.804
843.142
854.456
853.897
849.462
847.125
839.125
843.612
833.961
831.273
834.535
842.735
841.886
826.760
837.214
824.564
825.240
824.162
825.200
823.068
822.432
813.299
821.379
818.486
815.207
815.165
819.158
812.083
810.558
817.159
810.581
812.946
797.305
796.727
795.904
799.775
794.968
791.142
797.559
788.574
798.483
787.692
787.379
785.158
785.843
779.520
779.245
777.611
777.408
774.843
777.259
769.789
771.167
780.390
772.712
767.079
763.390
760.514
759.055
769.377
761.378
756.983
757.693
757.861
764.050
762.331
757.159
756.982
746.765
748.410
748.929
739.845
753.074
738.798
744.815
749.677
737.936
745.558
732.364
731.301
733.449
734.427
736.909
728.760
729.323
726.768
722.877
729.617
725.494
716.028
726.293
711.794
714.537
710.419
711.621
705.353
715.801
711.244
708.514
708.169
709.154
699.869
701.142
694.281
696.677
701.620
695.213
688.603
693.389
698.027
695.195
692.596
689.754
686.430
689.949
687.310
676.502
685.305
683.544
681.985
679.357
671.109
667.337
675.090
669.372
682.162
670.553
673.762
675.352
680.119
678.567
675.768
676.655
685.483
686.294
691.033
686.294
692.248
696.160
689.981
687.148
683.829
699.190
698.607
700.782
688.596
701.935
688.363
696.046
694.223
691.945
692.725
706.361
707.460
707.315
705.978
705.479
707.095
706.570
702.718
709.255
706.330
713.965
712.429
711.083
711.707
706.760
712.250
710.968
715.544
719.644
711.620
715.347
714.425
718.125
724.527
726.909
723.981
723.785
716.254
717.414
723.993
720.116
726.550
728.230
724.855
732.864
728.037
724.969
723.565
726.874
724.741
726.944
733.264
738.788
731.021
730.252
742.605
736.721
729.922
742.081
742.888
740.920
747.752
733.929
