91.839
86.936
127.936
92.086
113.866
108.561
122.899
120.292
96.988
97.744
103.085
84.562
100.464
107.585
126.783
91.573
97.215
91.293
100.245
127.441
93.482
113.737
91.019
91.735
104.739
106.971
106.186
107.780
92.252
109.096
125.679
98.196
126.854
101.810
104.929
93.232
112.800
117.868
89.494
92.645
100.893
109.599
120.411
109.255
91.165
120.428
100.878
96.987
84.171
123.007
126.138
109.554
93.378
89.898
123.871
126.972
98.660
125.353
113.668
109.919
87.543
88.361
122.081
124.326
107.052
97.709
97.089
126.635
114.195
94.448
127.087
105.140
101.696
107.992
114.299
125.058
112.540
107.949
95.635
103.034
91.959
97.199
111.414
107.995
128.828
1070.281
1049.096
1066.885
1051.219
1063.925
1067.244
1073.365
1077.604
1070.954
1063.178
1070.173
1070.367
1076.639
1091.583
1076.777
1078.610
1093.951
1102.454
1084.578
1098.221
1086.974
1092.163
1099.344
1089.958
1115.325
1094.949
1096.155
1106.148
1116.807
1119.105
1110.321
1118.873
1125.848
1127.116
1124.104
1113.632
1109.542
1114.452
1119.282
1118.835
1126.644
1127.029
1120.180
1129.534
1145.983
1141.289
1151.638
1140.412
1140.808
1158.753
1156.913
1135.650
1155.928
1145.745
1150.343
1156.164
1150.957
1164.510
1165.285
1168.736
1160.859
1176.359
1182.863
1171.110
1171.460
1174.516
1169.446
1173.580
1189.426
1188.353
1172.556
1177.987
1184.215
1177.455
1183.127
1186.080
1194.367
1210.172
1186.261
1199.237
1204.292
1208.356
1201.573
1197.575
1222.301
1200.314
1221.142
1199.713
1218.754
1213.415
1227.143
1225.330
1218.316
1230.929
1232.169
1215.393
1227.293
1235.113
1219.292
1231.286
688.706
687.007
682.951
685.286
690.455
697.773
692.948
698.093
697.371
703.225
701.745
703.396
698.033
707.321
695.773
695.835
700.333
703.568
703.994
699.988
709.201
713.713
710.468
705.356
707.426
719.007
708.930
706.578
714.528
713.871
708.979
712.584
715.572
718.074
726.143
715.280
722.335
721.313
718.718
731.690
733.381
728.882
729.980
728.498
736.615
724.198
731.716
731.612
727.421
737.005
740.988
733.129
730.550
732.855
733.163
749.138
734.602
751.239
739.795
745.812
747.326
745.145
742.081
746.322
750.904
754.037
751.163
752.614
756.082
760.220
759.387
761.339
757.215
756.541
755.585
757.964
768.036
770.945
758.721
759.710
772.965
766.891
773.732
770.110
768.509
777.810
765.938
779.397
775.417
781.964
769.792
780.583
778.797
772.129
780.673
773.576
784.556
779.519
778.745
786.393
789.929
779.837
784.938
787.827
783.313
786.608
792.485
782.973
781.809
791.033
788.368
787.695
781.960
784.341
776.465
776.518
784.121
787.501
790.921
777.377
789.039
785.533
784.197
784.246
787.944
777.572
788.726
779.296
784.195
781.384
786.565
786.021
777.857
785.782
779.328
776.013
781.345
778.553
776.333
780.118
772.157
771.291
781.284
781.120
784.292
775.760
782.772
786.051
777.370
771.196
783.941
776.057
775.981
770.324
783.810
773.283
775.768
771.268
774.984
772.577
775.497
770.534
779.687
773.375
781.930
782.705
767.901
777.867
766.902
774.092
766.357
778.978
777.667
776.011
773.763
769.729
768.925
780.243
770.852
766.372
771.085
774.972
768.610
777.562
767.521
765.423
774.748
778.906
766.166
775.000
777.440
776.562
775.603
766.682
771.068
765.007
766.982
774.762
768.978
762.400
775.317
765.673
768.120
765.455
770.448
773.079
763.916
772.201
772.037
765.996
773.312
770.067
760.355
766.103
766.856
769.072
764.828
765.743
762.235
759.821
772.072
765.170
761.155
760.154
759.678
761.022
759.782
759.951
760.649
770.026
767.441
757.792
764.686
766.010
768.866
765.029
759.169
763.476
759.647
760.547
765.799
761.099
763.013
763.143
764.660
763.986
766.915
756.051
761.252
753.329
768.683
766.111
755.848
768.119
761.070
762.064
765.576
765.682
754.662
767.197
761.702
765.762
766.226
760.880
764.440
757.261
755.893
753.572
750.011
754.095
750.399
754.437
752.245
763.249
752.527
751.507
752.583
761.878
753.949
753.504
754.774
756.478
757.632
758.492
760.079
750.209
749.341
748.411
746.938
748.886
761.373
750.678
756.898
754.601
755.894
757.664
760.735
752.899
760.600
748.160
758.592
747.449
758.104
763.593
760.725
764.765
763.203
759.623
765.431
774.551
774.367
768.070
780.666
782.515
785.233
781.937
774.565
778.255
792.187
780.237
782.724
797.226
797.951
793.709
800.700
796.275
805.389
799.235
803.724
806.755
804.271
815.375
810.433
815.794
817.836
818.049
818.573
825.816
814.358
830.315
826.894
826.423
832.332
829.901
830.895
829.113
837.185
840.325
845.168
832.820
849.922
837.986
842.262
852.190
845.395
846.313
858.216
861.905
860.933
854.111
863.389
867.379
870.461
872.591
875.301
875.079
867.636
869.598
879.989
873.945
882.308
882.513
880.775
884.094
892.003
886.972
891.635
889.188
887.050
897.802
898.942
897.996
904.950
904.999
899.800
906.017
912.694
906.976
912.739
914.232
911.353
913.333
917.664
926.527
917.762
919.480
920.624
933.549
934.685
932.489
936.013
933.061
931.235
945.458
937.936
936.321
936.992
947.902
953.103
951.239
958.157
953.695
960.257
952.768
954.815
959.223
968.827
961.506
968.463
973.374
967.013
977.222
973.159
968.129
975.395
984.165
982.128
988.887
988.097
979.321
978.717
987.513
984.336
995.410
998.638
995.506
989.351
1000.871
1000.519
1005.323
997.955
1010.762
1005.884
1011.144
1008.293
1008.421
1013.907
1009.736
1017.972
1019.414
1015.407
1026.469
1032.164
1030.438
1037.480
1035.167
1028.387
1028.696
1040.353
1038.057
1043.864
1044.891
1047.504
1040.737
1048.359
1051.042
1046.382
1047.892
1053.050
1060.612
1057.185
1059.374
1062.735
1058.737
1070.502
1072.551
1070.314
1077.045
1079.018
1080.384
1081.904
1085.885
1072.226
1083.849
1080.256
1078.129
1092.628
1090.116
1095.948
1094.194
1095.966
1100.790
1097.123
1092.926
1108.499
1096.062
1111.049
1108.993
1110.806
1105.808
1111.488
1105.551
1102.392
1110.682
1101.160
1106.446
1105.858
1098.028
1102.139
1102.648
1093.876
1095.237
1093.335
1083.624
1090.659
1091.238
1087.695
1073.716
1071.412
1084.153
1076.052
1068.370
1069.926
1069.465
1069.618
1068.719
1066.964
1056.661
1068.255
1051.197
1059.015
1061.950
1051.030
1054.735
1052.409
1050.918
1050.118
1046.956
1043.378
1045.953
1031.418
1037.487
1041.719
1031.747
1026.146
1024.081
1025.956
1020.936
1017.032
1022.182
1024.928
1020.143
1013.834
1014.554
1013.246
1012.330
1000.653
1005.130
999.120
1005.865
1006.886
1003.066
998.160
996.639
990.999
992.392
990.291
993.593
985.425
988.675
987.180
985.686
971.628
981.546
968.205
980.189
972.650
964.744
963.495
965.433
970.766
960.322
966.374
964.232
960.116
954.029
945.899
954.577
945.749
945.871
941.316
944.961
944.930
944.820
934.674
942.388
930.815
937.185
925.454
921.071
918.941
926.282
915.856
928.377
914.320
912.366
918.957
918.143
917.859
908.931
910.918
899.428
903.282
904.115
906.754
891.675
904.781
901.523
900.018
888.766
885.056
891.312
884.808
886.521
878.256
883.693
876.084
873.526
877.834
875.656
866.574
875.272
871.382
868.846
868.732
859.178
858.253
852.630
851.579
856.029
849.178
854.792
842.124
842.731
845.344
842.076
834.716
845.370
840.458
831.092
841.715
826.680
834.352
825.764
827.320
824.101
825.583
825.765
822.870
809.271
822.581
820.111
809.190
815.022
808.720
805.709
799.747
794.540
805.407
805.073
790.981
802.133
796.788
788.727
788.528
786.228
791.121
783.989
777.635
776.758
772.442
768.923
768.755
766.783
766.437
776.126
761.569
758.071
767.929
765.407
753.715
757.959
748.178
747.908
746.564
749.611
755.499
738.556
742.377
739.576
741.849
744.057
742.052
740.685
740.936
753.496
744.839
749.990
753.230
754.604
755.658
746.772
748.493
748.630
753.693
755.743
757.610
750.172
763.880
756.286
754.641
757.290
758.934
761.158
756.571
765.580
771.117
766.861
770.897
765.434
774.025
762.114
765.150
775.375
772.162
780.627
777.275
777.176
772.725
775.390
776.032
779.118
775.692
777.446
777.602
789.155
779.271
780.231
786.955
790.363
784.579
792.648
782.251
798.160
787.011
794.082
798.150
796.093
799.615
798.345
803.886
792.311
802.392
792.611
807.073
800.597
800.865
797.152
796.149
799.465
812.933
810.114
800.432
809.331
815.479
811.863
805.860
809.848
813.229
817.008
807.994
815.314
814.273
825.993
815.305
825.703
813.623
817.398
817.052
820.540
824.985
831.356
823.330
831.819
832.504
827.441
830.298
823.274
829.591
832.135
835.087
827.263
841.952
837.120
830.910
831.618
834.369
846.686
844.224
844.399
836.500
851.805
837.921
838.547
853.108
841.912
853.032
854.743
843.480
859.212
852.158
857.741
847.847
861.870
861.307
863.969
851.662
860.191
865.164
866.352
858.348
868.840
865.220
868.043
858.246
872.686
862.111
872.913
876.577
867.253
863.869
874.287
867.700
877.563
871.069
875.552
877.560
874.838
872.187
874.378
887.594
883.484
885.143
876.845
878.325
885.887
884.723
894.193
888.040
890.024
884.828
885.347
892.198
886.205
888.744
897.368
894.771
901.920
902.832
897.339
894.682
906.553
903.952
898.815
908.210
898.087
900.453
898.288
899.354
913.111
905.465
904.487
913.521
918.278
913.203
919.609
909.463
910.066
919.631
921.125
909.982
913.587
924.291
925.854
928.150
924.411
918.821
927.042
917.166
930.309
922.893
925.634
930.101
932.852
931.218
928.682
928.592
922.778
919.301
926.882
918.400
924.840
931.744
921.482
926.589
931.070
921.261
928.188
932.341
918.265
932.349
925.585
921.964
918.516
930.280
922.198
917.764
930.188
933.043
928.619
931.510
931.003
927.223
932.510
918.028
922.423
929.341
931.915
930.498
931.745
928.897
928.701
922.291
929.381
932.032
930.446
920.308
922.536
927.563
931.430
920.748
918.286
925.703
930.234
921.463
923.835
923.060
931.803
924.737
919.007
922.790
924.861
923.340
931.986
922.886
929.348
925.015
927.183
925.419
927.265
926.224
929.170
931.039
923.544
917.468
930.805
927.552
930.747
920.586
923.742
925.453
926.641
915.973
925.784
931.009
920.126
930.934
928.159
929.323
927.091
923.997
923.102
927.900
923.241
925.556
930.304
923.063
922.770
921.032
916.984
922.352
928.170
927.164
925.480
925.556
923.281
917.520
924.754
920.601
927.903
919.129
914.663
918.262
929.658
914.389
925.823
916.667
924.048
922.622
924.741
922.032
928.406
915.697
914.229
927.071
924.536
920.077
925.835
925.364
919.547
915.438
926.974
925.084
924.454
915.051
917.112
923.838
915.912
917.779
922.655
914.491
919.833
924.393
924.669
916.674
913.144
921.415
916.539
921.982
915.311
925.331
922.844
920.292
920.394
923.139
924.737
921.368
925.079
918.829
923.119
918.005
919.808
925.151
921.579
915.045
922.326
927.221
921.915
921.141
917.737
925.925
918.893
926.165
912.387
921.310
921.882
916.902
925.317
926.528
923.959
913.054
920.039
911.583
922.329
918.976
921.287
916.052
921.173
922.050
913.134
920.900
922.865
914.880
913.518
914.774
913.555
924.285
917.704
911.597
912.168
919.639
925.011
919.628
910.139
915.270
904.497
911.641
900.982
908.306
913.705
905.561
900.662
905.793
896.636
891.152
899.338
900.507
889.868
897.929
891.682
898.025
896.541
890.773
882.039
876.643
880.816
883.935
876.666
881.579
883.921
869.468
867.376
867.262
867.927
868.580
875.978
869.183
869.498
864.070
861.242
862.877
857.828
865.586
849.552
861.078
857.748
844.928
849.584
855.262
850.226
842.365
852.437
844.084
844.048
842.735
832.194
834.109
833.481
836.870
831.718
826.741
824.989
833.304
829.615
821.336
825.077
821.057
817.743
825.083
824.420
814.733
814.689
811.760
807.997
814.881
818.338
803.579
800.569
801.486
800.242
805.856
804.233
807.083
796.840
791.374
793.031
801.656
787.705
790.961
794.762
797.329
785.756
783.016
792.163
789.794
781.374
772.954
786.601
778.538
780.582
773.451
770.143
771.780
776.013
768.304
761.113
765.328
769.256
766.782
763.386
761.867
754.249
763.911
758.994
750.795
745.782
745.718
755.971
751.852
754.416
741.917
744.093
749.021
747.855
738.054
737.831
745.112
735.639
742.504
735.536
730.859
731.476
727.574
733.117
730.076
726.819
725.206
729.461
726.316
720.944
712.831
708.576
717.600
713.934
717.567
717.392
703.947
709.639
701.750
711.505
700.850
703.991
694.823
691.434
693.731
701.564
694.516
693.458
685.398
690.352
687.286
679.672
691.901
683.824
683.759
682.685
676.142
680.464
672.870
670.452
668.947
668.697
665.927
672.531
672.045
670.546
666.604
666.850
663.724
657.700
665.592
666.175
658.678
662.948
660.821
654.133
649.215
647.037
646.388
651.123
646.084
651.762
641.633
648.265
646.933
643.388
635.773
633.833
628.996
638.266
634.448
638.061
630.207
625.811
627.566
630.755
633.649
636.941
635.566
637.697
630.612
636.419
641.654
639.441
637.964
639.498
637.813
638.970
641.189
647.947
647.625
651.095
652.656
640.201
643.197
654.998
654.696
652.823
646.994
654.092
652.265
658.733
651.779
656.116
656.476
658.157
656.976
650.801
659.560
661.528
651.686
660.525
656.884
662.761
666.227
656.738
656.561
667.993
660.690
667.019
664.181
673.459
666.994
671.228
667.925
672.940
669.131
678.485
675.981
671.155
678.296
670.037
674.883
678.382
671.813
683.515
671.730
678.910
671.855
680.860
681.041
688.995
680.896
677.155
682.448
684.527
680.731
685.082
683.628
685.885
688.282
686.021
691.623
688.458
693.325
697.124
692.525
699.438
688.255
692.298
687.383
702.306
698.550
696.032
705.295
691.529
697.972
696.950
705.842
697.088
700.623
700.408
695.309
700.270
704.743
711.191
708.247
712.650
707.321
710.695
716.419
712.800
713.454
703.469
712.647
716.111
716.298
707.439
721.183
722.972
715.540
720.580
721.514
718.015
726.257
722.565
713.947
713.544
723.425
729.279
726.945
726.988
725.042
727.321
717.809
728.463
730.794
724.358
736.291
732.969
722.061
734.354
733.478
730.480
731.355
726.045
740.619
728.859
730.386
732.683
737.859
732.848
735.456
737.410
734.151
744.804
742.842
742.345
738.819
737.650
749.807
743.107
751.795
743.069
748.094
754.763
750.988
753.562
753.425
752.191
752.268
751.099
755.398
751.800
753.159
747.712
752.990
760.635
763.240
760.363
756.187
764.223
765.488
761.466
761.167
758.468
758.208
758.139
761.577
761.750
761.739
760.538
769.002
764.041
774.999
764.886
762.715
764.267
777.585
772.469
770.988
768.740
761.978
760.306
766.398
767.726
757.840
754.738
762.725
752.504
756.176
759.888
750.225
757.798
760.086
744.523
757.375
754.177
750.327
753.017
738.748
737.047
734.298
745.944
733.435
729.901
732.838
739.509
737.731
738.385
728.233
722.458
721.566
727.818
717.249
715.582
721.661
728.103
721.801
714.078
708.074
710.389
720.616
717.526
704.891
707.787
707.050
711.703
708.190
699.675
700.674
704.110
698.353
691.421
694.835
701.697
693.446
698.918
688.594
693.224
682.837
682.165
691.921
688.644
686.978
679.862
681.291
684.802
684.076
674.586
670.795
664.400
669.272
670.587
662.890
662.546
666.580
671.566
661.730
667.802
662.471
650.235
662.339
651.776
660.936
660.584
645.294
646.820
655.874
649.033
643.547
650.687
635.783
639.245
634.589
631.699
631.614
628.220
633.899
640.508
634.155
636.767
636.094
630.594
632.167
622.882
629.323
617.096
619.111
622.675
609.661
621.313
612.292
620.265
605.782
618.061
606.791
606.892
606.108
596.807
602.539
608.110
595.526
600.386
590.968
592.963
596.237
587.194
587.361
590.246
583.988
587.057
590.648
583.606
576.165
576.001
576.775
577.958
575.207
572.136
580.983
565.893
570.779
571.516
565.101
574.532
563.268
563.463
561.253
561.294
563.738
558.617
558.640
562.866
555.135
548.522
549.569
550.821
542.294
546.800
541.499
538.211
542.450
543.350
536.991
541.808
535.646
536.301
537.915
538.060
525.175
524.910
528.744
523.110
525.502
524.566
530.909
530.523
517.482
515.855
524.137
516.562
522.257
507.800
506.765
508.540
509.472
511.389
512.401
499.706
509.972
503.555
504.998
505.548
492.377
490.761
500.009
496.022
492.374
492.893
492.049
496.069
492.585
479.659
489.792
475.616
484.214
479.330
482.535
475.254
475.419
465.142
460.709
467.551
464.170
464.583
452.345
451.055
457.986
460.677
448.859
454.404
450.008
451.617
442.146
444.970
440.811
440.961
442.773
441.792
431.063
430.497
430.805
426.355
429.670
424.122
419.579
422.748
422.363
413.133
412.327
405.257
402.300
412.418
408.424
398.536
407.243
400.033
395.230
402.457
398.885
396.101
396.694
387.678
382.869
379.092
387.191
374.385
371.057
384.117
378.719
375.927
371.869
364.721
373.311
371.844
363.395
355.558
363.761
365.020
353.193
352.885
357.963
357.391
341.032
338.914
349.340
341.632
340.845
342.182
330.646
330.893
334.605
326.071
328.476
318.211
327.055
325.854
328.224
317.372
318.598
310.991
312.087
306.350
305.586
304.934
302.024
298.170
301.864
303.095
289.566
302.696
300.896
285.381
295.822
280.392
291.092
276.386
279.523
280.688
274.767
280.352
273.811
270.321
275.173
