129.651
144.829
121.826
119.695
99.007
143.869
130.326
100.724
101.422
110.081
106.275
145.574
124.449
108.353
132.394
144.762
116.565
102.190
110.948
117.939
101.739
145.669
141.348
101.431
138.723
103.370
107.793
134.398
126.152
118.226
97.098
103.006
103.766
140.770
97.049
114.388
101.397
142.963
96.994
139.970
114.756
143.140
127.048
127.872
111.727
129.261
136.778
105.145
128.099
105.390
145.407
104.584
137.695
113.906
135.176
121.419
125.960
139.425
137.222
110.084
101.635
115.165
112.094
136.332
98.810
98.745
134.379
143.035
98.692
138.068
95.173
137.074
118.829
137.549
122.731
138.087
132.113
144.441
107.242
109.613
134.191
111.905
141.578
137.267
140.092
120.750
124.030
122.572
145.186
114.092
118.552
107.145
128.947
127.927
139.644
127.169
116.427
135.209
132.654
114.714
146.315
102.566
95.536
123.975
123.128
133.190
106.596
116.518
129.467
108.625
110.516
100.801
112.105
97.476
127.165
137.248
141.259
99.260
139.310
105.174
98.855
97.667
95.701
95.723
122.624
117.411
137.313
133.145
136.133
95.361
136.292
132.768
114.248
141.186
145.517
99.640
97.224
106.988
128.466
104.369
145.178
126.488
120.020
108.964
120.455
109.237
113.796
108.658
100.165
115.041
112.152
112.313
129.965
109.736
110.382
118.250
114.138
98.640
118.210
145.536
127.025
140.742
136.362
110.212
97.516
96.651
126.962
114.647
122.308
124.629
100.318
123.686
103.575
106.988
98.215
113.310
136.916
112.113
140.944
110.075
97.529
96.517
130.693
120.965
139.633
137.996
144.462
111.495
95.583
95.157
127.534
140.707
120.878
120.344
117.026
135.997
145.698
137.572
122.824
121.088
124.119
107.578
134.280
141.511
118.622
118.703
137.061
119.749
101.665
126.170
124.431
117.459
122.241
101.767
129.370
137.177
102.477
119.390
106.119
113.000
110.621
118.596
105.555
142.272
95.131
126.695
95.501
102.399
139.599
129.297
125.193
103.584
135.394
113.635
115.682
127.276
133.219
135.931
118.584
128.489
126.439
113.319
125.296
140.687
99.437
117.225
134.744
138.376
122.190
112.535
140.776
135.786
138.587
105.557
97.891
141.569
125.499
109.773
119.074
98.812
133.265
130.934
128.613
137.075
111.056
102.383
143.546
144.514
105.099
119.761
105.960
100.876
144.982
121.454
142.904
115.940
110.681
139.099
134.701
102.954
132.377
104.402
117.546
101.709
132.575
135.672
129.402
131.300
132.412
101.758
118.405
122.912
122.733
130.890
116.309
140.535
102.839
112.252
125.503
114.689
122.229
126.674
120.770
101.398
121.889
140.450
114.398
138.815
112.949
99.263
107.722
141.146
99.453
121.156
102.003
129.275
113.500
114.523
110.486
120.579
114.723
99.965
98.638
122.344
99.685
117.824
111.571
138.177
116.400
116.894
128.441
108.077
117.262
143.610
137.228
145.727
134.330
143.876
142.293
141.743
100.979
123.417
110.611
143.111
95.644
132.714
119.475
142.271
139.635
95.880
123.490
100.804
143.895
117.318
118.614
124.339
136.623
124.514
134.782
108.064
99.678
96.601
98.572
145.365
137.178
119.384
99.787
107.525
103.296
119.894
136.236
96.589
101.423
118.338
108.064
101.643
108.911
138.648
122.720
116.184
105.175
143.050
113.185
135.768
141.878
145.151
135.977
134.281
96.649
103.127
97.929
139.207
110.085
103.563
112.748
139.844
116.284
126.401
145.438
132.653
138.844
123.039
142.991
127.314
107.918
125.814
113.661
96.238
108.902
96.430
135.534
126.041
115.943
135.762
125.332
103.286
122.110
127.357
143.416
124.502
98.098
113.904
144.238
124.023
126.702
137.068
106.906
145.570
128.071
116.635
109.258
127.099
115.913
133.010
134.421
126.467
101.038
110.956
140.516
99.984
145.823
107.091
112.373
127.817
123.526
144.696
116.903
143.315
101.186
110.202
128.137
126.512
124.520
43.126
44.359
34.174
35.742
40.691
38.131
39.835
29.863
37.813
32.900
39.375
38.862
33.326
37.842
35.958
41.113
43.609
385.407
400.922
406.443
392.455
407.494
404.415
408.083
427.647
405.319
409.458
412.740
417.361
440.257
427.512
430.413
438.570
436.299
436.075
429.082
448.370
439.291
461.131
440.915
458.443
470.927
447.798
462.442
451.376
478.187
470.718
471.587
464.250
474.537
488.242
476.851
482.406
500.750
503.802
502.237
483.986
492.977
496.157
513.016
517.320
510.486
507.812
518.599
513.282
513.491
510.730
519.648
512.407
522.623
522.575
536.723
531.019
533.835
541.298
533.656
546.473
557.063
546.255
547.893
547.598
560.440
572.028
558.969
572.441
564.937
558.325
564.386
569.589
565.965
566.153
576.577
585.931
578.808
597.617
586.891
600.874
591.559
593.382
594.992
590.438
601.430
599.020
614.724
617.808
622.119
617.536
611.875
630.827
622.108
640.055
644.533
644.330
646.085
628.385
638.723
634.022
352.872
364.621
361.469
356.683
362.347
360.160
366.584
374.543
377.151
366.797
370.263
378.130
382.802
376.945
385.206
385.206
375.198
381.012
384.596
377.399
386.966
392.410
381.125
390.544
388.452
386.077
395.921
399.648
397.852
399.901
406.206
402.731
410.127
400.620
409.007
402.615
406.552
414.105
412.304
412.982
415.697
417.832
422.973
421.264
420.282
423.033
427.739
429.943
421.191
427.935
423.445
431.778
431.261
439.651
440.038
428.428
440.533
435.825
436.456
446.172
444.974
443.828
451.889
446.671
439.934
455.261
454.585
451.270
452.542
446.565
456.608
453.291
452.221
453.994
456.796
462.346
459.106
463.911
472.172
473.311
475.343
467.682
468.802
467.548
469.173
480.603
482.384
475.246
482.485
480.115
488.969
477.406
483.505
485.749
483.093
497.411
485.112
498.009
501.449
494.812
496.114
498.368
497.071
502.829
497.503
508.243
503.930
507.064
511.700
514.863
514.407
512.067
523.255
525.832
516.455
531.311
522.769
527.855
530.028
531.674
530.759
541.747
541.868
546.373
543.730
541.432
539.459
550.020
552.300
550.831
549.219
549.706
562.500
550.874
563.790
564.030
558.743
563.877
566.077
566.057
571.857
580.663
567.275
572.213
585.636
579.838
586.383
578.162
580.202
595.337
589.000
596.499
586.194
595.383
596.198
605.494
594.556
595.867
600.799
613.800
611.041
608.733
616.961
609.323
620.489
622.350
617.103
617.926
622.311
630.583
627.226
628.290
624.445
639.047
633.221
641.990
644.583
634.028
638.442
639.836
651.446
654.735
653.907
645.729
660.762
660.822
652.680
664.337
663.589
669.560
663.001
667.131
661.599
670.803
675.252
679.495
670.890
685.583
683.495
686.518
680.911
677.718
685.872
685.952
685.340
685.258
698.080
695.459
695.381
696.411
703.984
709.872
703.891
702.393
707.697
715.859
710.691
721.263
720.380
724.222
714.925
719.010
716.564
734.185
732.830
732.073
731.842
737.964
738.574
738.973
736.694
734.909
742.226
750.940
745.944
752.116
753.929
748.083
756.416
756.739
763.924
761.053
762.564
770.548
772.488
774.783
765.455
778.867
771.209
779.888
782.237
779.958
775.406
774.675
781.149
785.528
786.995
793.398
798.622
789.773
797.844
798.691
795.055
808.314
795.228
812.502
802.783
808.130
805.061
806.903
810.924
811.506
821.406
823.101
815.712
829.749
827.202
827.599
830.071
832.045
836.508
833.164
830.788
845.407
847.110
848.545
844.019
839.559
840.747
850.103
853.689
854.545
858.191
857.288
856.214
862.686
866.326
862.674
858.644
868.835
866.982
876.952
868.900
865.518
862.932
871.359
864.146
870.487
867.208
876.607
867.209
873.970
870.335
879.112
874.317
870.183
870.553
875.334
874.666
865.458
867.373
878.720
878.363
880.679
865.489
880.857
871.525
880.065
871.872
881.201
873.740
874.780
877.563
882.006
876.206
880.870
880.736
873.026
880.452
882.183
876.758
878.057
880.170
882.654
878.828
871.478
884.085
877.863
880.179
879.682
882.468
878.163
880.689
881.005
874.929
882.569
874.611
878.322
877.382
880.497
876.998
879.988
874.530
879.114
882.800
882.877
878.551
872.090
876.701
874.437
885.624
874.522
886.391
875.144
881.561
876.615
884.741
874.918
878.278
885.777
884.672
884.095
873.757
879.311
876.717
882.223
880.270
880.279
876.484
887.928
875.542
883.749
877.192
882.697
877.215
887.936
881.648
888.788
881.948
887.241
886.022
888.566
885.266
878.649
881.676
884.555
881.382
885.533
888.557
884.013
881.636
889.580
893.286
892.651
887.739
878.968
883.076
884.935
880.586
879.560
881.664
891.234
889.386
889.763
893.206
891.391
894.092
887.356
895.062
887.649
888.523
894.415
880.364
887.369
896.157
884.196
881.458
885.486
889.124
896.762
887.581
894.264
882.938
896.405
890.625
886.224
889.445
896.515
884.796
894.096
897.291
885.996
887.183
884.419
895.734
883.852
892.990
896.161
887.950
889.019
891.078
894.685
895.614
888.628
893.965
885.166
897.899
894.939
900.801
895.717
889.736
900.787
897.162
886.377
900.665
896.121
901.208
894.747
900.954
898.698
899.927
901.057
897.975
890.155
899.551
897.405
891.024
895.170
896.723
899.302
902.755
902.661
895.459
902.704
894.998
894.274
895.170
892.512
895.884
892.944
900.764
892.645
899.294
895.076
888.189
885.750
890.755
894.152
885.009
888.018
884.338
876.757
889.797
882.516
886.435
878.317
881.932
883.993
881.908
865.864
878.851
873.091
864.110
860.622
875.226
860.802
865.018
867.363
859.267
868.022
862.942
862.599
852.071
852.549
853.454
848.890
858.099
845.020
856.779
851.758
839.623
850.854
840.175
849.929
839.918
842.275
843.719
835.020
842.378
838.026
835.464
839.758
834.159
823.528
822.763
832.523
829.185
826.896
830.268
825.658
828.113
821.727
820.986
822.647
814.592
810.114
808.176
819.601
817.836
805.733
811.699
805.888
805.079
812.957
799.536
796.225
799.438
800.991
798.223
792.316
793.154
794.484
802.411
800.258
788.486
783.164
790.393
796.277
789.395
779.638
781.229
789.351
789.208
778.725
778.059
771.286
774.628
773.828
771.640
776.467
765.239
772.829
768.304
767.338
761.967
758.826
772.563
757.744
760.530
763.200
761.367
758.840
763.136
758.680
757.922
746.734
751.071
751.544
751.827
745.271
752.943
738.131
749.390
747.441
736.962
737.063
738.212
736.134
730.152
734.884
734.192
738.631
735.048
738.188
727.251
729.260
722.726
718.942
717.408
725.427
722.182
728.121
724.950
717.247
714.188
721.648
717.049
718.176
706.515
717.549
711.943
701.843
703.857
699.305
699.620
696.837
696.628
696.974
694.888
705.281
693.340
692.917
701.812
698.505
694.166
691.271
691.403
683.296
684.059
682.361
676.982
680.504
676.126
677.972
679.121
673.119
669.190
673.461
674.567
666.124
672.490
677.647
670.962
669.672
665.937
663.863
658.099
664.584
667.757
658.808
656.417
651.500
652.189
663.854
656.704
656.521
656.329
649.086
656.137
654.510
643.880
649.490
651.018
656.039
648.757
657.819
664.588
658.026
658.961
663.145
663.009
661.053
669.855
673.150
675.426
678.984
666.312
675.553
670.417
676.964
679.571
685.955
685.528
679.990
683.198
687.353
695.447
690.710
689.763
694.374
692.545
694.480
696.998
706.742
696.862
704.867
699.754
710.340
709.994
702.073
711.077
707.098
713.712
714.821
711.841
712.300
717.588
724.364
717.499
721.357
732.103
723.141
730.916
726.626
735.717
741.612
739.906
739.029
741.260
744.430
738.228
746.402
752.591
751.725
746.255
756.482
756.026
762.500
750.857
759.354
759.257
753.545
759.319
771.783
770.517
760.254
770.918
771.378
771.491
781.195
775.381
783.221
782.581
786.366
775.655
777.985
781.537
790.239
795.607
785.534
784.236
796.205
797.863
804.215
803.440
795.067
796.437
804.252
812.093
804.446
805.777
801.280
812.085
813.403
808.915
817.963
813.234
823.484
823.424
827.381
825.244
827.356
827.630
824.518
837.640
835.353
825.534
827.252
835.658
842.762
835.792
835.383
836.211
850.914
839.421
845.124
844.304
850.540
848.046
859.244
852.661
855.523
852.481
852.852
856.394
864.747
872.217
859.077
862.921
864.247
868.091
876.883
879.999
879.844
883.301
881.373
888.380
889.928
879.138
884.446
886.563
894.786
894.710
887.486
893.831
899.819
902.567
893.402
904.017
902.149
907.253
909.711
912.765
916.018
916.979
907.109
910.082
912.637
914.915
911.328
924.654
915.695
922.653
919.389
922.154
930.232
923.711
935.488
939.321
940.247
931.716
931.312
930.979
933.421
938.278
939.552
949.923
949.606
950.181
948.418
949.365
953.392
948.753
961.889
953.797
952.870
953.580
964.519
968.474
971.664
962.916
958.955
959.121
957.038
968.668
960.901
966.259
968.607
959.011
961.340
954.698
950.790
958.510
949.576
951.628
953.749
945.728
950.009
957.909
953.478
953.975
942.994
944.861
938.333
946.083
945.835
945.866
938.977
939.594
936.173
931.325
935.691
936.301
932.826
929.349
930.982
925.519
937.086
934.094
926.060
926.762
934.971
929.220
920.398
930.090
917.358
926.534
928.460
926.015
927.208
915.071
917.075
918.006
919.444
920.373
914.989
906.841
919.061
915.848
916.802
915.319
901.864
899.062
905.553
904.423
898.273
904.852
901.250
903.183
906.696
898.353
902.624
892.648
899.339
899.570
888.134
889.892
887.852
885.573
896.144
884.374
885.711
888.134
886.957
880.229
887.049
880.263
881.212
874.201
887.208
878.630
877.528
873.712
873.652
878.990
876.790
874.265
869.511
867.523
866.940
875.254
872.524
871.822
858.681
859.406
870.445
863.652
857.203
856.973
866.240
852.842
857.873
863.307
849.290
858.849
847.981
850.511
853.553
844.897
857.478
850.593
850.093
839.605
848.875
844.305
847.308
850.023
845.242
848.797
835.530
833.819
834.923
839.483
840.301
840.046
835.647
834.582
840.425
830.747
823.582
826.625
827.707
825.784
832.993
821.980
821.418
823.416
826.347
813.871
818.503
824.370
816.430
810.365
809.258
816.449
809.414
817.334
818.324
811.432
818.667
803.839
812.780
808.728
814.301
812.655
801.131
796.286
809.494
806.032
803.675
796.899
802.151
801.466
803.066
800.599
792.593
787.136
788.658
784.955
794.656
791.569
782.081
789.794
786.586
782.849
782.129
789.743
788.070
789.919
779.755
786.380
773.515
782.345
781.618
777.401
767.282
780.875
772.203
771.467
773.519
766.151
762.976
764.277
770.609
767.978
761.997
759.552
769.911
762.267
768.617
764.621
765.066
758.404
767.063
759.935
758.471
767.581
755.275
761.758
769.054
756.651
760.848
758.811
764.276
755.995
753.331
763.350
761.478
762.041
756.440
755.159
761.221
747.615
758.106
754.645
753.429
746.747
751.592
760.018
748.305
747.695
752.111
746.737
748.583
742.828
750.805
747.049
740.930
748.004
743.686
749.254
752.669
739.839
739.069
747.065
740.491
746.345
749.511
738.389
744.774
734.762
745.887
734.012
742.618
741.127
737.608
739.437
734.410
739.487
741.699
739.247
731.907
742.114
728.426
730.045
739.573
727.240
737.778
735.313
728.717
725.486
732.749
737.983
734.634
735.282
735.507
723.054
734.579
732.661
729.689
730.325
730.875
724.617
729.663
726.735
720.531
720.415
719.828
726.641
716.561
719.200
726.332
716.702
715.443
721.569
727.181
722.128
723.629
712.289
724.612
717.194
712.008
716.324
718.585
710.797
716.321
714.824
715.410
708.514
714.256
714.861
714.487
710.897
713.584
717.979
709.987
718.683
707.260
712.054
707.225
707.871
709.319
704.446
703.297
705.677
708.900
703.855
710.913
707.996
711.270
705.311
702.357
709.750
700.233
704.049
704.022
709.467
702.354
692.873
701.144
700.209
693.739
705.833
695.782
695.259
702.298
699.726
689.134
688.731
702.410
696.785
701.450
695.123
687.859
688.000
686.946
694.284
693.186
692.868
694.336
686.388
696.070
683.886
694.560
680.814
682.690
691.356
689.822
689.490
693.925
691.572
692.201
692.443
682.242
683.958
679.992
680.952
681.485
674.339
679.303
681.651
677.281
675.073
677.545
678.095
681.600
681.142
676.522
672.750
677.563
675.390
676.418
666.136
673.468
670.610
672.412
673.432
660.016
658.932
658.027
671.835
666.927
657.885
659.296
659.056
652.443
652.390
661.704
647.458
654.375
648.062
644.526
644.455
641.127
640.397
644.021
646.374
643.271
636.949
639.169
634.527
645.772
644.749
630.771
639.217
637.987
638.234
635.236
624.822
625.700
629.108
622.165
622.853
622.612
625.426
628.671
623.976
621.574
621.516
617.801
609.222
613.561
620.575
618.339
614.627
614.066
603.357
601.467
610.246
602.905
607.694
604.826
599.666
594.849
599.962
604.938
599.907
601.983
590.351
594.069
597.567
584.265
586.843
591.967
588.227
583.755
581.610
586.823
586.889
574.957
581.006
572.211
571.600
582.649
577.620
579.119
569.648
572.816
569.229
573.259
569.626
557.362
563.357
567.427
567.163
568.045
556.758
563.217
561.138
556.766
554.863
558.333
550.729
558.021
551.010
544.580
550.208
543.559
537.130
547.662
549.501
541.347
546.092
537.558
536.644
529.041
531.148
537.485
533.765
530.133
537.160
523.083
530.620
531.844
524.232
531.536
523.957
529.150
517.492
514.441
