129.831
99.167
91.714
114.602
95.285
114.262
101.300
84.086
96.213
108.916
124.133
101.902
126.601
90.080
113.914
96.249
126.049
86.522
124.972
123.498
86.719
129.504
117.762
113.179
100.154
115.383
103.073
117.044
99.823
99.961
107.224
116.002
106.475
95.320
115.063
121.512
115.252
87.292
120.258
121.946
86.992
86.722
127.026
92.832
83.908
121.262
127.898
122.094
107.714
125.189
85.422
121.132
124.156
104.604
108.771
118.394
99.658
125.988
106.359
91.526
110.768
93.509
86.836
84.359
121.051
118.293
97.982
124.455
108.981
106.226
112.727
127.155
109.576
111.368
112.157
92.900
103.406
123.449
86.310
96.269
120.352
96.023
117.521
99.596
95.427
103.566
97.283
104.178
116.565
85.892
124.430
120.252
100.211
101.230
108.224
101.029
126.338
122.461
109.945
86.896
101.907
94.142
95.262
114.979
102.460
94.661
105.524
116.211
102.911
85.508
100.872
113.518
97.199
95.471
99.190
92.171
100.109
89.848
105.229
101.863
122.929
96.631
106.797
104.647
90.015
100.367
527.428
535.398
540.957
556.629
557.049
549.827
567.656
573.884
565.435
583.483
589.602
587.312
575.683
594.196
590.871
595.823
600.490
617.051
602.052
606.756
604.576
617.387
624.946
614.866
638.515
624.764
649.704
629.410
633.722
646.309
643.341
661.563
653.631
672.634
659.263
658.847
667.741
683.114
681.014
679.613
687.833
705.069
691.985
692.950
704.700
699.196
716.446
717.682
720.588
728.166
720.478
742.852
732.675
754.413
751.167
739.885
751.288
752.995
765.138
759.760
755.520
766.972
763.523
778.811
774.352
777.089
786.552
782.924
785.072
808.115
803.866
819.687
817.047
820.054
833.858
813.715
835.135
844.282
846.789
840.194
834.018
835.643
858.776
853.654
858.925
855.677
879.447
866.292
869.977
879.736
894.466
876.883
887.506
889.380
889.519
894.910
894.902
912.732
900.262
911.752
508.835
505.553
522.696
514.826
521.645
514.640
525.026
530.537
532.385
534.992
534.299
539.862
531.272
535.556
543.410
545.750
546.313
546.250
551.005
543.587
547.885
553.015
561.496
566.848
559.212
560.115
569.833
565.068
572.244
571.164
577.303
573.140
582.489
574.024
579.697
590.933
582.637
592.094
593.774
597.213
592.492
593.274
598.007
596.429
600.981
610.210
607.499
609.301
606.860
620.546
615.862
625.914
624.085
618.974
618.663
632.746
627.259
626.077
626.400
637.186
639.016
637.980
639.100
646.776
649.082
653.107
649.035
656.886
649.013
654.036
661.904
668.992
669.418
658.540
669.197
671.113
665.817
675.377
678.184
671.787
674.353
678.541
681.402
686.185
689.635
696.598
701.174
688.693
693.153
694.861
699.535
708.245
710.569
711.528
709.491
706.416
716.171
711.851
712.344
727.286
716.142
720.244
720.092
724.725
730.135
717.418
726.041
717.380
720.593
717.932
724.192
729.852
715.337
725.351
720.003
718.966
727.549
725.487
717.323
713.650
717.407
716.377
720.198
713.846
714.232
716.749
712.620
722.940
720.788
720.936
720.843
718.295
727.586
723.778
712.460
720.760
717.376
722.392
719.743
717.925
711.576
717.561
716.613
722.377
719.868
713.442
718.721
724.847
719.280
717.276
721.536
713.167
710.353
719.389
719.045
722.843
720.238
715.896
709.821
724.918
722.316
717.535
719.718
708.609
713.191
724.332
711.673
711.265
721.173
721.741
716.865
717.390
716.554
711.477
709.074
709.281
710.848
719.310
715.922
720.710
706.853
708.856
706.746
715.140
713.188
712.466
718.336
707.680
711.876
721.271
707.999
708.938
705.805
713.370
713.228
707.351
705.640
706.612
715.862
719.279
716.931
719.693
719.200
704.733
712.039
713.196
709.421
709.471
710.491
707.458
711.005
707.929
705.501
711.674
710.249
709.208
708.384
705.833
703.743
707.453
714.198
703.972
706.037
709.938
717.746
714.732
712.308
713.116
705.386
713.598
714.597
706.549
701.166
712.960
705.177
708.254
703.023
701.820
708.106
713.849
711.648
705.385
702.765
706.006
707.176
714.087
705.890
708.550
706.545
703.152
704.215
699.977
712.979
713.760
707.045
703.675
705.138
713.824
700.011
709.953
699.880
701.000
704.171
713.595
705.204
701.409
700.216
713.142
697.551
712.791
699.063
709.985
706.412
699.635
699.125
705.756
704.340
709.883
699.163
698.798
703.085
703.872
699.725
710.491
701.994
704.476
698.959
698.920
701.762
703.308
705.395
703.555
709.799
704.645
695.244
701.853
696.853
709.777
697.575
705.872
694.907
697.105
698.082
704.670
703.217
695.821
698.492
703.531
696.796
703.334
707.286
695.605
696.434
694.984
698.981
705.872
697.162
699.907
695.660
693.675
693.064
692.973
702.735
699.155
703.363
703.402
698.003
706.529
695.190
700.993
697.874
699.115
691.988
706.141
693.935
696.587
701.215
690.569
697.377
702.172
699.091
693.070
701.299
697.475
700.970
692.796
703.797
693.800
694.015
704.671
694.759
693.865
693.794
689.556
700.216
699.591
700.333
693.286
697.114
699.729
697.408
700.188
702.165
690.247
697.081
689.530
692.903
703.124
701.053
696.462
696.156
697.628
698.389
699.066
690.454
695.970
688.034
688.318
698.345
694.490
696.956
694.502
687.270
700.270
690.961
699.278
687.311
691.015
691.616
697.028
700.910
699.998
685.870
687.681
696.283
700.481
696.052
695.851
697.448
688.186
691.829
684.546
695.914
696.645
689.616
683.713
685.964
698.704
688.886
688.243
695.280
686.874
686.516
694.713
690.637
691.573
694.863
689.950
688.471
697.937
682.910
687.400
686.761
692.118
686.572
694.191
692.588
682.502
695.637
686.470
689.959
681.160
694.116
687.742
686.539
685.920
681.105
690.764
687.458
687.744
695.925
692.628
692.031
694.186
689.204
687.414
688.311
688.192
688.364
684.260
686.628
685.722
689.523
682.734
685.630
689.290
692.263
686.015
686.424
688.551
687.373
688.207
685.178
693.434
687.832
681.165
688.184
690.417
682.700
678.488
691.741
681.029
681.718
682.805
687.004
683.288
692.001
691.176
682.252
689.547
683.612
682.965
681.889
688.252
676.639
689.090
678.490
679.020
679.424
682.202
676.537
689.369
690.639
675.046
685.092
685.401
681.836
675.558
675.702
679.210
675.283
680.798
677.017
677.097
679.290
685.111
686.131
689.476
682.790
688.043
694.228
687.625
688.082
688.804
698.701
703.041
702.050
695.282
699.906
705.619
693.886
701.707
702.258
696.983
701.618
700.722
697.914
713.347
700.329
708.521
704.869
711.909
703.702
715.091
716.966
709.864
709.265
721.881
721.475
718.863
711.983
711.571
721.734
713.335
724.778
725.101
723.668
720.372
729.415
724.382
728.406
729.727
733.101
728.713
723.720
727.259
736.480
737.872
737.296
735.684
731.618
740.723
739.950
745.623
732.183
740.164
735.507
736.014
736.520
742.581
749.459
740.800
738.928
744.517
752.410
745.047
749.648
752.356
755.825
752.533
760.082
754.980
748.745
761.588
749.754
754.894
750.918
763.000
756.080
764.783
759.756
759.337
763.928
771.573
762.109
772.196
760.075
760.962
774.995
774.609
763.845
774.884
778.822
768.466
775.399
770.235
774.932
781.802
780.631
785.080
779.467
773.293
779.589
776.786
789.601
782.208
781.844
778.492
779.466
786.392
789.106
795.449
785.436
794.358
792.495
800.697
791.560
791.293
789.704
803.379
798.636
797.293
798.535
804.180
799.964
801.286
810.701
808.948
800.601
803.068
801.560
802.114
801.673
812.689
807.887
805.234
808.016
805.627
816.485
811.559
816.407
808.881
821.395
822.138
822.461
817.567
816.040
814.546
826.445
823.676
827.484
826.177
831.307
823.421
827.361
827.929
830.448
826.874
835.945
830.047
828.903
838.925
833.091
832.361
838.855
844.725
845.508
844.378
837.742
840.335
843.697
849.430
844.223
845.123
852.878
845.845
853.804
846.916
846.035
845.638
859.024
846.285
845.417
858.658
860.681
860.868
848.799
852.515
863.919
865.889
865.312
858.330
858.555
861.246
853.673
851.196
857.622
861.118
852.636
852.485
863.778
849.439
850.033
855.525
848.180
859.229
854.416
856.569
848.615
858.586
855.351
854.753
853.838
854.885
849.171
848.124
850.230
855.528
847.360
845.950
854.618
846.094
856.392
842.228
844.158
852.914
845.949
845.134
849.542
853.402
842.137
841.458
843.604
845.882
852.444
840.208
846.565
850.901
848.572
846.625
850.784
846.224
840.171
848.353
843.885
847.254
841.859
836.391
841.465
835.871
846.101
840.899
846.721
839.431
842.195
845.821
844.259
835.486
845.005
844.276
844.741
835.354
831.990
837.384
844.835
829.893
844.116
830.280
832.450
830.236
831.160
840.285
827.331
833.141
836.116
830.812
832.937
836.372
831.039
839.339
834.306
827.418
832.737
838.418
829.746
831.425
826.988
829.300
826.492
824.251
832.261
833.102
828.889
831.196
834.786
821.343
823.084
826.172
833.559
827.309
823.682
829.212
820.896
817.998
820.612
824.928
824.103
822.837
827.710
825.619
819.644
826.352
819.566
822.832
820.544
813.121
814.989
824.877
816.755
814.788
812.126
826.318
824.473
818.085
820.173
811.929
813.870
820.353
822.672
820.406
820.235
817.990
816.453
809.632
822.558
813.446
812.587
818.736
809.297
819.393
811.045
806.393
807.369
812.783
815.613
809.799
806.252
807.816
810.748
808.817
804.047
811.365
813.529
812.043
802.781
811.718
811.854
815.048
812.939
809.820
812.728
808.163
812.102
804.285
808.238
810.621
807.905
808.303
796.594
800.366
810.231
808.433
799.239
797.999
801.308
808.782
805.303
807.602
796.547
801.124
803.008
793.398
802.181
799.893
796.157
796.748
804.554
802.836
803.608
802.808
805.071
799.410
791.572
792.994
803.089
798.504
796.128
792.350
786.765
787.643
789.432
791.251
790.923
783.937
794.805
786.318
781.797
784.182
785.137
784.981
784.528
790.997
780.685
779.411
787.019
784.045
775.822
779.841
788.754
786.333
786.575
787.452
786.138
778.485
776.877
772.158
783.341
774.850
769.118
772.578
776.092
774.378
770.023
772.301
769.208
774.982
778.495
773.159
763.557
764.876
767.882
767.566
762.384
768.839
772.225
769.359
774.463
759.387
757.945
772.359
766.695
764.960
760.040
762.886
756.381
761.646
761.579
765.456
753.055
756.980
762.161
761.109
760.471
757.173
760.605
760.451
751.922
762.875
762.270
757.645
761.603
748.031
748.527
757.672
743.921
750.462
743.173
742.897
749.142
743.422
748.347
748.042
749.627
753.832
749.223
753.375
749.297
739.585
747.891
738.579
741.406
737.759
737.689
746.812
739.427
739.361
740.499
746.956
735.211
744.636
742.300
735.825
735.606
741.535
734.849
730.309
737.204
733.052
736.492
730.486
733.854
738.137
731.444
722.431
736.684
733.612
733.267
728.329
731.445
734.066
724.779
731.863
729.615
727.972
723.220
721.021
718.364
719.212
726.004
726.728
721.764
716.508
715.227
713.574
725.873
717.043
724.088
721.815
717.018
722.924
718.314
709.709
713.503
718.099
713.368
710.977
712.198
708.058
705.428
707.648
706.817
706.354
710.540
714.241
712.542
700.850
709.491
703.979
699.578
705.825
698.597
711.381
708.021
706.164
707.102
698.280
696.657
706.392
703.657
701.865
701.428
694.544
698.314
697.221
701.461
696.843
702.065
692.007
688.500
696.439
693.252
699.424
685.526
687.314
692.915
694.448
687.939
693.705
694.476
685.201
693.109
694.398
687.179
697.664
689.261
692.019
698.345
699.959
691.609
694.939
702.630
696.585
692.859
695.216
695.356
706.156
709.536
705.037
708.214
699.031
710.173
712.409
701.442
713.705
711.582
717.043
717.904
713.376
709.867
712.934
706.004
706.631
708.917
723.894
715.749
717.039
726.064
725.228
721.549
716.572
719.881
723.329
723.801
731.873
722.161
721.275
729.449
721.304
732.810
724.302
728.135
728.790
726.688
725.909
727.159
739.910
730.309
744.490
736.602
734.612
733.881
745.757
738.234
736.200
737.360
750.383
740.432
748.271
744.808
749.124
746.616
748.812
750.983
749.337
757.938
745.496
755.070
753.471
751.130
761.684
752.056
763.562
759.532
751.953
761.078
756.853
769.190
756.370
757.563
762.261
769.434
771.354
760.653
766.871
773.189
762.257
777.480
772.782
767.239
774.005
776.377
779.550
775.202
780.730
778.142
784.381
783.346
777.155
780.882
774.186
785.279
775.425
780.020
788.161
781.870
785.775
779.838
780.172
793.282
789.428
784.331
796.204
795.966
799.854
792.377
796.900
787.570
801.445
792.629
792.477
804.184
803.899
794.290
802.044
806.625
799.666
805.110
801.766
801.312
812.257
802.280
810.050
814.750
803.303
812.885
811.543
807.403
808.970
816.100
816.349
808.162
818.820
822.501
812.848
825.978
814.583
816.604
815.044
821.988
818.168
816.517
824.900
828.883
819.604
827.235
826.869
823.200
824.164
837.577
826.565
825.628
827.987
833.703
839.016
835.262
833.604
835.087
844.819
841.624
841.512
835.282
849.806
849.098
846.595
851.480
851.396
841.247
839.759
845.497
849.063
850.090
852.299
855.971
849.325
847.840
856.352
852.742
858.378
848.633
861.160
859.607
850.694
861.675
857.292
860.294
858.077
848.048
843.915
840.638
845.934
846.321
837.123
835.810
842.362
843.591
840.132
833.692
829.526
833.013
830.618
822.197
823.127
820.309
820.192
827.970
814.492
815.836
812.601
813.285
823.646
814.962
811.968
805.410
806.829
814.514
803.850
805.940
806.475
802.350
803.252
796.069
805.328
803.076
794.250
801.909
795.405
798.437
793.420
782.831
794.176
793.671
782.716
787.627
784.552
786.053
784.674
777.906
773.701
768.391
775.027
766.378
776.323
763.364
768.185
761.752
762.226
765.226
755.899
764.304
758.950
755.481
761.800
755.637
746.842
745.422
750.460
742.427
754.540
747.018
749.890
751.131
734.663
737.282
734.645
735.974
735.830
728.890
729.454
726.265
731.880
723.017
730.628
730.885
720.300
721.075
723.566
718.196
715.161
711.493
708.372
707.389
707.292
710.043
708.813
716.726
710.710
701.068
707.517
709.248
694.106
698.902
705.412
703.553
694.859
693.778
691.956
698.809
688.584
685.026
691.017
682.981
691.803
681.035
679.045
673.039
685.839
681.546
672.729
675.242
666.177
675.060
675.776
666.340
661.353
661.135
666.432
667.259
663.923
655.111
662.169
650.336
648.063
652.807
648.267
648.591
647.462
654.696
645.585
646.301
650.679
649.071
647.265
643.049
643.625
644.647
641.569
641.085
636.349
626.593
633.828
631.489
620.060
618.612
625.264
619.313
618.542
612.263
619.567
616.753
617.298
611.786
617.240
615.417
611.405
612.179
602.277
599.712
602.151
595.005
600.548
598.500
593.975
596.059
602.833
599.092
591.231
591.035
589.603
580.736
587.592
581.034
577.050
574.397
572.987
580.051
585.607
569.473
579.675
572.822
573.909
578.306
575.318
573.365
567.627
568.443
565.942
567.268
576.919
569.664
565.215
569.475
574.761
571.813
577.036
579.164
575.677
578.431
574.638
576.623
568.364
572.192
580.933
566.599
567.740
571.448
566.607
581.923
579.886
581.088
576.987
567.096
569.177
571.342
579.848
578.121
573.941
572.823
574.953
573.286
577.632
579.972
574.125
572.135
572.914
581.622
584.356
575.695
579.675
574.172
578.021
572.445
572.268
574.695
583.420
575.387
573.170
580.358
577.090
585.515
575.040
575.190
574.347
582.723
570.929
580.395
579.864
574.639
572.993
583.923
584.811
585.662
571.994
577.509
583.198
581.421
580.938
586.030
583.450
582.502
581.043
581.340
587.563
584.057
583.972
581.925
577.348
588.779
581.735
576.590
578.476
586.372
584.831
587.790
576.561
585.720
589.860
575.811
581.695
589.718
586.548
589.537
581.215
589.968
585.225
576.153
581.777
577.240
579.925
586.938
591.832
588.399
580.837
577.184
587.241
586.353
593.128
586.425
591.293
584.081
580.434
585.148
591.093
579.826
590.164
585.205
591.215
587.095
582.328
588.158
583.508
590.521
581.873
581.031
586.301
588.359
581.829
589.655
588.892
592.324
592.336
594.615
592.986
593.359
584.065
595.724
593.186
583.471
592.472
584.353
585.068
591.966
597.984
593.601
597.119
584.867
584.918
596.727
594.412
593.884
584.624
594.827
587.863
587.353
588.326
585.527
597.904
597.509
588.866
591.890
593.214
599.430
595.003
600.519
596.220
590.917
595.574
599.038
600.883
594.265
597.471
588.278
589.994
590.631
589.254
590.191
586.404
588.353
597.752
600.683
601.441
589.072
592.530
596.326
599.013
593.915
594.598
595.242
600.747
597.766
598.649
599.850
599.379
589.294
594.290
582.958
581.122
583.752
581.480
572.384
576.288
582.047
572.035
574.743
562.064
560.971
566.359
555.642
561.508
557.654
555.320
546.464
556.883
544.657
541.340
546.344
546.831
549.166
540.039
538.618
532.280
525.661
531.398
533.297
519.013
528.190
522.669
525.882
522.083
509.628
508.298
519.626
515.869
510.341
498.767
501.586
506.371
505.711
502.483
500.635
499.381
487.058
488.042
487.590
489.426
485.355
484.522
481.125
477.693
479.619
476.451
473.695
475.797
463.764
461.282
460.133
457.779
457.527
463.109
446.796
458.115
448.054
453.419
450.924
438.335
