135.439
99.978
127.403
139.066
128.482
136.457
133.362
112.212
116.369
109.300
127.288
130.380
129.244
108.537
126.834
100.049
109.316
130.109
137.276
97.372
127.564
105.426
129.016
127.923
120.583
111.099
139.086
127.336
136.807
104.006
125.418
95.323
137.462
107.491
101.043
128.499
145.945
105.727
107.034
146.515
113.430
127.892
128.731
137.674
106.559
114.850
120.219
101.043
124.357
135.491
137.638
120.464
99.149
124.473
143.666
133.302
96.215
132.457
101.716
128.191
112.242
125.871
125.210
129.522
110.100
111.785
118.126
116.360
101.049
117.613
96.356
116.901
105.891
112.259
100.684
113.103
135.997
126.746
132.384
122.727
113.853
109.909
108.768
118.885
146.247
137.990
129.404
134.918
132.398
121.633
146.155
103.249
132.080
114.597
111.025
118.447
122.544
120.827
108.322
119.546
140.776
109.108
117.988
144.232
110.990
102.460
143.409
144.444
128.252
118.859
119.592
139.345
104.225
141.097
125.382
101.144
100.536
129.611
145.878
138.931
121.283
111.784
146.439
133.755
109.019
104.520
132.834
95.791
143.627
135.219
146.755
141.863
108.986
119.562
146.133
132.721
113.116
120.404
113.821
145.836
134.656
141.546
125.451
110.521
96.322
128.515
118.844
136.613
139.028
141.723
140.473
117.767
101.064
139.582
137.381
110.126
106.607
144.669
124.558
105.840
126.283
109.759
144.045
103.433
100.502
145.019
106.548
99.585
134.256
131.568
117.314
102.352
100.987
138.510
123.166
122.485
99.335
115.772
134.641
103.461
135.144
136.136
95.983
100.840
116.513
130.340
104.397
97.942
133.166
133.633
101.443
116.676
145.571
94.855
133.827
108.859
118.480
134.000
116.935
133.621
143.592
114.830
142.705
144.736
143.432
144.655
115.744
113.295
143.756
141.970
95.225
133.955
115.320
115.798
109.976
146.692
104.980
121.681
115.119
94.944
115.037
143.852
144.710
141.383
123.646
104.295
141.346
139.915
98.016
143.136
117.776
137.209
128.989
120.211
104.294
121.332
118.895
141.673
146.354
116.772
115.417
137.678
116.468
112.932
124.977
96.150
140.735
117.450
125.923
94.773
140.000
146.649
111.290
126.756
139.354
140.261
115.275
100.815
115.691
135.509
96.951
123.862
96.257
121.267
134.604
96.623
118.206
109.741
108.614
116.309
110.050
109.198
112.573
97.059
106.982
98.827
134.867
130.579
110.651
142.235
111.441
116.114
116.466
133.993
95.259
138.275
96.912
145.229
139.122
112.873
102.228
109.187
97.847
109.892
142.884
126.576
118.720
116.955
127.298
138.012
114.518
101.269
116.186
126.637
135.886
125.862
111.950
122.958
143.398
103.056
118.992
121.393
104.006
107.934
144.919
122.032
141.774
116.234
143.686
120.250
105.917
139.091
140.351
128.912
139.946
125.246
137.395
103.012
141.137
137.665
107.492
97.371
144.298
115.294
103.727
103.439
137.370
142.951
107.355
116.410
113.624
97.964
114.433
106.376
102.046
104.381
131.731
112.574
108.037
126.545
133.888
119.683
112.287
115.092
115.523
117.722
108.758
129.898
105.304
119.668
129.997
109.996
98.919
131.827
100.633
118.868
118.923
95.743
102.733
127.417
144.654
123.217
120.663
121.889
109.106
143.022
95.587
116.244
107.140
104.995
131.229
136.948
114.059
104.446
114.041
139.254
134.984
117.242
140.727
144.918
133.427
110.441
130.940
102.039
114.446
107.229
127.343
98.960
135.252
134.972
123.875
99.928
118.185
103.374
118.701
128.317
102.074
118.768
139.323
121.770
141.123
143.974
143.133
100.622
136.230
140.364
126.031
110.237
130.398
117.490
118.852
116.362
143.585
118.804
120.000
138.272
117.695
122.013
118.100
106.204
116.196
125.474
96.096
138.244
127.235
101.343
135.739
143.266
135.189
114.165
132.718
113.089
135.318
101.082
121.575
118.774
114.346
97.676
103.326
134.116
129.839
115.417
130.212
136.607
133.460
114.855
134.840
118.147
109.853
129.241
120.802
139.110
115.915
104.429
129.938
139.046
132.593
129.957
103.024
144.285
119.928
126.490
143.031
106.441
120.979
134.066
130.530
124.469
138.039
140.642
125.398
117.266
128.341
139.394
112.653
109.236
122.103
126.290
99.755
102.658
127.718
138.289
124.339
138.028
116.154
143.556
100.195
118.034
111.451
141.721
124.292
134.913
132.530
101.893
114.901
99.729
102.251
131.628
110.559
131.268
118.065
141.601
132.796
113.276
98.267
139.005
141.371
95.384
133.939
97.265
101.749
100.162
109.196
133.101
105.430
140.506
112.597
102.437
125.593
135.959
103.253
101.079
132.198
105.367
141.359
110.397
107.881
123.606
104.263
116.384
123.269
126.881
135.345
111.615
143.446
112.496
129.395
145.004
146.157
126.189
134.214
118.385
132.804
127.653
115.837
142.269
115.723
111.694
129.117
121.534
146.132
114.282
124.783
107.064
102.467
124.898
96.937
133.349
131.193
105.233
118.227
112.016
114.080
127.453
116.737
112.009
143.873
115.104
131.593
123.929
129.977
139.410
130.794
141.627
124.548
127.147
140.885
120.327
107.417
144.070
132.377
103.437
116.195
133.846
138.764
125.185
101.595
103.298
95.522
98.115
135.921
142.830
135.942
95.303
96.552
137.341
124.924
143.642
118.122
122.722
128.294
100.749
133.273
123.795
110.185
138.792
129.975
106.007
142.884
115.717
104.489
99.794
107.524
124.701
106.518
112.830
106.753
105.363
125.615
145.984
121.054
115.985
127.353
120.432
141.459
130.022
127.781
116.694
118.552
122.645
133.057
135.923
125.356
108.442
129.318
138.815
115.655
144.456
108.658
140.096
100.204
130.205
118.681
135.408
126.085
127.338
102.241
108.288
118.129
130.871
95.778
106.476
124.733
137.100
134.321
116.809
100.452
109.935
136.730
99.546
124.376
102.402
118.719
125.848
145.101
95.206
116.768
107.103
103.891
135.771
133.420
109.397
138.852
112.530
101.920
137.908
105.731
128.828
144.299
106.864
144.209
121.301
124.602
114.108
96.526
119.827
136.814
101.408
127.144
102.850
96.739
102.412
135.080
124.019
111.244
98.225
134.841
112.337
118.195
144.425
115.028
105.772
142.389
135.874
131.164
121.027
133.780
115.887
142.832
134.016
104.496
106.763
141.455
143.559
132.622
127.379
96.807
110.465
144.317
100.706
128.322
125.988
141.035
113.546
140.120
139.462
118.018
122.918
114.965
126.018
99.415
130.389
107.786
141.312
133.276
102.526
94.899
126.793
94.933
144.048
125.245
137.967
108.178
116.607
142.496
112.877
111.452
101.241
138.324
110.693
121.680
133.112
105.975
115.995
138.831
97.893
95.904
115.630
104.253
132.056
124.048
115.680
128.152
143.888
145.733
135.846
111.145
134.691
120.879
107.572
118.298
115.680
142.967
145.525
109.937
145.708
138.543
136.658
96.035
122.786
127.069
141.942
122.178
97.688
105.893
113.154
111.207
100.205
124.128
113.727
124.926
110.599
107.635
127.200
106.225
144.640
102.481
145.094
120.741
124.276
99.888
114.528
137.580
104.143
104.714
141.821
98.189
112.698
118.269
133.754
118.847
136.773
139.558
138.571
127.345
108.057
139.039
123.946
146.650
127.541
118.560
137.838
136.453
146.323
139.483
132.751
98.135
130.678
97.150
132.294
127.930
117.863
133.208
121.859
101.932
104.423
118.176
104.529
135.604
127.297
99.875
118.269
141.524
126.105
103.163
117.832
115.471
119.379
132.922
119.015
112.438
125.970
133.857
98.999
106.202
102.800
141.550
131.308
130.573
139.933
112.486
109.791
133.632
137.474
136.484
106.842
123.188
138.341
135.462
118.847
103.795
136.832
103.153
144.165
98.259
140.151
112.564
144.984
144.297
98.345
122.245
104.845
129.556
132.870
104.821
116.622
102.794
136.310
113.103
134.235
134.840
99.143
136.645
113.814
134.984
98.330
130.003
109.387
116.509
128.096
133.499
112.490
121.226
98.512
114.867
136.422
131.682
134.244
122.834
120.822
121.572
114.503
134.035
140.222
132.443
97.358
123.153
132.747
131.990
98.778
134.006
113.376
119.662
144.429
99.952
135.773
118.956
141.796
110.404
115.395
125.926
95.707
101.717
98.570
137.647
120.522
97.432
123.413
129.203
128.460
99.974
115.858
130.432
106.928
112.703
133.940
109.134
131.687
98.492
137.990
146.730
100.608
95.772
141.813
125.837
106.629
98.621
97.479
144.203
142.523
124.404
111.612
127.358
122.489
119.797
108.660
124.452
140.746
141.528
117.412
107.955
138.566
111.412
134.759
120.663
103.144
128.111
138.680
131.877
98.345
99.868
135.645
110.926
102.291
121.246
122.348
137.170
118.036
145.288
118.681
105.820
102.597
100.770
129.859
97.936
109.744
94.872
133.039
99.778
108.345
103.306
119.906
129.697
139.328
105.055
123.835
116.700
131.668
98.291
117.321
111.613
135.021
123.896
127.630
138.180
96.183
104.923
123.076
124.814
109.360
123.430
106.589
135.843
100.982
138.494
97.412
97.986
145.899
96.053
129.823
108.150
95.891
138.651
103.397
126.980
118.520
140.303
129.567
109.787
109.030
143.088
101.209
126.388
96.956
117.767
124.906
119.332
105.247
146.491
108.157
95.843
127.053
128.820
106.642
122.324
95.542
124.681
133.072
114.003
129.085
104.544
143.481
145.582
141.670
109.282
111.337
114.450
106.594
116.606
100.200
143.107
100.889
105.988
102.418
144.604
118.202
102.570
98.458
118.286
99.833
141.269
131.344
105.407
120.896
123.353
125.490
109.425
115.690
103.576
102.924
115.406
112.872
102.877
133.745
141.228
138.261
132.701
95.292
138.819
136.846
146.685
113.683
124.735
119.362
126.485
128.149
122.031
112.227
126.953
108.147
134.960
97.261
98.780
115.368
95.833
103.573
133.064
139.470
104.706
130.761
138.494
121.851
137.142
117.446
104.357
101.785
105.271
139.292
129.003
135.586
99.018
95.793
97.945
133.760
145.738
122.131
125.155
95.033
100.286
115.520
126.299
143.775
119.953
95.986
116.801
145.616
112.418
122.878
114.535
115.860
100.081
143.935
146.574
102.175
141.339
118.668
123.629
132.121
112.639
117.658
116.499
117.465
108.370
123.553
120.287
118.618
112.344
97.269
96.796
128.892
132.105
102.544
103.506
141.323
140.989
109.659
138.286
113.937
115.423
136.434
139.193
107.215
95.595
137.049
129.697
112.835
143.739
110.056
100.039
99.982
118.662
124.470
132.077
143.175
117.714
142.417
104.425
112.345
116.947
131.093
146.256
101.463
111.549
146.677
99.249
144.584
99.110
96.441
109.375
135.465
114.170
125.233
146.685
99.108
120.472
98.385
96.983
118.567
142.392
104.046
107.521
122.678
146.485
121.631
107.319
105.004
139.204
134.375
98.483
104.402
108.375
117.126
131.356
142.668
140.709
102.914
129.157
102.054
120.636
125.296
142.077
116.871
125.991
146.340
141.808
112.930
104.859
121.582
143.415
131.150
116.076
113.724
145.527
119.511
97.552
123.263
136.785
117.625
134.051
108.721
135.233
99.293
146.640
137.463
130.726
98.385
133.970
113.933
126.310
101.055
119.399
124.943
96.488
34.660
40.893
35.415
29.886
36.103
42.497
34.614
40.364
36.281
42.528
44.474
31.286
43.513
33.566
33.828
33.950
30.719
41.237
29.343
36.907
36.173
375.798
376.982
363.580
358.837
374.191
369.007
390.697
386.390
378.489
375.131
400.226
389.425
380.017
402.290
389.486
399.446
414.080
409.762
408.622
415.358
407.528
420.173
418.291
404.356
412.811
421.228
428.242
436.409
419.725
442.749
430.731
427.104
448.524
436.027
434.820
436.802
443.840
443.943
457.868
443.280
467.170
445.378
462.498
464.047
474.564
465.852
476.847
468.982
481.598
460.080
478.259
478.680
473.967
494.761
488.393
497.067
486.614
478.669
501.087
507.394
488.179
489.076
493.319
513.663
494.036
498.301
512.509
513.424
502.499
511.033
512.652
526.321
512.128
514.597
541.177
516.681
525.849
523.865
536.830
534.343
536.505
530.153
544.956
537.802
561.376
548.262
551.996
556.312
570.798
561.167
548.720
571.661
570.356
564.485
571.657
574.971
578.242
580.289
585.247
586.036
322.258
321.908
319.737
326.522
326.573
332.873
334.283
330.356
339.811
331.234
330.770
342.041
339.881
336.964
345.540
346.266
345.662
340.714
340.422
347.220
346.149
354.207
348.775
353.734
353.242
352.698
362.830
360.776
364.685
362.761
358.132
363.989
365.521
365.828
368.423
362.865
361.356
370.772
364.195
368.999
374.373
367.925
373.020
369.821
373.447
376.295
379.968
374.107
382.609
384.173
385.134
384.065
391.323
396.035
392.784
397.315
395.273
395.697
402.840
390.460
395.397
404.984
391.945
394.650
398.824
409.571
405.434
400.831
400.342
405.091
410.609
411.090
412.418
407.367
413.290
414.979
419.928
414.643
420.838
422.532
427.781
423.035
418.528
423.684
423.025
422.452
427.188
425.398
428.275
425.865
426.913
426.950
442.189
430.002
438.108
447.574
440.155
438.893
446.213
449.438
441.190
449.603
442.317
447.388
451.123
457.705
454.822
452.589
461.160
461.934
456.404
459.902
457.596
461.589
466.158
467.904
464.650
465.479
465.992
469.455
461.475
472.642
465.756
470.567
476.274
463.264
478.887
476.556
467.412
481.920
469.592
481.077
481.825
484.990
481.369
479.891
488.282
488.339
482.672
479.915
477.781
486.359
486.184
494.375
493.531
495.639
492.151
495.830
485.037
487.545
494.155
489.211
490.111
505.258
495.674
502.748
495.319
501.660
505.243
507.225
500.189
504.434
500.230
513.243
504.973
513.639
503.318
505.827
519.600
510.839
509.207
519.271
515.370
513.905
525.702
522.717
523.283
514.600
528.599
528.175
520.862
530.620
522.208
533.179
528.044
530.046
534.387
530.360
528.890
527.061
531.131
542.127
542.424
535.701
532.892
536.921
540.645
538.357
534.482
542.063
538.669
550.460
548.304
545.754
554.758
543.650
553.901
542.892
551.498
550.347
558.793
546.714
557.401
559.878
562.587
551.779
551.647
562.630
560.285
563.631
560.331
559.868
565.491
562.884
566.203
562.725
572.699
568.686
573.232
570.320
567.314
573.592
569.733
582.174
583.706
575.699
575.867
571.679
582.670
576.420
577.130
579.147
587.589
578.023
592.725
595.301
584.771
592.592
589.993
590.042
598.246
589.276
597.621
591.872
598.099
598.339
599.046
604.986
605.456
598.215
596.494
604.582
601.861
603.416
603.991
607.147
613.165
612.111
615.318
607.725
618.046
613.057
613.800
611.365
612.817
624.291
619.279
612.285
614.437
614.353
618.128
615.128
623.564
622.363
622.127
629.032
628.608
625.747
624.864
632.026
626.817
634.390
629.073
642.062
635.235
632.682
635.677
636.633
639.919
644.828
647.585
641.972
637.157
650.312
642.198
652.354
639.010
647.997
648.148
651.998
653.478
654.045
655.171
646.510
651.508
657.946
656.579
648.680
654.564
662.999
662.064
652.189
659.683
659.250
668.789
661.355
658.190
670.155
663.902
659.720
660.129
660.054
669.353
664.459
676.008
668.948
665.289
677.963
678.808
678.491
682.578
679.536
684.194
676.843
675.088
680.774
675.834
682.737
683.664
689.960
680.167
684.468
692.672
685.567
686.942
682.074
689.200
690.411
694.180
695.831
694.460
688.130
698.132
697.476
695.824
694.547
693.739
703.760
705.610
702.292
695.807
693.222
703.557
702.580
708.852
710.552
709.232
710.326
701.175
702.235
714.630
707.050
711.057
718.259
709.320
712.401
715.885
718.087
722.468
717.634
722.502
713.575
721.477
715.380
720.652
724.282
721.015
715.722
726.103
730.977
728.207
723.354
730.274
728.150
722.287
732.562
736.793
738.616
736.735
727.098
734.884
734.104
738.136
743.743
730.386
734.178
734.392
742.706
747.879
736.383
737.437
740.977
747.381
740.108
744.201
746.399
746.484
746.405
744.833
751.950
745.539
751.341
747.665
754.327
747.394
757.158
758.407
756.794
755.777
751.260
757.182
759.656
768.047
764.797
754.483
766.551
761.441
763.450
759.593
763.457
762.454
761.009
765.825
764.728
772.419
764.122
777.440
775.850
771.396
773.920
771.641
781.098
781.295
779.352
786.857
786.649
786.849
782.379
785.146
780.648
777.130
788.951
779.990
794.586
781.394
794.704
782.193
794.172
796.354
795.474
793.331
789.028
793.765
792.553
795.295
795.295
793.980
795.058
792.806
802.410
803.108
795.522
802.215
801.515
812.024
805.999
810.474
802.508
810.276
801.995
801.848
809.905
803.771
811.073
815.869
807.794
814.067
814.682
803.133
811.821
804.520
815.346
809.405
817.169
813.639
811.116
810.124
810.508
814.688
805.894
810.376
810.243
819.547
820.875
818.966
811.847
816.218
808.927
809.242
811.203
811.421
813.906
821.966
818.199
811.262
812.959
811.487
817.085
811.108
821.712
819.110
822.818
821.591
816.631
810.435
826.222
823.080
821.357
824.202
825.157
816.409
821.642
823.948
822.329
823.747
826.384
812.912
816.173
826.686
822.129
820.118
820.007
823.413
823.333
818.367
815.012
830.313
815.337
822.439
828.316
828.805
821.812
818.468
820.312
821.540
830.793
823.187
832.753
821.551
827.032
819.038
826.054
831.186
824.344
831.506
820.160
828.518
821.605
823.012
833.574
830.852
833.898
820.532
827.584
820.887
834.854
