100.437
101.481
108.940
104.891
94.379
112.568
95.080
87.292
103.715
103.313
126.483
94.997
105.484
127.334
97.498
112.748
123.694
124.166
104.299
88.370
103.904
120.600
88.142
84.280
111.418
105.728
116.356
111.358
113.008
102.533
108.217
123.016
109.539
85.423
125.975
101.024
85.880
86.741
109.826
113.284
95.848
93.486
88.769
87.797
107.623
124.982
90.930
102.109
111.089
101.247
122.932
107.960
91.400
90.480
98.578
127.698
110.709
124.965
127.539
101.257
118.245
99.282
89.534
128.910
117.895
103.377
103.755
115.223
101.783
99.687
92.140
83.944
114.333
129.120
117.993
91.331
100.285
95.187
97.682
113.555
110.449
114.335
118.027
114.971
98.336
89.534
129.374
121.519
111.631
93.346
119.030
100.229
88.174
121.557
126.506
121.208
123.273
124.111
105.339
107.193
121.090
106.787
112.924
128.459
91.311
110.373
106.255
123.984
120.743
108.978
128.608
119.896
96.512
119.532
111.793
105.265
102.913
104.679
114.533
89.309
83.868
128.951
90.162
101.986
112.910
129.255
102.961
98.763
92.964
112.651
95.804
128.001
108.240
108.214
107.935
114.213
105.553
91.184
93.634
129.302
126.638
114.040
124.240
110.414
104.156
94.143
128.099
89.473
119.618
89.735
99.976
128.401
104.819
112.519
125.568
120.158
106.401
95.267
107.259
122.873
116.021
124.761
105.249
104.881
102.636
118.237
121.355
91.914
124.752
125.989
125.020
111.847
87.720
108.665
119.133
96.636
104.732
129.345
122.261
113.129
93.237
124.045
93.101
97.051
88.897
94.440
99.248
93.266
105.401
118.464
94.542
103.407
118.877
111.413
128.612
98.595
121.046
90.475
104.492
102.463
95.053
109.823
94.556
114.098
113.304
89.551
111.378
114.387
85.468
103.736
106.358
127.727
109.469
129.617
86.253
124.087
99.510
99.348
129.224
93.848
98.619
119.595
83.850
114.315
121.669
123.324
96.727
126.588
98.188
116.323
99.287
122.351
94.175
112.188
125.324
124.440
118.365
107.286
96.374
118.187
105.919
84.522
126.296
128.399
101.871
92.389
111.914
104.101
85.392
120.591
92.309
117.375
122.797
106.200
94.007
99.329
123.614
85.381
113.180
100.632
118.625
91.491
109.930
86.099
128.675
115.325
85.021
117.508
105.877
87.041
103.415
108.157
127.656
123.023
103.188
124.229
108.950
101.034
89.399
129.227
122.462
104.223
99.358
120.452
116.486
96.603
109.569
99.253
100.816
89.677
193.922
203.583
209.243
215.554
205.536
213.843
206.234
220.743
227.339
225.265
218.225
211.467
216.269
216.039
232.922
223.989
245.782
236.971
233.741
244.610
232.278
256.062
235.414
241.673
238.505
252.589
250.572
252.874
258.219
256.220
269.738
253.812
259.755
271.890
281.170
282.552
273.145
276.673
284.672
272.574
271.068
287.532
281.435
289.166
300.450
300.098
301.550
297.642
287.655
295.654
299.525
299.128
299.436
311.958
300.007
306.557
303.094
308.841
311.316
316.287
331.642
332.047
318.718
330.238
339.693
323.727
322.913
328.715
340.856
325.235
352.133
327.140
347.340
342.760
346.505
350.018
352.799
352.062
341.870
350.779
361.280
355.360
375.173
358.052
352.528
367.141
360.342
381.658
362.573
380.966
389.464
384.849
393.715
382.314
386.846
386.882
389.000
393.143
407.896
397.788
220.853
216.316
229.273
217.961
229.346
221.801
223.053
231.384
221.952
223.433
228.793
226.143
237.852
242.772
237.790
233.220
241.298
242.408
234.760
236.581
246.778
238.780
245.141
238.245
252.488
242.200
251.028
257.120
244.804
258.896
256.103
259.322
253.448
251.081
258.081
259.758
267.277
253.117
256.621
270.572
263.946
268.199
258.238
270.930
265.004
269.589
268.849
268.516
267.464
273.234
272.865
273.398
271.389
278.586
276.236
284.098
276.894
282.726
277.853
278.110
289.066
293.018
281.554
295.391
293.036
294.743
295.215
286.277
289.911
290.219
291.167
303.875
293.243
295.043
295.733
297.492
294.810
298.751
303.831
299.935
307.773
303.571
314.280
306.032
307.737
315.643
313.470
312.873
309.162
324.470
311.164
312.052
321.435
316.375
316.646
327.301
325.993
323.603
323.258
323.222
323.603
335.176
323.353
334.519
327.863
325.752
340.705
334.916
340.671
340.012
342.071
336.204
343.800
344.027
338.374
350.705
348.424
344.152
344.504
354.126
351.670
352.168
343.344
359.456
357.217
346.248
357.512
354.611
352.169
362.349
363.399
355.292
356.490
369.766
366.646
370.217
367.825
369.518
374.327
368.441
370.462
377.217
379.043
365.130
368.732
381.109
372.217
372.519
375.245
385.083
375.221
384.895
387.797
377.835
377.143
392.124
381.394
383.787
390.852
393.268
391.524
392.181
391.821
391.239
401.599
393.747
394.709
393.167
397.520
397.972
401.991
395.324
408.138
408.679
404.096
410.892
409.560
409.825
408.089
405.250
416.244
412.665
420.313
414.044
408.309
410.947
414.097
424.858
421.702
413.576
424.199
426.228
428.699
421.713
430.308
418.781
430.964
435.028
424.705
431.433
436.179
436.088
439.968
428.541
434.427
439.771
433.644
445.398
441.834
433.050
440.375
438.776
439.826
449.085
438.696
451.315
452.013
455.034
444.929
451.178
445.714
454.887
459.089
462.087
460.272
461.812
458.002
456.810
461.074
455.116
454.089
458.465
459.468
460.647
469.353
463.015
469.354
471.802
472.912
467.069
471.357
475.435
472.313
482.890
475.912
484.076
481.329
473.582
475.680
482.863
484.359
487.847
480.492
477.991
492.574
487.429
487.141
484.108
489.409
484.424
499.583
491.051
487.666
493.142
492.965
502.684
504.589
498.306
496.629
504.379
501.223
498.085
502.745
512.997
499.759
508.987
514.918
517.801
512.342
516.226
510.281
509.924
518.950
516.445
517.077
513.676
520.546
513.278
523.600
524.609
522.836
518.371
530.293
524.672
529.470
527.380
535.628
531.503
526.444
539.781
537.407
541.713
531.848
538.050
530.818
539.732
535.315
534.739
544.395
547.692
535.853
545.157
551.210
548.929
544.001
546.304
548.642
544.102
546.849
545.172
554.195
551.472
547.025
553.826
564.127
560.591
558.640
565.738
560.908
566.484
568.236
565.183
562.912
571.837
572.618
573.628
576.412
561.775
568.108
569.740
569.056
573.631
581.460
582.157
571.519
580.449
578.635
574.821
581.161
588.651
584.925
587.018
585.727
584.927
588.645
592.739
584.180
584.329
588.808
594.254
595.258
585.111
585.764
596.278
594.473
594.814
591.945
595.405
601.322
595.423
606.951
601.987
606.434
598.483
605.560
602.121
601.221
615.052
611.887
603.735
617.331
614.786
606.456
606.893
620.239
620.819
611.239
624.226
614.258
622.581
627.851
620.506
624.829
629.520
620.091
626.578
621.666
624.230
628.497
623.063
630.758
630.143
632.288
638.696
638.019
635.459
629.417
642.599
640.416
640.683
640.708
641.478
642.217
639.056
638.901
637.788
646.307
650.542
643.539
650.354
653.617
648.918
652.783
660.581
657.274
653.893
652.463
663.061
660.465
653.818
657.470
655.745
656.631
667.831
668.455
665.229
663.280
659.725
675.114
675.018
675.893
676.615
669.439
677.243
674.607
670.329
674.882
669.903
669.133
671.605
675.467
677.351
672.870
680.264
678.155
689.182
684.678
685.703
694.389
690.152
688.586
686.764
685.116
695.447
687.923
686.841
697.844
698.393
698.010
690.455
700.667
699.952
696.851
698.879
701.793
707.337
699.156
707.425
699.493
704.885
704.901
708.510
711.624
702.887
707.241
718.610
719.907
707.577
717.957
709.711
724.167
711.383
722.169
713.014
717.945
715.120
728.622
729.150
732.743
729.385
722.324
728.786
722.302
736.198
721.494
728.692
722.605
722.616
736.404
724.957
733.153
723.150
737.084
726.710
724.350
735.064
735.278
726.355
735.763
736.555
727.834
735.699
727.110
741.425
741.950
734.177
730.622
730.666
742.186
742.252
732.167
738.115
734.277
736.966
736.825
744.639
745.290
732.801
732.900
741.487
747.249
738.633
740.599
739.449
737.083
746.445
738.613
740.345
748.823
744.979
740.531
738.790
739.748
736.891
737.625
740.863
752.193
738.215
745.478
753.136
748.231
741.171
751.121
747.744
740.044
746.613
754.297
742.259
746.765
747.827
751.850
747.524
750.115
753.445
744.043
753.189
752.807
750.109
754.415
747.214
751.976
757.314
745.931
747.670
755.666
755.037
759.981
757.415
760.610
755.279
761.572
752.028
756.681
753.301
753.769
761.627
752.589
758.232
758.038
751.360
753.701
753.302
761.118
766.872
764.256
765.693
762.725
758.983
758.745
759.178
761.712
757.337
758.166
761.677
757.342
757.796
760.663
759.327
770.880
766.127
767.439
771.638
771.304
771.353
774.470
772.676
775.773
765.415
764.724
773.721
773.815
769.713
769.534
777.881
778.403
771.353
769.892
766.704
771.296
779.438
772.559
774.704
770.593
779.795
778.135
771.754
767.411
771.731
768.638
780.633
774.294
779.208
780.849
769.085
775.826
781.994
783.109
776.520
781.202
771.142
775.945
779.914
784.588
771.918
785.335
777.410
788.711
773.811
783.943
776.584
779.979
783.311
775.281
775.812
782.606
791.484
787.391
783.369
778.327
785.222
789.671
778.369
790.956
787.321
785.293
782.204
793.351
786.577
785.846
794.162
794.243
796.433
789.318
791.556
788.433
791.854
786.667
798.587
788.347
791.990
795.145
793.704
798.350
791.131
792.363
797.877
791.698
802.790
802.241
793.805
797.273
791.119
792.055
804.361
790.193
803.266
803.720
797.708
797.371
804.292
796.084
803.709
805.818
794.898
805.814
809.534
805.894
795.915
804.450
796.903
811.933
812.711
810.138
806.040
810.236
811.130
809.546
813.175
805.605
810.294
812.775
808.343
809.321
807.913
815.425
816.829
812.830
807.772
811.820
817.499
806.634
816.294
807.027
813.508
822.230
818.784
810.087
815.153
812.787
813.665
819.756
816.768
814.549
815.108
811.854
815.665
819.774
813.802
813.099
818.258
826.025
818.072
830.049
815.563
818.463
825.463
827.203
823.503
829.897
825.160
828.631
831.007
820.926
822.185
831.537
821.217
834.087
823.738
828.353
826.829
824.868
826.526
826.351
826.035
829.684
830.450
836.020
840.236
827.721
835.673
828.134
835.633
828.802
835.079
832.461
830.642
830.292
840.046
833.868
837.402
837.955
845.053
841.309
847.086
845.344
847.284
840.865
841.042
849.063
835.874
842.138
840.660
847.669
849.563
844.047
838.167
853.424
850.834
840.910
851.233
844.462
847.275
844.667
852.572
845.732
850.363
855.821
857.740
855.460
854.515
850.420
859.406
850.553
855.441
859.158
847.485
854.982
848.897
855.983
855.475
853.369
862.192
852.516
851.279
851.966
854.015
866.655
863.766
856.479
864.578
862.935
862.977
866.888
860.217
862.606
859.686
864.692
861.162
856.636
863.061
869.599
863.973
858.170
860.872
865.607
873.516
874.776
864.963
867.818
865.323
863.598
877.049
869.065
874.418
870.568
879.147
864.616
868.440
876.880
871.062
868.093
870.008
868.255
877.502
868.511
868.455
869.301
882.320
872.703
869.387
872.618
885.308
883.536
878.790
873.556
869.299
878.531
871.102
874.910
875.099
879.499
870.571
868.747
879.002
869.370
881.167
871.373
874.825
873.411
867.481
877.013
876.583
868.518
871.743
871.915
870.371
877.240
876.224
878.615
872.871
878.122
875.915
878.048
879.257
878.327
873.712
866.047
870.675
879.486
871.730
872.398
868.748
876.500
868.065
867.643
875.662
865.732
876.263
863.423
865.034
863.250
873.705
869.827
874.775
863.827
876.254
871.240
876.464
874.382
873.380
866.566
862.115
862.513
860.958
872.543
871.555
865.361
869.177
874.351
863.698
874.618
865.022
859.494
871.080
861.862
871.398
870.482
868.272
863.180
869.747
860.360
862.241
866.468
867.809
863.510
871.372
866.919
865.783
858.509
861.166
865.042
860.438
858.948
868.789
860.334
855.138
867.497
865.096
862.381
855.981
868.774
865.128
865.801
865.317
858.301
861.975
860.284
857.511
864.349
855.576
861.610
863.447
854.984
853.964
865.919
853.811
865.037
855.552
867.337
864.303
866.599
860.868
855.937
858.416
865.971
854.617
853.107
856.252
859.613
859.591
852.340
854.623
849.708
863.405
850.496
858.344
850.313
859.987
859.610
855.152
854.256
849.173
859.617
853.507
850.048
848.933
857.468
857.688
860.275
853.486
848.558
847.115
857.404
858.598
848.964
852.592
859.202
861.026
847.227
845.939
859.989
846.150
849.899
859.970
847.100
855.533
852.901
856.479
845.676
845.780
845.222
857.387
854.358
858.064
845.782
845.713
847.313
845.347
851.273
851.726
852.399
847.953
855.293
852.032
854.148
853.325
850.745
850.000
855.694
842.885
840.547
853.254
844.951
843.251
841.080
853.874
842.156
853.239
839.750
839.401
850.316
844.365
840.802
841.716
850.258
838.996
840.762
850.310
847.455
841.313
844.738
843.763
845.603
845.885
846.433
835.186
843.117
849.340
845.504
843.480
837.014
832.767
844.501
833.749
837.852
843.824
846.423
846.147
835.773
835.876
833.263
836.542
841.583
831.890
841.171
829.780
828.990
836.707
840.899
829.345
830.130
831.573
826.661
835.661
827.359
828.386
831.713
836.834
827.360
825.556
826.135
838.680
831.994
836.671
836.800
834.831
828.002
822.019
831.971
831.949
834.933
823.597
832.686
820.173
824.877
821.889
823.249
830.421
833.779
822.280
829.840
824.913
826.187
831.093
823.783
823.859
830.293
821.836
816.742
828.770
826.716
815.019
824.307
823.120
818.656
821.025
818.654
818.411
819.917
822.449
820.378
824.188
822.606
817.671
815.614
818.389
816.438
813.272
814.733
813.938
816.385
814.831
822.911
817.846
818.345
814.501
823.052
810.249
812.651
807.106
810.940
819.991
820.922
812.585
811.058
815.192
808.167
809.323
807.142
817.980
811.370
815.196
805.630
803.616
810.284
805.025
805.378
809.059
811.237
806.440
808.173
805.484
803.285
807.281
814.930
812.155
799.891
813.211
809.904
798.382
805.422
806.474
812.573
804.134
811.359
808.742
804.195
799.534
810.281
802.095
803.930
796.984
801.832
799.351
793.943
805.247
801.256
805.831
807.358
793.522
793.313
792.484
799.755
806.715
805.546
802.790
803.162
793.201
801.561
796.136
798.667
788.448
790.285
791.228
800.480
792.360
788.572
800.402
789.749
792.463
789.422
788.361
798.575
785.571
797.816
793.083
796.596
795.755
783.751
796.963
798.349
790.612
786.699
796.562
795.267
782.646
796.001
788.850
793.158
786.795
789.571
782.085
791.429
784.633
791.052
780.399
785.203
776.071
785.706
776.438
781.619
786.691
786.003
774.711
769.980
772.080
770.102
770.623
768.383
766.504
778.096
772.333
770.361
775.270
763.585
775.758
768.800
760.141
768.903
770.793
763.731
770.706
767.950
768.099
769.474
760.510
762.500
762.937
753.992
755.163
759.891
756.052
753.474
756.582
747.746
746.407
755.666
747.322
750.388
744.290
745.301
749.038
741.986
749.199
751.524
739.463
745.114
738.854
745.355
737.255
737.593
748.848
741.979
732.119
742.762
732.936
735.209
735.246
737.572
733.377
738.333
730.636
739.228
739.173
736.695
735.140
727.826
725.897
733.014
727.879
728.581
725.898
725.100
720.861
730.180
725.058
720.787
713.596
716.388
722.863
712.013
726.136
720.033
713.570
710.627
716.218
712.663
715.851
719.170
708.484
711.724
704.990
706.448
714.389
704.900
708.187
702.130
704.183
709.726
704.562
699.516
710.619
694.529
705.801
699.866
699.964
694.519
704.901
693.155
696.120
704.217
696.150
687.662
695.436
688.846
685.338
694.769
696.625
687.738
693.520
685.856
680.513
682.875
683.174
688.878
688.224
680.813
691.284
683.986
684.569
676.533
685.309
682.992
670.975
677.239
680.328
679.493
681.291
669.647
670.973
669.205
673.615
673.580
678.563
671.157
673.168
668.134
671.682
664.368
666.356
660.041
665.399
663.261
666.101
659.682
667.364
659.071
656.238
655.927
651.318
653.286
653.772
659.037
653.397
656.108
661.425
647.178
658.657
649.424
644.072
644.455
657.524
651.561
642.574
652.907
641.981
651.443
649.008
639.031
644.377
645.731
649.585
638.800
641.967
647.845
631.904
643.516
644.849
642.534
639.605
636.913
636.898
634.360
627.539
632.730
639.573
640.923
639.761
630.039
633.269
631.620
635.880
631.621
630.611
627.288
626.623
632.186
635.069
638.349
630.580
635.631
641.521
631.683
640.905
627.935
626.210
637.663
640.705
627.320
629.697
628.659
634.812
630.607
629.744
628.842
634.601
628.792
634.666
637.811
631.210
624.846
637.888
631.922
638.673
635.033
638.596
630.139
637.486
628.254
630.618
626.142
630.582
633.369
625.404
634.759
624.511
629.055
634.878
633.715
624.763
637.305
634.276
626.963
629.841
636.911
629.163
622.583
623.379
631.823
634.335
625.918
635.212
635.194
633.329
622.896
635.625
624.914
621.119
634.194
627.451
636.097
625.381
634.900
630.111
632.027
630.852
623.957
630.560
631.121
635.403
633.108
626.751
626.465
620.567
628.376
632.983
634.422
621.234
631.363
631.171
634.318
626.580
626.713
623.817
622.062
628.560
622.779
619.634
630.732
627.628
