92.286
85.735
117.039
122.414
102.981
127.260
90.599
112.609
96.273
86.137
129.451
108.673
115.639
96.574
109.695
115.009
115.118
85.374
97.417
89.660
119.969
115.134
90.053
95.442
87.507
129.756
98.032
110.168
121.074
103.915
98.527
106.238
129.039
106.002
96.702
95.481
85.537
124.129
87.609
83.980
95.104
115.401
102.738
115.562
96.880
88.950
122.119
107.722
113.549
97.264
86.630
129.354
111.111
107.247
97.970
118.754
106.968
112.988
122.418
116.015
98.166
93.553
87.767
113.110
122.017
123.240
98.070
88.089
118.602
90.550
88.234
88.099
84.869
122.334
116.594
109.737
106.561
90.774
90.637
104.133
105.822
106.607
112.718
91.653
110.150
121.985
106.893
100.615
93.127
111.760
96.723
128.248
121.104
125.291
101.255
88.748
129.358
96.941
121.370
129.781
94.978
111.380
102.936
126.241
113.853
115.352
113.368
86.745
92.551
103.052
112.299
128.678
91.202
112.948
93.215
123.865
124.268
97.319
110.092
90.507
125.550
90.800
127.684
90.379
119.909
90.001
104.998
99.623
123.829
128.307
101.669
93.024
85.532
101.160
101.577
121.362
92.370
121.245
85.597
115.990
93.977
125.443
109.938
87.910
109.227
87.056
129.320
102.710
94.582
108.607
123.972
95.705
87.523
116.970
107.555
115.973
118.828
87.800
115.649
86.865
122.024
105.173
113.632
115.151
97.317
100.921
100.322
122.559
126.179
107.532
126.203
106.884
106.857
89.481
128.566
94.461
94.890
92.416
103.748
104.084
127.866
88.221
99.707
103.699
113.856
106.950
118.422
124.919
109.183
89.342
96.802
102.552
117.694
116.278
128.335
122.239
127.548
91.540
102.562
125.761
104.693
104.157
100.658
111.899
94.893
120.946
93.004
87.990
127.217
125.678
113.745
122.605
120.104
122.848
111.257
110.517
116.466
95.378
128.193
124.353
97.454
96.329
106.403
103.045
106.941
116.678
121.298
93.584
102.764
107.933
89.526
118.594
117.151
90.023
113.268
89.312
107.755
117.043
92.277
119.954
101.323
110.838
104.868
115.774
98.280
105.760
122.381
123.388
120.186
104.908
122.319
104.829
95.482
118.977
86.075
107.002
97.583
123.962
98.157
104.781
93.648
92.659
116.566
120.547
104.400
109.064
102.386
102.954
125.867
115.610
85.731
106.663
87.041
120.263
88.269
126.719
116.592
84.368
120.733
123.784
87.681
89.600
112.891
108.628
126.203
85.525
84.539
588.584
597.737
607.971
600.223
610.340
591.768
588.849
590.255
602.879
618.643
598.573
616.976
620.886
608.127
627.762
631.379
631.108
630.740
614.485
638.059
626.455
627.879
623.045
620.514
631.576
639.429
631.094
638.137
639.858
658.719
656.322
642.768
638.090
638.553
642.264
645.450
655.891
653.941
660.042
661.235
664.522
657.131
680.863
658.884
659.189
669.502
689.734
669.246
666.757
685.696
678.226
680.996
690.059
700.104
685.406
692.860
700.235
710.052
705.926
712.396
702.444
717.686
693.194
715.129
712.529
698.359
705.036
720.354
711.390
704.871
706.260
726.276
719.505
726.470
729.245
736.243
727.284
738.684
735.266
739.895
752.908
730.203
752.134
735.501
747.029
741.310
745.009
765.076
765.003
748.378
754.835
764.777
748.929
776.181
773.802
765.709
768.731
768.367
780.426
777.289
425.374
433.888
431.337
439.319
432.728
434.022
435.377
442.796
433.269
433.937
436.913
444.985
447.372
442.871
438.063
453.322
451.601
442.594
454.895
454.904
453.141
455.935
454.273
453.183
449.026
449.465
450.899
454.040
458.181
467.572
465.917
462.915
467.122
472.128
461.230
465.931
464.877
472.211
473.649
475.654
465.626
476.521
467.190
480.843
481.854
478.764
473.592
473.600
485.026
485.503
480.268
477.823
490.888
482.897
493.690
494.701
490.490
489.795
496.359
485.521
485.739
487.817
487.927
497.607
502.331
503.656
503.266
498.313
494.263
505.441
507.812
504.215
502.274
509.331
502.919
508.996
508.898
512.006
507.773
506.707
513.409
510.708
511.461
516.668
514.341
525.012
524.167
515.827
523.886
524.255
517.528
525.144
521.683
522.195
534.848
524.546
533.315
522.658
535.645
535.467
536.290
526.931
541.024
530.330
532.540
544.973
541.869
534.154
543.929
538.280
548.105
543.496
552.751
548.572
552.500
555.341
552.502
542.575
549.531
558.391
550.550
555.641
548.306
559.281
551.432
555.517
551.276
561.320
560.375
566.784
565.140
567.150
567.647
565.179
573.480
560.667
562.896
577.261
563.578
566.694
567.642
579.519
576.016
568.655
580.344
584.290
583.171
582.758
579.562
585.520
588.746
576.582
586.828
580.017
587.976
592.614
585.053
584.553
597.795
596.378
584.631
590.485
598.810
597.280
590.798
590.250
604.806
604.046
602.475
602.884
600.469
600.059
604.797
605.869
601.036
603.622
607.274
614.756
606.120
613.061
613.652
616.613
611.594
609.469
610.349
618.239
610.252
620.133
626.491
625.255
612.965
616.765
615.223
623.205
617.545
629.298
623.942
623.758
631.910
621.535
625.565
625.778
628.416
627.213
631.071
631.152
631.941
643.433
634.199
642.388
641.590
634.213
640.721
643.674
642.994
651.225
644.379
650.686
642.602
647.457
649.311
651.999
650.560
649.078
649.387
659.429
649.307
652.431
662.546
660.969
653.452
665.637
664.991
658.884
658.366
670.666
660.562
671.789
665.578
670.006
669.516
675.751
672.609
668.260
680.321
676.542
668.779
680.973
676.849
672.618
684.058
681.739
676.688
687.042
677.528
677.111
689.390
678.002
692.378
686.435
695.870
681.899
696.944
696.486
692.540
692.501
698.953
691.807
694.735
702.890
699.495
693.399
692.468
701.490
708.031
702.338
698.328
699.752
708.612
701.690
706.814
712.650
712.579
707.610
719.669
710.645
706.491
715.439
712.927
709.655
722.940
720.187
715.034
725.025
724.254
723.190
730.066
730.373
730.288
718.420
731.217
727.695
728.051
728.400
735.188
725.726
729.707
731.895
737.549
735.131
724.812
726.145
724.720
735.641
725.435
724.463
725.303
740.674
741.010
734.990
741.204
738.334
741.709
737.614
728.616
730.057
732.423
733.449
731.820
731.559
734.653
738.645
741.529
731.285
739.613
745.838
740.809
736.397
744.216
736.503
734.669
743.995
740.692
741.334
740.371
746.335
745.487
739.135
735.795
740.068
750.191
744.503
742.664
747.978
739.667
750.584
748.161
752.625
748.748
753.466
753.082
742.558
741.936
750.671
755.177
742.287
746.551
749.781
748.974
756.621
741.973
745.540
744.331
754.728
756.312
749.123
747.084
753.024
755.717
753.743
750.216
760.359
753.735
757.612
748.013
754.395
747.555
757.755
747.817
756.054
749.767
760.959
764.452
750.007
756.291
764.063
756.253
759.679
764.495
760.515
766.710
760.655
766.126
765.332
763.291
760.469
754.014
767.177
767.669
760.702
755.484
765.248
769.927
765.463
768.522
757.809
760.244
771.378
768.159
772.789
766.846
762.689
772.919
769.965
775.026
760.502
770.779
769.521
772.803
767.315
774.499
776.415
771.486
765.123
767.080
764.121
771.090
774.007
776.221
765.577
778.917
765.570
778.690
769.949
766.795
774.627
773.816
766.757
769.261
771.161
773.399
778.273
776.941
774.692
772.187
775.771
776.714
780.591
778.640
771.450
780.638
785.263
776.606
778.367
786.365
777.278
785.547
783.952
784.373
783.451
789.781
774.698
788.891
777.576
783.166
776.188
776.736
783.616
785.455
782.238
782.587
777.752
783.738
788.164
787.193
787.879
787.026
789.631
787.147
789.349
795.278
786.052
793.093
792.462
795.423
792.102
794.095
787.928
791.982
793.758
786.202
784.260
790.419
794.502
797.790
789.946
796.599
788.948
799.286
802.173
802.137
795.510
797.626
792.963
797.156
805.524
796.666
799.746
791.928
806.916
794.230
807.734
796.333
802.251
807.020
795.347
810.353
803.216
797.896
807.726
802.376
809.752
798.342
804.916
811.948
809.941
806.754
808.457
814.507
803.436
815.141
809.787
804.853
807.407
810.916
808.993
817.558
816.323
805.626
810.922
817.898
814.445
816.799
816.540
819.103
815.012
819.428
820.751
817.835
813.894
813.061
817.863
813.503
819.056
826.087
813.099
825.064
817.019
826.693
819.228
827.250
821.779
820.920
821.929
819.652
828.904
822.070
824.845
823.398
821.719
830.378
822.270
824.190
828.643
821.769
835.359
833.377
826.375
825.202
827.545
836.029
826.835
828.212
830.557
840.205
836.855
835.061
836.237
828.142
833.416
826.848
833.509
833.165
843.696
836.830
830.743
834.591
837.675
845.139
844.993
832.517
836.373
844.698
848.255
836.339
841.853
838.637
843.227
847.145
844.607
841.789
851.058
840.992
852.096
845.082
853.068
842.255
852.703
854.834
843.220
848.958
845.805
844.758
844.547
846.094
848.127
843.600
846.884
851.033
851.435
859.593
854.238
849.034
849.182
857.434
851.805
849.017
849.636
858.765
849.586
848.869
858.322
852.827
861.749
864.283
855.171
866.287
862.208
862.105
865.810
852.973
856.551
866.729
861.546
856.266
855.292
865.316
870.842
864.938
858.843
868.862
869.414
871.943
866.468
868.915
860.895
865.963
873.022
874.172
867.764
868.627
872.819
864.413
870.754
878.130
872.194
871.803
868.335
876.671
880.072
873.508
880.226
879.000
878.127
873.430
870.057
882.183
880.778
876.838
872.962
874.808
877.251
878.226
885.188
871.504
872.072
874.681
876.023
876.287
878.805
876.577
876.540
871.623
880.315
881.840
875.693
881.560
880.070
870.994
875.922
874.978
876.277
874.335
868.631
866.102
869.581
870.331
870.685
872.396
876.769
872.962
879.156
872.272
873.551
872.239
868.561
864.204
879.091
868.724
866.724
869.799
874.030
864.825
869.128
877.222
875.157
865.182
877.183
872.663
867.673
868.548
877.469
868.882
862.073
870.283
873.377
861.461
868.831
874.971
875.817
864.299
876.022
862.463
867.136
865.728
871.731
869.644
866.737
861.575
873.117
873.809
867.037
872.580
872.846
873.259
871.527
869.236
868.098
868.107
862.037
866.551
864.950
860.241
865.330
863.827
868.291
871.715
871.151
861.134
864.776
869.734
862.576
858.299
869.884
861.098
861.854
856.912
865.913
863.849
857.555
857.625
858.453
855.493
861.417
863.056
854.155
869.017
855.404
860.986
865.867
862.081
856.128
864.716
857.893
866.110
859.811
859.593
863.527
862.680
860.182
858.062
862.348
852.498
862.267
858.126
854.802
851.522
860.599
850.512
858.988
857.258
851.573
852.450
857.369
862.730
860.443
855.585
857.048
862.535
851.627
852.332
863.268
860.568
847.802
854.179
859.263
853.974
851.606
859.130
859.495
849.724
856.176
857.002
850.524
852.280
850.409
845.662
857.251
855.504
856.140
851.410
849.405
853.968
847.997
858.450
851.405
849.406
859.557
856.567
854.936
844.279
843.137
853.618
855.688
858.149
846.202
845.284
845.035
856.638
842.115
849.435
850.312
844.727
846.323
848.005
842.320
854.837
844.027
849.148
844.725
841.212
847.196
850.073
855.137
845.576
849.334
854.915
844.633
839.790
841.979
852.447
840.012
850.555
853.389
837.912
839.984
849.366
849.075
847.112
841.481
842.277
848.796
849.802
840.830
837.382
835.925
844.646
844.877
848.918
841.073
845.390
842.682
839.438
839.363
834.418
846.109
845.351
840.679
843.648
839.663
844.641
840.552
842.859
835.077
842.810
842.001
833.252
830.953
830.177
827.785
834.809
830.973
840.516
828.698
830.367
835.599
832.105
829.859
833.645
825.368
837.596
828.209
828.072
830.111
830.913
831.488
826.975
827.528
831.693
828.628
834.030
821.530
826.253
824.164
824.014
829.905
822.962
827.716
820.950
826.720
821.299
829.738
821.446
824.326
816.957
817.143
825.738
830.326
827.181
822.428
817.596
821.688
825.644
829.697
822.247
824.271
814.422
821.079
825.740
821.669
825.330
823.445
823.784
814.017
826.483
823.846
814.113
825.351
819.571
809.819
813.350
814.178
813.013
819.233
817.807
821.694
815.170
821.135
814.543
818.410
821.715
807.717
807.335
813.046
814.703
819.173
810.467
817.432
807.016
810.521
809.238
818.891
809.110
804.036
817.464
805.335
815.330
809.636
803.276
809.083
804.757
804.113
804.521
800.258
808.007
799.173
807.155
804.200
812.386
799.306
803.818
800.408
799.600
802.767
809.171
811.390
804.183
811.331
795.725
806.924
796.394
801.022
802.437
799.365
794.505
802.239
803.220
792.523
797.894
799.996
797.289
805.723
799.188
795.238
796.918
795.896
803.777
790.176
793.640
804.637
800.614
803.666
800.005
792.685
801.901
799.950
795.128
789.793
795.808
788.827
800.252
790.784
796.372
794.426
800.147
797.453
787.686
790.605
789.496
795.774
797.715
784.947
797.018
790.457
794.043
794.462
782.618
785.359
790.223
787.121
795.465
794.087
787.567
789.883
781.296
780.791
776.985
787.819
787.247
781.854
781.673
776.900
772.387
783.672
770.417
782.380
781.851
774.831
780.612
778.419
776.698
765.563
776.590
766.187
772.241
764.049
773.367
773.255
766.292
771.260
762.195
757.651
762.964
769.924
769.936
756.028
755.479
760.024
752.190
759.566
759.183
751.223
760.532
749.878
750.841
750.391
754.749
753.848
747.534
754.095
742.392
749.922
748.286
754.439
746.021
745.434
748.574
746.446
740.817
742.977
746.149
749.283
741.803
736.512
746.816
735.413
743.024
738.872
738.796
736.880
727.740
737.335
727.122
728.461
734.823
731.932
729.732
724.691
733.460
724.848
728.701
722.082
732.667
724.127
720.139
725.350
729.009
727.405
722.785
716.349
712.040
718.893
719.274
713.625
709.060
721.137
707.118
714.486
714.042
720.218
710.830
713.740
707.896
703.199
709.524
709.229
711.489
710.041
704.832
701.284
703.664
697.479
696.553
694.653
702.724
704.429
695.428
695.942
705.098
693.448
696.307
702.920
696.519
692.428
695.232
695.387
698.785
694.724
689.285
689.892
682.948
693.952
689.745
686.784
691.511
687.887
681.898
676.238
676.331
679.385
685.967
679.392
685.536
672.958
685.275
684.059
670.573
676.830
670.876
673.179
668.756
665.934
666.260
673.630
677.729
676.242
671.280
672.925
661.841
671.406
669.643
672.701
664.492
670.412
665.317
663.892
665.172
657.342
664.158
661.436
656.621
654.641
650.706
658.688
660.623
651.093
652.605
654.181
656.729
654.547
654.457
657.248
647.021
653.683
639.969
646.413
649.243
640.233
644.018
648.445
650.600
640.328
635.542
633.188
634.947
637.846
644.122
643.955
632.649
633.618
630.337
635.349
641.084
630.387
633.526
629.403
629.672
639.462
627.636
628.672
627.521
634.685
636.972
630.802
641.911
627.512
639.907
630.043
630.320
641.586
626.872
628.332
638.655
640.892
626.790
628.799
632.923
640.988
639.213
633.272
633.789
629.839
639.747
639.231
638.232
635.077
635.892
628.840
639.752
627.774
626.555
632.258
624.568
632.190
627.687
637.201
634.317
633.152
626.139
631.998
636.662
634.762
630.372
636.321
634.787
634.611
632.932
633.978
626.615
627.421
625.972
636.325
634.412
630.487
631.899
626.985
636.025
634.066
627.976
629.012
627.560
626.656
624.300
626.598
628.964
631.169
632.078
625.622
632.202
624.765
630.749
624.508
633.139
623.655
621.447
631.485
625.770
627.263
622.896
630.469
626.224
634.854
630.015
624.509
626.987
627.858
620.748
623.004
620.322
622.363
628.375
625.031
621.199
628.620
628.200
629.999
621.741
621.166
633.512
626.873
627.576
630.648
618.586
625.884
623.224
631.496
622.086
621.927
629.736
631.433
618.041
622.285
629.950
618.812
617.804
619.577
631.068
620.507
627.699
630.763
626.307
626.736
618.200
627.280
620.883
624.598
629.416
622.390
617.068
624.829
622.211
625.847
628.861
624.943
624.374
625.171
628.795
616.089
616.777
622.149
628.682
626.505
621.684
616.419
614.430
622.369
628.357
623.965
623.732
627.274
615.156
617.870
620.286
616.319
613.621
616.031
628.305
620.359
622.560
623.291
613.959
613.302
623.717
625.012
621.320
620.347
620.628
620.863
618.408
612.825
617.389
619.309
612.920
617.690
624.281
624.754
619.109
611.138
618.879
620.265
613.308
622.184
615.352
611.166
617.796
612.559
626.134
610.829
614.592
618.430
619.700
617.744
623.399
624.297
622.975
617.663
625.745
626.627
631.569
637.284
629.114
631.064
638.234
629.199
642.512
642.096
638.008
644.353
635.897
640.533
641.670
645.298
639.136
652.422
653.307
653.899
653.449
650.346
650.410
649.583
651.329
664.528
663.636
665.400
669.916
656.011
659.404
665.673
664.218
672.646
670.423
663.888
672.244
671.046
670.645
675.563
681.046
672.177
674.919
679.430
683.015
676.732
692.052
691.318
681.639
690.757
697.553
686.166
700.255
687.791
696.883
699.952
691.260
700.219
702.976
700.369
700.246
703.511
701.847
710.110
714.889
715.395
712.211
706.099
708.885
721.172
720.884
721.983
725.964
727.404
722.107
721.928
732.823
721.373
731.807
723.104
730.460
737.412
736.323
733.655
727.817
735.018
743.591
736.642
742.835
746.149
751.386
738.495
749.627
755.415
756.214
752.210
751.569
746.976
755.826
757.850
752.424
751.292
752.134
766.044
758.240
764.842
762.668
