107.310
115.918
107.920
132.704
134.785
115.636
142.842
134.879
111.342
141.343
96.252
114.408
125.939
103.729
141.324
109.261
133.173
112.705
139.178
114.549
125.680
126.995
98.767
124.569
99.148
139.612
105.444
144.334
100.599
127.714
109.724
134.237
134.928
140.276
129.998
102.725
117.816
138.107
133.916
105.232
121.639
100.751
109.346
100.858
109.815
145.088
117.855
135.951
144.317
111.951
142.460
118.288
117.117
142.778
102.708
125.544
119.708
97.472
105.513
113.901
143.565
137.373
129.506
129.932
117.560
138.036
116.665
102.975
105.966
132.118
131.273
139.735
140.948
121.659
110.629
140.273
140.521
137.557
141.142
141.861
146.590
139.768
100.814
137.531
125.323
138.672
116.166
127.623
103.752
109.303
113.591
144.337
144.064
110.697
100.324
122.313
100.968
146.093
134.312
141.847
135.476
100.531
145.764
116.744
132.482
130.629
143.713
95.323
100.571
139.418
121.517
120.072
98.027
131.949
124.088
114.353
123.181
100.861
119.360
117.235
110.667
130.967
99.664
124.263
115.411
125.170
144.091
109.530
116.237
103.199
132.446
125.013
120.072
133.737
118.567
111.518
106.986
135.533
116.831
120.508
123.006
126.729
106.683
107.123
106.064
119.882
111.620
107.739
144.191
96.056
131.033
120.505
96.133
127.122
130.653
122.261
123.185
131.035
134.879
118.248
125.685
137.330
122.806
124.348
142.001
128.700
119.710
123.418
124.657
141.831
115.274
107.070
98.812
139.566
145.510
103.808
114.706
94.921
118.612
130.911
110.462
116.154
120.047
139.901
96.554
134.837
116.844
134.928
136.194
145.988
115.145
97.086
100.901
129.703
128.670
136.205
124.264
139.432
120.235
111.862
122.329
96.338
121.827
122.158
101.171
104.349
108.494
124.664
109.630
117.990
113.707
134.907
135.942
112.693
110.255
99.986
114.335
105.520
106.048
113.491
120.528
130.351
132.677
130.549
134.954
127.511
108.790
132.226
137.895
114.020
111.963
119.151
119.089
112.544
123.243
96.507
132.927
144.592
121.039
120.152
109.154
107.471
103.063
123.559
102.350
103.058
116.708
105.312
141.932
102.557
129.688
114.077
100.487
143.288
136.997
103.001
123.704
104.454
122.661
103.824
120.835
123.195
141.797
124.655
98.499
142.551
118.398
112.895
135.986
117.087
118.613
114.670
98.289
101.676
108.324
133.599
121.013
116.137
116.003
121.185
130.693
134.557
107.318
141.100
123.668
128.522
122.765
128.891
95.949
103.507
102.775
137.055
140.886
113.941
109.676
106.110
119.570
133.465
108.940
97.251
146.489
141.204
97.428
114.958
120.656
102.441
129.345
98.551
142.742
132.721
95.204
145.544
134.181
106.650
117.077
99.378
117.758
137.700
96.275
126.274
110.687
126.615
122.503
138.456
133.187
136.238
121.594
116.525
133.217
103.772
118.238
142.009
126.084
104.036
124.890
145.678
123.523
143.129
137.485
109.620
140.930
138.464
118.674
100.734
139.242
100.896
100.780
122.933
121.060
132.614
122.960
142.372
105.749
143.335
116.677
97.548
133.714
135.539
103.154
118.815
127.841
140.402
97.901
99.824
118.040
103.260
144.929
132.632
111.790
118.942
111.417
142.561
141.346
135.091
114.211
115.264
128.057
127.056
145.255
134.885
113.211
105.145
131.152
122.640
135.711
100.306
122.076
142.557
132.939
119.821
109.628
122.570
124.372
116.811
112.078
103.082
139.638
137.968
114.674
128.497
103.851
131.880
122.774
109.184
129.437
129.201
103.690
140.344
96.536
123.228
117.474
100.464
139.303
121.718
139.871
109.933
121.554
120.064
98.300
130.406
109.102
119.592
106.310
103.294
144.108
97.263
103.714
111.604
146.756
134.989
107.223
95.745
113.889
102.434
119.740
145.365
117.430
105.747
120.660
125.559
134.312
136.191
100.661
119.059
135.665
132.683
106.048
95.254
134.150
132.350
114.558
144.547
99.500
113.462
115.865
119.579
125.966
95.201
117.463
137.448
145.466
139.081
120.357
96.606
140.340
98.681
120.193
139.984
117.976
96.410
104.907
110.348
112.432
131.417
107.523
139.372
101.892
102.083
132.308
128.471
129.393
102.173
129.277
108.012
114.055
137.867
129.880
111.028
112.428
121.308
117.474
99.049
139.169
133.019
96.014
142.719
133.427
125.548
97.215
119.151
114.031
94.774
111.505
138.487
113.516
101.581
114.260
139.239
102.578
129.500
101.857
139.903
119.989
134.937
140.483
121.922
145.855
106.140
97.832
142.721
95.708
118.971
145.218
133.611
138.470
144.899
123.172
117.226
95.442
145.218
139.757
109.038
129.999
121.352
125.999
130.908
130.052
95.524
102.650
104.968
136.717
122.699
146.446
112.300
137.287
98.042
104.290
105.025
98.353
98.060
104.360
99.760
125.539
119.468
121.633
137.294
110.745
126.471
119.614
126.015
128.637
145.496
138.559
125.798
135.902
137.487
141.451
118.040
105.396
102.123
125.516
125.659
106.753
134.918
128.572
139.057
108.827
100.465
137.245
132.255
142.630
125.569
97.468
112.917
115.825
142.435
127.914
127.216
145.139
141.800
101.043
99.056
144.319
137.859
109.892
121.128
132.634
124.588
139.756
117.516
136.773
111.875
113.480
135.638
98.232
95.063
105.439
97.825
124.901
136.921
143.976
111.940
140.919
120.590
114.944
134.598
138.083
139.958
111.558
104.767
104.339
133.381
116.882
102.937
137.350
103.074
120.703
116.265
102.216
107.015
141.790
130.638
120.659
106.708
98.997
118.615
135.479
106.288
103.692
130.866
144.764
136.750
143.462
108.268
117.399
136.881
130.646
118.715
144.876
109.154
125.615
114.164
137.711
97.576
96.137
114.366
133.937
134.003
106.604
122.809
109.343
116.304
96.012
136.184
115.677
118.869
132.141
111.995
100.479
118.236
95.021
141.479
103.054
143.379
135.286
107.454
116.421
109.554
135.968
134.606
102.333
138.168
111.419
118.812
123.064
144.348
112.216
103.743
112.879
127.246
119.718
145.526
119.681
109.741
131.548
129.647
121.841
136.428
104.140
105.722
119.676
110.551
102.614
106.969
123.347
136.817
120.584
109.848
145.481
110.206
100.630
115.253
143.467
135.793
108.936
109.984
119.463
97.872
125.879
125.072
135.015
138.937
127.911
129.533
123.891
116.072
104.756
139.843
118.425
123.702
144.580
105.020
136.968
110.906
111.814
102.356
138.230
136.635
138.833
144.168
116.845
100.305
130.970
129.702
115.829
139.020
139.623
146.455
105.242
145.149
121.264
124.998
111.269
123.015
102.979
96.393
96.525
101.952
115.840
140.761
136.115
144.323
104.747
104.410
116.816
142.969
132.724
113.456
107.627
141.537
135.009
117.627
111.146
145.989
117.904
140.381
124.519
113.236
109.820
96.786
121.219
130.925
97.076
101.639
142.469
118.253
146.613
95.055
134.678
101.738
132.013
115.294
132.960
117.214
101.974
101.752
110.897
141.913
133.272
95.428
136.681
117.693
136.918
107.593
125.046
137.685
112.977
98.964
95.397
114.478
108.771
126.852
115.242
95.754
118.847
107.549
116.896
145.548
112.074
115.802
105.665
100.488
124.438
135.316
116.502
121.383
110.348
136.879
115.044
135.152
99.997
134.441
128.570
107.631
110.920
131.301
96.132
103.081
115.520
132.102
110.524
144.160
99.801
146.074
127.823
113.639
141.646
108.011
97.344
133.513
130.326
100.616
138.860
115.177
103.007
107.088
106.254
141.436
143.972
95.373
144.598
135.793
116.457
101.669
123.136
111.437
143.298
105.119
143.515
133.066
106.025
145.290
146.365
109.485
99.845
143.578
134.359
118.985
106.254
133.054
140.756
116.255
109.823
109.838
126.524
102.519
102.900
95.171
131.699
107.439
102.836
104.649
116.409
134.516
126.364
103.678
102.332
117.452
109.641
146.419
141.192
103.701
142.854
121.495
107.391
132.555
106.983
107.040
109.709
99.456
139.909
110.216
128.219
145.970
101.000
134.568
115.350
105.638
125.961
137.558
125.033
106.365
130.306
122.446
114.850
102.956
127.593
116.658
138.724
97.832
115.589
119.555
129.550
113.576
124.541
139.789
105.145
96.908
143.243
106.383
119.873
120.528
113.255
119.641
105.727
125.278
123.275
125.057
140.800
131.513
103.368
133.068
108.983
100.086
135.672
99.153
142.061
144.679
138.112
135.123
112.773
134.639
102.077
141.914
116.037
105.904
97.419
97.322
129.082
107.018
133.330
96.196
109.509
121.939
103.049
105.403
108.619
141.952
112.960
127.662
115.304
125.316
120.773
124.303
143.862
132.480
111.736
99.941
133.049
115.572
143.273
108.681
103.696
131.995
112.683
126.559
140.674
123.219
95.959
105.463
140.363
136.213
130.435
103.944
126.143
136.742
121.600
128.133
122.787
117.058
131.469
125.952
106.468
124.858
125.468
141.867
114.395
131.506
99.234
146.243
143.261
107.127
110.388
106.159
112.364
117.507
140.721
102.765
138.493
127.069
145.518
119.850
109.199
95.049
132.474
113.665
112.836
128.144
107.708
144.951
108.846
113.101
145.370
111.368
104.252
121.380
97.774
143.863
133.195
117.352
96.055
143.352
116.911
110.139
120.366
118.799
124.469
146.089
100.772
115.837
98.217
145.671
123.930
105.198
129.988
127.854
117.993
133.887
106.089
98.481
138.404
105.890
123.609
136.650
100.314
139.774
100.044
113.755
102.061
119.605
116.512
133.026
97.948
101.238
140.878
130.516
102.256
94.913
121.924
115.094
103.963
144.596
112.785
143.234
110.012
140.063
138.296
98.036
95.105
143.934
124.192
106.154
139.792
117.770
130.981
113.729
121.384
129.597
102.735
96.606
104.176
145.952
104.934
136.578
99.074
131.461
103.658
116.608
144.448
134.565
109.377
146.245
119.610
98.826
130.298
101.993
105.475
102.676
109.499
123.782
111.698
145.121
134.406
109.263
122.887
143.491
94.945
118.916
139.468
110.183
108.078
98.211
142.254
134.984
111.704
111.148
126.666
120.812
121.500
95.109
95.640
139.483
131.241
139.841
143.721
113.756
110.729
116.765
122.895
124.194
104.886
137.083
106.336
109.905
120.746
129.038
122.805
123.737
102.352
103.849
101.496
98.700
116.657
135.240
100.494
124.693
134.774
110.786
116.483
127.620
144.128
124.166
132.917
96.855
107.686
96.494
124.250
117.118
100.101
105.086
99.483
128.106
140.388
122.234
100.716
117.443
125.850
97.595
119.694
141.405
132.972
136.695
122.460
128.812
130.099
133.679
107.105
131.765
123.650
141.687
136.910
109.283
103.401
120.185
102.297
106.357
109.414
127.438
142.257
126.461
103.826
124.490
134.064
97.575
113.088
100.662
124.153
115.742
132.378
119.709
130.545
95.284
116.532
128.476
125.455
134.254
131.331
95.168
116.639
112.990
136.782
129.675
95.051
118.395
143.905
99.662
130.460
116.955
130.965
105.866
99.228
113.123
115.084
137.383
130.055
120.165
107.277
107.200
129.226
124.910
105.119
133.245
119.979
123.698
133.884
127.821
124.559
126.433
99.119
123.165
112.225
105.797
95.971
140.571
129.388
118.609
142.796
97.540
117.283
97.282
140.900
131.720
115.214
101.844
132.551
105.298
130.846
119.743
108.655
125.873
112.722
111.674
138.305
121.265
117.106
103.018
107.542
134.075
107.182
127.974
140.363
136.998
119.228
126.131
120.509
135.167
132.744
94.860
97.667
103.609
129.713
97.491
111.015
128.189
117.781
104.116
135.176
125.062
133.915
123.099
104.800
123.227
103.161
119.041
139.081
140.740
106.912
135.730
109.624
98.921
131.525
139.289
140.407
138.496
125.681
130.530
128.307
117.375
117.599
142.230
144.365
114.568
119.931
99.560
131.626
134.313
101.520
131.032
112.597
120.251
127.868
105.157
95.056
101.682
106.994
104.893
104.851
132.115
118.196
98.057
109.778
105.625
105.424
126.930
138.127
109.077
137.641
123.614
99.849
142.638
100.045
104.518
133.501
138.774
126.921
132.919
106.726
115.948
128.997
129.824
126.598
110.994
120.629
130.482
126.581
102.101
129.367
125.105
141.122
96.162
95.302
122.279
124.679
109.776
141.432
99.334
130.224
133.002
115.646
105.981
132.944
114.486
132.682
99.030
118.431
122.958
137.461
117.287
135.297
122.842
122.700
103.980
126.165
146.040
105.543
125.784
125.106
107.155
99.478
117.686
103.419
143.962
105.110
139.002
141.470
110.402
141.296
113.834
118.854
120.408
95.986
104.251
129.145
106.099
138.843
145.851
133.095
94.794
131.828
145.787
128.074
99.196
130.009
124.087
115.711
125.708
144.731
114.342
142.557
122.633
132.935
108.922
116.787
99.499
133.191
130.989
138.530
137.596
115.555
115.355
138.279
96.410
128.182
96.335
131.444
113.610
103.154
102.666
120.831
137.490
126.788
101.813
98.524
113.438
103.172
122.003
144.279
98.205
126.129
142.536
126.185
124.450
121.063
130.322
141.515
135.821
141.234
98.853
137.672
118.581
98.511
136.089
111.692
120.793
100.724
132.144
115.375
136.932
127.124
102.465
136.277
145.071
96.099
112.813
133.333
107.682
141.421
109.582
96.038
146.598
122.548
105.499
97.941
117.062
96.159
106.163
137.126
103.659
101.213
135.046
134.253
111.972
132.563
137.014
122.186
129.870
94.912
143.953
101.662
108.789
96.245
130.181
119.719
145.951
108.096
133.566
106.288
145.940
146.501
135.653
106.552
141.909
139.466
96.350
139.262
136.373
107.438
101.468
145.087
115.089
104.912
138.457
127.224
139.964
115.490
127.809
120.051
109.233
125.532
107.090
133.718
128.620
124.851
102.447
102.469
117.037
124.353
145.763
99.639
135.279
122.549
115.675
142.988
146.300
128.070
145.652
109.275
128.502
112.094
104.739
140.895
132.786
99.977
137.485
119.960
106.645
146.521
99.941
111.711
135.760
105.033
107.203
101.695
122.813
135.577
116.412
103.592
126.799
145.582
112.907
108.305
116.056
99.192
131.781
128.273
140.666
141.217
100.642
103.387
117.720
122.491
40.711
30.445
44.322
33.649
43.631
44.057
42.934
40.569
30.743
41.495
35.359
34.049
38.263
38.753
37.330
38.272
45.106
32.075
37.393
32.002
44.629
31.682
39.626
32.893
34.918
42.380
30.710
37.153
30.567
30.599
30.899
44.698
33.178
30.173
36.607
39.272
41.466
43.803
38.535
33.781
43.961
38.614
35.882
38.329
35.337
42.883
42.326
1564.134
1578.662
1565.636
1575.491
1560.812
1573.636
1562.070
1568.169
1562.318
1556.270
1570.504
1580.994
1581.687
1560.060
1566.346
1568.811
1556.520
1564.846
1576.240
1562.272
1557.292
1573.530
1557.278
1582.728
1570.584
1565.382
1564.750
1574.936
1566.318
1585.887
1565.460
1562.799
1571.461
1563.984
1571.062
1586.335
1573.986
1581.843
1568.561
1576.936
1572.177
1571.591
1563.284
1582.164
1581.502
1588.207
1576.393
1580.471
1579.397
1575.460
1569.327
1584.823
1591.682
1568.286
1591.212
1578.681
1592.262
1576.204
1575.532
1569.901
1571.718
1569.544
1573.919
1577.561
1571.795
1584.535
1570.834
1576.217
1575.058
1580.702
1596.631
1579.528
1589.945
1596.798
1593.532
1578.607
1583.763
1589.849
1582.553
1595.959
1584.368
1596.569
1572.852
1577.879
1591.407
1587.857
1598.192
1579.523
1597.223
1594.891
1597.054
1594.558
1601.295
1597.199
1585.963
1590.539
1601.734
1594.507
1588.300
1599.362
884.345
879.738
878.472
881.811
876.802
887.591
889.066
880.386
885.874
882.356
879.803
882.734
885.914
878.817
891.546
893.636
886.022
890.063
891.315
878.591
893.836
891.636
886.458
892.443
888.380
892.830
890.918
881.130
893.183
889.555
890.954
887.664
887.899
887.807
888.061
889.670
896.504
895.528
894.223
884.201
888.002
896.730
889.865
883.168
890.977
883.363
893.230
895.445
897.472
882.912
889.853
885.842
892.145
890.008
896.338
888.304
893.850
884.439
892.165
898.129
899.841
894.326
899.417
893.346
886.177
891.935
888.493
899.006
892.086
885.337
900.328
892.812
891.318
893.224
888.396
885.990
890.451
888.789
886.601
893.518
886.705
891.314
896.504
897.753
897.173
893.935
894.368
898.770
895.830
894.772
902.242
896.527
896.259
901.942
892.475
899.500
903.255
900.193
891.330
894.278
901.813
902.311
901.887
897.845
900.335
895.845
890.175
890.740
882.327
891.016
882.281
889.829
883.270
883.464
885.761
873.649
884.353
878.925
881.574
874.189
879.522
873.040
877.504
870.672
862.303
870.020
867.777
858.083
863.972
866.031
867.409
865.088
851.041
851.884
858.202
849.298
854.938
849.870
845.787
847.640
842.374
843.224
845.854
848.946
845.427
834.455
847.508
835.727
832.679
843.884
835.809
839.659
829.645
834.591
830.547
832.810
828.785
825.330
823.475
822.785
826.555
825.430
818.762
812.405
815.801
809.489
820.251
816.479
804.348
817.210
806.466
813.009
814.140
801.247
798.008
811.238
794.488
793.719
792.355
798.435
802.116
803.788
788.469
791.166
798.655
793.517
785.986
794.409
782.241
785.678
782.181
781.868
786.221
775.411
783.036
786.439
777.842
769.304
779.289
766.926
780.205
778.135
774.510
767.182
772.806
760.654
766.994
770.715
762.517
767.869
754.571
759.796
759.055
755.715
753.208
761.043
759.433
757.146
746.431
748.742
749.337
738.949
745.257
741.699
739.920
733.126
736.516
737.012
732.342
743.487
731.579
739.388
734.522
732.829
730.429
734.395
728.612
724.564
725.879
728.461
720.113
716.087
