119.052
97.144
88.393
120.468
98.353
86.187
107.436
113.321
107.448
103.263
113.044
105.929
112.813
99.677
96.741
97.115
101.508
120.182
83.164
122.722
84.255
108.121
101.133
116.855
94.346
113.948
110.928
116.221
89.049
85.468
97.334
115.495
121.212
90.159
91.107
119.453
124.356
101.515
124.734
96.195
101.071
101.103
112.983
87.985
124.514
109.946
117.456
95.873
112.251
97.165
105.535
92.435
115.775
103.812
113.889
81.476
121.959
91.706
125.387
92.225
95.564
92.191
84.593
90.665
124.453
99.329
104.188
90.185
121.145
124.814
123.937
107.503
92.118
98.751
94.948
121.535
103.511
101.104
116.366
113.284
120.480
116.084
98.734
119.488
122.393
88.694
119.899
85.636
96.327
108.593
123.173
98.274
96.615
122.017
98.481
85.639
96.494
122.178
101.571
87.290
89.162
112.721
123.010
111.575
82.183
99.700
115.883
99.754
118.504
93.840
107.821
123.961
83.768
113.137
114.879
124.504
115.930
117.403
118.238
99.993
84.137
126.323
102.211
89.229
83.599
84.636
112.204
84.559
109.539
126.692
95.612
96.361
112.268
102.164
89.380
85.676
85.713
127.711
95.678
104.740
123.932
127.499
121.735
93.160
126.993
83.755
114.872
126.054
94.931
109.452
102.388
86.343
96.664
94.514
114.378
124.219
114.367
110.001
99.880
117.509
90.661
119.318
103.654
124.146
119.240
94.009
94.024
104.313
98.036
87.945
110.464
101.619
95.582
84.401
126.645
105.113
125.698
118.215
128.093
112.390
111.577
98.378
89.636
120.974
91.696
110.754
88.336
118.507
85.057
126.071
95.459
111.672
109.297
109.497
108.321
85.153
127.040
127.638
93.418
108.240
93.291
127.144
108.752
910.292
923.553
941.023
943.418
945.784
945.631
950.603
961.016
950.562
953.397
951.747
953.155
969.735
966.070
977.741
975.745
974.965
982.951
1004.964
1000.310
1013.889
1004.725
1001.406
999.099
1011.903
1013.464
1024.148
1031.634
1024.458
1048.724
1051.081
1047.042
1052.378
1041.708
1065.934
1050.640
1054.427
1062.005
1079.079
1073.099
1080.318
1084.449
1094.268
1088.969
1100.749
1104.851
1098.294
1109.806
1104.206
1134.254
1134.753
1134.991
1135.007
1142.369
1142.792
1134.583
1141.074
1157.540
1161.537
1162.719
1152.005
1156.566
1169.231
1188.908
1175.128
1173.740
1199.488
1198.124
1200.373
1205.397
1204.270
1215.203
1228.631
1224.823
1217.834
1223.947
1224.867
1241.536
1240.608
1246.390
1255.711
1250.124
1258.451
1265.786
1273.375
1255.118
1278.516
1283.168
1287.875
1273.740
1284.442
1286.839
1307.470
1309.274
1306.805
1309.748
1327.767
1327.632
1316.222
1333.898
740.862
742.820
740.765
741.952
752.541
757.706
750.060
750.456
763.910
763.828
769.451
762.682
763.993
772.950
775.043
779.869
772.454
776.821
786.348
781.097
788.183
784.702
788.422
790.019
789.863
789.085
790.493
797.663
799.557
806.683
815.074
813.814
818.728
818.300
822.335
820.627
821.960
819.301
827.025
829.566
837.595
834.363
838.116
832.762
847.136
836.894
838.648
846.753
841.517
858.749
859.243
851.842
855.192
853.978
869.833
862.595
864.813
862.664
878.085
875.836
869.635
881.206
886.172
880.755
878.378
894.483
896.765
893.666
898.310
889.703
892.550
905.270
899.429
901.408
903.686
911.159
908.129
912.794
916.558
917.694
925.951
931.162
923.365
924.923
926.776
927.960
937.492
945.895
933.311
939.083
938.247
953.747
948.721
951.701
960.847
950.865
959.696
957.692
966.645
968.136
971.543
971.641
969.778
965.804
958.080
956.132
951.118
959.276
956.746
959.133
953.279
951.319
943.167
942.452
950.595
953.415
948.959
949.285
942.222
938.114
942.240
930.959
940.386
930.952
925.433
928.649
929.241
934.146
925.369
922.568
929.176
929.533
927.271
924.976
916.201
923.246
913.357
908.920
914.867
904.664
905.462
913.117
908.297
912.002
908.944
900.440
905.681
896.537
890.950
901.233
892.476
886.059
890.131
882.830
890.487
879.241
885.682
876.337
879.544
873.646
874.505
872.563
876.329
872.687
870.691
874.541
877.128
875.208
875.700
858.888
868.896
867.980
854.541
862.580
856.502
861.375
864.299
855.578
845.533
852.806
853.252
854.032
841.566
849.779
845.733
845.497
837.439
842.738
833.009
842.208
837.593
838.696
825.592
829.725
826.645
832.833
832.103
825.371
821.902
815.858
824.402
825.874
812.929
813.717
814.053
812.505
814.373
804.201
808.571
812.813
814.022
802.167
801.291
805.194
793.832
798.915
793.060
798.236
787.638
790.803
788.898
786.845
796.021
783.214
782.885
777.803
786.280
784.273
778.709
777.991
772.623
771.984
771.395
779.674
767.389
776.070
773.621
759.816
761.670
760.779
769.902
759.529
765.869
756.075
755.465
753.096
759.536
758.318
743.851
748.924
755.213
742.081
752.251
738.501
740.339
732.797
745.010
731.702
739.487
738.549
728.544
725.323
734.825
727.245
721.401
723.144
719.598
729.907
720.354
721.704
724.096
714.723
722.448
711.611
709.580
708.640
705.033
712.440
707.133
706.656
698.864
708.263
700.501
705.013
694.383
689.778
690.625
695.367
692.929
691.628
694.339
692.428
682.276
680.398
679.252
688.528
672.669
678.699
677.761
676.915
669.362
673.880
676.016
682.306
683.285
681.698
676.094
687.341
677.992
685.591
682.928
687.635
679.899
680.175
687.366
687.110
680.940
690.100
694.563
682.350
692.639
690.790
686.667
691.496
695.469
690.148
700.825
700.746
694.108
697.815
699.434
706.262
693.170
699.939
696.408
699.796
697.810
709.248
703.389
705.094
714.872
708.228
713.160
706.794
717.764
717.237
708.334
712.461
719.275
715.122
719.005
713.728
713.259
722.250
721.163
721.176
714.335
725.213
719.756
725.853
715.325
725.507
725.949
723.324
731.928
723.891
723.128
727.318
734.132
726.863
726.622
734.734
734.461
732.786
728.809
740.407
731.122
732.128
733.231
732.965
738.448
745.650
734.933
747.490
748.589
746.573
736.424
742.440
750.256
747.656
753.065
753.097
744.971
754.346
756.347
752.426
751.187
745.663
749.229
748.585
762.200
750.922
750.907
756.327
757.697
752.411
753.885
765.530
757.883
765.523
771.724
772.204
760.274
763.979
767.378
763.153
775.250
769.648
764.254
764.440
769.005
767.407
780.519
779.811
778.257
768.123
776.648
776.442
780.576
775.365
777.553
783.567
784.650
783.174
778.478
791.748
788.685
785.944
789.089
783.995
792.237
788.202
782.603
785.355
787.609
792.747
800.752
795.681
793.474
788.615
804.035
790.471
797.616
801.986
794.137
794.097
807.592
799.694
797.076
809.557
809.055
813.076
809.390
803.019
806.138
811.216
809.697
813.241
806.438
817.353
820.320
806.678
810.430
808.328
808.882
815.182
818.261
817.371
814.676
812.233
822.994
816.290
818.248
822.089
821.511
821.291
830.566
833.752
830.446
824.467
822.178
830.710
827.880
828.929
825.514
826.021
838.508
831.366
839.860
839.349
840.839
831.023
841.061
844.648
836.988
839.076
833.652
846.093
845.893
842.811
837.657
842.657
846.436
841.479
839.617
838.183
835.808
843.754
839.712
841.111
846.459
851.914
842.619
850.688
853.953
842.289
849.366
853.364
848.044
847.490
851.681
853.726
846.415
854.512
846.721
845.655
855.761
849.872
846.005
857.269
849.945
846.479
861.054
850.105
854.046
853.381
858.568
851.589
859.847
861.511
859.132
860.672
853.755
857.901
854.504
863.280
855.426
857.401
860.280
861.020
858.275
866.280
861.433
858.169
864.448
859.038
859.907
869.768
859.857
868.474
874.153
868.300
861.346
864.806
864.373
869.505
866.220
865.078
866.210
863.972
872.458
879.103
866.340
870.779
871.695
876.841
865.946
868.103
867.221
869.068
869.660
877.357
882.983
872.023
878.131
884.438
883.740
881.468
878.199
882.025
876.139
873.953
878.532
877.162
886.652
875.311
874.856
887.416
885.663
886.218
887.406
881.461
889.757
879.001
881.125
880.671
893.819
891.710
889.822
891.485
889.701
884.705
883.173
888.974
887.136
882.952
885.399
887.319
884.337
886.222
891.693
898.688
894.392
886.430
891.645
896.732
893.281
897.160
900.826
892.157
901.277
893.147
902.589
895.513
899.474
902.773
895.274
896.421
903.464
893.686
902.804
905.907
906.988
898.762
910.581
899.029
907.381
910.160
903.789
900.799
907.941
909.818
907.256
903.345
913.754
900.467
900.467
902.791
914.563
902.314
906.328
913.853
905.652
916.350
909.671
915.963
912.158
910.829
905.663
913.952
908.248
919.074
919.262
915.279
912.486
909.292
917.379
920.245
925.324
921.805
915.291
913.754
920.504
922.098
921.657
920.388
919.295
914.549
915.947
916.900
916.404
925.102
923.597
920.893
923.883
933.349
926.071
929.252
931.131
930.154
930.291
923.352
933.636
933.147
932.415
929.629
928.851
932.087
931.093
930.499
941.523
935.120
935.339
933.238
945.510
939.904
948.796
938.765
945.588
949.462
947.748
949.123
943.532
949.172
942.662
946.471
955.498
947.431
943.403
949.724
947.131
950.321
944.642
951.842
953.546
948.435
947.978
957.898
951.184
955.290
951.229
960.067
956.951
956.114
958.863
962.447
957.678
969.399
956.478
959.833
961.369
969.237
968.306
962.935
963.098
972.031
962.050
975.366
975.361
975.089
965.062
975.128
972.273
976.090
971.231
972.345
975.150
977.313
974.233
979.710
983.446
985.473
983.744
975.840
975.469
983.664
989.810
978.455
986.470
978.518
984.886
990.566
992.999
991.938
987.602
993.540
997.834
994.860
994.974
999.131
1000.385
991.684
993.955
1002.741
991.574
996.327
999.931
998.719
1005.175
1002.579
992.930
993.613
994.264
995.433
997.862
996.214
1006.420
1012.998
998.622
1008.064
1004.664
1005.218
1001.169
1008.157
1013.908
1010.503
1008.604
1015.125
1007.203
1012.262
1019.731
1019.927
1014.604
1022.042
1012.645
1017.245
1020.876
1023.317
1021.291
1021.855
1014.829
1019.626
1024.443
1026.801
1029.273
1021.485
1021.641
1020.600
1024.091
1025.460
1030.086
1026.243
1024.100
1028.377
1029.083
1032.510
1026.590
1038.068
1039.005
1040.326
1038.084
1036.637
1038.681
1038.073
1042.473
1044.810
1034.486
1046.245
1039.186
1042.147
1039.959
1047.220
1045.070
1049.970
1052.521
1042.506
1048.043
1040.256
1052.161
1044.235
1044.638
1050.737
1056.245
1047.051
1050.706
1058.075
1060.875
1048.346
1050.997
1061.689
1059.574
1055.145
1055.794
1063.548
1061.966
1054.998
1065.821
1066.471
1061.258
1055.014
1068.407
1062.435
1055.805
1066.432
1052.177
1050.218
1056.098
1054.080
1048.806
1042.562
1053.416
1050.221
1047.079
1043.243
1036.129
1046.983
1041.319
1043.541
1030.311
1038.447
1029.629
1039.793
1023.727
1026.844
1025.192
1021.828
1022.393
1026.940
1023.109
1023.424
1022.330
1015.630
1007.518
1011.565
1014.203
1010.573
1006.143
1001.891
1005.566
1010.046
1010.432
1005.601
1006.217
990.880
997.972
996.882
1000.425
985.855
986.165
992.569
993.899
980.039
993.202
978.448
985.628
974.362
979.360
984.145
971.541
971.435
971.843
966.505
970.470
968.720
961.115
965.838
959.163
957.671
955.938
957.520
966.110
955.909
947.475
954.715
950.677
945.241
944.224
941.068
940.759
950.052
948.267
943.381
936.028
936.571
932.360
936.262
936.414
940.027
924.020
936.099
933.919
922.981
928.654
918.074
927.874
918.718
926.903
915.067
914.761
912.333
913.005
905.560
906.511
915.101
907.634
904.230
903.549
895.796
902.901
905.292
901.158
898.974
895.795
888.946
898.975
891.000
885.446
881.392
888.766
883.359
881.747
886.669
881.868
881.886
872.841
871.617
878.346
876.819
866.927
873.980
873.116
858.907
861.940
866.529
855.228
856.191
864.924
860.455
858.524
861.389
848.377
853.312
852.463
851.655
847.565
843.194
848.703
836.433
842.246
839.564
843.572
835.898
831.892
836.818
836.276
823.324
829.358
833.342
830.043
830.842
827.731
813.905
817.990
813.833
819.530
814.776
810.661
813.945
802.899
815.929
807.350
809.892
799.920
809.975
795.660
799.710
792.503
792.253
801.748
786.453
797.268
795.090
789.475
791.357
786.137
791.482
783.593
774.744
783.445
776.070
774.884
769.639
778.021
767.405
773.274
766.373
763.608
765.279
762.559
760.880
765.175
767.609
756.900
757.617
757.297
766.188
759.168
761.870
753.802
748.918
759.329
755.446
750.449
753.921
756.737
757.711
756.431
751.195
751.600
753.233
745.765
744.533
742.473
738.637
741.167
751.826
742.128
744.697
739.166
740.128
738.229
733.315
741.696
734.816
745.477
734.019
743.065
743.772
736.999
741.518
732.936
734.475
725.544
739.339
731.355
729.497
729.259
731.251
730.572
731.048
731.394
721.911
728.509
729.154
728.433
722.450
718.399
728.860
726.965
713.886
719.948
726.180
713.976
716.214
723.878
720.998
712.909
717.893
716.974
708.746
707.869
711.134
709.319
717.010
714.542
712.028
701.968
703.582
708.778
708.919
704.835
704.259
701.106
709.153
711.908
704.036
697.803
708.178
703.842
695.333
693.041
696.460
700.442
690.512
696.311
696.163
696.306
695.622
694.936
692.115
692.924
690.416
696.330
683.000
690.154
690.146
687.374
693.166
689.664
684.164
689.197
691.350
680.310
678.148
690.193
682.454
689.142
679.481
678.700
680.976
682.464
673.061
670.202
682.580
670.582
672.172
668.034
674.793
668.198
666.448
665.068
676.935
667.401
664.387
672.044
660.975
661.866
662.822
668.532
659.413
663.956
664.690
668.671
660.632
663.193
657.264
663.475
659.733
658.475
658.349
660.342
664.593
656.100
652.202
657.270
661.255
652.151
660.158
658.166
646.338
657.279
658.450
644.881
652.001
652.395
651.019
641.381
650.178
638.748
652.767
649.529
641.392
648.088
647.512
635.574
648.434
646.721
642.474
638.254
638.242
640.956
630.034
638.848
640.385
637.472
635.693
639.220
631.875
634.638
638.293
636.589
627.251
621.360
632.370
625.914
629.499
625.204
626.778
629.956
624.713
624.865
623.423
618.680
620.719
625.235
626.456
627.893
626.933
627.132
625.772
639.894
640.579
633.035
638.993
640.761
638.127
639.624
640.142
642.031
639.439
639.863
652.895
651.066
646.083
645.735
643.377
647.709
647.101
657.774
658.440
655.105
652.031
658.928
654.080
664.380
656.627
661.823
661.540
672.955
667.934
670.097
673.302
668.875
670.945
670.919
680.284
676.731
677.158
680.682
681.113
681.424
676.050
675.557
679.475
689.027
676.682
689.585
691.820
680.513
691.644
685.676
696.501
696.894
687.046
691.794
698.366
693.934
697.499
697.412
698.764
695.231
703.513
707.215
705.493
697.927
706.153
706.884
714.103
715.155
712.324
714.888
717.322
707.274
709.137
708.981
709.273
714.712
711.552
723.654
725.651
716.231
715.682
718.158
725.501
727.742
725.579
733.395
731.653
723.903
727.160
741.001
737.287
737.433
729.143
735.141
732.100
733.784
735.221
741.325
738.184
749.146
745.604
752.749
741.548
754.614
750.032
744.777
755.697
747.020
747.990
748.270
760.653
761.747
753.681
765.337
759.685
760.599
756.873
759.883
763.837
763.905
762.824
771.807
763.175
766.194
769.448
778.344
772.355
773.414
770.115
772.403
770.633
785.171
776.898
785.988
787.483
777.017
783.849
779.970
779.016
781.263
794.212
789.520
792.442
786.767
795.471
801.989
798.176
788.854
793.502
797.944
792.586
803.691
801.199
806.773
797.552
800.959
805.243
809.855
810.995
809.940
803.203
819.769
809.162
816.968
818.701
816.759
810.565
811.727
817.444
821.537
817.280
825.790
828.274
828.463
821.770
827.766
824.309
827.829
834.281
828.020
830.074
826.664
837.116
831.033
845.019
841.078
834.796
841.883
848.409
836.651
845.879
843.194
840.643
847.387
840.969
856.202
844.242
854.150
851.763
852.444
853.076
849.035
860.767
858.251
851.411
856.857
866.904
858.830
860.639
867.579
862.353
859.112
869.327
863.396
870.101
866.688
871.117
873.008
874.736
878.358
868.558
877.204
871.930
880.862
880.076
880.577
876.321
886.210
887.246
882.904
880.118
879.214
880.158
885.967
895.379
888.347
894.914
885.414
899.324
896.947
899.111
889.533
899.041
896.817
899.179
898.728
903.335
897.150
898.958
899.479
907.845
900.230
911.887
906.046
904.460
918.972
913.690
913.237
911.795
909.073
914.937
924.821
924.332
925.655
913.853
917.042
925.291
930.966
920.767
928.723
935.054
930.829
924.764
922.840
936.363
926.534
938.301
940.745
942.517
932.112
935.057
935.134
934.911
940.086
944.942
935.204
939.919
947.443
954.149
941.660
949.567
944.596
946.087
958.137
946.181
951.584
959.298
949.207
957.935
963.977
954.705
965.386
968.105
963.904
968.960
968.671
964.648
973.493
972.015
965.531
964.073
970.624
967.517
970.026
969.376
977.482
973.739
981.985
984.393
983.037
980.040
983.025
985.092
980.898
979.884
992.633
979.792
994.386
994.924
989.800
989.681
988.826
993.546
985.288
989.494
997.221
999.327
998.316
994.702
1006.417
1005.514
1004.580
1006.430
1001.907
1006.265
1003.788
1011.776
1009.047
1004.901
1014.254
1013.932
1018.322
1017.235
1021.255
1013.714
1014.343
1020.453
1021.717
1017.691
1012.623
1024.751
1014.594
1015.575
1019.977
1020.747
1021.658
1028.927
1036.201
1030.426
1024.299
1023.977
1037.666
1033.201
1027.296
1037.080
1044.048
1035.245
1040.205
1046.358
1039.297
1047.583
1050.631
1041.928
1041.479
1038.894
1044.913
