140.823
140.952
131.735
116.491
95.613
106.042
130.621
95.443
126.120
141.417
136.531
107.410
116.043
124.339
124.106
136.745
120.684
141.209
128.901
96.687
120.378
138.530
137.077
122.436
132.598
113.115
114.994
124.048
138.227
111.624
98.763
145.417
126.649
115.711
126.111
110.871
124.034
134.468
123.056
113.727
102.700
135.411
136.509
109.909
99.631
144.089
103.051
101.504
104.784
111.175
111.078
140.662
107.642
97.295
124.890
144.494
97.832
110.010
137.657
127.455
129.570
107.371
144.627
95.972
102.538
109.651
127.773
141.858
108.659
124.662
130.082
135.890
119.947
113.944
96.192
95.403
114.756
133.465
106.143
104.142
136.390
132.850
124.381
139.132
126.939
122.465
137.077
97.209
114.233
112.827
114.346
112.599
103.780
135.881
109.545
125.215
111.579
110.408
124.962
95.791
121.605
136.705
126.815
113.673
104.233
110.694
133.584
122.237
130.091
113.612
121.307
142.206
117.528
118.399
98.211
115.983
101.207
136.657
106.329
110.255
121.352
121.731
136.743
113.563
127.834
131.036
135.639
120.526
128.215
142.505
129.788
146.520
121.394
127.386
144.433
127.892
108.154
136.730
138.098
123.945
128.879
123.547
96.527
96.886
105.484
98.810
100.952
105.297
113.747
143.030
126.606
103.713
129.138
112.229
132.236
139.402
127.409
142.066
105.887
108.713
96.297
111.115
133.010
121.312
138.206
137.453
119.617
102.733
115.093
118.623
139.598
96.221
111.879
104.644
109.704
124.437
141.665
129.987
145.097
112.836
135.042
98.568
117.931
137.568
107.323
102.713
136.664
112.800
115.528
106.663
114.731
144.002
110.881
121.017
114.048
129.379
119.830
97.651
104.237
97.520
110.954
130.835
128.934
131.568
103.768
120.022
111.872
120.738
122.956
146.096
98.517
120.268
135.189
142.927
104.923
95.778
100.452
107.216
130.062
122.855
127.032
120.117
100.068
106.394
128.852
141.281
110.280
104.160
124.190
127.994
145.237
130.122
128.797
112.522
111.473
126.424
99.206
143.081
113.162
144.792
101.939
120.436
119.110
113.011
128.589
99.299
113.726
141.087
145.814
95.475
96.543
126.517
127.128
119.856
97.670
112.437
96.059
137.945
108.891
139.168
121.025
145.900
140.868
115.123
110.022
111.297
133.141
129.680
142.017
94.956
137.330
113.491
118.814
112.752
136.190
95.608
112.709
115.046
128.130
137.084
125.149
108.448
125.182
112.693
109.248
134.585
125.804
111.353
134.861
100.122
98.641
122.160
143.325
142.981
118.792
107.078
99.825
105.399
132.466
114.777
113.596
130.306
104.780
96.784
101.817
146.241
108.678
100.815
146.872
122.021
125.049
100.951
132.466
110.941
132.055
121.792
126.766
114.647
103.452
111.676
105.103
127.235
106.410
134.015
116.652
111.221
123.292
130.024
135.502
125.867
127.596
134.581
121.783
97.084
99.961
100.413
117.670
120.036
97.971
146.438
110.938
125.913
127.258
146.761
113.005
120.307
139.857
96.876
111.847
109.282
98.724
132.118
143.103
113.518
134.937
128.438
145.871
138.972
136.917
116.801
122.288
111.531
125.647
100.321
113.406
127.599
103.083
98.130
143.232
136.891
97.570
120.180
102.247
109.202
109.007
142.798
104.244
143.107
118.138
137.682
100.534
129.246
119.977
138.675
99.068
142.520
113.112
122.772
115.630
137.966
99.441
145.969
108.173
115.730
105.582
137.364
118.586
127.907
107.071
133.257
103.148
131.720
105.379
148.528
136.434
109.263
115.551
141.286
131.072
143.171
138.345
103.280
113.676
123.636
130.270
145.513
146.270
138.061
99.933
144.302
121.077
120.284
138.844
138.141
112.233
120.330
141.323
144.026
100.438
118.497
146.230
110.324
100.393
118.079
122.075
150.674
121.532
123.685
100.432
132.481
151.374
102.680
143.458
117.817
111.720
150.185
139.068
132.335
132.671
132.412
115.053
150.532
147.012
151.028
101.233
151.853
130.140
131.027
136.994
122.443
127.739
101.820
134.237
121.696
120.470
116.763
123.073
107.881
117.529
102.149
124.697
110.457
104.483
127.675
108.656
132.500
148.765
116.489
131.143
152.087
143.902
110.196
122.709
146.567
140.698
135.301
108.759
105.158
142.257
141.895
761.135
739.209
769.100
255.423
246.058
249.616
265.663
248.311
271.820
264.770
277.031
261.020
287.617
277.590
287.626
282.500
280.372
295.072
295.951
293.941
306.852
309.511
323.568
301.174
323.809
319.225
320.580
332.062
322.656
341.455
349.984
357.106
345.884
358.956
363.772
355.286
364.177
372.224
357.709
360.049
379.675
375.969
384.625
383.384
388.325
380.786
384.470
402.049
400.316
395.896
424.446
414.057
406.360
427.971
432.305
429.827
436.725
429.508
448.839
439.712
447.656
450.273
465.876
463.262
451.979
467.078
463.803
460.950
481.577
480.942
487.234
477.855
479.573
489.738
493.599
515.180
518.870
505.107
519.277
501.727
506.048
516.606
534.529
529.302
521.033
525.248
528.730
545.166
555.009
564.684
554.049
559.008
565.468
573.796
564.556
579.248
567.228
578.684
586.910
594.939
329.124
335.508
334.888
335.702
341.218
333.691
336.823
338.568
344.650
344.688
347.411
358.164
358.255
347.340
350.775
358.737
362.212
362.926
368.429
358.658
376.126
365.478
367.487
369.398
378.795
372.000
376.130
377.394
377.626
379.951
393.068
386.534
393.100
400.963
399.668
397.623
393.910
409.691
398.478
407.391
415.462
413.655
414.015
406.381
419.565
417.242
424.454
430.027
418.218
425.697
421.343
435.652
427.668
428.864
441.635
433.115
441.240
436.240
443.304
451.901
447.144
452.088
455.913
458.895
449.930
459.792
456.699
458.494
464.406
468.231
467.406
464.615
479.119
466.864
477.831
479.963
474.887
477.645
477.036
489.697
479.966
494.751
498.063
489.468
503.187
497.003
498.791
507.762
496.833
502.661
509.838
513.733
518.450
518.040
510.383
515.070
512.013
529.225
522.811
518.846
533.625
526.612
531.729
525.213
527.797
531.588
526.885
529.067
529.536
537.067
534.729
536.367
536.161
534.938
529.558
535.079
536.129
540.030
538.808
539.889
541.455
533.047
529.886
532.505
540.861
537.573
535.890
532.829
538.702
531.478
534.434
543.435
545.402
545.889
543.573
547.011
547.572
544.672
543.472
535.588
538.572
550.487
541.149
543.237
538.040
552.362
539.034
539.298
547.753
541.169
546.107
555.534
546.251
546.300
541.643
545.762
550.734
548.915
557.444
552.570
546.332
545.556
558.949
556.533
560.380
557.304
558.411
559.162
557.993
553.755
558.032
560.322
561.717
551.751
549.690
560.701
559.682
559.186
557.471
561.886
563.746
554.780
557.022
561.019
555.775
564.471
553.977
561.302
567.773
556.540
559.665
569.660
563.699
568.223
558.988
558.983
562.185
566.673
565.842
567.349
570.307
568.774
575.396
573.781
573.082
576.110
565.466
564.849
575.454
577.142
563.766
568.966
571.118
564.877
579.650
575.115
572.382
570.113
570.650
574.651
578.017
569.093
574.274
579.978
579.760
576.830
581.232
578.358
581.844
583.339
584.077
586.248
573.650
575.685
582.497
575.010
579.240
582.300
587.062
582.942
580.349
589.458
578.534
581.007
584.125
581.335
584.941
586.780
587.862
586.663
583.513
585.536
580.260
584.949
583.957
594.152
585.824
592.645
590.226
593.140
596.786
587.534
598.929
586.318
588.949
589.649
599.279
585.438
595.363
599.073
588.689
602.377
600.081
596.168
588.396
596.414
594.088
597.131
598.610
590.584
593.914
603.232
594.225
592.390
596.797
603.449
595.555
593.500
605.470
603.753
609.836
605.495
601.542
599.405
603.384
607.896
599.733
597.938
612.509
602.977
603.861
610.571
602.264
611.618
605.092
616.275
612.036
617.587
605.916
608.598
609.312
609.344
608.515
615.660
625.167
611.948
613.626
616.553
614.605
628.000
618.864
622.493
629.537
620.225
621.655
628.267
620.906
625.159
625.811
626.528
637.737
625.072
630.983
630.673
630.605
640.560
633.973
640.385
636.057
638.823
641.769
634.181
642.273
639.619
634.944
635.499
648.506
649.002
642.412
649.709
651.707
644.808
652.534
649.271
648.369
651.594
647.371
658.339
658.364
655.158
656.090
651.405
662.076
651.109
660.657
654.688
660.853
655.898
665.058
664.753
668.451
669.831
665.125
665.754
666.339
669.158
672.548
676.252
668.847
663.759
678.005
669.945
671.173
678.558
674.750
682.370
673.675
672.379
671.178
678.203
676.506
678.885
674.112
677.097
684.411
686.280
678.474
691.466
682.350
684.043
694.624
686.939
687.634
696.193
688.966
694.052
686.014
692.674
689.964
701.348
697.042
693.991
693.213
698.153
693.098
701.546
694.332
706.025
707.386
699.577
703.680
709.073
701.324
698.910
713.977
701.377
705.373
707.500
704.134
703.831
712.277
710.283
712.103
718.275
711.532
715.135
722.101
721.112
720.024
715.373
719.913
712.903
725.030
729.958
725.568
715.841
727.425
724.828
721.567
732.622
733.409
726.724
732.281
728.484
733.000
737.372
734.211
740.844
736.988
728.466
740.734
737.464
740.649
736.320
733.899
744.802
747.873
749.302
748.411
735.979
746.003
742.628
753.508
748.584
743.039
743.430
756.580
751.221
748.060
758.245
748.511
749.122
759.714
750.431
750.526
752.524
756.820
764.152
755.345
755.150
761.386
762.393
769.770
767.133
765.014
760.740
768.029
767.755
765.403
773.658
775.249
774.800
766.208
762.017
763.577
770.455
767.145
774.522
772.043
775.952
770.299
775.485
772.905
773.810
773.272
769.546
765.358
774.351
773.061
775.125
763.403
776.411
761.750
774.432
761.023
767.373
774.323
767.709
763.538
768.874
761.320
774.475
774.549
768.515
770.741
773.714
762.656
775.031
771.181
772.952
773.002
763.571
767.497
763.742
771.325
763.120
774.447
771.642
767.138
766.301
774.170
772.592
770.639
763.024
761.708
769.495
771.449
762.186
770.038
773.676
764.059
775.571
764.739
762.638
766.692
766.879
773.685
772.684
774.066
761.402
761.822
771.619
775.730
762.974
776.032
775.731
762.816
775.342
761.144
764.374
766.276
763.587
771.840
766.907
764.215
772.153
767.445
764.722
771.844
764.768
766.713
773.924
777.057
766.097
767.611
767.614
766.465
761.707
768.834
775.215
770.788
762.635
774.015
769.056
765.701
766.633
766.348
774.903
771.377
763.860
776.144
774.555
764.812
772.152
762.815
767.898
766.692
775.448
768.459
766.962
774.714
767.019
773.533
769.859
766.628
762.470
768.184
762.591
773.209
777.106
765.460
771.817
761.644
774.154
770.646
775.359
761.668
769.045
775.667
771.923
768.835
771.155
777.431
765.266
768.957
767.192
765.980
769.854
765.072
766.709
770.214
770.741
769.015
764.589
773.912
774.588
771.574
775.089
777.296
776.239
763.640
766.148
775.316
773.447
762.222
773.089
764.097
769.883
768.872
773.836
767.208
772.635
762.700
764.680
766.792
768.590
772.730
774.566
768.197
773.567
773.471
772.677
775.602
769.151
770.508
777.356
769.941
771.677
774.225
762.342
773.329
763.305
762.395
777.528
765.103
777.480
775.030
774.307
766.242
772.678
774.994
767.141
778.877
772.397
767.025
774.685
769.913
771.455
780.908
775.275
779.543
780.557
777.117
783.749
773.463
781.678
776.149
773.798
785.769
786.177
780.028
774.650
786.092
785.146
787.478
790.707
792.395
778.607
781.863
784.801
781.266
782.260
787.543
785.132
785.633
789.904
797.057
795.810
785.051
793.251
790.223
799.298
799.941
798.314
790.170
797.585
802.389
804.499
796.736
793.621
796.139
793.364
808.078
798.887
803.870
797.160
803.047
797.209
808.413
803.750
811.040
809.607
802.982
806.405
802.042
806.663
802.587
815.590
806.773
811.502
804.540
804.438
805.833
816.342
815.692
817.967
809.847
808.449
809.061
811.646
809.297
811.917
824.064
811.172
822.394
827.427
814.971
821.080
820.083
824.802
817.681
815.942
831.235
820.885
828.184
832.470
834.520
831.639
821.909
833.651
821.101
835.591
828.849
824.544
832.629
836.895
826.221
828.637
828.457
839.458
827.819
841.920
838.433
836.702
833.777
845.168
842.987
835.443
841.203
842.733
834.265
839.711
843.293
834.916
850.832
842.537
851.456
842.563
837.886
853.195
846.855
841.903
840.725
842.937
856.408
846.229
854.504
851.702
856.065
856.298
859.190
846.847
856.424
860.675
853.303
860.167
848.056
854.336
857.311
856.486
865.106
853.377
864.932
859.289
866.793
856.212
859.155
859.501
856.535
868.956
860.924
864.922
864.087
870.088
861.094
865.683
870.887
875.257
869.707
866.622
875.756
870.596
878.470
868.848
867.093
874.169
867.036
874.479
878.702
873.721
874.556
879.938
882.522
872.136
883.314
880.038
872.936
880.980
882.416
879.527
877.877
882.165
883.199
883.892
886.067
891.244
892.627
880.543
882.483
882.963
887.090
883.208
894.081
880.378
886.917
883.644
880.644
895.165
892.624
894.207
883.161
895.215
890.121
892.002
895.060
890.302
884.873
893.024
880.303
882.520
892.576
888.643
883.268
890.223
883.011
882.727
881.368
893.959
882.771
895.964
885.840
893.374
893.161
890.143
890.339
890.366
881.686
888.989
886.368
883.545
882.731
886.700
886.584
881.860
887.929
894.294
896.130
895.306
880.997
892.507
886.351
885.197
892.805
885.719
887.226
883.917
888.484
894.684
888.634
890.600
889.318
894.266
892.774
892.758
882.571
891.162
883.828
889.974
884.674
891.630
882.452
891.827
885.932
892.316
892.726
895.741
884.698
888.200
893.863
888.330
887.160
893.320
891.000
885.585
884.565
891.338
883.029
896.886
891.199
882.496
883.306
882.581
889.048
882.072
893.845
890.125
892.140
884.316
887.391
894.110
888.817
890.405
886.714
881.912
897.526
882.286
897.554
884.717
895.789
895.429
884.455
884.297
896.347
894.872
888.692
887.107
891.100
882.826
890.340
893.927
887.236
892.946
885.274
884.605
888.118
885.763
890.697
892.411
888.819
890.017
894.217
888.427
883.011
889.639
884.986
892.773
890.732
884.635
894.216
886.073
896.308
884.090
884.689
889.573
894.723
889.320
891.986
889.644
890.821
897.780
897.359
889.467
897.001
895.653
897.982
893.109
886.373
892.328
896.907
897.499
886.698
886.563
893.409
892.993
896.965
888.221
887.192
894.086
895.709
895.847
888.800
892.315
894.215
887.504
892.651
885.376
894.610
889.478
898.251
887.381
888.631
889.931
898.415
892.170
897.931
883.852
897.254
893.731
890.731
897.552
896.459
894.898
896.222
898.148
883.587
898.051
888.714
888.718
898.814
895.570
895.237
887.781
895.091
890.449
892.471
892.547
887.095
884.534
883.661
891.151
895.311
890.818
891.650
888.129
899.081
888.414
897.474
893.977
897.759
888.940
887.077
885.025
894.793
892.455
893.365
898.115
892.622
888.203
884.124
884.029
884.294
898.599
899.108
889.626
890.462
884.013
889.696
884.706
892.737
898.160
888.489
887.038
892.599
897.154
895.296
895.601
897.088
895.607
897.002
887.932
889.064
891.127
885.559
891.776
886.937
888.846
894.701
895.821
890.230
884.155
886.430
893.460
885.948
886.415
894.052
891.590
892.489
886.759
891.939
895.342
886.656
893.710
883.874
898.762
887.341
893.643
891.926
890.313
886.299
897.743
893.982
898.415
891.546
892.383
883.002
895.103
892.606
886.477
883.161
898.160
895.699
883.004
895.877
882.993
897.088
897.404
895.439
893.624
897.028
895.350
888.396
887.961
882.927
883.696
895.417
896.129
887.045
893.368
896.621
897.286
895.716
892.471
892.590
894.493
895.041
897.447
897.094
883.899
892.917
893.792
887.248
887.270
887.487
888.576
889.449
897.161
897.757
893.495
882.997
883.238
895.264
895.832
891.645
891.150
892.556
897.086
883.135
887.427
885.819
884.240
889.003
891.548
889.865
889.276
896.315
889.072
895.926
884.058
893.635
893.484
882.823
889.310
891.414
887.820
896.784
891.838
894.465
887.224
884.778
893.927
891.912
887.210
895.753
886.629
889.850
892.685
888.634
887.724
883.324
890.277
889.286
885.087
891.318
882.815
891.679
888.429
883.535
892.632
885.645
884.104
893.744
886.144
890.853
886.612
883.791
886.852
896.190
889.398
895.060
891.832
891.741
890.834
884.501
890.819
891.617
893.481
881.738
891.779
881.690
897.441
883.692
890.117
882.708
888.316
882.743
897.457
887.035
897.534
889.374
898.154
885.243
895.526
886.195
885.645
890.980
899.259
901.820
891.783
900.638
890.624
897.417
899.407
902.097
898.318
888.950
894.319
893.942
891.584
893.737
890.878
896.468
900.241
893.234
900.903
894.995
902.899
901.529
895.535
898.845
895.462
900.618
908.437
899.471
905.350
909.022
907.298
898.780
900.749
904.684
903.397
900.795
909.736
901.868
911.555
899.981
896.956
908.020
906.127
900.568
900.216
903.280
899.275
905.120
912.443
902.498
913.392
911.507
908.456
908.835
909.062
911.029
913.166
907.191
904.118
903.494
906.390
906.553
906.115
913.512
914.318
905.162
906.585
907.672
913.595
912.209
912.083
912.979
907.443
921.574
910.015
909.380
906.775
910.486
911.017
914.543
919.215
917.858
922.015
912.072
909.827
919.480
911.550
914.705
910.670
912.613
913.130
919.699
916.684
914.715
915.643
