96.001
121.515
110.021
118.552
114.766
120.819
97.562
124.296
100.088
96.431
105.723
107.193
123.078
140.914
138.640
104.119
128.885
98.739
123.156
102.420
118.798
98.663
121.267
110.656
111.337
136.365
99.777
97.108
139.323
142.889
102.928
124.563
119.016
111.662
116.477
114.698
109.920
101.803
95.992
109.360
102.997
113.958
123.122
126.851
102.004
115.329
119.350
95.690
114.553
119.387
113.509
134.502
107.503
140.413
102.497
109.212
143.538
100.115
105.108
105.166
127.453
118.561
98.877
140.127
103.603
128.564
146.551
98.202
128.216
101.246
132.869
144.366
115.318
124.886
100.037
99.035
114.064
127.521
144.563
112.471
133.641
119.877
103.719
105.884
144.329
117.696
127.707
99.039
121.337
130.407
119.825
107.734
97.541
146.727
145.194
97.103
135.994
145.707
107.412
102.309
131.591
95.430
106.383
117.070
134.918
100.515
95.422
104.962
135.772
145.433
104.599
102.495
125.137
122.155
122.593
145.314
129.116
128.598
111.713
130.586
143.564
107.328
140.429
116.733
140.386
138.451
112.197
117.765
142.368
120.366
122.538
127.972
142.271
99.083
95.005
94.960
108.023
98.532
117.318
136.058
102.362
95.602
129.459
125.424
113.306
109.409
121.514
114.605
131.499
107.106
108.435
135.092
99.857
99.709
144.333
117.501
143.924
104.130
97.600
95.535
126.791
131.790
117.732
96.914
102.217
95.240
118.557
130.072
122.420
110.063
111.351
106.105
125.339
139.354
106.430
101.362
144.988
113.177
98.572
114.636
113.378
138.621
109.858
109.938
118.305
140.313
134.582
95.859
115.917
142.671
140.805
120.050
111.258
141.416
109.354
111.173
102.956
97.170
144.241
104.359
106.305
139.838
105.476
105.593
124.877
107.883
106.608
110.820
138.585
95.281
134.081
102.949
138.694
131.636
121.552
107.754
103.506
133.249
107.506
106.596
124.648
132.749
129.925
104.739
100.673
118.287
108.379
116.388
127.433
102.212
114.842
100.244
135.865
128.083
125.712
122.461
123.770
135.135
133.260
120.350
114.061
122.918
144.959
125.726
108.331
100.892
102.712
119.682
135.185
142.381
131.537
129.692
144.244
107.066
127.696
131.428
96.514
106.087
104.007
120.208
131.441
143.023
103.430
140.196
133.707
131.240
143.735
140.204
105.044
141.481
100.607
140.582
129.053
98.809
107.649
120.287
128.801
123.905
109.596
115.364
137.421
99.430
101.863
130.917
111.626
116.886
108.563
118.070
103.289
96.928
124.964
134.490
140.472
103.271
102.439
139.888
104.907
107.712
134.437
142.748
125.420
100.420
122.766
143.171
122.521
146.683
114.455
95.560
135.717
109.788
122.253
102.433
106.663
135.970
134.426
108.793
111.796
140.489
118.987
144.402
104.381
106.773
119.456
142.852
110.154
129.020
126.205
118.761
98.736
128.935
125.784
106.452
115.667
112.976
143.373
125.258
109.513
143.428
136.355
96.520
118.698
121.814
111.673
131.393
108.252
105.547
107.944
145.520
144.102
115.379
104.867
105.556
129.169
120.191
138.471
101.546
129.431
114.016
102.174
123.732
140.778
136.906
102.257
113.432
124.098
100.857
139.576
135.862
114.779
140.799
112.268
128.189
131.632
145.416
96.480
132.271
110.972
99.801
143.619
145.056
112.640
127.300
107.763
118.381
141.920
111.743
140.046
138.339
106.171
97.080
119.139
114.413
107.097
115.666
126.155
96.826
124.413
110.227
132.052
95.246
109.935
107.192
110.227
101.759
111.053
136.597
130.934
142.086
108.322
104.024
120.805
108.569
122.714
115.457
139.440
113.964
101.466
145.863
101.127
137.516
119.056
138.138
111.246
123.853
119.305
141.968
120.730
122.280
112.962
134.392
111.644
108.840
96.642
106.690
97.283
132.607
122.663
129.040
104.158
101.394
98.438
103.246
119.112
114.939
116.578
129.309
136.731
95.825
121.221
110.015
108.230
141.154
129.224
120.652
117.252
134.704
143.237
126.283
116.262
119.727
120.542
125.050
126.923
114.553
123.111
142.923
119.351
97.502
124.996
125.058
131.933
98.741
117.277
97.627
95.325
139.749
98.062
134.406
127.125
144.376
105.506
134.481
101.367
120.831
110.873
103.132
111.068
100.030
102.394
141.937
119.763
109.193
144.097
100.617
95.815
124.148
136.291
94.954
115.781
118.475
135.909
137.389
96.399
133.701
102.132
145.430
119.570
142.496
120.110
128.419
137.445
97.517
121.500
110.813
106.749
107.469
101.180
122.381
103.710
128.377
114.089
102.255
132.563
99.764
111.903
139.031
146.138
130.244
122.245
131.969
110.379
114.517
124.711
127.531
126.123
146.681
98.012
119.025
117.963
113.090
104.243
111.231
105.762
101.908
125.918
105.790
106.325
111.030
115.345
140.509
141.473
110.824
104.611
145.769
96.494
98.364
98.074
96.206
101.714
114.241
144.797
120.445
117.963
116.115
106.781
111.018
95.113
130.583
105.547
117.282
112.801
127.382
127.326
106.279
138.904
124.151
125.806
130.312
101.883
119.892
144.371
118.572
131.305
112.130
100.249
109.699
114.658
137.627
110.325
131.357
120.687
107.117
141.518
119.873
125.722
107.650
123.476
105.666
136.722
117.870
106.984
143.489
144.673
120.881
107.006
98.407
146.689
113.282
96.490
146.552
131.025
105.722
140.107
145.069
133.971
146.748
138.399
123.479
114.969
116.172
126.684
122.750
119.252
100.246
97.051
114.357
97.709
95.339
146.274
143.189
140.296
134.994
111.719
95.201
105.810
126.695
120.659
111.758
116.356
102.791
138.874
124.519
116.743
108.002
121.119
113.289
133.579
95.013
99.139
122.704
117.743
120.911
118.149
126.805
115.397
97.176
118.027
146.459
116.185
116.650
135.535
111.381
107.548
95.549
105.799
115.090
127.340
137.746
142.920
115.349
136.787
119.882
115.196
101.586
97.159
98.934
114.087
145.560
131.752
131.221
102.179
135.046
105.851
111.288
96.542
109.810
101.091
113.116
142.424
108.747
103.164
122.435
144.711
141.574
97.771
127.367
127.495
342.143
363.087
362.239
338.891
374.726
398.295
373.383
420.412
410.095
439.670
405.956
435.445
471.616
462.467
476.838
494.466
496.959
158.203
152.622
155.289
165.602
165.301
173.289
169.994
178.574
177.216
181.053
177.853
184.989
178.237
193.736
199.518
190.292
204.566
198.210
201.028
202.466
203.074
209.988
214.514
224.430
227.326
224.593
232.895
232.550
236.852
230.255
229.435
235.430
238.051
239.541
242.039
245.093
253.203
250.900
252.823
266.471
267.387
268.558
270.497
273.882
269.276
277.060
286.416
278.523
283.910
287.253
294.727
296.092
301.556
301.279
309.583
316.388
314.085
309.643
321.564
327.386
327.090
318.280
334.402
335.314
329.689
332.165
338.531
341.429
337.995
354.590
352.749
350.961
361.587
355.949
365.390
369.946
373.497
366.344
381.415
381.739
376.874
383.809
388.754
393.753
387.089
394.043
404.432
402.368
394.655
398.644
413.043
416.626
410.036
421.081
413.151
425.404
423.759
422.155
431.458
437.945
428.421
442.578
441.840
451.093
447.872
447.384
449.636
451.327
455.443
460.430
458.526
472.148
470.814
472.354
477.906
481.043
482.869
485.138
494.747
494.259
487.695
489.304
499.066
505.495
504.966
501.030
517.918
505.311
522.342
512.969
519.058
523.140
529.809
537.232
539.335
529.109
539.663
544.327
547.869
553.831
542.510
558.148
557.935
561.447
559.390
558.487
570.905
562.737
574.260
577.543
584.665
576.333
582.413
587.957
593.392
599.603
592.200
599.226
604.753
596.376
604.998
605.691
617.719
613.132
624.765
619.434
628.107
634.774
629.752
636.381
632.945
643.417
646.560
639.732
654.499
644.643
648.645
653.583
654.670
663.546
660.356
674.476
667.532
670.543
675.325
669.692
685.394
682.844
689.190
683.168
690.863
683.384
689.574
697.801
700.537
706.508
704.619
703.833
705.992
715.604
717.220
712.334
709.445
727.149
715.420
723.450
719.079
729.557
726.802
737.153
739.030
731.803
733.197
749.085
751.134
747.204
743.913
756.049
748.538
764.559
755.694
769.021
758.440
769.550
767.623
763.178
779.148
782.880
777.549
774.020
778.437
782.202
793.808
793.907
786.937
790.403
792.313
796.371
803.556
809.201
809.805
805.661
817.338
805.682
817.865
817.985
825.036
825.149
829.304
821.072
824.293
835.292
826.942
828.177
838.449
838.403
842.162
850.822
843.218
846.357
849.855
850.028
860.447
858.680
863.583
869.517
863.519
868.766
863.307
869.856
881.316
871.685
874.264
881.837
888.644
880.152
883.494
890.020
898.170
903.169
902.119
894.507
901.416
909.377
911.056
911.375
906.874
911.644
920.431
912.792
927.883
932.075
927.615
926.885
933.010
938.966
944.483
945.370
938.021
945.868
947.036
952.971
950.199
960.300
959.388
950.041
966.623
955.217
970.334
960.426
961.459
971.032
976.774
982.159
978.806
988.570
988.654
980.053
981.615
985.133
994.128
993.507
990.298
995.141
1007.184
996.523
1010.583
1008.905
1007.728
1018.583
1020.340
1011.895
1017.505
1030.496
1030.713
1035.389
1030.455
1028.492
1028.751
1029.755
1034.577
1044.112
1046.236
1041.850
1050.131
1056.466
1054.584
1052.482
1065.535
1062.010
1070.687
1059.612
1071.749
1068.650
1070.742
1081.601
1084.714
1086.970
1073.470
1088.617
1078.536
1092.398
1089.429
1101.053
1092.918
1096.146
1094.669
1094.807
1111.225
1112.832
1108.322
1113.030
1121.801
1116.818
1118.617
1122.776
1118.178
1128.380
1125.339
1135.188
1133.340
1132.688
1144.463
1144.780
1131.780
1144.048
1135.410
1140.227
1138.966
1134.211
1130.851
1132.285
1141.341
1131.049
1138.971
1132.781
1134.360
1142.203
1133.716
1131.118
1139.714
1135.699
1137.558
1130.092
1131.919
1131.579
1126.287
1126.380
1137.298
1130.086
1130.639
1137.203
1128.111
1137.207
1128.337
1126.468
1134.339
1125.348
1126.267
1125.849
1128.586
1134.393
1119.796
1126.683
1123.574
1130.322
1126.003
1126.494
1125.156
1122.576
1127.050
1122.047
1116.656
1122.821
1120.070
1115.867
1117.994
1115.159
1119.139
1122.690
1116.050
1121.459
1113.607
1119.721
1120.163
1124.954
1125.038
1121.276
1125.635
1125.856
1116.183
1125.070
1124.708
1109.536
1110.279
1121.970
1108.078
1122.114
1119.799
1109.477
1108.419
1107.175
1108.248
1111.356
1112.152
1107.249
1112.866
1114.684
1109.945
1105.960
1103.961
1102.879
1115.487
1112.713
1107.108
1116.033
1113.239
1104.790
1100.454
1102.334
1108.045
1102.337
1100.899
1103.405
1107.782
1100.353
1111.042
1106.818
1108.960
1111.612
1100.163
1096.347
1100.779
1097.911
1096.996
1108.106
1102.171
1105.080
1096.955
1104.211
1103.607
1099.673
1102.189
1097.734
1107.170
1093.678
1092.298
1100.095
1104.046
1094.418
1095.664
1103.680
1091.554
1098.691
1095.912
1095.135
1094.425
1088.195
1094.101
1086.774
1091.659
1094.458
1095.670
1093.246
1092.881
1091.353
1086.569
1089.731
1096.111
1093.815
1087.388
1091.997
1087.066
1095.532
1084.082
1094.769
1086.574
1081.730
1088.032
1090.185
1081.248
1090.505
1084.332
1088.066
1091.418
1092.171
1093.495
1088.935
1086.057
1085.748
1080.724
1077.691
1091.132
1090.213
1082.306
1089.938
1084.497
1079.075
1078.499
1082.316
1077.447
1085.675
1084.046
1079.971
1085.226
1080.456
1083.958
1073.332
1074.693
1076.429
1073.313
1083.048
1072.645
1079.052
1074.768
1070.681
1081.245
1070.856
1081.555
1075.997
1071.875
1071.347
1067.318
1073.277
1074.097
1063.220
1071.980
1069.320
1064.190
1058.925
1051.198
1050.501
1058.656
1043.660
1045.640
1039.809
1039.850
1036.289
1034.287
1036.114
1032.826
1039.253
1033.786
1031.416
1023.258
1017.706
1018.487
1023.529
1015.799
1014.160
1014.290
1007.104
1005.130
997.561
1000.603
995.923
995.901
996.620
994.195
997.847
989.034
992.721
976.816
982.913
986.160
975.850
975.153
970.563
977.281
963.736
965.177
959.000
962.954
956.520
956.767
946.462
955.076
947.824
954.758
944.483
937.124
933.840
939.549
940.739
938.944
935.138
933.201
920.041
918.682
919.929
920.614
916.969
914.367
915.240
916.849
910.223
904.097
900.230
906.828
899.198
895.400
894.741
892.698
897.456
886.256
890.273
885.294
877.088
881.330
870.649
873.033
864.823
861.778
873.587
859.949
864.742
861.894
857.720
850.442
849.142
857.379
846.176
851.092
842.526
846.547
843.104
830.444
835.406
829.823
825.638
826.817
832.909
820.996
815.470
822.563
817.315
818.183
807.474
816.263
800.131
797.108
810.069
795.511
802.877
798.066
796.142
785.518
789.217
783.068
776.891
775.276
784.160
772.354
768.969
770.838
762.424
769.333
769.512
764.617
757.192
757.011
756.261
761.166
746.221
743.576
748.637
749.504
736.493
744.005
739.865
736.200
738.240
737.262
727.242
723.712
729.067
716.172
724.469
713.835
722.631
711.077
712.306
706.761
706.456
710.992
694.014
698.722
702.820
694.107
697.375
686.297
686.018
692.019
675.508
679.222
678.236
682.892
675.663
672.608
673.993
672.145
669.883
659.157
656.462
649.718
651.296
648.052
655.118
642.504
645.170
648.897
643.233
644.943
638.915
637.985
633.235
628.694
630.956
622.466
619.881
615.293
616.620
614.844
620.986
608.010
614.266
624.741
612.067
614.122
619.563
617.940
624.126
620.800
623.667
624.464
622.767
631.315
626.765
631.608
633.845
624.724
626.890
638.119
629.810
633.439
629.400
639.541
638.831
640.592
642.975
642.645
635.517
636.468
641.394
646.224
647.570
651.434
647.473
658.307
659.533
649.112
656.391
649.384
658.989
660.462
665.188
663.771
652.240
655.005
663.612
660.435
661.129
661.153
666.955
673.127
669.667
668.730
665.366
665.144
676.040
677.545
673.783
669.815
678.307
680.002
674.265
678.029
684.931
680.851
675.319
689.896
678.116
685.723
691.078
694.409
683.420
697.103
697.044
693.784
693.803
694.042
697.357
698.415
693.200
697.277
694.628
704.143
708.718
700.625
703.755
696.903
704.365
709.548
712.582
706.848
716.140
713.987
708.202
718.525
718.709
720.855
720.614
721.357
726.121
726.984
716.065
720.798
726.235
723.099
729.070
726.934
720.822
732.271
736.675
732.365
725.954
734.909
734.147
726.876
741.140
742.929
736.380
737.136
741.161
735.895
745.519
735.880
738.643
739.246
748.442
748.060
753.884
747.380
755.651
749.802
744.521
757.010
757.995
760.373
755.611
764.366
761.816
766.191
765.667
767.786
763.076
760.920
766.026
772.462
769.147
772.783
773.856
763.638
765.035
778.136
780.468
776.343
767.077
782.810
771.830
777.650
784.168
787.105
781.749
783.248
775.769
789.311
790.464
792.254
792.991
791.561
785.321
794.740
789.403
791.320
795.942
802.188
788.829
792.621
790.688
791.729
807.323
802.399
795.740
805.570
800.131
811.713
813.171
802.247
811.795
814.588
816.707
811.361
806.344
819.792
813.451
815.748
816.951
813.086
820.891
814.944
825.240
827.025
821.478
830.949
822.678
824.566
828.995
824.071
833.603
826.259
828.333
832.349
836.084
837.828
826.408
835.225
837.015
828.083
839.659
834.280
841.940
842.329
838.631
828.536
830.507
841.427
842.029
846.889
836.661
839.304
839.002
838.283
841.214
850.351
850.512
840.870
844.415
851.079
849.219
849.005
848.660
855.155
841.696
846.057
852.322
851.086
844.383
855.191
852.931
860.410
846.004
862.134
856.219
859.141
850.242
863.495
864.183
855.738
851.127
863.456
853.545
862.594
854.853
861.666
855.293
869.725
858.588
864.107
869.938
867.671
872.961
871.869
861.382
869.455
869.502
869.113
866.737
867.561
872.106
876.238
877.044
876.562
866.552
878.076
880.411
870.012
877.421
879.256
871.663
886.116
885.079
883.183
887.537
875.085
886.242
881.121
881.172
876.144
885.511
877.479
890.456
883.924
889.806
890.053
890.836
884.003
888.460
888.195
887.752
888.914
893.138
895.216
888.711
897.170
890.542
890.648
890.261
892.704
894.261
904.115
902.933
903.512
901.868
900.850
895.296
898.359
905.185
906.537
901.460
908.536
900.517
897.294
912.545
913.332
899.435
907.681
906.641
911.126
915.254
904.962
909.488
909.795
915.334
917.971
910.314
915.625
911.969
909.755
910.538
918.476
924.976
920.965
910.927
911.261
925.249
925.547
927.455
923.455
921.128
916.165
919.131
920.905
932.528
927.345
918.285
928.870
930.320
933.041
921.431
930.515
928.781
933.692
923.380
924.700
932.929
937.636
940.203
937.851
933.982
942.337
929.171
932.322
939.782
941.436
936.381
938.001
941.001
947.888
933.707
937.827
948.039
949.069
950.739
944.726
945.518
950.200
939.192
947.204
945.803
941.403
942.153
952.994
952.391
956.679
951.196
940.544
953.414
940.140
949.882
941.916
939.326
943.687
939.561
937.807
945.866
938.199
938.401
946.212
935.752
939.607
932.353
931.623
940.976
939.109
939.457
934.099
926.809
933.273
935.000
931.827
931.140
923.406
935.582
927.813
922.073
935.233
923.304
927.375
931.448
922.711
925.326
917.723
922.155
925.581
928.030
913.385
918.812
912.207
919.125
912.102
924.212
922.970
912.573
914.483
916.479
916.243
904.824
910.558
911.260
905.254
916.484
914.501
908.966
904.272
912.784
909.965
906.743
901.864
905.244
902.048
900.089
907.283
897.643
893.113
896.398
902.933
893.794
898.078
900.640
892.256
893.363
899.537
893.841
890.813
893.150
892.377
891.170
883.857
887.027
883.571
886.458
881.389
884.608
880.134
891.107
886.753
889.342
889.433
891.484
881.589
884.223
888.419
873.356
875.684
887.014
