146.055
132.650
112.445
114.103
129.257
119.675
131.151
110.464
133.805
117.437
145.789
122.879
142.217
121.700
150.120
105.353
124.374
144.954
113.537
118.954
144.129
101.723
124.620
149.671
121.513
149.121
151.535
137.347
143.416
138.958
128.514
146.594
115.303
113.677
109.814
148.901
118.961
135.253
123.067
124.692
140.222
122.601
114.252
139.747
136.970
122.095
117.197
102.376
151.952
116.583
118.903
119.258
104.831
125.787
132.800
128.453
109.686
144.434
113.398
109.122
139.817
150.437
137.324
145.505
102.849
127.161
112.515
117.730
106.229
133.290
125.195
102.090
151.898
104.078
147.454
147.869
118.899
112.203
109.902
136.300
125.467
109.208
116.950
106.769
117.242
111.311
127.767
113.416
119.304
122.108
113.841
128.682
117.946
111.268
126.426
112.061
127.218
103.403
118.888
135.728
138.722
149.539
149.010
149.670
108.661
107.152
132.781
107.922
114.690
115.269
126.563
116.138
109.839
114.158
149.900
106.535
135.294
127.909
107.937
113.564
117.224
119.652
105.306
148.936
135.563
131.764
112.054
135.499
123.448
102.952
151.550
145.479
112.639
110.635
111.580
148.328
147.324
120.072
149.638
132.816
129.479
128.852
132.466
137.798
104.705
136.866
141.453
152.212
139.103
117.280
130.152
102.346
150.487
116.606
112.038
123.298
105.442
107.243
124.709
109.597
147.395
108.015
124.757
107.709
101.661
107.357
152.045
140.104
112.788
149.142
127.603
125.903
148.092
123.462
116.354
148.912
112.480
140.728
104.317
105.153
119.364
115.459
144.124
113.462
128.697
146.464
151.897
112.560
105.996
136.257
122.443
115.038
105.302
123.811
142.877
121.883
133.523
139.325
140.092
133.843
131.660
139.011
151.382
147.191
125.175
140.939
106.321
140.830
153.094
136.713
133.900
145.818
140.351
104.129
111.360
143.588
151.980
121.791
144.961
121.648
111.760
124.590
107.981
139.770
115.114
136.524
122.390
127.261
111.605
143.171
150.142
114.466
121.688
113.955
149.332
140.836
148.244
122.332
126.686
122.667
145.176
114.138
145.836
103.510
119.863
140.154
106.363
138.293
126.281
113.373
109.121
148.686
149.762
130.424
140.227
139.085
146.299
152.318
105.073
106.909
131.064
120.927
150.075
127.829
127.998
133.174
108.604
144.218
124.724
150.347
118.887
126.142
152.160
143.423
137.717
145.618
107.694
139.404
108.061
148.595
130.437
152.290
121.305
119.613
137.751
113.599
148.296
141.094
129.589
126.574
137.199
106.257
150.979
123.818
152.956
126.881
107.457
152.708
116.208
152.802
109.048
131.066
103.830
138.211
133.114
126.547
134.920
137.063
108.769
139.076
131.551
121.699
111.619
124.758
147.185
132.332
137.686
107.064
103.559
142.382
152.166
147.456
135.823
119.158
115.515
103.146
132.237
134.415
127.880
107.979
125.244
142.015
130.207
142.608
133.999
142.558
129.567
143.076
133.502
138.227
116.168
133.466
123.908
111.347
117.700
126.221
119.268
130.523
140.665
129.553
111.614
143.672
104.462
118.945
112.473
150.088
146.429
140.018
116.705
103.073
131.544
138.147
120.146
134.714
135.974
148.908
150.522
141.289
115.238
139.132
152.101
125.036
134.983
150.170
106.806
119.477
139.708
106.652
152.877
113.319
137.270
102.838
120.310
118.829
142.081
125.590
146.666
105.537
128.377
113.664
150.877
148.115
113.507
108.824
136.870
119.008
147.601
132.169
125.096
132.743
110.270
144.316
127.086
125.837
147.530
127.871
124.485
120.624
147.006
127.513
112.623
117.219
134.902
136.919
139.002
150.091
121.512
128.954
148.360
145.236
106.170
129.126
124.079
136.381
122.373
107.262
113.036
151.270
153.044
114.630
135.387
144.933
148.114
139.610
142.998
114.168
126.845
128.572
145.738
114.551
117.280
146.019
135.596
119.477
133.560
139.336
110.103
132.281
143.347
140.886
132.619
127.489
118.130
108.239
136.020
104.179
119.007
121.630
123.363
146.127
105.272
149.759
107.396
149.901
149.565
136.383
147.228
124.025
142.677
113.990
139.130
143.201
151.198
140.303
117.371
124.937
144.383
133.052
119.109
121.683
113.618
101.250
122.504
133.424
124.537
105.635
149.008
150.880
132.057
138.393
109.875
122.031
126.658
119.024
102.530
137.098
136.557
116.431
140.155
125.932
114.528
122.440
135.292
102.678
127.582
106.764
146.189
101.318
148.962
148.294
124.195
124.908
102.893
107.306
147.851
118.911
140.223
126.195
105.222
139.093
131.910
135.477
142.929
114.230
146.441
134.913
103.410
116.841
147.359
131.277
150.193
136.567
143.163
114.801
114.343
145.744
150.293
119.271
133.660
122.246
121.773
133.958
110.583
134.437
150.067
115.782
120.504
145.945
151.671
127.349
122.089
152.856
105.838
128.668
104.223
118.613
116.010
136.328
138.661
122.301
103.304
138.781
121.351
146.963
134.027
146.496
116.959
124.119
104.263
116.238
113.361
116.758
112.419
114.518
102.503
142.915
142.782
110.040
134.268
102.632
133.258
152.401
118.391
131.328
152.102
148.317
127.406
127.898
141.448
101.404
148.158
118.499
145.875
126.791
150.127
127.382
145.006
115.786
121.583
142.376
126.799
142.096
141.633
144.369
130.022
119.772
120.565
151.866
115.974
144.206
119.694
110.277
143.890
124.634
144.643
134.937
112.683
141.767
141.134
106.640
117.449
112.470
107.000
141.868
116.861
140.221
106.834
103.876
109.542
149.761
120.991
132.280
108.213
112.468
116.272
128.862
112.760
135.041
139.085
102.416
104.328
141.105
105.879
149.175
110.035
129.387
107.936
132.521
122.710
144.400
102.794
116.326
136.832
115.618
103.396
114.945
147.264
127.670
143.503
151.536
143.645
122.138
115.200
143.996
118.400
133.932
153.123
140.016
127.459
112.204
138.780
139.592
129.129
129.697
136.206
131.956
121.391
148.534
150.646
152.666
148.977
132.096
116.509
113.494
117.753
121.685
141.186
140.291
119.130
134.388
106.315
142.488
126.385
123.792
128.860
129.252
102.178
101.833
135.006
119.349
106.376
137.402
104.464
120.939
103.766
128.162
136.348
136.411
122.078
139.002
127.705
137.533
105.862
128.060
136.461
133.768
148.697
106.261
145.216
123.290
148.907
129.329
108.146
137.262
128.618
123.603
105.085
142.833
108.910
123.131
143.875
118.971
135.958
126.503
111.707
150.501
112.434
109.134
152.297
119.344
128.942
140.533
147.028
106.394
107.647
104.320
115.527
117.553
149.722
121.240
118.925
147.180
104.475
151.911
153.022
118.092
146.045
148.613
146.227
146.643
116.717
103.422
139.011
129.477
107.492
104.965
126.434
131.419
120.323
102.063
127.541
127.880
123.152
121.205
152.418
121.411
142.117
116.736
105.122
111.602
134.458
136.395
140.100
114.744
152.815
140.433
150.833
133.943
145.812
110.650
104.076
111.793
151.061
105.802
140.264
139.612
144.095
146.815
123.757
112.952
111.491
126.608
138.696
150.134
121.209
127.292
118.431
132.289
112.394
109.232
113.646
116.912
130.073
129.556
122.824
107.498
139.586
150.469
119.319
145.259
144.663
143.872
112.663
141.483
113.052
149.185
149.350
103.305
106.652
130.535
105.379
143.122
103.412
144.411
117.625
148.698
125.086
133.169
105.789
114.453
119.499
101.702
129.324
121.881
129.877
125.057
120.658
148.542
143.018
138.173
131.242
141.676
146.674
126.047
101.710
129.866
121.270
107.724
151.670
116.829
128.823
113.636
103.636
129.932
140.494
146.437
144.869
151.143
106.878
119.399
150.617
140.055
117.904
104.448
150.209
110.231
108.771
127.264
125.340
109.634
101.866
123.145
127.535
117.897
135.436
115.973
146.304
144.212
148.137
108.580
115.952
144.769
133.431
106.935
134.052
115.440
148.470
147.686
146.268
110.838
137.422
102.930
139.114
141.503
126.491
126.909
116.941
103.821
150.912
102.690
138.112
127.582
117.041
111.106
105.776
142.096
111.722
134.350
126.118
110.338
134.591
106.082
130.722
146.980
125.066
106.203
140.700
119.397
150.753
124.398
146.054
137.562
120.990
107.074
105.438
121.810
140.525
139.053
125.583
144.105
152.011
136.844
119.038
130.132
147.804
111.547
116.710
110.215
143.711
109.424
109.619
145.621
115.399
142.534
114.470
126.799
146.393
108.112
103.770
136.715
117.441
152.112
143.268
137.464
119.066
109.443
120.087
103.727
128.904
139.952
141.114
124.758
130.241
147.185
125.834
111.214
125.517
123.617
129.759
101.573
103.730
124.596
120.843
140.199
119.603
148.896
118.071
116.076
144.504
149.873
126.889
103.787
152.624
147.480
116.313
110.165
122.082
146.658
101.476
138.006
102.498
124.134
143.415
118.571
116.857
148.963
112.787
146.179
117.615
131.748
131.630
134.567
116.067
118.224
144.052
135.566
111.291
117.223
130.407
128.528
101.388
134.690
116.459
141.371
135.700
134.957
143.261
104.924
106.142
149.407
101.567
105.912
151.778
137.623
128.463
137.292
152.427
128.955
143.449
152.025
143.556
151.193
114.662
125.948
112.645
140.948
110.590
143.837
103.352
119.222
102.033
118.763
133.285
123.775
121.090
122.637
106.893
112.745
124.056
108.710
125.763
112.758
140.667
119.242
137.718
125.520
120.027
129.884
103.231
136.576
130.968
137.909
101.692
126.228
135.339
111.893
151.867
135.098
151.809
148.439
151.673
138.046
113.487
125.673
123.621
125.133
151.054
120.955
102.700
127.808
112.975
144.577
101.659
120.963
115.190
117.119
141.532
136.486
126.060
125.640
117.831
112.719
143.933
138.238
119.577
108.805
107.609
130.903
117.654
109.544
138.270
114.146
102.107
138.646
144.659
143.931
133.410
145.052
138.096
135.274
122.906
130.829
110.696
123.621
101.365
140.556
122.589
116.558
125.312
135.096
115.025
146.977
149.814
132.258
139.005
148.489
127.277
108.925
103.213
141.043
120.666
145.277
118.433
131.300
117.234
118.316
142.615
151.217
101.209
144.791
150.684
148.103
132.731
136.767
104.877
136.441
146.630
118.341
134.259
145.111
108.261
131.050
148.699
142.048
111.027
115.852
129.208
103.070
144.723
141.783
106.293
141.288
146.090
118.846
137.630
113.334
128.149
148.993
106.587
151.826
150.838
141.862
113.897
126.232
142.829
141.434
131.839
113.492
118.464
150.931
101.223
148.324
131.042
107.586
105.817
149.402
132.345
145.466
143.907
111.423
130.821
140.022
113.490
132.352
113.340
105.654
105.362
122.095
148.340
120.337
148.387
147.857
132.751
105.057
122.733
144.350
106.268
139.479
126.535
106.894
120.129
111.285
148.346
112.015
118.650
143.422
130.190
148.695
149.766
139.582
121.109
152.997
116.004
144.358
104.112
140.664
128.354
110.847
152.401
147.213
123.469
114.909
103.599
104.734
140.061
104.488
115.995
149.572
143.362
107.215
126.253
110.080
129.928
122.548
134.160
96.875
101.463
100.569
108.041
141.446
99.403
114.339
97.212
135.300
97.753
99.975
135.994
110.457
134.306
106.564
95.168
136.983
102.538
128.893
144.300
116.680
123.209
129.779
138.502
113.610
130.668
138.161
124.874
127.275
114.266
129.965
130.905
143.392
115.427
138.865
102.380
121.930
101.351
115.844
128.968
143.973
105.460
113.955
101.082
133.353
125.544
106.040
97.939
119.680
107.261
121.540
121.317
102.081
99.142
125.307
123.183
109.560
145.879
102.486
119.729
117.222
94.792
101.025
105.854
125.022
146.375
103.555
121.201
95.323
130.413
133.375
146.060
128.261
108.800
146.655
99.753
101.554
111.310
140.858
141.362
105.287
97.911
114.850
96.012
110.771
100.366
99.951
133.598
131.636
137.116
138.494
126.124
129.565
106.110
144.071
109.660
145.821
115.867
122.090
116.864
134.470
138.484
95.619
115.483
97.865
103.968
134.692
142.450
128.695
136.285
109.580
100.414
98.642
130.192
137.840
142.429
146.316
125.033
128.412
103.127
111.957
117.922
111.338
139.407
105.533
97.550
126.704
146.566
123.526
98.916
128.307
131.339
111.687
140.447
97.915
111.745
98.538
128.793
102.711
120.138
119.695
118.117
108.200
99.213
127.462
115.441
97.100
144.692
106.981
114.221
106.792
141.477
114.620
96.172
106.261
144.085
97.812
136.858
119.624
102.602
115.904
122.082
139.203
127.430
111.391
122.235
117.644
127.149
119.989
144.200
136.313
95.438
129.597
142.709
133.044
136.676
105.175
101.328
114.516
140.804
138.092
138.978
126.109
137.321
135.534
143.419
103.581
95.327
96.544
102.546
98.861
108.361
109.558
137.430
134.813
109.570
104.570
135.792
137.313
95.157
137.313
111.999
127.812
104.085
144.770
125.694
100.333
104.816
119.461
143.196
131.139
106.444
117.951
124.392
109.631
127.281
133.431
131.130
112.567
104.091
140.079
103.266
143.306
120.559
134.938
121.331
125.009
104.105
128.429
139.024
100.714
108.433
145.670
104.268
141.198
130.125
111.116
100.932
119.090
101.150
112.472
130.287
125.112
98.092
124.124
124.929
107.027
117.717
118.103
127.204
125.943
112.172
103.956
131.904
139.082
126.142
101.471
128.522
125.442
100.072
104.996
95.686
96.845
127.338
139.288
137.604
143.359
141.288
139.545
130.629
131.906
111.917
121.985
128.240
95.533
141.974
120.964
127.348
99.913
117.065
133.853
102.371
129.073
125.076
103.481
99.710
127.339
145.348
120.797
121.672
107.094
109.402
105.594
115.766
122.939
98.212
123.062
141.489
122.728
105.905
113.396
124.931
106.228
136.316
119.466
95.606
130.698
113.471
141.127
125.659
103.203
112.884
131.414
120.982
99.725
99.787
131.422
107.649
122.065
132.583
135.887
137.170
107.695
138.110
103.073
128.228
116.284
117.333
119.839
106.606
118.071
101.196
123.093
139.078
108.892
123.881
110.591
134.595
135.939
116.879
123.187
125.828
144.721
121.456
117.364
131.294
117.064
127.562
120.756
119.164
99.217
132.689
141.398
130.817
112.571
136.501
120.981
125.762
130.349
146.127
123.376
96.160
123.525
103.187
112.745
113.356
106.205
101.151
130.595
110.958
122.655
121.451
115.772
102.656
130.846
117.409
138.853
112.304
106.581
119.677
113.399
96.665
100.559
98.980
113.586
143.751
129.345
137.472
125.105
136.184
104.186
105.936
145.345
106.997
133.300
104.196
137.069
95.227
114.555
115.216
142.348
115.466
124.035
118.492
130.564
127.335
131.796
104.590
110.700
133.558
118.483
136.658
132.547
108.528
112.921
145.976
145.239
128.215
132.669
111.091
143.031
142.819
143.538
112.504
120.438
113.304
135.753
105.900
97.279
126.518
99.073
118.621
137.268
95.385
108.451
96.180
117.323
107.450
96.795
97.453
102.107
110.079
110.473
134.194
94.892
111.182
101.863
127.760
139.212
109.335
112.880
126.705
103.937
126.397
124.395
104.493
138.495
117.612
107.347
126.498
120.171
135.069
137.292
113.008
99.266
98.891
96.179
99.488
96.143
141.511
100.259
102.056
124.187
97.393
111.499
136.946
124.956
113.571
122.425
98.160
116.434
100.910
106.490
126.968
145.896
135.331
132.609
116.394
101.230
132.974
130.879
103.043
99.367
102.801
131.048
122.385
98.341
137.554
101.087
109.074
140.096
135.668
98.226
128.935
96.995
95.571
107.726
106.272
120.444
117.736
126.997
104.665
113.447
124.391
123.855
95.324
128.384
114.777
127.889
125.382
143.643
113.502
126.561
127.481
123.324
146.578
119.075
103.961
128.137
139.820
97.410
105.239
107.983
129.978
139.836
95.100
142.883
133.573
114.845
108.614
115.728
122.450
134.934
132.780
142.611
114.938
106.377
39.753
37.064
30.573
43.699
30.208
38.595
37.661
32.161
35.373
32.353
37.978
33.602
38.034
31.107
38.294
40.901
32.304
32.853
40.060
43.473
39.561
43.117
36.716
38.378
30.217
41.446
36.130
42.284
30.696
44.181
30.185
38.907
40.734
45.007
29.294
32.053
42.309
39.272
31.286
29.172
33.159
44.469
33.816
31.964
41.352
42.164
44.661
960.517
961.549
974.857
965.275
971.594
972.489
980.874
962.508
980.960
976.333
985.289
969.272
983.347
972.592
991.400
985.043
999.489
998.709
1005.308
993.300
1008.204
1008.379
1006.614
1014.146
1007.138
1004.120
1011.211
1002.906
1016.548
1008.615
1015.343
1022.705
1025.906
1021.633
1029.279
1014.044
1033.119
1025.412
1034.500
1041.105
1035.456
1018.139
1034.256
1027.377
1034.157
1047.814
1036.293
1029.625
1045.411
1044.050
1060.835
1061.738
1045.335
1056.839
1043.540
1065.385
1049.847
1064.023
1059.991
1077.693
1067.071
1055.279
1060.435
1082.929
1070.733
1065.928
1089.043
1074.180
1087.986
1088.956
1079.367
1095.772
1077.577
1081.985
1092.430
1099.541
1100.457
1085.466
1093.364
1102.789
1111.666
1098.711
1093.801
1103.818
1113.943
1103.103
1102.471
1105.995
1121.654
1118.936
1112.256
1125.221
1125.509
1113.066
1119.210
1115.591
1131.082
1133.767
1121.747
1123.877
633.411
632.133
625.946
634.443
629.586
634.046
634.254
633.779
639.919
641.084
642.742
636.128
645.957
650.361
647.703
646.657
648.983
650.279
653.872
656.067
654.029
652.999
647.103
657.510
650.391
649.700
662.677
663.957
657.921
660.530
663.484
668.056
668.301
662.607
659.887
670.478
671.289
665.810
667.698
662.036
670.124
676.072
676.842
670.821
674.767
679.418
668.095
669.670
683.804
677.968
672.449
