117.519
143.890
125.593
121.534
130.869
124.871
107.544
140.436
142.409
150.394
101.718
115.256
112.538
150.682
105.462
137.322
110.154
112.741
114.475
142.069
107.790
146.972
148.453
128.462
149.483
109.122
127.047
137.438
130.119
126.576
122.590
121.183
134.039
144.586
109.705
116.029
102.502
124.872
105.470
136.684
107.812
147.755
136.570
152.756
144.745
101.976
117.339
117.956
124.058
150.268
119.318
148.924
136.340
144.492
143.972
115.528
129.990
127.285
112.702
138.123
125.596
150.878
113.986
133.429
130.458
117.566
102.104
110.318
134.769
108.386
134.303
104.606
121.688
135.159
149.691
117.424
106.307
129.581
130.467
152.286
149.834
111.955
129.886
107.048
128.090
125.450
104.083
106.389
108.838
113.284
146.839
141.973
105.330
106.311
113.339
115.650
115.477
113.159
117.159
135.937
103.500
142.118
129.380
116.767
105.699
125.444
110.230
126.405
126.093
122.419
144.900
118.385
129.930
102.672
145.170
135.103
128.166
113.732
131.146
116.958
144.689
119.716
135.855
132.179
102.573
126.023
123.816
138.126
150.959
137.827
104.871
118.376
137.678
123.736
139.652
114.592
114.480
121.896
114.179
151.147
119.157
111.632
104.728
144.712
120.151
119.038
110.575
151.340
129.816
145.008
149.453
114.942
117.676
147.487
142.606
127.301
123.227
131.076
123.674
133.135
133.927
106.875
108.126
135.546
125.979
109.143
135.516
123.438
103.815
106.875
144.578
135.879
150.775
141.279
150.814
147.820
142.600
111.197
109.465
140.372
113.475
108.925
131.534
103.550
104.360
135.011
131.424
127.055
125.208
133.168
108.680
109.096
127.946
152.890
109.752
123.126
123.875
114.772
126.457
110.250
111.537
144.273
107.894
114.601
109.060
139.949
143.905
136.397
122.068
141.963
122.097
108.553
123.127
119.697
121.953
114.936
115.528
109.627
118.202
103.210
129.893
150.199
146.552
120.678
101.843
111.191
111.932
131.240
144.915
141.291
131.139
142.418
109.826
113.116
102.413
133.964
119.845
150.259
123.206
117.781
103.092
122.962
122.319
120.853
136.573
125.914
117.281
133.081
128.545
109.214
116.274
119.284
103.947
152.967
120.547
125.335
108.218
136.826
149.341
131.416
102.011
101.946
129.943
133.540
141.156
127.443
133.621
138.491
121.601
108.019
131.306
130.000
106.237
124.039
135.605
122.015
139.220
130.001
116.741
106.249
103.047
141.495
109.803
104.747
109.850
128.109
139.448
111.937
140.689
114.435
118.210
148.557
136.789
111.563
143.077
106.301
130.384
111.785
103.455
130.700
131.748
113.630
145.962
109.879
122.272
116.454
111.617
119.004
123.733
150.039
151.439
149.904
128.766
127.244
125.667
130.495
143.811
125.759
147.868
110.238
101.608
138.579
137.266
110.242
125.035
149.244
136.540
106.281
106.097
104.344
110.327
148.537
123.792
102.091
115.156
133.427
111.138
111.004
150.660
152.971
118.074
110.171
105.673
139.330
148.866
112.946
115.987
122.374
124.550
148.665
142.254
134.742
134.891
146.566
137.647
151.833
144.880
104.506
109.566
126.560
110.024
133.620
127.629
111.420
110.106
142.571
102.006
146.309
125.650
149.980
110.147
101.321
105.356
140.137
130.252
126.151
139.742
116.463
147.558
139.172
128.226
126.287
103.093
127.042
135.861
102.261
152.495
116.000
140.638
117.448
148.865
104.236
139.325
140.518
123.109
131.981
132.260
140.326
131.255
137.187
141.237
109.087
142.964
143.792
123.763
119.031
148.616
140.887
101.659
108.579
127.250
105.305
114.500
152.388
125.686
115.583
147.330
133.252
107.648
107.364
108.978
129.506
136.196
152.727
115.938
138.161
109.745
101.230
151.940
120.049
115.337
132.598
123.253
113.663
125.102
108.610
109.372
110.271
128.793
110.791
104.903
108.847
140.688
151.850
117.997
136.111
131.794
105.784
139.776
136.100
119.561
135.287
142.083
115.767
134.863
115.194
109.845
122.356
129.242
110.439
142.513
136.484
143.290
118.198
106.441
133.195
125.447
106.231
138.615
151.188
128.907
102.365
147.368
131.510
125.250
109.986
151.811
109.467
110.460
121.204
123.439
117.573
143.339
129.582
114.610
120.227
111.012
102.590
148.371
136.588
152.244
116.806
129.906
116.674
109.595
126.243
109.271
104.739
105.233
128.904
117.425
106.711
125.685
122.840
108.547
127.675
137.515
124.358
118.194
126.708
100.908
134.070
103.529
98.445
95.613
133.665
142.746
125.975
112.931
143.341
144.125
115.119
106.355
109.422
116.537
137.891
145.515
98.676
103.238
144.441
99.606
144.051
96.238
109.631
120.696
134.168
122.567
131.524
135.437
144.430
99.826
132.288
104.914
97.128
146.110
134.799
129.918
98.179
119.716
140.205
132.361
127.072
110.649
142.412
110.728
145.134
114.735
123.742
129.945
98.149
135.106
96.953
135.306
113.976
107.654
100.851
94.933
133.505
100.133
97.090
143.099
104.125
122.750
129.813
126.504
122.765
120.343
137.877
127.663
97.668
131.226
104.621
127.111
132.739
105.009
114.297
129.561
130.959
133.138
121.235
138.597
132.536
128.499
127.060
124.643
100.456
95.989
130.412
115.518
121.034
132.113
97.490
123.618
98.024
141.711
108.018
97.626
99.025
133.766
135.401
108.458
136.436
142.214
141.510
137.752
113.560
95.441
125.839
119.324
135.025
127.520
97.684
143.315
134.869
99.240
121.276
104.935
108.533
133.743
114.566
142.331
99.174
117.328
107.049
144.115
115.407
103.980
139.523
145.136
134.852
101.092
145.193
114.674
139.875
131.682
114.447
133.695
131.365
124.327
122.242
143.379
121.920
109.710
135.189
111.691
138.646
128.575
120.943
98.256
97.913
123.181
144.855
141.907
121.569
103.809
131.795
104.881
106.881
109.709
99.908
131.752
110.427
121.894
138.353
119.701
106.298
116.806
110.099
126.115
122.271
103.109
104.586
132.598
110.597
143.537
96.338
138.926
99.328
124.789
134.630
107.482
99.257
117.213
114.922
142.226
125.708
119.327
107.417
106.617
144.275
131.843
110.086
136.888
143.540
116.768
102.708
129.826
125.642
100.486
106.935
124.288
145.547
122.057
135.199
142.909
118.421
116.995
129.989
107.154
103.776
132.137
129.960
119.043
135.355
104.196
119.901
141.197
99.774
132.073
144.252
118.736
98.016
111.078
119.952
125.479
108.804
114.302
142.878
111.987
111.047
97.477
135.826
145.695
120.864
127.630
108.817
115.988
130.813
122.211
140.880
131.207
142.832
145.062
120.715
122.754
95.802
136.672
97.626
135.858
126.366
136.130
124.338
121.534
140.188
97.917
121.942
122.472
116.864
143.520
128.567
137.084
104.132
120.140
101.479
103.046
119.254
104.511
108.661
114.516
139.149
140.613
103.968
134.222
118.205
130.497
130.963
144.051
99.015
131.297
116.758
120.983
105.804
94.878
122.471
105.912
99.669
124.770
105.111
102.944
115.600
120.074
129.480
104.190
120.905
96.852
133.256
121.291
143.242
145.697
120.176
115.820
97.646
107.529
96.569
128.680
120.845
106.765
109.113
121.821
123.821
99.865
143.112
94.997
116.547
117.055
112.906
106.096
127.262
103.678
118.078
108.444
123.986
136.539
121.031
144.723
132.836
122.708
121.215
98.535
107.430
131.923
132.330
102.655
130.734
95.526
138.730
107.297
139.797
102.178
137.043
124.013
125.551
108.655
138.120
132.268
120.218
96.561
108.096
116.514
113.562
110.538
132.686
126.872
121.289
99.081
144.869
127.702
111.119
142.861
122.206
117.591
99.590
131.817
140.894
128.850
122.319
135.951
105.296
101.338
128.823
114.956
98.218
118.980
135.825
137.722
113.933
105.468
133.924
138.852
144.017
115.657
127.016
105.447
101.780
103.451
123.642
134.181
139.853
106.358
130.966
142.883
130.680
114.417
110.329
105.308
127.472
105.237
124.030
102.352
128.557
141.544
115.508
112.883
128.005
121.405
106.258
111.585
125.968
109.553
95.391
106.213
119.486
144.096
132.944
114.759
102.602
136.358
103.996
107.838
103.024
119.561
109.971
111.891
131.761
135.462
133.869
118.585
103.628
111.148
96.778
102.103
102.276
123.833
110.771
132.234
107.111
112.799
102.566
129.591
143.158
133.430
143.172
144.668
139.051
119.259
136.236
127.046
95.777
103.748
122.136
97.365
119.305
113.042
122.126
118.096
137.459
142.389
94.913
131.779
121.989
128.169
110.677
144.611
112.917
126.937
94.930
119.020
145.910
127.252
106.806
120.607
121.965
130.760
134.568
128.894
99.334
132.873
115.898
145.225
131.310
124.942
111.850
124.440
137.105
135.759
128.272
131.448
114.591
107.793
106.593
109.153
99.182
113.684
133.362
123.086
116.741
99.593
128.654
143.195
120.983
135.398
116.861
134.634
119.568
131.743
120.743
121.814
144.786
129.435
121.431
132.239
133.989
140.437
107.595
133.991
139.855
116.292
120.198
141.375
122.407
96.977
114.779
100.494
115.842
100.306
107.800
138.857
112.725
108.170
97.291
119.796
122.168
105.092
125.147
131.197
104.322
123.277
115.754
95.777
109.593
107.738
137.342
119.654
105.668
96.716
109.728
125.376
111.557
99.109
117.062
118.887
145.052
139.828
122.392
121.813
116.755
112.635
141.267
123.482
131.127
123.763
114.710
113.247
118.500
133.982
131.960
110.015
97.014
125.189
98.019
137.629
102.619
96.203
137.456
141.593
133.813
120.447
108.530
145.556
110.252
137.987
127.757
115.359
122.571
100.992
118.903
137.245
120.032
131.493
110.519
97.044
117.738
132.555
125.696
134.092
135.184
137.362
118.237
142.689
127.655
113.678
116.798
105.177
134.751
127.336
124.478
120.776
101.572
111.963
98.037
129.668
107.554
138.446
139.769
98.922
118.527
146.753
106.213
129.362
135.499
123.324
136.034
142.636
145.753
112.838
145.169
108.785
95.359
101.739
126.679
113.749
99.292
124.996
138.263
116.356
119.441
141.422
102.614
109.209
132.701
144.306
137.216
111.770
118.264
115.670
138.288
110.113
119.541
121.289
117.961
137.132
111.580
140.932
122.763
115.980
129.312
138.355
112.324
127.152
122.429
127.667
142.211
99.879
139.200
102.037
99.382
125.511
95.583
138.498
97.135
106.648
146.527
95.882
142.287
117.301
132.743
113.788
109.281
125.415
130.306
110.311
104.689
117.057
131.648
145.597
98.088
122.387
132.539
146.164
129.097
113.651
116.684
116.850
124.218
108.355
124.522
119.565
134.425
142.690
144.787
118.321
116.242
105.504
144.590
133.257
110.961
139.381
138.620
130.174
96.880
127.417
131.004
126.429
134.236
100.917
105.884
142.726
135.963
128.426
128.092
110.812
98.109
122.503
128.403
142.977
104.828
120.625
136.724
121.018
131.365
120.057
127.795
141.827
145.011
112.211
130.704
116.975
31.270
31.726
43.706
42.125
35.000
32.205
44.547
41.000
37.996
34.521
30.801
35.251
43.869
43.961
44.491
29.674
42.658
39.761
42.946
36.772
31.043
34.165
31.744
43.346
34.277
38.266
44.253
44.507
44.611
33.646
37.207
45.092
45.148
37.349
31.530
43.999
43.722
38.075
44.986
44.458
37.614
38.874
37.250
33.917
948.155
948.731
951.979
954.980
976.058
959.804
967.116
963.697
960.329
982.148
973.504
971.986
977.376
977.407
977.524
981.114
1000.816
987.587
1000.895
988.874
1001.520
1009.500
1004.778
992.600
1007.056
995.538
1001.356
1004.924
1011.701
999.467
1025.438
1002.317
1016.797
1026.321
1015.103
1031.120
1021.544
1012.030
1033.966
1021.471
1030.541
1045.232
1026.307
1033.023
1025.208
1035.049
1026.958
1037.981
1054.660
1057.434
1053.597
1054.072
1046.854
1067.254
1046.493
1063.376
1055.075
1069.065
1063.311
1054.271
1071.840
1079.774
1071.708
1071.092
1066.810
1078.808
1079.129
1086.438
1076.095
1067.722
1095.355
1095.507
1079.819
1096.966
1080.062
1078.015
1079.105
1080.760
1096.492
1105.047
1087.992
1094.682
1101.380
1100.707
1097.943
1103.728
1105.001
1101.729
1120.470
1114.447
1114.541
1111.494
1135.310
1132.598
1129.853
1126.374
1129.041
1122.494
1128.337
1137.922
627.209
631.815
625.659
637.945
640.066
633.599
632.654
638.274
631.244
631.949
642.261
637.613
638.531
638.669
639.569
637.512
644.122
643.937
650.007
646.655
654.635
654.125
646.450
650.331
645.787
658.570
648.822
658.739
664.307
650.768
654.496
652.677
656.713
662.215
670.262
657.531
671.501
664.081
664.000
663.371
665.601
674.100
676.544
671.207
675.524
673.477
670.930
672.442
672.135
685.848
682.707
677.808
678.079
689.259
689.823
687.345
685.608
689.586
687.052
683.136
687.246
694.103
694.952
685.988
694.956
685.549
697.661
698.567
691.994
696.922
703.465
691.417
695.758
707.813
695.693
706.192
705.620
709.874
699.638
711.669
710.673
711.766
708.215
708.638
703.959
707.293
709.626
718.646
713.537
724.489
715.996
726.023
714.812
722.945
721.879
728.824
730.128
723.563
731.750
731.133
724.000
734.195
721.470
728.668
729.247
721.770
730.569
736.560
723.535
737.995
733.856
724.726
728.701
737.586
733.507
739.758
736.168
726.685
731.054
727.219
732.776
733.675
740.269
736.572
732.437
734.736
740.712
737.390
740.719
730.027
740.548
734.212
738.482
745.092
745.755
741.585
744.364
731.673
732.859
747.616
746.391
737.814
735.154
738.394
745.240
747.495
749.565
737.193
737.913
742.158
750.301
739.715
745.934
745.699
745.775
752.161
739.938
752.853
739.075
746.499
742.236
754.044
749.342
749.246
755.270
743.474
756.176
743.656
745.714
750.919
749.802
747.442
748.004
746.910
745.430
748.798
748.300
752.300
748.281
759.530
760.638
749.206
755.147
761.243
749.061
762.067
757.486
756.244
757.763
762.019
755.787
753.666
754.116
750.067
756.906
764.510
759.634
756.058
764.403
767.149
752.725
761.071
759.767
761.334
765.537
754.015
766.813
763.681
759.956
762.470
755.167
763.897
756.065
760.926
765.549
770.333
763.227
762.347
768.978
772.566
768.923
758.423
760.417
768.367
771.551
759.662
774.689
760.272
771.201
772.382
764.993
765.142
770.603
774.146
775.916
776.282
774.886
766.781
774.559
773.204
770.232
766.320
773.985
778.146
776.492
774.212
779.036
767.335
771.965
769.274
774.720
774.193
771.752
778.124
774.921
769.320
782.553
777.744
782.311
778.535
781.147
772.636
786.630
775.388
779.819
784.892
788.620
781.410
786.132
777.094
782.851
782.418
785.012
777.683
789.134
782.034
782.927
779.975
776.907
792.666
790.256
779.203
790.241
791.017
789.057
793.180
794.954
784.580
786.214
789.226
793.083
788.275
786.729
792.583
793.849
791.536
792.615
796.119
784.751
793.640
793.090
792.833
798.063
795.204
800.209
800.704
798.706
799.083
799.696
797.277
802.075
801.314
801.198
803.167
794.998
791.435
793.041
795.889
803.767
804.639
804.875
805.646
800.233
795.211
802.147
809.556
801.512
810.079
800.370
812.137
807.802
803.753
800.879
808.458
799.806
809.917
811.045
800.666
806.129
814.886
810.572
806.410
803.685
810.350
818.221
804.387
805.209
818.423
812.792
813.050
816.662
812.116
810.587
810.661
811.933
811.057
811.511
815.198
817.307
815.347
814.897
811.054
821.182
820.795
819.241
816.339
813.461
815.011
816.363
827.979
814.640
822.181
820.970
830.495
822.048
818.235
827.503
823.446
817.766
828.832
828.610
832.724
822.685
831.277
827.987
823.594
835.370
823.998
822.143
830.542
836.228
833.782
824.971
827.044
835.668
832.039
835.481
825.599
835.526
829.860
838.207
841.455
841.034
830.066
841.597
836.181
844.520
842.082
836.184
832.279
844.944
847.250
842.496
839.148
842.624
847.909
835.440
838.890
836.953
838.704
845.177
845.749
841.745
847.725
841.941
845.096
845.625
849.215
844.293
854.941
843.224
851.599
845.289
856.229
853.494
853.395
856.957
852.582
848.769
849.768
856.001
858.561
854.522
859.030
860.922
860.021
849.232
851.614
862.820
862.391
849.454
856.596
853.377
854.125
860.913
855.967
866.132
855.318
865.756
866.705
864.259
863.334
859.874
865.125
867.021
856.442
863.997
866.486
866.948
857.667
870.066
862.269
873.420
862.297
868.764
863.436
862.105
860.003
871.971
873.721
865.992
877.461
877.230
872.212
871.374
875.541
874.031
874.081
870.648
879.648
868.549
866.413
878.548
873.558
873.719
872.186
872.572
883.556
880.252
878.808
871.207
873.129
870.381
869.710
876.400
872.178
873.430
883.655
872.433
868.670
882.694
878.686
869.939
870.730
868.183
878.347
875.661
868.834
867.628
879.313
878.737
877.945
873.858
868.010
866.218
878.302
868.399
869.853
865.784
870.639
875.229
871.764
876.213
878.730
877.789
866.351
865.593
873.036
878.853
874.896
872.820
866.013
877.836
872.315
870.079
869.525
877.891
875.874
871.120
863.878
867.975
869.027
867.908
868.858
871.731
876.511
865.576
861.861
875.965
863.556
873.105
861.099
875.127
862.966
864.545
861.158
865.253
869.887
870.846
868.756
864.675
859.533
859.677
858.494
863.068
863.055
858.356
860.329
862.594
867.525
864.477
870.587
868.885
864.911
860.831
867.977
872.295
857.757
856.869
871.052
855.811
868.971
856.922
856.652
862.246
860.203
864.011
869.529
864.040
861.516
857.397
867.876
857.597
862.930
869.306
857.971
857.753
857.870
865.773
