126.805
116.694
113.275
97.080
903.794
898.216
906.679
911.685
915.458
917.660
919.218
917.059
926.846
936.953
933.321
941.203
921.623
926.422
943.301
937.471
952.213
951.593
940.500
951.666
949.673
971.769
956.972
978.532
974.095
988.326
987.679
985.646
981.758
989.519
993.195
1004.471
988.997
1004.601
1003.207
997.573
1022.879
1018.335
1018.219
1011.886
1036.115
1043.864
1022.823
1024.397
1049.737
1035.722
1037.018
1060.278
1060.609
1058.820
1057.558
1070.358
1082.429
1073.124
1067.727
1092.943
1069.433
1081.693
1079.915
1093.138
1097.739
1101.573
1102.679
1113.695
1122.866
1120.200
1116.033
1120.754
1110.033
1120.637
1116.303
1139.078
1146.637
1131.624
1141.835
1141.585
1141.311
1161.179
1153.480
1154.633
1154.754
1177.831
1181.190
1168.789
1183.452
1171.765
1179.161
1187.636
1202.333
1187.541
1184.220
1210.946
1197.742
1204.282
1211.417
1218.787
1213.120
1217.021
1215.185
1218.522
685.795
689.723
683.929
690.768
692.375
697.301
691.078
701.457
705.474
700.996
707.161
708.962
706.551
699.843
708.888
709.208
717.817
716.093
717.769
719.490
721.228
730.316
729.495
723.839
727.013
734.231
736.254
741.178
733.474
744.072
736.286
744.704
744.972
738.993
741.752
740.971
744.829
745.354
761.794
759.531
756.475
752.903
755.418
756.357
761.908
765.935
768.954
773.805
775.244
769.099
772.777
771.537
787.176
777.555
790.905
782.354
783.044
783.007
783.615
797.300
794.544
792.269
797.211
795.815
801.063
809.387
811.909
801.627
807.186
808.580
808.063
820.708
814.933
825.596
815.176
825.359
825.345
832.625
832.482
834.761
839.948
829.575
839.752
840.955
845.888
841.165
851.705
853.450
847.317
857.412
855.439
855.518
856.132
854.142
859.440
866.281
863.281
863.034
859.309
870.050
869.437
866.405
863.156
876.966
868.669
866.746
865.633
863.273
875.766
872.350
874.645
868.317
864.102
866.137
874.777
872.351
877.258
879.011
879.179
872.468
878.564
867.304
872.794
877.640
868.678
877.892
866.381
871.116
878.032
871.372
873.236
866.652
872.414
870.544
878.557
870.616
872.550
878.115
880.822
870.968
873.918
868.740
868.195
874.000
879.479
873.101
874.292
873.627
872.926
880.228
877.290
871.601
873.818
869.397
882.784
885.341
875.102
871.387
871.554
873.850
875.063
885.450
873.394
874.129
882.679
872.949
886.071
883.292
885.457
881.809
882.051
874.851
886.588
882.473
888.059
872.526
882.379
875.490
887.665
878.244
884.208
877.358
885.264
874.591
874.620
879.536
886.034
887.131
882.564
884.651
883.490
879.803
881.840
889.777
882.180
887.258
885.057
890.123
878.991
891.174
878.153
886.163
887.989
881.573
891.203
877.375
886.745
884.617
884.793
879.098
884.633
880.404
890.006
891.368
893.072
880.469
881.420
881.844
879.288
893.841
885.420
879.075
888.279
890.518
886.920
879.401
891.630
890.761
893.068
879.915
886.345
891.765
885.682
890.096
896.131
888.570
894.823
895.596
889.035
892.139
884.226
890.127
885.019
894.198
897.526
897.396
890.111
897.776
887.010
885.952
890.486
883.938
886.130
893.508
883.291
894.381
884.957
897.775
890.240
894.605
898.221
895.251
894.360
890.043
895.720
897.299
895.346
887.450
884.985
898.436
898.465
895.805
897.567
890.617
894.113
894.843
895.602
896.698
890.863
890.777
896.219
899.564
890.180
893.627
903.077
891.480
901.409
894.787
896.960
895.367
891.544
889.242
898.840
888.847
895.319
900.508
893.082
898.345
890.613
899.304
904.220
897.573
892.849
892.740
893.309
895.254
883.695
882.364
894.284
881.111
886.859
883.156
881.266
876.468
885.054
878.901
869.546
880.807
882.562
879.255
876.233
867.930
875.693
861.593
866.475
860.641
871.807
866.064
855.723
856.085
858.083
864.974
850.472
862.923
858.473
849.709
855.205
843.608
846.533
856.489
853.330
851.729
850.686
836.448
839.960
846.003
845.959
843.078
843.521
838.497
828.636
826.970
824.614
834.756
823.889
830.769
827.260
833.132
832.349
826.990
825.766
823.743
817.642
816.319
817.938
823.045
810.058
815.079
817.644
816.514
816.980
806.148
805.838
799.272
805.533
807.288
799.641
794.357
793.802
806.406
790.063
802.807
791.999
794.201
795.311
790.072
784.329
781.393
787.181
788.245
785.833
790.017
787.330
783.926
783.752
774.947
771.443
778.784
781.985
769.677
771.710
767.815
773.463
775.954
762.920
768.670
768.898
766.180
765.683
753.859
765.226
759.715
761.357
755.063
750.815
749.679
749.497
747.815
757.668
746.196
747.793
752.396
737.434
739.920
744.754
733.207
736.674
744.927
734.365
743.786
737.193
733.800
736.006
734.480
724.585
723.508
720.611
723.513
731.668
731.325
728.133
715.657
726.233
714.502
724.638
721.003
718.739
709.513
706.950
703.386
707.464
710.131
711.509
701.615
699.372
708.082
702.884
698.356
698.476
705.681
701.086
690.214
698.910
689.553
694.112
684.432
697.641
694.698
686.069
685.425
683.679
687.182
678.566
683.217
675.809
677.092
670.768
683.113
677.328
668.246
674.293
664.986
667.895
671.061
673.659
666.224
661.229
657.382
665.138
658.593
667.173
666.008
651.154
650.092
657.852
656.987
654.171
646.877
649.455
654.195
641.122
653.650
644.658
656.320
653.417
649.270
663.010
654.459
660.068
659.937
670.091
667.556
667.151
671.862
674.935
669.232
665.844
680.053
672.896
685.358
677.891
678.460
685.696
680.965
687.665
693.539
684.504
688.531
687.188
689.691
692.141
693.465
705.026
703.374
700.825
708.167
704.326
701.698
704.665
706.136
715.820
714.393
709.742
710.145
712.890
726.341
713.933
725.973
723.494
718.633
720.958
720.885
731.253
725.397
736.515
741.929
733.590
740.815
740.537
748.402
735.365
739.935
743.764
748.390
752.700
756.442
751.228
749.408
752.709
755.216
751.377
754.970
764.208
761.478
773.226
768.539
776.773
769.060
780.012
778.650
769.423
774.739
777.776
772.321
779.293
778.373
780.585
791.770
785.605
792.901
798.765
787.328
787.154
788.463
791.909
793.574
795.639
800.700
799.043
801.669
813.950
808.527
806.313
809.297
808.503
811.407
820.071
811.219
814.429
828.586
826.420
819.132
831.577
825.097
831.252
834.983
840.082
842.465
840.953
832.023
841.566
840.587
837.759
851.121
849.686
841.537
845.552
846.413
851.203
856.696
860.062
854.628
856.025
862.126
864.897
866.862
860.005
862.113
874.305
870.928
873.719
879.262
868.687
870.387
876.815
887.022
878.685
887.357
879.219
883.127
893.512
886.049
886.966
897.516
889.975
900.581
902.014
903.160
897.050
904.317
911.324
907.520
898.896
916.131
903.802
907.923
909.110
913.914
920.968
925.279
921.796
916.133
919.098
931.273
921.683
925.887
924.084
937.957
927.821
929.332
941.268
935.758
937.929
933.205
943.051
943.887
946.232
941.280
946.947
956.990
950.314
957.902
959.502
956.769
964.097
956.742
964.598
965.340
968.418
967.607
972.484
966.446
961.444
963.459
956.953
970.131
959.101
967.170
952.105
961.803
960.244
962.751
957.665
950.082
946.672
947.048
957.771
946.860
945.810
956.032
940.677
947.760
945.876
944.626
945.152
938.352
940.161
942.010
933.169
946.156
945.057
937.067
931.124
931.593
927.893
938.341
935.875
937.804
930.758
930.407
925.611
926.416
933.592
926.143
919.476
927.652
930.270
927.615
921.968
924.495
924.009
923.665
923.219
910.714
912.570
918.526
910.373
910.063
916.980
903.972
909.348
912.539
906.121
904.271
902.046
896.380
909.025
896.424
902.825
900.932
898.532
898.016
894.635
899.158
899.140
895.489
898.058
892.446
895.660
883.344
887.089
889.479
879.559
888.009
891.486
887.877
881.920
873.967
872.908
887.230
884.485
885.449
880.092
880.062
877.470
869.443
870.490
869.231
874.881
874.030
871.926
865.925
869.215
866.794
863.921
864.714
857.477
863.067
854.044
856.090
852.927
850.226
860.109
848.989
850.224
857.305
855.958
853.177
853.663
855.531
843.049
843.595
850.220
839.221
841.898
851.957
841.886
840.062
838.884
832.442
845.329
836.785
843.925
843.451
840.691
840.332
836.951
830.485
837.093
828.130
835.845
824.675
824.287
819.268
825.786
827.848
830.526
826.275
829.009
825.308
818.918
811.641
813.425
819.279
808.311
811.336
809.279
805.511
809.147
813.743
803.096
813.020
807.339
811.193
812.591
798.428
798.619
798.324
806.701
798.987
795.930
795.317
801.443
790.767
796.675
798.695
794.348
791.251
794.284
784.118
790.666
790.448
791.185
791.297
785.017
789.686
782.603
779.507
779.784
788.357
781.475
783.638
784.323
776.035
772.363
779.239
773.594
770.103
772.622
766.440
765.137
772.140
771.003
766.688
768.469
771.646
759.888
763.153
762.555
768.563
769.410
765.095
758.550
759.132
768.878
764.522
759.251
758.888
754.824
756.997
759.987
757.102
756.506
759.115
752.871
759.700
753.553
753.763
762.689
749.086
755.202
751.400
751.168
759.310
761.419
753.390
748.595
754.198
746.580
753.931
755.882
751.845
748.451
747.910
757.324
741.595
741.176
743.875
750.508
749.794
754.037
749.116
741.270
744.025
752.809
744.665
737.490
748.791
738.464
738.962
745.775
738.482
744.922
736.023
746.155
741.606
737.215
732.553
734.132
740.832
733.922
744.589
740.843
736.787
730.350
730.433
732.753
740.194
737.593
736.618
736.726
738.474
737.324
733.344
733.990
723.227
725.202
721.741
726.419
727.503
729.077
730.353
720.336
733.719
733.624
731.539
719.949
720.842
727.688
721.334
719.185
723.164
718.215
726.295
717.236
722.106
714.941
722.806
713.609
715.501
718.647
713.693
711.626
711.089
709.660
714.393
719.872
720.556
710.273
713.370
721.344
714.815
712.787
716.226
707.899
708.881
704.179
714.359
716.183
705.079
714.317
702.203
703.370
700.392
703.360
712.224
704.916
704.135
708.072
708.751
706.289
697.853
706.199
695.534
704.963
710.111
704.451
704.820
702.914
707.790
703.893
695.061
694.480
701.764
698.432
701.806
701.310
696.939
690.195
699.175
700.315
688.087
698.180
695.027
690.910
698.725
691.933
696.661
698.540
683.312
692.592
694.978
696.551
692.762
686.885
693.823
695.104
682.628
684.934
694.064
690.609
681.654
692.127
677.642
678.620
678.294
689.169
680.835
684.318
686.219
677.585
674.329
676.833
678.789
673.610
675.644
671.218
678.293
673.928
674.992
669.483
668.101
667.430
671.558
667.307
664.821
675.304
671.316
664.438
661.992
656.328
661.835
662.884
654.597
660.083
661.027
653.702
654.506
661.796
646.727
654.660
652.126
648.760
654.636
651.348
641.290
640.091
637.646
646.384
639.317
646.801
635.791
631.751
637.324
633.265
626.586
635.964
632.450
627.510
627.810
628.201
624.116
630.251
621.206
623.186
622.264
627.262
611.136
618.316
615.219
623.264
612.726
614.338
610.076
616.258
612.306
604.769
614.223
612.421
607.387
608.632
598.638
606.589
605.346
599.604
599.918
598.694
589.385
601.156
589.487
589.986
584.905
593.340
589.390
582.673
579.229
578.581
589.024
578.421
578.646
585.988
578.035
574.266
577.500
568.753
565.743
576.707
564.811
568.381
568.932
570.107
559.424
558.685
556.462
557.963
552.842
557.596
561.825
558.721
557.721
560.707
553.471
549.483
556.179
553.740
548.966
545.294
553.394
549.402
547.329
539.372
548.028
535.244
533.494
541.048
528.172
540.332
539.575
534.786
537.418
533.218
521.464
531.826
526.721
523.565
524.268
528.030
522.873
527.838
514.712
510.466
515.998
507.901
515.650
509.445
507.876
517.405
505.694
506.079
506.198
506.615
504.444
499.272
499.684
501.369
502.748
502.105
498.271
487.987
489.951
486.515
492.938
486.192
492.998
483.648
490.452
487.810
486.864
481.143
485.083
484.040
485.376
479.671
470.826
478.455
481.510
467.243
474.612
470.165
468.594
466.763
474.424
471.225
463.270
458.384
464.873
468.950
453.945
452.135
453.228
459.669
456.679
453.461
449.480
451.750
456.691
443.524
442.568
442.935
445.436
444.476
445.726
443.434
447.209
437.801
444.501
434.887
430.981
433.590
425.393
436.824
440.440
427.011
435.392
439.940
432.020
437.399
443.747
440.414
442.114
450.322
446.996
441.018
453.075
453.413
449.659
459.985
462.480
458.087
461.511
465.228
457.709
459.161
468.166
463.495
459.010
464.435
469.047
465.284
466.701
468.398
471.877
472.135
484.168
474.706
484.943
486.416
481.873
482.816
491.523
481.075
496.120
489.690
496.108
492.757
489.435
495.283
494.852
498.988
498.714
502.856
499.471
507.275
508.504
512.392
501.230
506.961
512.087
508.681
515.599
520.456
513.948
523.406
512.243
528.419
521.953
528.770
530.639
531.559
529.751
527.965
530.604
529.161
531.307
532.221
534.831
530.041
545.125
539.774
548.380
543.115
543.006
547.323
549.244
552.960
549.321
557.152
548.129
556.229
553.896
550.442
563.901
559.680
556.433
564.053
560.815
558.211
563.906
565.946
569.874
570.808
570.022
569.606
574.299
568.809
580.751
576.119
581.812
579.780
575.571
579.061
587.967
582.539
594.435
592.344
599.215
593.901
599.488
588.733
590.483
596.123
599.886
600.603
601.619
598.463
611.068
604.277
604.333
611.982
605.586
616.282
609.136
616.766
611.761
612.634
617.532
623.832
628.295
627.161
623.638
633.170
629.764
627.866
628.468
628.210
639.544
634.116
633.879
643.864
633.159
644.367
636.141
649.782
646.812
648.760
648.296
640.766
647.887
650.906
647.052
651.767
654.825
664.330
650.922
663.619
663.574
657.285
669.547
671.647
659.062
675.410
676.885
678.337
669.822
677.483
675.854
681.717
685.170
675.735
686.009
680.103
679.233
684.549
688.112
679.627
689.311
691.976
697.505
688.749
698.624
703.627
702.814
691.315
701.332
709.037
695.906
708.521
707.827
710.618
703.930
713.562
702.544
700.965
702.953
704.434
697.112
691.169
692.367
689.610
679.952
674.427
682.638
673.220
673.640
668.311
664.243
666.008
661.207
657.496
655.928
659.681
656.941
643.218
645.139
642.439
638.645
644.326
637.444
630.786
624.957
622.123
622.323
625.142
612.548
614.605
606.891
615.709
605.519
599.843
606.975
604.862
603.774
600.312
596.973
585.363
592.253
590.277
580.594
581.789
581.508
576.580
567.857
570.473
566.795
564.045
550.823
550.515
557.157
546.344
539.469
549.007
541.282
537.921
530.849
529.598
537.733
520.866
518.939
527.997
512.890
511.298
517.741
510.721
507.397
509.514
504.385
504.056
495.315
500.558
499.270
491.501
494.247
482.232
473.561
482.155
468.486
480.385
470.645
462.535
458.034
469.469
452.257
450.187
453.431
452.575
451.716
437.209
448.576
440.859
434.673
429.274
428.074
424.100
429.327
425.237
424.530
418.005
420.757
417.844
407.779
404.548
403.023
399.089
396.726
390.035
385.336
395.200
381.518
386.323
375.761
384.248
380.156
378.136
370.136
374.522
365.694
355.953
360.066
355.940
354.147
347.535
345.499
347.199
338.798
346.037
344.067
335.981
330.657
322.547
323.447
329.083
320.085
323.437
311.400
311.606
315.596
304.089
303.348
302.946
291.620
300.931
293.086
293.423
284.120
285.561
276.719
278.981
275.159
277.822
276.092
266.860
266.013
255.181
267.653
257.672
248.206
253.183
250.746
243.584
247.849
243.560
244.039
241.046
229.929
222.793
221.037
221.488
214.960
215.331
213.803
211.481
203.558
206.891
205.663
196.210
198.228
195.469
199.681
187.550
182.109
189.178
176.493
174.566
179.262
175.587
175.722
173.493
163.192
155.970
168.963
155.061
153.997
164.326
152.103
148.643
148.840
149.097
162.935
154.471
154.780
147.095
147.000
158.033
157.691
154.570
154.602
157.079
146.860
151.654
145.176
146.965
147.220
155.487
155.736
143.631
145.550
143.082
148.025
142.151
138.972
141.048
150.388
140.529
142.718
149.949
136.037
141.898
140.795
142.153
134.597
142.581
137.234
145.450
134.829
138.644
130.814
133.430
136.322
139.201
142.460
138.862
140.489
126.515
130.643
132.342
134.417
129.717
124.224
132.535
125.129
131.982
128.970
130.891
130.707
123.100
126.028
130.781
124.763
123.595
131.178
131.329
128.468
120.535
117.908
131.780
124.547
119.358
118.156
121.090
117.627
117.767
123.288
117.425
119.047
119.184
121.909
113.999
112.395
119.590
115.556
110.099
121.372
115.172
120.950
122.114
121.498
114.694
114.030
117.767
117.830
106.516
111.218
116.372
112.238
114.829
102.218
115.819
115.244
103.227
111.465
112.966
103.348
103.470
100.027
105.857
102.609
109.775
105.911
110.330
108.252
96.104
102.084
105.236
100.190
102.029
98.049
97.115
98.303
105.390
103.599
94.490
105.406
96.504
92.750
95.166
103.639
101.860
100.742
100.376
89.246
93.141
90.708
96.919
91.075
96.759
99.657
84.994
84.384
85.321
86.359
84.365
95.897
83.208
85.138
90.889
79.405
87.003
80.440
88.442
91.348
87.687
85.534
76.798
89.683
86.851
80.783
86.165
73.960
81.976
74.264
88.065
81.436
79.914
72.742
84.755
79.960
70.182
76.875
74.698
75.254
74.708
70.115
73.427
74.654
69.102
69.491
67.538
79.096
74.235
72.270
67.096
72.099
72.686
72.809
62.411
71.489
