118.358
123.075
95.328
131.971
122.038
146.463
121.870
102.749
126.164
125.286
99.004
125.441
143.770
136.728
135.893
105.173
128.304
127.639
113.744
126.535
121.697
145.043
130.030
95.819
119.465
128.159
122.402
140.101
120.968
141.637
115.944
109.371
128.543
123.656
115.172
118.661
131.803
123.206
128.866
131.288
134.534
103.485
115.741
137.994
118.829
141.261
145.802
116.905
101.051
145.566
126.617
114.060
133.088
136.770
136.959
126.090
116.812
126.280
125.035
122.998
105.213
122.434
118.392
133.752
94.929
141.890
115.240
118.625
113.397
135.503
105.171
132.751
120.157
131.139
126.977
145.192
139.333
107.697
132.941
99.190
131.818
101.536
121.805
105.322
104.928
135.899
98.436
106.190
114.016
144.736
111.790
111.851
98.155
104.664
146.166
96.153
123.100
103.967
123.724
144.449
94.848
107.675
126.192
131.438
107.636
128.673
139.186
121.194
145.472
105.348
146.299
136.859
119.914
104.634
101.955
120.312
142.348
125.562
140.916
115.646
116.428
103.719
96.420
116.883
137.539
95.869
141.654
95.069
99.209
95.457
97.543
121.536
109.863
141.841
130.787
111.149
130.844
109.974
103.633
138.810
109.564
103.289
117.941
144.314
134.493
107.960
98.835
144.129
110.256
109.670
141.671
116.331
118.485
108.302
128.017
106.655
145.041
146.051
100.599
134.780
113.375
114.279
143.012
136.889
117.254
101.562
120.791
134.798
121.452
113.701
101.326
118.886
101.832
107.968
128.262
142.640
136.637
104.911
127.063
144.073
110.261
101.144
108.823
100.627
138.000
105.928
130.614
127.425
138.581
103.284
115.496
104.318
102.810
146.748
119.961
123.607
146.577
121.442
145.616
98.341
141.140
97.060
120.681
105.085
95.869
123.225
112.686
136.570
143.794
111.245
95.831
122.547
111.888
109.154
99.827
110.774
137.940
125.078
118.008
145.012
111.643
112.366
107.915
103.490
111.287
122.455
124.854
102.349
108.376
106.817
100.855
137.793
110.847
145.322
123.557
109.937
108.969
113.200
96.463
136.272
125.750
112.489
108.063
137.339
140.593
118.281
132.252
103.505
135.534
110.821
140.933
106.744
125.895
131.732
111.428
118.554
112.629
140.820
146.544
144.403
125.221
114.444
112.200
126.651
144.839
128.823
117.523
101.528
130.451
103.228
130.511
113.294
115.418
100.776
144.811
100.278
123.400
123.422
120.620
118.693
110.642
134.241
117.871
107.090
111.681
131.332
128.768
128.317
96.991
103.960
100.541
106.797
138.943
97.095
126.590
119.657
121.110
122.436
118.328
99.760
103.035
113.089
124.551
101.964
119.852
144.878
115.050
96.586
127.756
127.091
125.974
111.191
117.209
138.494
140.943
111.221
143.781
112.299
116.955
98.444
126.551
141.813
107.614
128.687
144.765
124.863
119.646
137.423
117.859
110.534
127.497
144.906
131.207
128.318
142.568
128.606
109.025
103.070
122.559
131.448
112.532
106.041
120.448
128.898
136.140
101.766
106.366
119.075
136.312
116.819
111.896
133.377
134.571
146.363
138.582
136.846
133.368
144.474
141.834
102.380
104.557
117.631
137.847
111.823
101.747
117.359
129.081
113.678
120.329
101.762
138.755
121.196
114.345
103.326
117.767
98.376
113.748
108.703
100.700
95.331
123.082
109.661
111.733
125.103
102.463
126.547
119.957
110.722
135.849
101.488
102.738
110.102
104.934
107.934
104.912
124.119
139.247
143.596
107.547
106.889
95.309
118.765
97.631
102.930
125.192
117.780
144.697
123.193
115.693
143.506
110.794
112.898
113.283
126.903
95.267
112.622
125.120
99.696
99.963
125.449
130.231
121.611
126.993
95.286
133.340
124.842
130.960
114.452
109.411
135.420
145.845
124.850
108.160
145.425
146.385
107.241
123.996
113.604
121.761
111.507
145.265
112.486
134.683
97.553
118.400
122.699
134.165
124.002
145.212
117.813
118.111
132.508
142.145
131.324
134.232
134.971
145.617
95.726
125.723
116.783
142.885
139.585
125.937
97.288
100.347
105.792
131.547
99.796
116.238
120.668
127.236
124.730
98.749
139.804
127.770
96.109
123.012
138.084
141.654
144.722
122.481
111.657
113.070
98.522
120.920
132.819
127.802
112.748
115.205
126.635
97.735
115.978
121.983
123.466
129.921
121.567
145.668
107.064
133.399
99.030
144.655
144.162
108.833
128.911
127.107
97.778
98.673
124.887
143.536
119.325
111.723
131.493
126.016
132.522
143.259
121.520
141.765
117.073
109.382
136.230
110.914
106.756
97.919
136.538
115.196
116.677
106.741
118.410
128.000
95.537
113.330
123.763
107.619
99.081
95.061
141.148
99.652
137.124
143.936
112.553
118.129
119.917
123.609
105.622
100.392
96.247
118.847
121.077
145.725
127.468
112.274
143.865
104.616
130.557
96.897
145.329
139.274
105.801
124.878
99.954
128.326
101.648
134.982
95.800
127.649
140.448
138.956
123.730
98.498
106.310
101.106
114.397
138.664
128.533
108.414
125.095
98.023
110.949
140.868
102.784
114.018
123.180
109.378
100.196
110.654
136.125
123.789
131.483
128.537
105.207
115.134
137.875
142.119
108.273
96.322
111.743
143.650
98.188
100.719
133.136
96.089
121.639
127.778
99.856
114.422
124.752
105.704
140.036
94.869
121.590
95.500
110.564
142.025
141.473
135.758
136.099
124.160
96.914
117.567
106.971
130.671
132.503
125.960
120.946
99.981
136.569
99.820
127.423
145.278
143.549
126.953
140.677
105.537
145.650
106.182
130.792
105.025
110.066
117.897
105.105
31.533
30.913
35.256
43.436
41.575
37.378
39.358
40.582
29.486
42.771
31.325
29.953
30.053
29.659
42.760
37.268
37.986
39.658
38.087
44.571
38.447
29.205
31.512
35.091
32.115
29.595
41.996
44.330
41.372
35.907
32.360
39.556
645.744
658.615
650.582
657.104
651.049
658.788
662.831
650.176
677.373
652.400
655.728
660.210
675.332
682.877
678.900
661.747
667.133
691.107
688.611
672.001
680.468
669.011
670.905
683.606
674.741
676.249
686.488
680.686
704.270
683.329
688.625
700.706
703.627
710.855
690.755
690.611
697.187
712.485
714.640
703.850
698.468
698.024
709.803
700.596
726.143
727.756
704.350
705.959
721.926
730.168
724.898
710.448
730.789
730.260
717.242
725.723
714.858
729.136
723.461
718.197
745.685
734.550
734.108
734.763
743.571
726.406
729.743
737.324
752.447
739.631
756.671
762.596
753.057
749.410
754.223
746.192
757.045
766.237
765.792
756.360
747.876
766.184
768.305
778.048
753.275
775.512
760.131
781.717
771.921
767.933
780.465
779.238
780.160
782.442
769.701
794.223
792.169
771.342
791.285
791.111
441.623
438.593
444.645
439.941
434.832
435.278
445.092
439.406
450.673
443.739
446.013
439.859
441.240
453.813
453.396
454.934
444.764
448.820
450.705
455.108
444.881
449.570
447.282
449.153
461.016
450.798
454.987
457.141
458.959
461.621
455.512
464.212
458.490
459.000
465.200
457.088
467.605
468.338
463.502
459.445
462.426
465.975
475.713
468.460
474.152
462.700
464.943
469.321
469.766
466.684
467.298
480.136
474.263
474.050
482.971
485.266
476.813
476.208
473.736
473.318
483.245
484.941
486.732
486.928
482.610
482.724
485.692
491.357
490.280
481.331
493.719
492.341
487.314
485.463
491.953
489.749
486.387
497.782
498.736
489.612
498.202
493.359
499.311
504.087
500.346
500.125
492.576
496.278
495.756
507.519
499.646
498.612
508.725
511.207
509.203
500.454
503.684
509.251
505.712
512.886
505.709
507.996
515.573
523.179
527.350
513.891
525.201
526.232
523.194
524.256
532.096
541.645
539.964
533.825
547.854
544.261
549.903
552.955
551.083
547.897
552.948
562.768
561.369
565.263
565.950
561.645
575.412
575.824
566.576
582.970
581.398
580.642
583.358
582.386
586.374
597.531
589.502
592.272
594.090
591.688
606.730
604.429
604.344
607.636
613.306
617.892
609.723
619.042
627.449
616.164
624.544
632.606
627.570
630.521
627.392
640.076
631.684
645.876
649.900
649.889
654.463
649.431
650.241
659.320
651.856
658.450
661.033
666.977
673.552
668.030
667.016
676.695
673.556
683.023
672.468
679.925
676.829
685.916
686.784
690.403
687.397
699.025
704.269
699.379
699.090
710.297
713.550
701.722
711.013
721.119
719.549
716.693
716.858
729.088
723.152
732.646
722.249
724.303
735.040
744.155
744.700
740.129
748.865
739.035
744.796
747.901
748.476
756.124
760.200
757.848
767.510
771.696
774.194
773.364
763.450
777.188
772.130
777.391
779.574
784.362
777.092
792.170
790.924
785.473
799.196
788.774
801.081
794.542
803.787
801.347
813.039
802.191
816.085
818.772
813.398
823.463
820.407
827.977
827.084
833.981
834.384
836.487
842.877
845.247
838.192
843.957
846.084
853.001
856.481
852.237
845.979
856.127
862.886
853.437
865.323
867.921
860.092
863.290
874.753
875.850
878.776
884.428
875.077
875.396
883.615
884.290
891.743
884.448
899.448
901.529
892.358
909.219
908.364
901.303
902.210
913.046
914.667
917.540
924.966
916.019
921.241
930.003
932.463
926.698
938.912
931.352
930.359
944.414
938.347
945.447
942.521
945.923
956.977
951.338
958.322
955.997
959.065
964.839
970.290
965.578
965.779
969.513
960.636
959.714
954.643
965.264
966.908
963.128
954.806
957.620
952.924
952.825
950.003
951.927
939.783
947.316
937.323
940.446
940.350
939.128
935.063
943.923
938.413
937.626
926.233
934.878
927.979
922.477
930.483
931.733
922.422
914.367
927.112
926.612
910.095
919.404
915.578
912.838
907.437
917.409
903.835
904.491
903.662
910.665
901.742
904.344
901.751
904.329
894.232
891.811
892.948
886.755
890.667
887.565
881.462
882.146
880.529
877.828
878.885
882.152
879.196
882.861
884.654
877.029
871.626
865.747
865.728
864.576
860.156
864.205
858.907
864.120
856.839
853.299
864.390
852.287
858.192
859.728
852.272
850.013
848.714
850.661
841.208
846.192
850.646
839.195
835.499
835.471
837.709
840.615
841.788
828.305
831.637
827.822
829.575
820.495
824.498
824.944
824.848
825.559
824.135
821.055
818.842
814.507
819.401
817.213
818.737
805.684
804.632
815.487
812.135
800.788
800.636
809.016
794.558
804.123
799.007
788.504
794.104
798.887
789.684
783.043
790.216
793.544
787.156
784.093
781.649
786.249
783.506
777.459
771.119
770.066
775.230
765.500
777.099
762.291
771.618
771.776
761.907
767.391
755.531
756.602
752.947
757.156
759.267
758.682
753.392
753.921
755.185
746.358
747.261
750.076
751.110
745.352
735.815
747.861
741.296
734.942
743.512
729.954
736.978
726.308
728.377
736.180
721.760
720.411
730.836
729.892
714.014
727.391
710.608
714.714
721.167
711.981
712.933
710.081
701.935
705.818
704.837
699.505
703.774
703.763
695.310
697.622
704.081
691.889
698.506
695.978
698.944
685.731
684.629
684.215
680.191
682.868
684.879
680.547
679.203
679.072
685.274
680.227
677.680
669.436
682.189
674.286
680.510
681.811
675.457
687.094
679.974
683.157
686.825
676.086
683.603
679.292
687.282
679.934
694.760
681.791
694.306
697.138
694.882
688.141
684.816
699.468
698.551
693.748
693.707
688.762
700.556
692.114
706.374
693.213
696.890
707.366
700.468
710.680
702.216
709.005
698.550
704.289
702.766
707.473
701.371
705.053
707.396
717.139
708.240
717.923
716.025
707.586
713.423
713.052
709.559
709.603
714.462
718.865
721.907
728.255
724.951
726.759
718.369
726.194
726.956
722.705
728.283
725.382
723.454
736.176
727.585
735.154
735.883
734.711
727.286
727.322
742.504
729.796
728.190
733.798
732.828
731.542
741.366
733.492
737.512
736.137
748.391
750.936
745.225
751.029
752.183
739.164
743.383
745.506
756.887
756.382
745.396
748.612
753.965
746.670
755.999
749.308
757.386
751.513
764.900
763.372
751.734
763.709
755.024
768.568
758.820
767.396
768.394
768.681
764.640
764.667
772.983
774.350
775.057
765.933
767.705
772.043
768.870
777.712
771.290
780.226
767.687
778.533
779.545
772.368
774.665
779.197
787.843
784.598
789.426
783.595
783.066
783.516
783.223
780.378
791.280
793.826
791.377
787.093
789.370
797.907
785.056
787.497
800.631
791.165
801.011
791.158
789.891
790.099
804.307
798.945
799.391
793.064
800.523
809.173
800.470
799.469
805.790
804.631
807.959
806.829
809.176
811.518
802.898
816.999
813.424
807.017
817.216
812.646
811.174
808.317
823.332
817.539
809.381
816.239
820.736
822.510
822.708
814.860
820.081
816.629
831.205
817.473
831.390
818.971
823.808
831.418
827.352
836.623
828.883
833.226
836.996
830.301
828.744
835.748
828.328
842.164
836.346
842.707
838.124
840.779
840.467
843.284
846.111
840.114
847.541
832.988
839.544
840.224
834.990
846.590
845.379
847.766
850.554
840.648
851.933
840.406
846.552
847.126
842.108
844.100
842.510
842.256
841.137
854.747
843.085
852.752
846.519
846.712
853.014
848.341
858.998
858.886
844.611
860.189
845.415
855.745
849.709
847.222
853.074
858.911
859.171
860.086
854.453
853.594
855.394
864.033
862.527
857.280
858.219
860.117
854.277
858.353
854.122
853.503
865.803
868.942
855.901
860.243
866.707
864.958
864.257
871.217
859.237
858.122
858.266
864.869
865.526
869.036
871.945
871.643
864.532
868.328
875.393
872.722
869.601
872.661
874.781
863.847
876.970
879.714
866.279
871.159
867.797
875.370
876.300
870.715
875.900
878.860
874.541
873.863
877.166
882.725
871.557
878.509
883.079
884.787
885.073
875.255
887.018
880.240
873.589
887.568
874.648
887.547
885.989
890.466
879.724
879.693
891.470
877.403
886.256
888.375
884.227
882.457
881.481
881.619
885.112
882.290
881.247
895.989
884.579
884.165
883.731
888.217
884.980
898.087
893.327
899.963
887.816
893.099
891.753
899.688
888.606
891.793
889.270
895.239
890.970
904.947
894.639
893.999
900.655
893.679
894.159
898.848
895.331
893.395
906.118
908.569
899.657
902.696
900.621
903.996
910.349
908.214
911.141
900.922
909.556
909.054
903.930
909.632
900.240
900.422
910.018
912.961
912.356
907.579
909.368
903.309
903.410
910.488
912.590
917.360
912.361
919.876
907.827
917.826
907.821
921.614
919.239
917.489
915.150
910.295
915.232
923.806
917.040
918.847
923.072
911.037
914.746
925.204
915.196
925.215
928.245
916.609
917.960
923.509
925.393
918.421
918.978
917.932
925.710
928.343
921.602
920.430
927.608
933.658
937.526
929.660
937.534
925.239
936.060
937.318
937.254
934.731
937.026
936.811
943.323
930.787
944.661
934.518
944.386
942.161
943.773
933.879
948.216
947.263
948.239
951.839
942.256
949.110
947.391
942.228
940.719
950.957
949.539
945.635
955.271
948.635
944.619
952.202
950.863
959.997
954.046
962.597
960.114
962.083
958.645
952.195
961.478
960.472
961.317
956.019
957.249
961.787
960.991
970.089
968.285
964.115
963.719
963.359
962.098
961.632
974.846
971.380
964.181
965.005
966.737
966.458
978.541
979.873
975.636
974.268
979.917
978.561
975.955
979.274
980.464
981.385
980.156
988.802
986.188
988.065
989.849
979.362
990.714
980.099
989.135
991.092
994.630
981.837
986.927
982.118
988.624
993.585
994.062
990.413
986.035
1001.248
1000.077
996.321
996.171
993.208
1003.897
994.591
1005.012
995.493
1005.272
1006.935
1000.494
999.293
1009.544
1009.726
999.344
999.547
1011.309
1012.568
1005.441
1014.484
1006.339
1004.703
1002.634
1011.905
1010.815
1007.393
1006.861
1017.487
1014.472
1015.123
1014.054
1013.136
1010.843
1013.950
1011.448
1021.490
1017.514
1015.325
1021.824
1024.730
1027.818
1015.737
1019.733
1021.325
1021.100
1018.552
1026.956
1032.713
1027.559
1029.704
1032.774
1024.635
1026.445
1031.660
1038.790
1031.979
1033.984
1039.209
1034.509
1042.996
1044.665
1035.538
1044.261
1033.081
1046.801
1033.433
1040.468
1044.219
1039.798
1038.316
1046.081
1040.576
1041.459
1050.547
1053.528
1048.710
1044.497
1047.771
1048.272
1056.318
1054.107
1056.085
1057.940
1060.203
1051.926
1054.469
1058.779
1055.060
1053.026
1063.352
1053.899
1060.410
1059.022
1064.814
1054.350
1066.047
1055.320
1058.003
1067.237
1065.003
1063.318
1058.244
1061.439
1050.561
1050.980
1060.052
1052.990
1055.181
1047.162
1053.284
1040.097
1050.242
1042.959
1038.389
1046.290
1039.321
1042.239
1039.256
1033.189
1024.994
1025.127
1034.134
1033.278
1033.796
1022.050
1026.083
1025.800
1021.229
1025.615
1019.015
1010.047
1018.670
1019.842
1017.382
1015.067
1006.138
999.566
1005.995
998.760
996.555
996.015
1000.688
994.950
999.327
990.994
994.439
991.947
984.090
987.896
991.434
992.043
990.865
980.055
986.652
976.859
980.943
979.205
975.056
969.442
968.112
974.510
971.051
965.809
961.924
957.089
957.665
966.417
955.294
956.363
962.977
951.062
949.596
947.562
958.562
942.977
953.951
947.249
952.146
947.153
935.126
938.241
933.571
933.592
933.335
931.184
939.941
935.808
922.347
929.300
931.677
919.346
926.971
924.510
919.408
912.008
923.545
922.489
916.360
911.311
912.578
905.847
913.808
907.547
911.097
911.070
896.825
903.223
898.870
893.127
895.230
891.916
898.485
897.732
891.111
895.669
886.551
888.813
889.458
878.985
878.322
876.417
871.356
877.591
874.207
881.074
868.680
