128.576
109.406
125.913
139.766
133.041
140.420
96.880
120.602
145.829
95.213
114.449
117.291
101.813
140.154
99.750
127.867
125.183
106.048
126.997
101.870
101.138
144.111
107.631
124.834
131.413
98.162
103.365
133.769
128.622
115.841
102.666
114.444
131.193
131.187
137.653
97.782
122.082
129.856
107.678
108.653
118.426
122.639
109.605
117.924
95.086
141.316
146.128
134.015
146.718
96.890
146.762
100.291
142.172
108.725
99.533
100.947
123.108
122.819
139.697
132.029
103.344
145.782
99.289
102.039
115.387
146.431
140.611
117.035
106.472
134.820
118.360
102.429
111.003
134.373
135.793
135.416
117.617
140.255
140.191
119.013
97.356
137.770
118.725
126.823
140.350
97.256
144.578
110.072
141.571
106.299
105.868
99.196
146.075
127.804
125.466
122.496
136.592
123.967
136.786
108.723
130.827
102.571
106.267
122.157
118.068
104.387
126.096
95.766
123.427
100.860
132.238
139.975
104.623
144.253
130.358
97.669
114.800
97.982
99.033
140.812
121.381
114.572
124.551
128.658
124.097
143.609
125.975
119.454
97.127
119.414
135.995
122.676
121.563
130.106
142.103
108.565
108.595
108.008
138.154
120.608
97.455
130.971
146.480
108.696
129.899
100.016
140.356
122.264
142.618
136.922
133.025
140.143
135.206
143.931
119.009
104.618
118.293
134.139
141.025
120.443
140.086
123.768
133.209
141.971
99.568
97.712
122.886
143.667
107.728
137.373
100.520
112.680
119.107
127.670
145.698
136.014
106.224
135.315
104.476
138.729
111.499
109.174
134.180
101.400
105.068
129.489
95.688
124.306
129.545
104.154
100.400
138.792
110.817
122.843
140.731
135.362
139.720
97.294
135.577
110.048
142.170
101.770
141.619
98.689
102.499
125.636
97.202
135.752
136.897
112.745
131.568
100.243
118.999
133.206
99.546
133.256
107.759
112.581
124.498
141.608
100.248
100.690
146.321
102.900
114.224
103.317
108.667
106.445
133.738
120.367
139.954
136.485
96.735
107.491
126.975
107.144
143.088
95.703
115.654
99.677
116.641
109.754
99.772
140.495
143.974
116.016
138.328
137.872
123.191
142.391
100.153
122.735
138.440
113.379
143.085
135.113
137.079
113.373
97.346
136.317
109.817
103.795
121.740
95.016
128.166
119.660
122.302
120.379
114.964
114.253
128.766
106.175
124.471
119.070
111.228
127.223
108.993
144.470
112.276
144.569
144.345
125.130
128.925
119.693
110.836
137.450
144.201
120.794
116.748
108.352
100.355
103.297
105.475
145.365
119.447
94.888
137.430
128.672
119.329
135.945
138.917
113.354
123.678
105.866
135.650
104.154
116.562
103.673
128.133
101.013
117.933
142.753
118.010
145.875
110.512
107.721
127.254
107.947
121.832
131.897
146.443
102.501
107.263
120.899
97.174
99.418
144.337
105.716
117.530
95.466
95.724
145.902
119.694
116.118
131.731
141.747
112.845
136.372
99.461
139.473
99.965
133.656
103.808
133.926
122.149
105.603
137.559
122.903
116.855
99.986
111.066
127.881
123.996
134.234
131.954
125.053
103.359
116.896
141.544
140.371
144.699
104.266
140.028
116.295
136.208
94.944
98.893
95.562
99.188
141.255
115.560
127.544
127.400
137.550
126.115
109.725
139.922
96.991
125.702
114.452
117.985
113.330
101.165
114.854
124.670
146.428
141.978
126.982
138.261
96.002
122.745
98.003
135.940
97.583
139.424
111.081
115.907
115.307
141.038
97.357
99.191
133.277
110.902
104.015
136.508
137.816
103.594
106.407
112.151
102.520
110.504
102.376
111.425
145.637
120.752
144.769
134.249
128.031
101.821
142.878
125.559
131.239
106.196
132.103
99.019
101.852
137.528
96.102
123.219
128.496
100.288
101.970
104.865
144.402
95.407
123.082
142.171
114.605
109.826
109.933
137.164
119.563
106.190
134.310
132.124
116.893
107.077
144.542
128.421
144.602
137.451
143.179
135.768
113.111
124.330
118.028
127.360
105.146
128.928
98.465
128.284
144.998
111.929
126.449
141.239
117.946
98.687
105.373
126.311
109.438
112.784
109.403
113.176
128.861
129.768
95.508
113.013
112.631
127.873
108.693
108.498
97.832
109.066
102.382
128.039
122.669
109.214
101.172
128.652
120.623
119.248
142.142
104.482
129.160
98.815
144.872
112.003
96.846
99.538
108.385
106.329
144.269
122.549
135.268
131.214
123.237
133.454
144.943
125.023
122.212
119.979
141.500
115.581
144.300
103.268
97.776
127.741
141.657
109.291
107.693
104.889
107.944
126.465
144.931
132.910
96.619
115.773
127.191
102.455
132.524
96.795
136.227
100.485
109.144
119.889
141.900
100.536
137.638
126.695
140.541
138.485
126.546
106.124
118.070
121.886
120.902
98.079
121.570
98.374
138.389
95.104
95.475
135.604
99.237
97.747
128.454
118.265
108.388
104.735
130.340
123.177
115.643
144.206
106.944
120.020
131.035
136.442
121.463
95.686
117.530
100.554
108.379
107.248
118.066
136.576
119.547
112.698
143.937
115.550
138.154
110.617
117.916
132.015
118.470
103.049
126.810
107.309
133.303
97.898
141.785
143.987
118.776
98.745
144.463
135.236
116.262
123.766
95.197
121.768
107.036
109.193
121.781
127.270
135.776
102.790
103.373
96.798
114.951
104.950
133.734
133.637
136.403
130.054
143.182
110.001
104.073
99.634
129.228
134.574
137.372
131.790
134.555
104.380
131.570
118.904
107.589
133.478
121.806
138.753
105.052
123.354
96.582
132.871
137.754
123.838
121.946
98.026
98.613
105.209
135.166
115.292
95.725
139.361
140.543
104.700
118.213
107.534
105.566
132.448
107.446
107.550
96.002
106.423
108.611
98.315
104.857
146.521
137.878
122.141
109.707
118.563
138.032
116.538
100.241
131.927
109.021
129.931
117.094
138.578
117.194
112.046
125.751
129.846
141.907
125.843
117.965
112.253
123.398
126.881
113.122
114.462
109.541
128.302
111.790
129.673
98.959
112.302
141.450
145.173
138.964
102.331
141.638
141.124
141.588
125.173
117.123
129.648
121.962
96.661
99.880
126.054
107.112
109.659
122.362
137.326
125.372
113.855
101.527
97.128
136.545
115.098
110.317
135.814
101.374
144.377
115.284
106.096
115.158
145.266
122.566
103.840
134.137
118.877
101.425
129.821
112.687
121.922
133.643
123.626
122.316
144.676
98.437
118.728
132.710
146.234
105.473
120.681
131.935
131.206
99.663
118.196
127.303
116.933
109.810
144.487
95.629
102.687
125.110
127.137
111.956
115.642
111.237
143.690
98.330
102.986
102.603
120.452
131.762
107.489
108.550
98.277
142.258
112.551
96.829
114.549
143.206
98.849
97.787
95.251
111.517
125.210
100.075
111.945
111.854
107.306
130.066
94.823
117.644
137.786
134.967
123.294
95.456
120.235
124.608
126.889
122.003
143.586
145.597
107.281
119.747
146.134
118.725
128.222
95.727
128.240
146.549
111.903
95.291
97.793
140.165
95.510
101.824
105.115
132.254
103.214
105.264
145.472
116.397
99.518
119.958
130.083
141.063
145.359
126.399
110.551
130.589
113.971
141.736
142.724
129.108
97.458
133.699
109.011
131.479
122.042
123.677
114.293
97.441
102.706
145.448
145.786
120.446
144.190
106.665
127.255
145.163
102.660
140.840
143.069
100.204
111.328
103.266
140.327
109.787
101.253
98.889
112.095
138.503
143.432
145.682
146.574
108.055
121.194
100.861
120.139
138.364
104.679
98.079
97.250
134.140
119.359
107.834
146.381
107.811
138.099
109.747
119.236
129.053
113.067
102.562
133.787
122.714
145.937
114.015
137.763
144.443
121.140
116.978
131.865
128.967
120.932
96.960
117.576
113.723
106.876
125.809
105.558
138.518
140.655
140.541
108.948
117.042
103.750
125.256
102.993
99.692
146.256
107.153
143.565
132.756
121.029
132.956
99.143
127.140
103.764
134.240
98.703
137.592
122.436
107.485
104.316
136.213
106.150
97.220
128.248
131.029
107.502
127.837
135.986
100.770
123.578
120.064
139.109
95.947
96.834
145.816
141.238
140.248
102.569
98.488
104.926
107.241
138.966
142.461
113.386
99.256
114.376
98.829
95.229
126.562
107.479
126.594
127.552
111.747
120.132
100.389
102.745
97.745
108.050
113.822
101.849
135.201
136.029
136.406
94.864
126.372
97.301
119.693
109.159
143.867
116.212
116.096
125.179
142.142
114.964
103.888
127.811
107.140
105.528
118.896
104.796
117.794
95.016
111.093
129.165
114.656
119.040
102.511
123.445
95.693
102.887
128.436
106.932
122.196
99.266
126.827
130.881
130.280
114.568
111.862
126.570
134.021
100.433
98.586
123.036
107.409
142.307
119.613
140.688
144.062
106.432
120.409
126.776
144.407
102.948
110.607
139.564
133.494
100.088
141.254
116.041
97.632
127.078
135.366
143.060
102.500
108.819
133.233
141.472
95.221
124.808
135.231
146.396
102.680
136.048
137.117
122.787
138.687
145.043
119.066
101.907
134.818
136.234
105.309
143.617
130.599
131.801
102.811
124.061
109.858
112.105
99.229
122.119
103.766
116.783
125.409
111.616
100.631
97.526
121.830
131.600
142.806
107.154
113.484
109.224
142.704
111.878
108.607
116.940
99.679
108.763
123.011
136.128
141.866
136.768
116.569
94.939
138.729
97.034
110.237
101.156
146.762
139.366
131.820
114.070
96.220
111.597
112.930
143.773
101.039
104.228
128.599
121.144
108.272
129.759
99.965
97.394
125.017
109.466
143.136
132.234
120.204
121.468
103.369
141.132
133.387
140.860
115.042
100.558
142.283
136.554
126.870
118.386
133.552
106.369
110.539
128.972
146.416
116.634
146.770
111.951
141.950
108.568
101.476
103.272
138.932
124.022
122.917
109.118
140.829
141.432
106.196
104.622
140.929
109.183
142.156
100.671
101.564
109.742
130.422
107.417
110.565
96.234
137.330
114.272
127.828
107.371
109.632
121.782
118.565
136.852
112.485
115.379
130.409
103.494
96.906
142.906
136.569
117.875
103.954
108.360
121.917
121.719
104.440
109.938
131.463
140.031
122.083
123.862
124.456
116.312
127.098
107.286
114.184
143.897
116.862
134.565
112.015
138.026
96.280
95.681
131.917
123.139
141.116
107.963
113.706
98.905
100.256
131.244
101.521
139.832
94.934
131.967
145.981
140.251
124.132
109.976
142.850
107.524
136.670
114.858
98.838
118.435
119.672
119.436
136.560
107.117
100.383
144.440
139.366
135.823
127.876
97.911
98.570
140.216
118.390
126.901
98.759
109.725
137.821
136.930
116.225
109.402
115.844
108.757
104.016
127.020
145.580
95.711
128.791
126.759
112.982
132.892
95.064
102.657
131.689
95.331
107.008
132.580
124.710
95.638
135.379
123.439
145.793
143.278
106.996
96.074
117.825
124.145
99.486
146.236
106.439
119.362
144.810
98.834
125.256
129.926
103.106
103.578
141.646
117.746
114.634
142.650
115.157
138.099
98.076
138.905
142.754
110.837
127.462
105.414
123.148
111.945
138.358
132.425
97.795
98.533
133.767
95.541
141.360
100.737
128.793
97.662
125.010
104.032
131.381
144.480
144.245
115.428
106.535
138.876
143.487
96.594
113.127
146.594
109.319
118.297
113.788
103.514
102.098
99.447
138.675
129.386
138.056
97.667
98.428
113.018
115.141
138.435
123.016
138.171
130.495
133.957
121.284
102.152
143.132
123.172
101.734
121.407
97.673
131.768
125.403
109.496
111.151
140.290
101.792
139.586
104.491
134.853
123.417
137.071
140.365
123.962
117.656
113.745
115.161
143.762
146.404
137.805
117.757
126.376
132.673
107.416
139.551
113.441
136.849
97.411
101.383
102.036
103.889
129.053
121.929
142.660
141.054
126.145
109.034
100.922
100.854
144.088
114.838
123.662
98.594
120.373
136.813
113.644
117.201
114.782
137.768
105.492
116.421
136.209
109.687
100.411
108.618
145.051
117.440
140.106
95.382
127.512
133.613
140.677
137.280
102.925
104.969
98.726
123.913
135.330
138.414
125.156
132.038
117.124
110.555
114.528
137.986
105.974
110.586
138.196
136.305
107.057
127.456
112.715
113.081
117.020
139.353
125.580
108.980
111.380
95.516
135.548
117.242
141.660
97.592
115.879
118.173
142.124
102.371
130.397
111.019
132.952
137.836
107.947
137.640
138.024
132.032
102.308
111.632
134.700
133.424
146.451
105.949
103.550
98.856
125.554
111.804
124.428
113.864
145.724
122.982
130.734
106.084
99.745
107.351
141.336
111.223
122.675
122.561
130.144
141.362
138.260
109.684
142.342
128.881
138.015
109.631
107.105
113.678
115.109
122.670
121.421
143.411
112.856
134.507
97.921
134.959
136.237
115.943
99.513
145.900
107.678
102.438
117.919
121.183
105.513
99.890
105.050
135.744
115.104
143.835
106.340
127.460
117.639
136.337
97.754
119.042
145.436
107.384
137.481
119.416
122.492
120.167
127.226
101.029
120.362
136.251
113.987
139.664
104.914
106.420
126.125
143.947
136.882
121.980
126.454
139.148
136.734
104.272
126.946
119.873
131.317
116.441
118.667
117.874
96.978
140.563
125.619
145.949
128.303
123.198
118.489
100.106
131.795
118.087
112.585
106.963
98.740
112.949
106.037
142.280
105.117
144.519
122.790
125.661
144.935
129.342
116.186
106.136
139.974
95.395
110.573
108.642
109.378
126.546
128.761
108.324
141.674
123.572
126.741
144.228
128.891
130.301
142.102
98.063
100.741
138.982
99.176
130.419
104.125
115.592
101.988
95.098
146.134
108.867
124.682
99.630
96.059
141.510
122.264
107.685
126.786
110.836
114.374
144.705
112.028
133.362
122.194
139.695
107.598
98.031
136.059
103.426
104.294
145.214
99.025
105.537
143.393
101.555
139.704
126.278
114.721
104.738
113.765
139.641
141.802
129.436
139.840
100.551
111.371
110.779
129.267
143.810
146.014
118.372
107.067
119.557
129.889
121.748
108.159
102.869
133.395
125.739
129.629
107.120
115.393
114.071
97.123
103.574
144.914
138.001
127.191
130.849
118.423
105.171
107.633
112.841
98.785
101.736
105.772
142.848
114.714
107.855
132.198
144.305
97.000
123.677
136.414
122.991
136.449
143.005
131.756
139.529
114.186
98.211
125.586
145.388
99.787
129.168
136.173
100.147
120.350
121.985
111.330
141.414
120.682
117.394
136.846
127.710
113.004
144.647
122.707
121.053
109.838
102.427
102.272
138.929
127.568
103.249
111.204
135.631
137.290
108.407
140.904
116.658
122.270
107.395
135.736
119.857
141.779
131.963
111.057
110.097
112.903
113.984
103.572
124.985
146.060
134.180
106.568
124.197
128.282
105.326
132.513
105.438
127.274
116.992
146.710
144.678
107.700
132.711
114.869
107.719
146.380
138.050
103.265
114.795
146.035
117.911
124.417
103.533
131.629
119.798
102.020
113.652
127.686
105.373
97.975
137.259
102.071
111.333
119.492
119.900
102.140
94.782
96.378
140.968
103.481
139.401
135.465
98.852
111.204
112.256
101.320
116.629
117.384
142.943
131.546
141.957
135.060
94.991
127.229
116.970
130.532
106.902
117.397
122.187
126.318
144.114
137.963
130.889
135.330
113.385
124.262
141.937
132.430
130.207
101.581
97.638
143.567
115.525
95.530
102.586
133.116
129.989
125.291
134.152
118.452
116.029
117.555
144.026
115.697
106.128
95.883
123.170
144.387
121.572
144.434
105.518
124.913
122.243
124.958
102.084
115.976
140.091
118.039
128.864
100.300
122.219
136.785
133.480
138.591
103.550
123.581
95.167
125.076
96.327
110.913
132.203
127.837
116.583
126.091
111.086
126.017
117.582
114.070
136.767
140.878
135.886
117.952
106.094
111.332
142.923
110.399
118.605
109.008
117.779
137.733
116.572
108.819
96.114
100.876
126.938
99.999
126.831
144.944
109.490
101.942
136.953
44.344
31.519
37.953
38.364
44.051
29.514
43.918
38.599
35.609
44.197
37.387
31.320
30.273
35.922
38.214
32.297
35.390
34.825
36.800
29.343
40.683
42.447
31.170
39.667
38.841
33.168
33.023
30.359
44.761
40.967
42.120
33.750
39.562
29.648
44.348
38.870
33.613
34.003
38.481
44.099
32.044
40.456
42.264
32.635
37.563
37.271
1202.457
1207.666
1230.307
1233.597
1240.969
1223.941
1222.994
1233.986
1256.928
1256.780
1243.188
1249.313
1266.851
1273.531
1270.924
1280.426
1273.309
1285.513
1295.037
1293.069
1302.057
1312.192
1306.423
1293.115
1305.290
1301.307
1311.564
1333.380
1324.107
1334.952
1342.191
1352.401
1356.619
1363.238
1342.254
1372.053
1348.493
1373.270
1375.308
1370.332
1379.599
1385.913
1373.548
1402.778
1381.834
1403.469
1403.887
1410.204
1415.636
1421.463
1423.521
1411.037
1423.305
1432.080
1438.046
1433.367
1435.449
1445.834
1446.330
1458.287
1468.583
1467.522
1475.385
1475.859
1489.523
1476.145
1491.562
1481.376
1485.130
1503.972
1516.374
1511.519
1502.718
1530.107
1516.856
1538.539
1539.546
1527.377
1535.846
1529.574
1541.737
1542.556
1543.174
1548.469
1573.297
1557.096
1574.670
1579.810
1588.053
1574.267
1599.660
1585.311
1599.169
1592.879
1591.947
1611.254
1610.659
1613.814
1613.080
1627.137
906.415
906.542
912.763
916.379
912.773
914.393
913.655
924.337
920.977
921.112
925.509
934.503
934.267
930.524
931.715
942.903
943.205
948.331
953.885
947.314
957.652
949.461
959.940
963.427
962.577
960.851
969.894
965.495
978.471
975.750
983.353
982.813
985.373
977.457
990.047
994.796
987.334
1000.182
