39.666
36.206
30.862
30.715
33.076
33.531
38.973
1260.173
1273.760
1273.103
1250.538
1264.103
1258.933
1263.096
1274.825
1259.109
1268.957
1258.943
1251.875
1251.424
1270.136
1260.585
1249.296
1268.419
1261.469
1247.751
1270.131
1257.052
1269.337
1259.646
1255.873
1245.813
1268.123
1255.899
1262.796
1262.536
1254.871
1250.465
1258.291
1270.483
1266.332
1264.737
1270.743
1260.371
1244.003
1259.216
1251.859
1267.016
1266.890
1242.721
1247.415
1261.015
1253.603
1262.008
1265.935
1268.710
1249.923
1255.426
1245.428
1247.936
1254.594
1252.180
1250.756
1246.519
1246.650
1242.464
1259.962
1257.816
1251.290
1242.373
1264.160
1238.445
1257.523
1245.247
1247.607
1237.156
1252.541
1260.110
1259.942
1248.299
1258.265
1247.465
1264.108
1247.960
1252.217
1239.880
1247.325
1240.119
1241.559
1253.710
1258.224
1248.374
1240.717
1248.667
1252.085
1241.038
1249.876
1260.120
1250.301
1253.801
1242.647
1240.393
1246.393
1250.854
1247.405
1245.233
1259.569
692.685
687.527
688.827
690.210
693.833
685.236
690.851
690.079
693.353
686.271
688.083
683.977
692.371
698.100
689.189
687.621
689.997
689.197
698.068
683.999
698.048
697.520
689.000
682.929
693.672
690.663
683.223
695.985
683.097
683.073
694.752
689.249
689.792
681.466
683.815
689.721
683.926
686.858
681.413
684.820
695.456
684.818
688.652
689.411
693.683
687.329
681.827
689.934
694.055
679.667
693.804
685.033
680.358
692.285
694.154
692.115
680.408
692.867
688.790
682.107
684.810
679.674
687.496
681.494
679.177
688.877
686.904
691.223
687.133
687.454
685.194
680.517
687.871
684.558
691.305
679.316
683.826
686.125
677.577
682.249
682.501
686.251
683.321
680.160
684.152
685.364
681.619
682.026
676.668
684.098
686.496
690.677
688.761
676.424
690.685
690.607
683.949
676.535
676.379
682.109
674.521
676.300
691.195
679.978
680.168
694.735
695.524
689.658
689.058
684.983
687.272
694.676
695.434
686.540
689.850
697.310
691.523
702.779
693.674
699.144
693.268
693.370
701.361
694.812
699.529
711.739
707.965
700.774
712.268
708.054
704.165
715.027
705.232
703.864
712.036
721.328
707.192
716.621
712.556
710.160
725.030
721.711
721.310
727.241
713.532
718.936
718.724
723.976
718.193
726.750
721.927
721.956
731.257
727.593
737.276
735.458
727.915
737.700
727.212
728.700
740.607
730.211
735.602
745.612
745.898
742.761
738.842
743.368
742.564
748.316
744.890
746.208
752.239
746.236
744.201
756.546
742.360
743.429
750.987
754.905
755.273
761.534
753.680
757.932
760.142
756.940
755.629
756.234
757.360
757.877
765.405
763.788
767.570
771.131
770.874
767.140
763.081
762.589
772.757
773.923
777.288
776.744
778.313
773.059
770.379
780.372
778.639
779.254
772.261
781.488
772.744
783.427
776.258
776.522
791.032
777.668
787.571
787.624
787.366
793.592
789.015
797.669
788.141
785.189
792.772
792.210
798.020
798.705
788.181
795.907
791.399
806.324
797.507
796.289
795.948
808.585
797.228
800.102
808.222
801.386
807.787
812.488
815.979
806.788
809.988
808.790
807.269
820.246
819.886
814.135
810.290
817.853
814.902
821.137
813.333
820.562
820.910
815.051
817.945
822.313
830.828
823.314
827.023
821.250
824.821
828.107
836.688
835.203
835.883
832.393
834.367
836.620
829.066
836.474
845.021
831.546
840.542
833.229
840.998
834.884
847.587
839.110
844.875
839.755
844.302
840.992
841.703
853.281
849.704
848.312
854.466
850.724
851.970
852.750
847.700
847.772
863.781
863.711
855.241
862.470
852.899
865.475
857.088
852.492
860.920
865.261
855.583
858.011
851.161
858.627
853.388
857.049
859.220
848.228
857.928
859.787
857.035
848.518
859.378
855.934
857.810
845.650
859.073
858.025
856.198
850.224
851.729
855.590
848.851
846.290
852.962
844.171
845.889
845.084
848.081
843.723
853.663
843.628
854.569
848.020
841.292
841.751
841.435
851.766
842.955
846.093
847.380
845.208
850.349
846.511
851.751
838.236
846.050
844.092
849.221
847.334
835.936
836.639
843.787
836.382
840.796
834.707
835.123
839.950
846.112
838.965
836.782
842.861
837.657
839.531
834.437
842.434
845.627
840.805
841.413
843.620
835.369
835.048
841.051
830.274
834.298
827.080
836.220
837.645
839.799
825.859
833.747
826.151
827.270
830.429
835.407
828.616
829.997
829.232
834.736
835.314
835.707
829.812
829.191
835.174
828.373
822.747
830.342
821.632
823.728
827.246
827.300
824.389
823.704
831.620
826.802
827.635
828.832
819.767
829.129
822.655
822.841
821.951
822.056
815.571
829.114
821.631
824.852
814.103
821.984
813.323
814.928
815.179
824.399
816.605
821.190
811.682
824.793
812.252
810.573
825.685
821.177
823.202
810.258
820.057
819.903
810.146
823.060
814.193
815.747
817.159
810.757
809.495
816.814
812.874
813.785
816.215
806.407
806.874
804.558
813.654
803.563
816.878
806.370
815.211
810.462
803.831
810.793
808.659
807.219
805.137
802.126
803.647
799.863
810.229
799.717
812.061
808.840
814.074
809.786
807.331
800.804
805.663
809.980
797.881
808.154
803.239
802.099
805.326
809.241
804.530
809.390
807.380
797.037
797.897
796.246
796.806
796.722
805.986
803.969
806.936
793.220
805.479
805.566
793.947
798.804
799.628
793.277
793.821
793.593
791.852
791.380
790.075
796.188
796.780
795.443
798.579
784.529
797.562
785.014
786.054
794.348
791.316
794.281
793.403
788.300
778.473
780.636
788.286
783.563
778.354
789.922
776.710
784.705
782.009
777.750
788.550
778.733
778.171
777.576
777.941
785.398
783.845
776.561
777.539
782.972
768.375
772.882
769.896
773.006
772.426
777.446
769.589
767.074
767.183
776.771
776.286
765.537
768.882
774.635
772.655
765.483
768.897
766.041
758.655
772.117
771.402
760.481
758.777
769.230
763.503
757.931
760.518
764.711
766.893
751.538
757.717
752.304
762.397
760.171
750.085
752.003
761.298
760.091
758.712
747.697
756.620
749.309
748.351
747.214
748.070
758.361
753.613
752.272
753.960
744.479
751.052
747.485
745.131
745.644
751.143
743.578
737.395
748.123
739.436
743.043
738.931
740.801
742.534
741.905
747.476
741.690
746.957
737.192
737.178
743.365
733.822
737.580
736.748
731.986
736.287
729.218
736.449
740.538
739.574
726.965
733.609
736.023
723.422
733.071
721.606
735.320
731.654
732.105
731.893
727.720
730.576
726.421
731.842
724.284
725.327
716.978
716.057
721.773
720.750
713.145
727.315
716.148
721.746
714.502
713.803
712.697
722.462
716.928
715.815
721.692
709.332
715.856
720.758
709.833
712.337
712.613
710.884
716.444
716.432
706.706
707.828
702.453
714.374
709.266
700.693
701.404
700.205
709.663
710.846
704.079
697.826
700.980
696.452
706.658
697.890
698.774
694.772
707.326
701.284
696.571
699.849
691.651
694.458
697.501
695.856
689.661
689.556
696.271
698.463
686.801
689.403
696.108
692.418
687.552
693.587
693.429
683.617
692.366
684.859
696.088
689.182
685.402
690.657
698.027
692.815
688.651
690.017
695.769
694.327
694.977
697.184
702.628
694.949
702.384
703.773
699.522
701.767
695.763
712.300
701.412
708.357
704.827
714.053
703.372
703.760
711.100
714.858
704.962
706.036
716.416
715.674
707.811
718.039
721.880
716.281
712.309
716.151
719.634
727.631
719.354
725.170
717.493
728.806
718.250
729.987
724.370
723.117
729.925
728.387
725.349
730.765
737.106
733.820
730.842
737.995
733.464
743.502
729.968
731.392
744.158
741.838
732.959
742.437
750.105
743.935
748.706
749.263
741.620
749.552
749.717
755.101
746.375
748.001
758.919
744.045
756.671
760.933
753.815
752.221
749.356
753.969
751.167
764.960
765.207
768.441
764.806
767.057
766.683
757.830
771.398
761.807
767.803
761.546
766.036
771.308
764.189
776.830
770.558
775.530
778.814
781.072
782.039
780.134
769.914
781.523
774.618
777.014
777.967
775.976
788.508
779.980
777.602
787.824
790.804
784.109
793.958
793.973
795.242
796.962
788.423
789.084
793.589
795.917
793.568
801.349
795.482
800.906
798.827
800.723
799.283
803.208
793.951
797.585
800.734
807.674
797.705
804.712
799.523
800.267
810.199
815.433
812.220
807.128
813.681
804.020
806.312
816.249
811.056
809.705
816.496
821.160
814.141
821.552
813.704
823.132
823.438
817.535
830.299
821.118
818.273
821.296
822.434
822.306
829.324
828.146
834.092
835.290
832.653
829.389
825.112
833.881
826.640
829.384
837.758
838.737
831.631
844.977
847.195
839.515
842.037
835.519
848.590
844.093
842.212
839.582
854.052
844.642
855.909
842.630
849.475
849.452
858.898
853.903
849.857
854.921
858.408
859.955
848.786
852.203
865.944
850.173
853.539
848.428
849.140
855.791
842.864
849.337
853.422
839.749
837.922
849.758
835.972
833.543
842.391
839.781
830.994
832.877
826.514
827.510
833.822
831.877
827.769
822.606
826.722
825.300
816.960
818.417
813.092
822.660
809.453
811.799
815.657
817.147
815.800
810.179
806.844
798.788
796.141
808.506
795.246
804.403
803.251
792.298
787.882
789.978
798.339
793.262
790.749
780.866
791.080
789.902
779.597
787.778
775.431
784.706
779.440
778.323
777.390
774.331
776.082
765.712
773.483
766.236
768.572
757.044
758.951
759.502
755.595
755.117
761.716
757.049
755.364
752.724
746.111
744.955
743.045
740.586
748.335
746.351
740.441
736.843
738.761
742.063
742.210
734.526
735.509
738.037
728.541
729.184
725.868
730.987
728.801
725.015
727.229
726.259
727.985
726.525
723.317
709.868
719.294
712.135
715.772
706.735
706.278
711.526
700.728
701.451
709.028
700.122
701.874
704.175
697.712
699.817
687.183
690.596
684.232
684.198
681.576
691.255
684.777
682.060
677.189
680.151
687.344
681.522
671.669
670.309
673.662
676.467
667.109
664.030
670.959
664.588
669.392
664.121
670.621
654.768
662.155
657.997
655.907
661.334
646.466
651.068
649.168
648.196
656.028
640.534
649.060
648.978
648.715
644.406
640.318
634.900
640.975
641.754
638.069
625.806
638.469
622.886
633.701
626.240
619.030
625.069
627.349
626.982
618.411
612.392
610.089
618.891
616.175
614.934
612.491
612.763
606.246
602.761
608.612
600.864
607.823
602.539
593.126
600.447
596.805
595.373
586.973
594.463
592.862
589.284
590.274
582.208
584.368
582.177
587.097
585.308
576.904
574.683
580.726
569.905
572.176
567.743
573.684
571.307
575.157
578.011
568.533
564.170
568.277
574.726
577.851
567.104
573.209
575.715
578.573
568.681
574.834
578.447
566.861
571.997
576.617
577.651
567.612
571.499
566.160
574.271
568.649
568.302
575.442
573.722
570.704
568.758
568.615
575.064
578.632
570.375
580.467
574.530
575.096
573.598
578.320
581.959
569.014
579.157
579.276
582.960
568.640
583.312
581.453
575.338
575.967
584.407
582.899
584.539
584.580
576.116
582.199
571.980
577.936
575.903
581.139
581.147
582.893
584.915
575.445
576.139
577.685
572.326
578.146
579.662
579.786
582.370
583.841
580.171
579.073
583.185
583.439
572.637
585.650
588.540
578.036
586.154
577.922
588.713
580.352
576.457
580.599
584.641
576.476
589.843
589.385
579.320
575.603
587.036
580.147
585.983
578.117
589.336
581.261
586.020
590.185
589.084
583.437
580.287
591.796
578.356
580.521
576.680
585.189
592.300
584.699
591.065
591.678
585.216
586.799
581.048
584.659
590.511
592.346
583.207
583.485
583.224
581.925
580.539
587.670
586.402
579.753
582.161
584.824
593.219
583.986
591.820
591.828
581.576
589.399
589.432
593.728
592.349
591.802
586.285
594.656
591.371
586.084
583.722
581.738
586.363
587.696
594.510
596.316
591.850
594.026
594.785
583.130
584.601
595.576
589.119
594.892
593.401
584.753
592.826
588.331
588.497
592.038
584.219
588.037
592.237
586.683
595.590
588.043
594.024
595.339
592.807
588.416
598.232
591.181
585.134
591.771
591.568
585.308
592.344
596.621
593.716
595.435
597.945
594.776
589.163
590.030
595.983
591.405
599.875
592.052
599.760
589.894
598.821
598.534
590.989
598.387
598.689
601.174
592.999
599.234
594.080
604.240
594.505
590.073
590.983
594.161
586.782
579.684
581.272
584.300
570.288
577.094
567.094
571.230
567.094
561.068
566.617
558.759
557.519
561.547
562.139
561.940
552.566
548.563
542.188
548.051
549.752
546.563
534.086
530.254
534.846
530.479
529.102
532.867
527.572
531.359
516.160
519.296
525.563
522.954
516.496
519.543
503.262
511.380
506.860
505.497
497.679
503.511
490.379
494.194
495.159
491.742
486.981
485.834
478.461
484.615
476.285
472.115
484.093
480.144
474.346
468.446
473.983
467.416
468.484
466.026
457.053
464.462
452.092
459.308
448.383
450.653
447.545
443.638
441.554
439.115
445.587
441.372
441.662
432.363
434.822
420.740
423.926
416.321
415.493
415.774
416.932
415.845
414.745
410.463
416.230
407.852
410.621
403.196
403.933
395.210
403.550
396.885
396.420
383.890
382.171
385.478
377.279
388.124
387.383
380.979
370.984
368.125
372.465
367.484
364.210
369.801
361.456
367.379
361.979
357.407
354.763
356.832
357.838
345.400
339.523
348.500
335.879
346.163
333.658
339.045
333.712
327.041
324.993
319.678
332.794
320.375
328.664
312.049
312.391
317.519
318.183
311.925
303.416
308.837
304.623
294.327
292.201
302.056
301.378
286.847
293.609
289.916
290.095
289.325
288.609
274.909
275.535
284.262
271.711
277.075
272.185
273.716
260.445
266.838
267.610
259.914
258.985
253.127
257.150
253.673
245.087
248.926
238.435
249.689
233.534
245.862
230.631
237.418
229.384
238.076
231.598
225.444
229.315
227.301
224.859
210.758
217.831
215.061
209.094
208.716
211.752
209.073
209.630
198.659
195.081
190.678
201.308
192.442
184.759
186.191
190.001
179.802
189.318
183.550
181.097
168.570
179.149
167.517
181.554
177.735
171.487
177.727
164.928
164.549
178.121
166.848
167.917
169.927
166.889
169.208
162.604
167.268
174.677
159.011
167.835
165.821
160.919
156.514
163.753
158.239
156.844
160.298
160.231
165.754
153.700
162.619
159.968
151.568
153.997
165.642
154.256
159.928
150.309
158.816
153.179
161.515
157.445
159.837
157.517
147.851
148.206
156.240
155.819
145.138
148.290
142.960
146.555
146.106
146.546
146.663
142.629
143.723
142.284
143.910
149.554
150.706
151.663
150.331
145.371
135.325
137.926
136.502
143.721
145.722
136.329
146.006
143.275
145.168
143.242
140.974
132.762
140.278
142.382
141.807
134.210
130.803
127.715
136.250
124.354
135.528
135.216
128.610
131.695
131.071
123.192
131.124
134.622
131.905
128.160
121.279
118.716
415.948
379.596
422.026
408.590
419.127
382.794
414.852
420.685
370.049
379.979
377.876
388.547
385.769
410.493
382.239
394.487
358.819
394.407
399.739
399.733
391.888
352.726
391.862
367.031
344.466
360.518
351.165
361.181
359.139
354.467
355.009
352.264
330.885
361.287
362.918
346.115
319.480
328.251
327.533
359.939
315.729
319.787
311.535
331.619
357.707
321.788
350.256
327.640
343.860
347.317
315.517
297.025
293.000
299.057
300.324
321.268
336.343
286.792
330.569
324.212
326.598
310.163
321.908
295.146
283.725
303.529
274.772
302.572
303.216
282.284
271.639
302.925
285.697
307.562
290.742
276.640
286.730
273.610
291.340
256.493
294.029
258.632
282.098
245.023
272.320
274.485
270.798
246.722
251.567
232.023
274.945
229.651
239.231
252.028
220.309
267.294
244.288
220.053
263.867
255.181
239.564
259.504
211.671
235.127
237.283
228.824
229.864
231.066
217.818
234.032
209.390
233.576
203.259
208.771
216.881
241.512
238.822
233.066
225.498
242.262
205.278
212.491
210.225
232.693
234.750
215.750
207.847
242.944
248.148
239.535
205.339
253.089
250.432
238.768
242.210
229.714
230.787
220.746
219.726
216.840
204.411
225.569
227.476
254.163
247.843
228.917
237.550
217.752
210.177
215.544
248.715
244.199
205.692
205.946
239.677
237.618
225.279
237.363
240.159
243.305
234.307
253.133
209.782
202.854
213.680
235.962
226.425
237.131
247.659
212.327
224.921
208.599
226.438
252.304
216.529
203.745
215.501
221.407
251.114
218.570
239.342
225.480
243.633
206.674
249.599
254.481
224.634
244.775
234.190
240.801
219.886
238.256
238.195
205.578
245.714
203.615
211.043
212.212
229.987
246.119
239.259
203.528
208.117
203.042
254.403
230.152
243.765
247.832
206.811
232.845
213.441
215.229
246.064
221.473
242.211
238.744
238.469
246.024
208.582
209.182
221.140
211.786
214.942
231.488
232.028
233.358
219.596
203.807
209.931
230.794
219.923
239.004
206.604
250.124
223.114
226.023
211.919
211.200
206.811
234.937
238.557
218.949
250.839
234.016
232.734
230.820
214.401
220.794
229.831
232.150
206.831
248.500
244.706
213.587
206.254
216.106
248.403
251.843
244.178
229.214
238.216
209.212
211.939
241.126
224.593
251.817
210.219
209.511
218.861
241.368
216.675
215.361
243.449
253.699
234.585
252.612
243.778
243.651
254.606
253.547
238.879
208.464
211.709
205.906
235.611
236.607
209.836
220.079
229.211
231.163
247.546
235.977
204.374
239.321
249.917
211.622
209.037
