110.603
93.166
109.058
93.084
99.537
100.567
105.252
93.857
126.061
103.975
94.906
129.719
95.102
111.068
117.858
85.632
95.151
108.001
95.121
88.997
99.071
105.172
105.451
109.777
98.669
101.405
118.508
85.544
129.773
107.809
97.529
109.391
106.530
113.895
107.638
120.304
125.904
97.311
123.659
105.624
86.200
109.210
101.480
121.372
119.967
96.523
96.923
104.357
128.727
87.090
99.550
111.156
88.795
111.357
111.017
103.564
104.644
103.523
105.778
93.571
128.735
117.073
95.973
88.557
123.051
98.812
102.372
92.670
118.880
127.862
118.007
127.889
129.320
128.598
90.170
129.048
91.326
106.009
113.316
92.904
91.397
118.436
90.112
102.510
102.589
85.225
125.299
96.814
127.705
110.329
116.448
103.397
85.304
129.253
89.475
103.205
119.241
96.888
121.033
127.435
91.893
119.996
87.492
110.772
101.986
126.673
110.571
91.548
121.940
126.834
103.595
113.226
111.498
129.264
110.329
125.504
84.516
101.935
114.556
109.978
89.655
93.022
100.184
115.671
88.380
1063.305
1067.540
1058.574
1053.354
1077.377
1060.445
1068.964
1076.770
1062.755
1089.647
1087.882
1066.929
1066.564
1079.394
1079.974
1076.100
1087.458
1091.936
1101.307
1082.484
1087.889
1095.754
1090.166
1102.325
1096.095
1094.951
1108.775
1102.064
1096.793
1106.276
1111.236
1116.605
1125.107
1131.853
1128.092
1119.038
1116.978
1124.877
1124.810
1116.228
1141.612
1145.612
1143.684
1135.146
1151.543
1147.401
1144.828
1130.888
1142.874
1141.084
1136.979
1154.269
1160.071
1156.556
1154.426
1143.285
1170.483
1166.972
1158.968
1163.699
1176.896
1175.441
1171.033
1175.519
1176.992
1162.059
1172.382
1181.986
1170.289
1169.532
1175.207
1199.117
1177.489
1194.410
1198.145
1205.066
1182.296
1204.870
1198.218
1185.936
1196.978
1194.459
1207.438
1218.545
1195.977
1213.455
1199.308
1227.647
1215.822
1221.472
1214.824
1223.138
1217.771
1230.860
1235.366
1232.185
1238.279
1235.762
1235.269
1246.696
686.157
683.428
689.019
689.739
696.981
697.774
691.381
693.362
691.450
697.979
691.443
700.616
704.500
693.709
699.624
709.692
698.863
708.838
707.472
702.981
700.493
706.217
709.535
716.222
718.370
715.723
715.933
716.201
710.665
710.206
718.553
721.139
722.340
716.429
726.403
729.008
718.323
731.718
723.929
720.421
728.386
735.572
721.727
724.518
731.907
736.128
735.092
740.333
742.022
732.452
740.239
737.141
730.893
734.464
735.854
747.009
740.177
746.940
751.531
745.272
741.556
745.022
742.552
751.643
755.216
754.323
748.044
758.093
758.048
754.299
750.084
763.631
755.193
759.743
761.471
764.313
760.374
758.165
770.231
763.384
764.014
772.775
774.252
767.890
768.923
774.557
768.545
780.654
774.216
772.695
776.290
783.155
781.924
778.165
782.823
788.335
776.079
783.356
783.375
777.611
783.677
787.385
778.586
791.423
778.686
783.912
791.876
777.373
790.073
779.575
787.884
784.663
790.116
784.244
786.056
787.237
784.240
784.771
777.732
784.503
790.380
781.475
782.707
788.574
782.189
785.244
781.876
786.946
789.006
782.636
778.585
781.723
784.772
788.365
781.378
784.201
786.846
781.801
777.295
782.261
782.247
772.696
781.937
776.825
786.563
781.444
785.825
773.810
771.067
783.972
783.484
771.401
776.766
783.345
783.607
784.107
775.588
776.334
771.932
778.142
778.434
768.867
778.270
772.896
776.826
782.954
779.750
777.595
773.299
778.821
780.047
781.880
781.333
779.259
777.100
773.177
779.346
765.656
779.803
778.788
776.328
769.743
777.749
769.603
777.436
773.292
763.641
773.389
775.922
765.198
771.829
773.785
774.407
777.354
769.982
773.605
768.478
776.769
762.347
771.907
766.603
770.077
773.807
769.562
767.825
776.370
762.381
766.952
760.436
768.283
766.771
767.549
760.795
773.217
760.942
765.793
765.449
758.639
760.505
771.168
766.615
766.898
769.222
767.261
771.734
757.505
770.404
758.007
769.501
771.692
761.806
762.081
767.646
763.805
762.125
767.015
759.436
756.457
767.601
770.669
765.483
768.279
760.482
756.201
755.993
754.324
765.475
760.385
765.466
763.187
762.294
764.356
759.910
756.743
754.615
759.148
765.656
756.404
766.299
764.127
762.853
757.401
762.991
761.570
752.284
753.809
754.122
757.507
759.021
750.359
754.305
749.563
761.353
762.362
758.771
763.167
755.319
756.440
763.308
755.233
754.232
760.591
749.941
757.617
755.422
750.428
760.144
762.567
753.826
760.311
761.947
759.175
750.887
755.202
751.484
749.563
748.546
746.854
745.820
759.154
749.868
756.829
763.487
760.909
761.647
758.209
759.442
767.395
771.564
775.544
768.079
778.284
769.648
771.202
781.564
779.044
773.523
791.136
789.217
783.888
787.319
790.444
800.154
789.993
795.220
801.113
803.154
796.389
805.788
806.944
801.594
815.855
805.897
817.823
817.168
816.926
822.482
826.147
822.499
820.019
823.640
820.541
832.518
831.138
830.584
833.637
834.266
842.698
842.767
833.125
847.435
842.019
848.573
847.779
845.948
848.953
846.738
850.417
862.735
855.179
858.804
854.759
870.764
865.354
862.391
871.615
876.581
868.022
875.181
883.831
877.366
875.579
885.112
883.575
892.209
887.077
883.848
898.275
893.790
889.917
895.783
904.240
893.735
895.326
900.668
906.844
910.699
909.450
915.916
917.843
909.814
918.308
914.023
927.386
921.222
921.912
921.428
925.170
922.089
932.597
934.908
932.249
935.441
938.503
941.373
941.461
947.312
946.382
940.723
948.247
954.092
945.932
957.422
949.698
961.032
952.711
957.056
958.324
960.083
968.453
960.746
972.847
970.027
967.549
976.538
970.046
986.487
973.602
984.845
988.599
988.742
991.568
996.652
995.642
986.528
991.405
996.217
996.630
999.833
1006.059
1002.923
1002.114
1007.739
1005.377
1004.926
1020.127
1018.452
1012.076
1011.802
1015.951
1017.968
1031.077
1028.157
1028.349
1026.490
1025.724
1032.524
1029.898
1038.616
1044.982
1048.222
1041.802
1047.222
1052.860
1047.482
1041.965
1051.321
1057.999
1052.787
1057.353
1059.944
1063.129
1070.020
1061.337
1061.209
1072.808
1063.842
1064.283
1067.424
1076.464
1083.826
1084.110
1080.053
1082.570
1084.988
1085.625
1087.729
1092.840
1083.683
1092.120
1095.365
1090.720
1104.439
1101.851
1106.234
1107.142
1099.640
1114.025
1114.459
1116.527
1107.385
1105.485
1103.214
1109.747
1105.571
1103.878
1093.878
1102.712
1099.315
1102.446
1100.567
1085.843
1094.045
1086.974
1078.796
1083.371
1080.144
1078.814
1081.999
1070.123
1074.766
1078.998
1074.648
1070.740
1060.826
1071.365
1070.325
1065.242
1067.462
1058.375
1061.136
1050.129
1058.444
1057.318
1048.739
1054.836
1041.795
1040.302
1045.295
1034.657
1041.437
1037.116
1039.779
1027.650
1026.876
1021.134
1019.401
1031.369
1023.074
1021.171
1012.190
1014.141
1013.383
1009.712
1011.002
1015.311
1007.471
1014.535
1009.445
995.013
1000.577
994.149
999.628
992.026
993.276
989.446
985.549
988.354
990.199
979.010
983.641
982.112
977.472
979.187
969.811
970.237
975.615
973.319
964.013
973.539
968.647
959.206
955.283
951.744
949.634
952.276
947.934
946.548
944.835
943.073
938.207
949.807
949.356
944.744
944.218
931.498
928.476
939.019
927.927
930.041
929.140
920.901
916.865
921.930
914.454
922.119
912.727
916.629
912.391
903.100
914.112
907.959
904.501
908.072
897.309
900.018
902.418
897.358
886.512
889.391
888.128
887.121
892.884
882.550
877.742
877.920
883.688
875.021
877.446
874.942
876.206
865.251
859.377
868.212
870.541
864.165
852.550
853.953
863.177
852.198
854.119
847.847
854.177
839.907
845.006
850.469
843.434
831.754
843.906
829.851
832.656
825.712
835.217
830.418
828.959
829.705
816.304
825.544
815.221
817.465
816.892
816.655
816.218
807.130
809.514
798.620
801.577
803.966
802.332
795.525
792.559
801.760
791.730
787.452
785.875
793.401
791.723
778.534
789.242
772.647
780.403
768.534
778.188
770.683
766.743
776.562
773.057
767.803
769.334
755.004
757.444
755.641
762.385
747.576
754.981
742.782
754.996
750.379
737.976
737.089
741.298
736.786
747.241
741.556
739.854
753.598
741.600
749.821
741.618
756.784
746.130
747.667
755.240
754.831
761.788
748.943
747.979
762.782
759.551
765.940
754.271
756.311
767.353
766.108
763.400
757.887
765.997
761.971
759.450
768.389
761.745
770.903
768.232
774.897
770.538
769.927
772.670
778.426
781.574
773.169
781.995
784.323
783.785
784.320
787.299
778.593
781.211
781.308
783.364
788.469
781.074
787.809
786.147
787.939
796.571
791.353
793.596
795.581
801.081
803.269
792.375
803.217
791.562
797.918
796.762
805.509
794.469
801.263
798.861
808.386
812.235
812.761
807.171
813.669
816.073
809.325
811.705
819.778
813.168
816.500
810.577
808.287
819.596
811.465
826.957
817.768
816.660
818.635
824.148
817.024
831.610
833.227
831.101
827.362
821.789
826.314
823.610
825.723
831.326
839.560
832.582
831.147
841.968
842.636
834.489
843.369
843.085
837.253
836.999
841.475
846.121
847.872
844.492
852.166
839.318
854.899
851.621
847.496
849.676
847.946
852.948
849.471
850.926
862.513
849.599
857.913
865.637
853.122
860.737
854.752
858.596
867.506
859.222
868.851
870.270
858.337
870.302
875.636
861.534
870.437
868.217
875.266
874.345
867.152
873.287
871.118
879.554
874.293
882.154
875.131
875.415
886.567
881.115
884.269
880.923
890.339
883.526
880.444
894.091
884.624
895.571
884.155
890.154
899.930
888.735
892.715
898.602
894.201
897.847
896.539
903.188
897.349
895.007
902.304
910.165
899.719
905.715
903.804
912.406
901.446
907.048
904.223
908.204
913.578
911.434
906.217
908.754
914.345
921.300
909.517
909.820
922.827
918.544
923.851
928.542
929.656
917.061
923.603
927.884
919.191
925.270
930.296
920.952
928.079
933.421
926.409
932.275
933.636
923.837
924.755
919.477
929.400
933.127
929.979
926.891
928.418
926.193
926.369
921.585
927.983
921.283
932.580
919.778
929.042
927.704
920.760
920.667
928.213
920.916
930.655
925.916
928.644
920.778
923.019
922.913
920.735
921.806
920.874
922.536
931.567
929.679
921.916
919.275
926.843
920.831
924.586
930.636
930.616
927.157
922.305
928.259
921.817
925.477
927.532
929.960
922.029
920.931
920.759
932.230
929.147
921.459
931.117
932.012
917.121
917.071
931.764
928.581
920.314
925.279
931.785
916.809
919.942
924.429
930.056
927.879
929.268
927.587
922.536
922.715
923.477
924.036
919.019
919.876
925.648
922.552
917.533
919.544
918.734
926.275
926.409
920.033
917.520
916.031
927.419
918.756
916.797
922.735
917.337
925.511
927.180
916.028
917.011
916.071
928.875
920.039
929.078
918.154
921.855
917.837
925.256
920.185
917.411
918.023
923.418
916.408
920.737
920.182
918.503
919.239
929.292
920.720
916.193
923.863
918.471
929.800
922.258
916.367
916.136
927.568
920.068
921.563
914.577
924.085
923.237
921.411
922.887
923.181
921.372
927.246
929.207
914.129
924.912
917.063
914.794
919.904
927.387
917.847
921.943
927.325
928.313
918.844
926.220
927.720
913.297
924.504
915.438
920.355
920.006
922.174
917.998
920.624
922.873
916.247
919.985
921.403
925.699
915.106
921.561
913.241
927.456
918.061
918.632
915.340
914.212
916.706
918.777
924.417
919.084
915.557
917.952
920.449
914.589
924.644
913.897
920.123
924.308
917.356
922.340
926.998
926.093
914.724
920.027
917.638
911.633
916.340
920.252
913.258
924.194
925.550
915.871
919.414
920.498
919.520
908.398
916.032
910.944
905.122
913.139
906.866
905.536
902.433
909.079
903.351
899.953
894.534
892.502
895.862
887.148
891.603
894.072
891.643
888.002
889.025
887.140
889.587
885.393
885.609
885.150
877.122
870.236
873.485
876.343
876.290
878.953
865.196
863.353
860.828
867.469
864.978
855.418
856.560
866.157
864.163
853.592
862.895
856.236
860.649
852.848
856.988
843.232
854.045
842.391
846.744
848.962
839.287
843.925
842.723
843.996
842.956
832.062
838.583
828.891
835.086
829.653
831.716
826.247
822.681
817.295
822.203
822.659
823.845
815.371
813.277
816.552
804.587
815.818
812.389
805.339
800.666
803.739
811.616
800.939
793.855
801.358
797.485
802.410
793.260
789.754
794.764
791.680
787.988
786.215
788.198
791.644
782.758
779.900
775.198
786.085
779.851
781.070
782.974
772.244
771.909
763.150
763.776
767.663
760.008
757.542
765.546
759.698
759.625
753.238
765.081
752.911
760.114
746.953
747.065
754.973
749.126
742.484
747.430
745.245
749.512
737.923
735.911
736.591
742.543
728.399
727.358
730.984
737.715
735.915
728.410
729.417
731.171
724.279
716.141
728.124
724.403
720.518
715.114
722.855
717.284
710.487
711.167
712.225
703.129
700.112
704.020
706.708
706.807
708.679
707.306
706.132
702.488
697.720
700.463
691.244
692.304
697.339
685.352
682.002
692.408
677.622
684.455
681.285
677.619
679.979
672.635
671.172
679.368
676.243
678.459
662.680
670.548
665.501
668.661
661.483
660.326
669.162
665.195
652.378
654.604
659.354
658.396
656.743
645.836
646.254
648.591
640.853
639.825
643.580
635.148
646.714
647.562
641.077
640.443
637.115
637.268
627.519
624.109
630.882
635.512
626.684
631.943
629.131
640.808
643.465
630.893
630.681
645.206
633.094
638.186
645.754
640.630
636.971
648.817
647.792
639.517
644.598
651.976
652.509
640.389
650.345
640.376
652.715
651.395
648.278
658.831
652.069
649.178
651.113
650.867
656.844
660.255
656.410
660.607
660.805
654.998
665.747
663.940
653.106
655.111
661.684
661.488
659.483
657.900
668.033
667.702
671.160
660.039
672.559
668.447
669.021
670.833
665.828
665.843
674.538
665.348
665.670
677.288
681.932
675.329
671.233
677.041
673.565
675.665
680.245
680.450
684.898
684.009
684.206
686.994
682.277
684.250
690.976
680.197
686.417
686.478
684.438
683.178
693.544
682.571
686.939
687.782
699.072
691.603
692.958
686.009
697.496
688.002
698.717
689.464
696.892
702.022
698.634
693.533
699.535
694.371
705.939
698.680
705.273
696.813
701.577
705.093
704.961
711.128
701.565
702.183
715.247
702.110
707.594
702.925
715.424
719.584
704.875
705.800
712.942
716.056
714.336
712.928
714.433
717.099
720.860
721.946
721.320
724.191
716.664
714.335
723.529
728.706
722.854
723.956
719.454
726.235
725.673
729.307
726.848
727.465
731.647
731.560
726.132
728.352
739.262
725.762
730.035
726.709
739.135
730.132
740.257
737.485
733.914
731.257
736.453
746.667
739.558
740.711
738.289
740.103
736.789
744.434
738.928
741.685
748.995
742.491
746.972
742.086
753.279
754.163
756.255
756.265
750.445
753.114
755.589
750.186
751.804
747.669
755.623
764.292
763.485
758.687
758.271
752.498
763.326
762.269
757.119
764.744
769.151
756.034
763.622
769.157
761.537
765.916
770.646
764.179
767.674
773.870
763.693
769.006
767.950
773.969
777.808
774.916
767.150
762.976
766.155
768.688
761.233
753.816
755.402
752.835
758.801
759.988
750.474
756.152
754.538
747.034
745.763
751.034
746.824
742.973
737.406
743.380
739.337
742.838
729.419
731.142
727.653
731.954
735.341
729.060
729.964
731.378
721.038
727.891
723.085
722.287
721.515
716.014
710.934
718.727
713.035
707.652
703.990
706.279
712.173
714.238
703.024
703.628
704.994
699.866
702.867
699.259
691.709
697.159
696.248
693.383
686.323
689.472
689.341
685.160
680.826
689.501
681.069
687.917
688.569
687.173
673.084
684.095
675.987
675.217
669.511
667.194
668.590
674.364
669.315
667.868
658.823
666.899
656.711
663.654
653.052
656.086
649.693
656.443
655.617
647.994
643.523
641.698
653.750
640.920
639.529
650.415
635.599
635.763
635.031
629.824
642.740
626.303
627.778
628.765
626.260
622.491
634.144
633.472
619.118
615.122
627.055
628.157
619.309
619.160
622.537
619.990
606.033
615.663
609.763
610.885
599.822
603.572
607.761
608.569
594.710
595.138
602.165
599.473
589.796
602.833
589.515
591.168
598.217
589.697
584.285
593.494
580.324
590.666
582.115
585.038
578.647
583.293
575.107
570.272
572.312
570.847
577.186
573.576
572.157
572.266
566.813
559.599
563.952
563.663
558.700
561.817
562.195
562.653
554.072
552.543
557.936
545.230
547.532
553.409
552.435
548.285
536.960
535.761
545.307
532.626
543.641
532.296
531.727
530.707
539.221
533.428
529.246
526.043
520.052
528.991
516.294
523.243
516.353
525.322
512.113
513.245
517.212
519.557
512.245
504.802
510.371
504.564
509.493
512.218
508.496
501.039
500.573
503.834
502.027
503.365
487.408
490.940
486.643
484.092
483.560
494.064
477.853
488.557
479.025
482.837
472.793
475.709
470.913
467.364
463.451
464.987
469.021
458.954
468.901
457.322
450.171
454.432
456.254
449.365
453.294
450.785
452.954
449.023
437.741
444.301
442.325
435.238
439.638
433.072
425.261
425.447
422.274
432.908
425.051
414.407
425.972
424.506
422.061
414.301
411.977
411.072
411.803
398.852
398.541
400.522
397.655
397.633
399.628
397.491
399.047
394.012
394.436
386.466
383.528
388.346
373.413
375.450
370.904
367.668
374.895
373.168
366.595
362.334
366.389
370.440
366.520
358.656
354.477
348.713
354.936
354.281
349.939
347.120
