127.512
137.858
96.263
139.591
105.816
139.046
146.046
98.926
97.702
141.645
114.278
116.744
138.201
106.577
96.084
133.952
123.802
99.776
128.441
103.214
146.714
95.175
138.838
103.275
132.273
143.206
100.350
114.719
143.515
100.724
125.236
135.762
102.248
130.070
123.683
123.637
142.184
97.412
105.764
123.868
139.700
113.229
101.855
141.518
100.001
138.086
106.051
95.921
123.799
130.294
106.511
142.270
119.760
106.001
137.360
131.124
128.397
118.320
126.436
143.063
121.508
101.988
115.161
139.169
138.600
144.542
123.132
143.467
105.577
135.515
101.908
128.774
143.875
116.154
117.783
119.118
134.302
131.096
142.863
141.502
105.079
129.146
101.439
135.314
121.939
137.332
109.228
100.905
116.241
102.133
116.978
129.332
135.567
128.181
123.005
129.960
100.004
97.734
141.386
131.853
97.171
132.950
116.526
105.428
137.838
127.060
112.602
110.893
128.209
130.848
122.218
95.601
128.317
105.207
131.885
122.110
135.391
126.485
97.114
95.836
142.135
106.909
98.722
128.168
114.849
142.835
110.754
125.949
142.923
114.870
120.406
129.628
116.201
99.204
134.434
128.194
104.680
145.660
138.898
131.392
128.424
101.071
118.467
146.040
117.751
130.973
129.754
124.296
137.743
111.999
109.951
139.368
128.662
134.075
145.332
129.864
95.805
130.582
146.650
100.296
96.454
97.170
106.589
131.646
115.184
126.495
120.586
99.714
137.003
146.101
119.506
127.235
124.934
106.883
131.929
107.147
116.291
131.644
139.198
108.017
95.614
109.633
133.305
106.523
119.081
95.153
128.713
144.209
143.558
98.486
124.022
144.174
134.515
135.060
126.822
97.106
121.080
138.164
129.222
107.123
146.683
118.120
110.180
107.271
121.168
138.136
101.367
116.939
104.062
104.206
123.620
124.268
121.875
115.434
98.579
134.403
120.956
121.609
105.663
122.457
108.378
141.692
98.660
134.135
123.714
120.486
100.402
126.081
108.143
103.418
132.970
146.182
124.442
139.842
113.208
108.523
141.461
108.219
134.546
130.679
103.732
137.152
118.524
132.400
133.013
133.599
122.672
144.985
117.780
124.680
105.686
133.721
124.712
116.660
112.362
137.860
106.279
134.679
135.156
102.596
95.001
115.064
128.086
98.921
98.689
126.469
135.274
98.517
111.721
127.516
108.671
120.276
97.528
142.641
105.137
128.267
95.295
128.623
132.883
99.079
120.334
106.057
135.442
144.675
110.348
128.375
136.780
117.907
97.944
112.017
126.612
139.106
119.266
105.764
121.007
110.793
106.908
105.568
109.634
139.758
127.043
109.987
99.645
133.079
98.207
119.054
136.551
106.785
132.951
135.516
106.580
119.978
101.632
119.617
129.202
128.609
117.914
108.197
100.007
96.280
142.902
100.025
139.636
103.366
120.215
117.150
121.257
106.012
134.621
96.985
115.209
95.042
132.176
122.846
105.292
127.182
135.408
131.955
104.573
121.999
95.713
95.779
100.529
116.333
134.575
125.787
123.131
97.049
136.757
96.808
140.264
103.843
144.072
128.732
132.703
112.957
120.800
120.895
123.392
144.939
126.741
145.022
116.722
110.207
98.164
133.237
106.068
116.784
121.370
105.944
123.522
107.990
111.929
101.956
118.690
121.173
137.477
144.379
95.775
139.089
145.038
140.434
138.196
145.207
101.923
98.961
122.928
133.519
121.337
142.627
127.610
139.900
143.243
97.516
95.464
97.616
106.609
144.757
144.612
122.565
99.366
142.136
141.725
127.974
124.792
141.261
114.253
101.356
103.347
104.755
137.844
115.609
103.499
125.115
128.682
96.686
142.547
118.380
105.574
132.447
110.158
140.278
143.753
136.679
121.018
95.810
119.924
98.391
123.780
128.939
144.597
128.984
101.635
135.240
136.193
124.175
95.311
95.575
111.352
123.245
102.089
94.858
105.009
96.493
145.990
135.451
117.492
105.660
131.711
142.087
146.033
140.185
130.100
131.314
136.392
105.194
112.597
141.242
132.521
121.379
96.279
128.633
113.358
131.949
131.353
140.033
142.271
143.963
140.822
119.379
143.630
111.118
130.088
104.329
145.343
137.352
117.406
129.187
137.911
141.694
110.511
132.505
117.653
117.798
96.743
126.326
137.718
126.616
122.791
106.931
95.056
108.126
117.239
121.902
102.059
113.248
131.937
106.340
137.213
111.402
135.373
118.429
136.281
128.131
106.194
123.212
109.684
126.951
111.771
100.203
121.600
144.399
139.604
137.168
97.863
103.383
113.374
144.144
146.667
122.270
106.040
103.488
124.233
131.268
110.287
131.194
99.657
120.795
97.063
110.922
146.729
118.023
97.134
135.550
109.015
125.530
102.142
144.129
137.475
111.473
111.241
126.835
114.764
116.657
118.949
117.373
114.310
107.203
98.785
136.017
132.068
96.565
143.490
113.110
107.791
106.616
102.619
128.337
117.447
103.392
127.095
131.517
109.154
125.871
115.499
96.741
139.221
94.932
133.713
96.596
124.779
119.216
107.081
99.776
135.371
131.127
107.561
128.677
132.811
106.766
137.037
108.042
114.739
125.456
135.190
112.171
97.321
96.582
124.081
95.100
140.268
138.965
95.833
143.955
106.621
128.182
130.251
98.609
137.197
137.883
146.562
133.386
111.624
101.343
130.261
121.384
136.132
133.286
135.678
108.058
114.799
98.955
106.422
113.194
96.091
123.117
121.577
122.392
99.048
97.474
140.192
123.886
97.434
111.030
110.310
128.939
116.625
106.534
112.205
130.145
102.657
101.067
134.422
132.075
123.411
120.638
125.759
98.666
126.317
135.597
108.075
135.127
112.221
129.836
106.657
126.557
126.794
145.419
146.043
137.535
117.921
127.663
132.008
137.376
131.146
42.344
30.872
39.317
33.057
31.887
40.346
40.615
37.202
36.883
38.059
45.129
34.421
44.783
30.711
38.276
32.792
41.634
36.024
30.802
29.318
29.576
31.928
42.288
35.237
36.614
31.973
42.557
43.948
36.301
43.627
36.541
39.282
43.475
32.947
31.945
36.315
36.705
40.711
37.634
30.844
44.953
31.666
33.454
1073.016
1061.861
1063.480
1064.023
1070.873
1077.194
1079.954
1079.859
1061.221
1082.172
1077.857
1078.897
1074.044
1094.419
1096.127
1093.546
1100.095
1089.232
1083.560
1088.664
1098.695
1104.643
1106.330
1098.740
1094.378
1096.892
1093.463
1118.212
1122.080
1117.205
1117.397
1112.238
1127.767
1115.730
1127.107
1119.450
1135.917
1136.575
1113.156
1136.489
1125.583
1134.710
1127.822
1134.651
1138.621
1128.863
1127.856
1149.810
1135.054
1149.792
1147.816
1161.809
1164.440
1162.330
1159.972
1163.548
1159.003
1154.475
1172.670
1171.371
1174.162
1156.163
1175.727
1158.813
1164.762
1177.950
1179.315
1170.208
1191.838
1187.546
1197.435
1184.484
1199.665
1185.126
1182.960
1183.633
1202.245
1182.037
1197.280
1193.887
1191.637
1189.518
1190.958
1206.172
1208.929
1213.510
1212.990
1221.709
1219.140
1214.519
1223.021
1213.371
1235.086
1235.706
1223.615
1225.315
1218.386
1243.321
1237.240
1240.611
682.178
693.403
691.638
684.987
693.600
690.333
689.618
701.417
698.735
694.043
694.746
697.975
691.811
703.480
702.483
695.130
706.823
709.421
709.029
701.038
708.986
703.960
706.286
704.440
713.455
706.480
715.516
708.094
709.790
708.599
720.635
719.213
716.238
713.740
719.780
726.134
723.251
730.320
725.472
718.761
729.938
720.322
724.489
730.969
731.576
733.780
735.832
730.728
732.871
729.135
737.149
739.155
739.315
747.507
741.494
743.336
746.884
740.914
742.272
738.969
748.850
745.866
755.730
746.896
756.779
745.989
750.070
746.099
755.277
754.852
759.142
750.858
755.792
754.407
752.984
765.320
761.303
759.228
760.031
767.242
765.879
760.203
775.229
764.583
764.462
777.958
767.145
777.618
776.563
773.504
783.881
771.364
776.793
783.064
774.101
782.236
785.304
777.438
785.575
781.188
789.297
786.324
778.793
786.851
785.138
782.131
782.406
780.005
778.374
785.861
778.913
789.579
789.804
777.189
784.788
776.388
790.600
789.931
782.616
785.067
785.623
787.639
774.750
783.911
782.772
776.119
785.775
787.840
776.375
785.842
774.504
788.063
773.291
776.941
777.013
785.359
780.248
787.315
786.169
782.817
782.345
780.469
778.451
785.228
771.404
774.962
784.093
770.987
770.121
775.609
782.782
774.667
784.773
783.043
784.512
769.683
771.344
770.444
783.558
773.971
778.489
775.189
779.348
773.710
768.565
772.601
770.865
772.283
773.631
766.889
773.453
773.021
766.172
766.143
772.509
771.468
776.251
768.079
776.786
774.905
766.657
770.314
774.444
767.535
766.865
779.227
767.570
778.197
763.438
769.161
764.831
777.363
770.937
768.980
772.190
762.691
773.341
769.667
774.218
765.564
772.087
764.660
776.557
766.635
768.589
775.751
767.777
774.447
768.793
770.202
760.907
767.313
763.468
774.165
767.082
762.301
774.089
761.197
766.839
767.607
758.230
771.411
768.835
766.353
764.309
757.708
757.971
771.429
759.420
759.879
769.113
768.575
760.294
770.171
757.431
763.807
768.231
757.696
761.153
767.750
768.013
770.027
769.510
767.015
765.709
769.295
765.803
766.180
759.772
761.644
754.775
755.763
764.870
754.622
762.469
757.041
753.964
753.060
759.415
762.754
764.188
756.449
753.865
766.050
757.763
765.447
763.865
754.008
752.561
765.786
753.167
750.649
763.224
763.260
761.410
756.518
749.102
760.163
751.324
761.408
757.714
761.823
761.522
751.391
756.360
748.822
760.406
754.660
749.788
749.222
747.496
754.437
751.460
752.542
756.236
748.071
746.035
751.437
750.462
745.366
748.452
747.945
763.983
754.136
765.708
763.291
760.401
759.370
765.713
768.664
770.156
765.904
777.788
772.703
784.275
783.860
788.543
776.086
789.504
781.148
784.822
792.682
787.031
794.800
793.618
798.292
807.255
799.201
800.636
803.220
811.800
805.875
817.353
809.545
819.269
810.180
824.121
820.180
817.784
823.840
823.937
830.325
824.032
835.718
826.112
835.747
828.908
841.373
843.383
836.227
835.537
843.039
852.087
840.571
846.956
851.870
848.069
851.484
858.466
853.456
864.725
861.826
856.375
868.525
863.491
877.420
869.631
867.908
870.412
873.275
881.074
873.078
878.971
877.137
887.947
890.921
891.081
887.429
891.692
896.926
892.803
904.094
899.809
906.047
908.742
898.269
909.702
903.299
911.837
916.791
914.985
923.881
913.896
916.864
922.258
915.991
930.241
920.005
926.735
924.494
927.268
941.909
928.910
944.482
943.854
943.569
945.610
941.867
950.117
950.738
957.127
953.274
947.078
949.530
960.559
951.645
960.374
970.673
958.517
964.420
961.865
963.476
970.517
976.430
980.512
977.791
985.132
984.158
980.845
983.499
992.053
995.497
991.786
988.653
989.799
999.673
1003.411
1004.163
1004.383
994.815
1008.487
1010.908
1014.520
1007.455
1005.562
1021.069
1019.676
1013.877
1019.599
1014.828
1023.336
1029.367
1021.079
1020.901
1036.749
1035.626
1039.459
1028.952
1042.980
1032.915
1041.896
1034.542
1040.093
1042.101
1043.404
1044.177
1053.118
1057.897
1047.462
1056.125
1064.449
1060.132
1063.221
1060.881
1072.310
1059.874
1065.636
1078.301
1075.923
1073.775
1082.449
1076.595
1087.342
1085.329
1088.518
1089.654
1086.111
1093.768
1089.675
1097.611
1091.874
1103.973
1094.398
1097.207
1094.750
1106.483
1107.673
1108.061
1115.746
1108.916
1114.681
1104.650
1103.011
1108.968
1108.038
1108.073
1094.292
1100.892
1096.888
1101.003
1098.452
1096.974
1094.422
1088.835
1089.860
1090.196
1078.107
1074.663
1082.811
1084.494
1075.750
1068.953
1070.212
1075.006
1068.419
1073.839
1065.335
1061.708
1053.901
1059.435
1050.544
1055.101
1054.004
1046.444
1054.724
1040.187
1045.081
1045.369
1046.017
1043.632
1041.783
1028.889
1031.226
1036.389
1025.706
1026.273
1031.993
1022.945
1024.471
1028.621
1022.156
1014.636
1019.353
1020.342
1014.202
1010.311
1015.942
1003.708
1001.703
1005.396
1003.544
1005.815
998.122
1001.608
999.443
987.802
988.806
993.722
988.434
980.316
977.208
977.736
985.132
970.962
969.178
975.722
965.197
966.841
968.072
972.041
970.886
964.142
955.622
962.081
963.299
956.703
952.392
957.852
949.189
952.630
946.892
946.256
940.681
935.603
942.555
941.808
938.933
936.502
926.111
924.320
929.830
927.084
928.446
915.985
916.427
921.230
916.476
917.777
911.049
909.126
905.757
907.985
902.288
900.527
904.136
905.890
891.877
899.025
886.310
883.798
895.254
881.954
882.870
891.102
878.900
883.589
871.497
883.974
873.496
868.467
863.951
869.774
866.758
868.686
860.453
857.897
852.518
857.704
851.834
854.131
846.155
842.601
851.831
846.224
845.986
841.157
842.673
836.986
830.900
843.461
835.905
826.554
826.787
836.238
833.503
819.559
822.592
820.169
821.109
809.890
820.200
819.856
814.139
807.641
800.452
812.967
812.003
804.770
800.813
790.874
794.587
790.987
799.802
784.875
785.095
787.074
785.579
790.153
777.902
782.529
771.612
776.415
778.086
772.394
764.997
766.350
773.311
757.629
769.831
756.635
757.860
761.724
753.511
756.985
744.480
744.838
743.483
744.850
750.491
745.161
733.464
749.636
739.647
747.305
742.959
738.081
747.978
740.773
751.456
754.624
748.980
748.707
747.260
759.118
748.089
751.191
752.547
763.738
759.215
763.958
754.156
764.450
753.630
755.764
762.837
759.980
768.719
766.766
767.658
769.168
771.117
762.057
772.305
765.842
769.137
774.666
781.827
768.106
772.871
772.145
785.340
774.504
776.108
786.053
775.495
790.470
782.199
782.424
782.176
785.885
784.615
782.651
786.270
786.444
795.207
793.753
796.580
794.493
801.892
796.826
804.630
799.299
799.407
794.572
805.431
804.771
806.283
809.902
809.601
811.582
801.899
799.912
801.893
811.605
812.494
817.386
810.504
808.223
808.672
808.972
820.977
818.279
813.994
815.685
812.677
823.313
818.048
817.284
818.864
825.457
822.818
832.829
821.665
821.707
831.581
821.731
836.821
829.158
824.833
840.277
834.275
834.450
841.982
834.372
835.579
840.367
847.152
838.580
834.467
842.726
842.682
837.542
838.241
843.156
839.380
851.716
852.655
841.750
850.511
852.859
849.591
856.362
861.864
847.657
861.810
850.898
863.521
865.937
867.712
864.401
860.008
861.049
860.118
856.931
863.050
865.709
867.626
873.906
861.548
867.745
863.905
866.996
866.785
873.925
870.580
876.993
870.202
879.350
878.659
883.652
881.337
879.312
880.087
888.955
882.169
884.373
889.834
884.179
882.154
886.066
886.016
885.200
888.257
891.888
900.559
897.068
899.220
892.008
892.527
904.886
898.171
893.521
907.773
903.583
902.199
903.967
898.945
910.953
901.210
914.933
908.398
911.246
904.882
903.096
908.228
919.120
917.033
910.974
912.908
924.301
913.736
915.479
922.219
921.339
921.685
920.149
928.075
922.340
920.929
920.289
918.739
929.708
925.139
933.851
932.101
928.553
922.779
928.544
929.701
919.825
920.263
931.429
923.215
933.747
932.172
924.602
928.870
933.850
927.313
920.432
932.959
924.036
919.123
922.338
926.396
928.350
925.959
932.996
933.367
918.317
928.548
919.356
929.997
929.269
921.778
927.241
922.451
925.532
925.510
933.113
919.434
921.483
919.822
926.433
920.126
928.121
924.532
927.774
923.660
930.284
931.224
932.401
917.120
932.424
931.856
926.750
918.271
925.227
928.199
921.356
929.005
925.872
925.436
925.852
923.387
916.781
922.526
930.781
931.182
917.747
929.184
919.768
918.498
921.971
916.229
924.490
927.489
922.423
918.105
924.388
925.247
919.293
926.154
919.927
922.316
930.318
924.527
921.545
924.284
915.969
926.016
926.558
924.991
929.432
929.012
924.271
918.092
924.844
916.978
925.381
929.070
919.258
923.193
917.996
918.662
920.868
925.076
916.801
925.137
917.694
927.357
921.540
922.463
927.794
916.707
915.763
916.252
927.401
918.223
916.848
921.045
919.525
914.482
924.381
925.669
923.675
918.462
919.176
926.758
929.184
922.204
914.673
915.158
919.226
925.846
928.934
927.261
916.454
924.314
923.458
926.677
924.694
928.473
928.389
922.600
917.813
927.223
919.127
921.089
926.910
926.810
920.557
922.399
918.239
924.950
915.605
922.819
922.026
917.719
922.474
915.470
916.094
914.178
924.363
913.727
913.896
925.015
917.244
916.359
917.135
925.924
915.237
924.717
917.746
922.865
924.629
916.604
922.219
921.194
912.320
921.810
921.940
925.288
926.489
919.768
918.519
918.310
913.565
912.291
927.126
912.795
911.875
913.015
920.679
915.746
923.216
912.663
925.996
916.809
920.545
923.213
909.518
910.644
921.149
911.698
916.161
910.156
911.230
900.562
898.844
898.741
905.705
894.982
892.953
894.449
895.352
901.857
894.771
895.838
890.059
894.370
885.313
884.821
878.873
881.421
889.624
880.138
881.528
879.192
882.868
879.272
868.691
869.796
863.960
876.994
864.258
863.419
860.757
870.902
866.999
868.380
864.522
860.750
857.352
849.088
862.058
855.704
845.666
848.221
845.370
839.072
841.329
838.212
846.866
844.208
834.254
843.668
837.739
841.224
833.215
827.008
826.280
834.311
830.993
829.422
818.737
827.850
821.595
823.976
818.421
813.940
817.770
818.756
820.675
806.267
808.012
804.234
808.691
804.567
799.428
803.910
801.780
801.641
801.379
794.537
791.586
793.069
801.643
794.146
796.785
788.220
791.218
780.002
783.923
784.151
790.356
780.265
785.193
782.627
775.519
770.467
779.226
