140.155
96.862
118.237
110.399
99.717
114.391
99.485
126.408
110.769
132.273
131.266
127.241
118.016
94.905
117.116
123.450
101.922
110.598
145.871
143.236
116.445
140.425
117.144
130.919
120.043
139.619
124.241
109.507
129.423
129.087
120.931
115.669
135.845
126.353
125.219
135.183
119.451
119.185
110.828
105.611
105.905
108.765
102.504
140.980
121.641
114.557
121.738
109.242
98.759
112.154
143.881
143.593
100.596
131.783
109.488
135.464
132.450
100.568
110.952
128.172
139.439
104.516
101.957
122.603
105.039
118.827
106.496
133.525
98.317
130.942
106.190
143.525
104.577
136.848
109.231
141.592
106.163
136.654
137.916
116.985
114.283
124.119
112.846
121.830
135.838
132.578
111.916
124.550
114.789
102.709
131.814
144.396
112.657
137.778
137.605
103.122
117.871
140.742
125.375
95.119
114.652
113.538
139.321
119.941
105.377
124.198
117.359
143.606
143.880
98.088
124.267
122.117
100.884
127.539
122.230
104.665
116.501
114.458
135.104
105.040
111.894
130.453
97.003
117.182
134.619
118.865
119.102
106.278
108.741
130.393
120.210
123.163
141.532
116.483
102.007
99.032
105.474
103.394
132.930
144.206
121.952
114.700
104.191
127.356
136.113
137.523
97.006
110.527
117.958
121.479
144.243
124.320
129.413
116.506
101.669
144.300
146.055
101.759
144.734
144.808
99.336
129.711
100.018
137.913
134.861
108.579
112.877
141.063
99.557
104.178
105.653
121.689
100.780
110.982
119.267
118.761
134.914
135.580
136.545
106.477
105.065
145.383
137.755
137.518
94.839
116.106
120.229
129.970
137.977
139.428
141.756
123.321
131.028
116.571
99.788
143.954
145.040
120.770
122.542
97.908
104.865
136.583
134.703
125.536
105.339
110.842
115.458
101.406
145.699
95.803
96.905
109.104
138.960
144.214
101.975
119.431
108.080
116.364
132.674
103.202
118.008
110.112
144.736
96.472
125.553
140.871
102.595
127.111
135.446
104.977
135.604
106.614
126.689
141.394
140.018
111.988
129.689
118.737
104.134
137.329
109.084
134.311
121.456
105.796
122.115
128.829
133.711
116.720
129.190
117.131
138.459
105.829
99.085
104.146
144.045
100.918
111.887
127.062
144.627
140.723
104.155
126.134
96.589
137.527
116.650
145.409
134.586
103.253
122.011
95.543
131.342
117.152
134.437
127.478
116.971
96.933
99.227
128.834
113.460
125.193
145.645
112.083
114.950
99.028
122.093
122.920
116.993
109.650
131.759
101.060
133.561
112.960
134.781
135.470
135.594
137.316
123.661
98.882
108.038
144.240
107.820
135.145
104.246
142.482
123.262
132.156
98.205
95.622
124.499
106.687
144.088
118.106
103.145
107.948
135.639
99.148
99.230
109.477
101.303
119.784
126.144
138.088
118.617
122.338
129.286
134.119
145.756
120.204
123.953
134.257
116.562
145.065
127.938
137.806
104.652
105.589
144.402
104.552
102.951
119.786
126.692
111.108
143.976
128.782
111.466
98.681
142.886
108.873
131.893
94.989
106.827
127.303
94.791
118.860
126.000
98.745
105.421
127.618
127.483
114.380
145.276
122.830
129.856
145.680
134.751
132.558
36.012
42.633
40.109
34.468
44.955
43.911
35.951
44.382
37.298
45.111
39.247
34.280
30.529
39.962
37.594
43.135
43.009
30.659
33.549
43.134
37.296
32.827
42.790
39.957
33.840
39.561
37.169
36.800
33.799
38.577
41.850
30.693
37.812
44.331
43.552
39.891
44.762
36.641
33.227
38.802
38.600
42.616
29.680
44.792
37.367
1093.744
1089.419
1085.362
1092.387
1086.684
1089.836
1097.159
1114.088
1099.831
1113.483
1103.664
1116.370
1117.512
1117.824
1111.341
1103.394
1123.582
1106.983
1108.671
1116.279
1116.802
1133.673
1120.952
1119.573
1111.786
1135.525
1132.470
1139.574
1132.564
1139.100
1134.094
1149.672
1141.943
1153.255
1138.708
1131.280
1136.437
1132.391
1134.229
1152.673
1151.238
1151.640
1147.737
1150.981
1144.040
1159.309
1147.089
1168.540
1154.092
1169.472
1161.860
1159.288
1170.955
1162.220
1175.042
1161.093
1179.544
1176.123
1167.072
1189.629
1183.840
1167.096
1189.301
1193.023
1182.239
1192.696
1191.170
1200.783
1193.960
1201.473
1206.671
1183.642
1200.809
1191.359
1208.477
1212.123
1191.861
1213.220
1211.343
1211.001
1197.782
1195.456
1224.965
1214.777
1203.228
1201.836
1207.751
1206.245
1223.403
1226.702
1219.074
1226.210
1229.110
1216.940
1224.290
1221.754
1245.159
1235.340
1228.136
1243.296
692.762
687.491
685.922
683.243
687.535
688.011
684.817
696.942
696.397
687.987
693.368
692.061
689.239
701.045
695.834
699.791
693.569
699.069
699.059
699.766
703.019
705.108
712.894
700.601
708.800
701.854
703.781
710.146
704.859
706.819
709.697
714.034
710.733
718.329
714.026
716.913
713.993
710.676
712.128
714.550
717.526
721.977
722.093
723.393
717.406
719.573
723.204
725.563
730.781
719.662
723.099
733.738
729.617
737.343
726.844
727.704
734.378
726.281
735.272
732.397
734.594
737.887
731.104
735.736
743.685
737.415
741.388
739.741
744.981
739.371
740.488
737.308
738.233
743.503
753.514
749.175
755.535
753.334
754.153
744.692
744.487
748.524
754.331
759.487
747.556
751.611
754.471
755.760
762.389
752.387
754.356
763.079
755.635
755.088
760.106
760.723
760.010
758.933
764.704
770.126
763.711
764.324
769.606
765.331
763.162
763.613
772.855
772.960
761.986
770.175
774.714
761.541
770.206
764.356
766.136
761.127
762.123
769.160
767.193
774.975
775.647
762.769
775.359
772.744
775.757
763.070
770.699
764.203
768.302
762.005
769.651
761.425
771.166
768.176
769.685
772.190
765.332
770.645
762.949
773.567
774.540
769.798
761.442
763.085
766.696
775.309
773.092
763.295
761.956
772.372
765.758
775.233
773.219
769.136
770.186
762.760
776.377
766.100
763.658
771.108
770.476
767.654
766.611
768.343
774.334
764.733
765.554
768.080
768.177
767.135
763.873
776.056
768.421
763.691
766.767
768.458
773.395
776.032
762.074
761.629
776.306
774.760
761.376
774.985
775.923
768.358
772.419
774.357
761.519
761.324
768.434
772.158
774.103
769.725
773.307
767.624
769.203
766.328
772.336
773.666
765.557
767.178
763.139
765.433
772.518
766.864
764.845
773.510
770.241
773.524
773.811
775.036
761.668
762.441
766.764
775.619
774.439
770.440
774.959
766.262
768.920
766.003
769.421
768.177
772.846
767.526
771.499
768.307
765.395
771.276
773.755
769.973
761.866
772.076
774.576
763.425
763.517
772.401
766.468
776.473
774.549
776.722
764.975
764.683
768.910
768.379
777.082
764.898
771.428
774.958
772.894
769.237
776.301
772.148
774.947
769.954
766.660
766.774
766.877
768.429
772.856
774.931
763.736
762.686
774.135
777.301
777.302
767.799
770.768
763.771
771.247
775.135
768.790
766.385
774.796
768.072
775.595
768.432
772.600
773.395
775.110
771.616
770.965
765.856
777.155
764.799
766.195
763.303
770.106
775.405
764.482
773.626
769.567
776.734
771.434
765.721
762.524
763.381
772.175
766.027
763.498
776.673
777.646
766.936
778.199
769.932
771.006
766.886
772.346
768.459
775.902
781.329
778.611
773.497
784.654
776.450
785.574
772.925
783.508
779.711
779.528
782.276
790.805
783.180
781.221
792.936
787.975
786.248
791.229
789.423
781.267
790.067
786.796
785.436
787.911
793.231
792.899
799.322
786.565
789.428
791.728
789.967
789.165
803.326
788.321
794.766
792.323
802.819
792.290
792.703
796.191
798.784
793.649
802.936
806.770
806.076
804.884
798.426
803.511
798.281
811.333
804.868
812.605
810.378
805.827
809.452
803.763
802.661
805.582
806.117
808.119
807.428
808.783
810.865
812.691
810.294
809.224
822.616
818.291
814.298
822.140
823.110
810.423
819.569
822.667
812.698
818.289
823.709
825.127
816.289
824.031
824.802
825.971
829.036
827.026
831.283
821.519
830.124
824.976
827.136
828.328
826.411
823.233
830.178
830.319
825.945
839.015
838.581
840.956
839.086
834.852
835.920
840.262
838.002
830.390
829.791
838.518
838.045
831.901
839.007
846.203
840.459
841.986
836.703
843.455
845.430
844.736
841.815
846.030
839.306
852.769
851.082
843.320
840.544
852.076
852.287
850.142
843.256
843.821
851.393
856.211
847.936
858.702
853.722
855.927
851.065
849.859
851.530
864.946
860.900
857.910
862.473
855.545
853.917
865.380
853.213
861.002
861.679
869.497
868.446
863.773
869.888
866.823
870.483
863.951
867.885
862.353
863.200
875.050
870.471
876.238
873.800
870.107
875.602
875.915
877.575
872.414
876.978
874.895
882.319
874.186
869.203
880.092
874.916
885.065
880.899
878.342
873.608
873.029
884.435
881.170
882.363
882.612
883.690
879.994
887.643
886.639
884.060
882.497
885.501
886.882
892.481
894.053
894.714
888.309
882.533
884.017
881.767
887.605
882.013
888.143
882.348
889.162
884.685
883.810
894.735
888.352
892.887
885.928
883.509
893.985
890.853
885.749
889.670
885.131
884.834
891.322
895.509
894.991
893.188
890.532
881.800
884.328
896.024
884.351
894.782
885.679
890.111
888.535
886.469
894.933
892.333
894.481
890.750
886.231
894.421
887.741
891.348
888.626
887.033
881.885
890.940
889.471
888.824
882.124
889.609
885.576
882.243
886.203
888.428
885.256
881.367
894.299
887.357
887.994
891.976
895.706
889.887
888.498
888.760
893.602
881.854
894.825
883.144
883.716
887.898
883.296
881.220
892.806
896.177
884.695
894.320
889.434
883.875
884.379
889.875
883.120
896.828
891.025
890.748
885.340
891.174
882.361
895.617
888.093
888.213
889.941
891.273
893.186
883.328
892.720
885.582
892.423
886.863
885.105
883.881
891.217
893.762
893.296
886.016
897.156
891.358
896.814
896.085
887.740
895.352
895.105
886.323
883.201
883.504
891.877
893.258
891.094
891.628
891.318
886.102
886.999
897.454
898.053
888.741
887.272
890.722
886.128
891.890
885.805
888.741
892.904
888.768
885.186
887.409
896.047
891.897
897.562
891.965
889.103
884.060
895.011
894.124
884.966
895.257
886.043
887.417
897.165
889.988
885.619
891.002
891.516
885.709
895.321
891.757
887.662
889.154
898.018
894.089
893.465
886.549
888.839
886.890
897.048
891.890
887.217
887.890
893.163
893.249
883.674
888.098
884.413
898.832
896.480
890.681
886.275
889.472
883.880
889.732
890.465
886.242
892.438
892.851
889.871
890.751
888.799
888.737
896.983
885.804
893.842
898.974
887.802
893.370
888.749
884.728
892.358
888.631
894.257
887.846
893.599
889.021
884.553
887.504
886.736
883.802
898.429
887.639
886.969
888.531
884.552
889.112
887.528
898.469
896.002
893.216
883.735
897.526
896.765
890.236
889.001
897.844
892.048
891.763
883.833
892.726
891.942
894.970
890.798
890.016
888.049
899.011
885.419
893.349
887.575
891.311
894.898
888.843
893.880
897.034
888.431
887.302
885.807
892.480
895.665
891.883
885.902
887.044
884.519
884.047
883.199
888.293
897.166
888.135
895.365
896.412
884.740
894.735
896.815
887.304
895.627
886.857
894.086
884.141
890.502
898.509
885.443
890.863
892.798
884.011
896.470
896.588
891.550
885.324
892.231
883.547
888.066
887.304
885.708
896.757
892.263
897.278
890.124
884.933
894.450
894.001
897.475
891.602
892.804
886.927
887.664
895.789
898.149
895.564
886.172
882.760
887.767
885.448
895.988
891.236
887.426
889.921
883.578
886.419
894.465
883.117
889.790
892.958
889.865
887.833
898.086
886.831
895.735
887.897
883.768
888.096
889.541
886.592
895.442
884.985
890.104
891.894
897.795
885.943
886.501
884.811
888.780
890.793
897.827
884.628
889.061
890.012
893.975
889.892
892.587
885.956
882.826
894.712
887.005
895.621
883.959
896.055
896.120
885.352
893.160
895.285
894.143
893.250
897.671
885.407
882.407
890.963
897.741
885.273
892.101
885.094
891.447
883.155
893.126
894.155
888.188
888.869
897.273
893.442
884.138
896.241
888.128
888.309
882.001
892.386
894.944
887.016
891.547
891.642
888.635
890.401
885.357
888.085
885.860
896.631
886.266
887.009
886.789
890.759
893.640
890.849
895.819
891.005
883.911
892.958
894.161
882.897
885.566
891.003
891.823
882.495
896.576
896.372
893.146
888.911
888.415
893.146
888.143
896.314
893.043
891.398
893.569
896.914
896.799
895.380
888.000
892.345
894.342
891.519
900.819
888.511
896.521
888.416
902.134
892.508
898.067
894.121
899.221
895.008
899.880
898.589
891.331
894.742
900.648
903.709
906.731
897.115
906.091
903.013
904.795
905.557
902.771
904.295
896.667
900.627
900.617
904.539
898.703
895.492
905.324
901.201
909.931
901.405
906.456
910.076
909.654
909.576
897.654
899.889
906.489
906.454
899.440
912.445
899.556
908.476
908.632
900.782
907.639
915.891
913.743
907.314
901.665
901.329
916.754
907.176
913.080
913.240
907.800
916.294
917.045
916.838
918.879
909.875
915.644
907.029
913.313
908.237
915.341
913.299
914.222
916.141
909.161
913.577
908.184
912.119
908.228
918.053
915.795
918.389
915.895
919.730
924.353
922.861
924.069
912.477
920.047
917.366
915.728
914.518
915.381
920.590
922.101
919.476
915.943
923.619
917.036
918.612
917.172
918.994
918.242
928.793
920.946
929.383
917.164
918.721
919.082
920.556
923.749
926.814
923.393
928.862
929.314
931.674
921.793
932.912
933.141
921.557
925.442
919.446
931.126
922.562
931.384
932.126
926.885
926.704
931.087
924.410
926.000
925.674
937.408
934.639
937.009
937.601
931.353
925.411
923.861
932.592
936.414
936.588
935.053
937.378
926.998
925.666
926.047
940.253
931.005
939.500
930.581
938.388
942.175
941.270
937.236
936.528
932.542
942.905
943.808
930.541
939.446
936.175
938.767
934.433
943.043
944.791
938.121
941.928
944.543
934.912
937.911
940.516
942.130
943.530
946.039
936.003
943.116
939.183
938.471
946.810
943.079
943.837
950.180
937.688
944.638
944.067
938.960
937.980
946.237
944.658
937.583
932.522
933.687
938.569
946.563
944.504
937.724
940.859
938.156
935.071
933.179
934.217
934.786
936.055
929.827
935.125
927.506
939.114
929.486
927.164
931.323
923.835
928.250
926.274
923.182
935.003
927.150
925.755
931.658
930.529
917.488
927.327
924.377
928.694
916.451
923.502
928.726
916.702
920.349
922.314
918.549
925.673
918.183
917.638
911.497
909.972
908.863
909.646
906.266
909.176
905.612
917.218
909.086
909.803
912.177
911.396
911.334
913.179
910.914
904.167
912.199
912.074
908.582
912.223
912.953
903.188
902.462
902.649
907.856
906.252
897.206
898.788
906.579
901.294
906.941
895.010
901.202
898.906
894.332
898.765
896.897
898.159
902.682
895.795
892.203
895.264
896.551
900.023
896.326
897.437
886.813
888.308
885.044
886.512
890.265
894.312
882.500
889.696
890.400
880.215
881.315
889.039
888.019
876.637
878.878
876.123
886.881
876.776
881.548
878.297
878.903
872.728
885.440
872.890
877.447
875.154
882.952
868.608
868.533
880.902
870.126
871.833
868.768
866.265
873.644
871.149
865.356
876.157
868.775
861.115
872.848
874.749
871.198
871.641
859.351
861.752
861.995
868.025
859.266
863.240
855.744
859.267
857.130
855.483
856.734
863.859
853.511
862.208
854.108
864.845
851.874
859.920
854.282
863.600
849.589
854.866
854.354
846.930
856.754
845.157
858.126
849.625
849.339
846.678
847.608
854.726
847.496
848.849
842.996
842.170
853.562
848.957
839.285
843.272
847.837
850.678
842.224
837.516
841.586
843.065
844.548
845.536
837.948
842.786
845.270
841.803
832.550
837.602
836.848
833.113
831.395
835.978
830.050
837.669
831.176
824.854
836.998
827.045
825.209
835.120
837.345
834.289
837.692
838.074
826.393
838.735
825.544
827.426
834.215
837.050
823.466
834.876
837.392
823.448
829.183
835.404
837.465
822.981
836.506
823.520
831.815
835.558
835.449
831.567
830.501
833.136
832.952
830.655
825.037
826.513
833.987
833.589
835.880
828.239
823.177
835.711
823.884
821.535
829.039
823.362
821.296
829.162
824.344
825.042
824.394
825.086
831.979
826.508
825.278
823.171
832.661
828.339
826.716
830.423
826.074
826.152
832.529
827.421
818.519
823.211
827.849
832.702
826.388
830.608
816.940
817.214
817.460
822.756
817.179
820.363
825.311
829.104
825.344
816.044
831.120
830.797
820.917
825.212
824.719
817.584
818.272
817.076
825.760
819.445
822.978
828.566
830.027
815.151
827.462
813.777
816.851
828.534
814.559
817.775
814.176
823.276
822.775
814.207
825.238
823.509
826.789
817.054
822.660
812.139
813.581
820.922
818.193
815.301
814.263
825.024
811.779
824.830
815.078
813.648
813.032
820.457
813.734
813.116
824.591
815.854
815.730
820.220
824.112
819.853
810.471
821.767
824.127
818.307
815.799
820.075
808.915
824.234
809.319
819.940
819.018
823.291
818.743
810.757
814.058
817.518
812.737
823.081
810.516
822.833
811.217
810.551
809.467
808.199
812.883
817.645
807.302
807.763
809.401
806.205
819.137
813.271
810.960
819.282
812.419
816.234
813.898
814.946
812.320
820.845
816.426
816.509
815.255
818.608
810.626
812.169
814.450
813.054
813.570
815.726
811.837
806.503
805.878
808.414
818.730
808.249
807.374
816.080
813.158
