30.961
43.499
35.408
45.122
31.083
43.332
1339.519
1340.008
1350.720
1344.903
1355.154
1354.786
1357.134
1343.124
1356.116
1371.263
1350.747
1372.114
1367.592
1382.451
1381.708
1381.833
1390.282
1375.517
1379.185
1395.948
1388.552
1388.230
1405.824
1406.543
1409.592
1400.857
1410.409
1411.349
1419.086
1421.307
1408.603
1432.478
1437.264
1423.576
1435.393
1429.316
1445.684
1429.817
1427.904
1448.783
1455.394
1440.291
1441.848
1456.580
1459.224
1475.063
1471.969
1477.713
1462.061
1471.933
1463.093
1488.724
1482.956
1491.941
1490.172
1481.356
1492.100
1495.647
1495.015
1502.088
1490.985
1521.953
1515.731
1500.098
1523.783
1515.927
1511.793
1521.289
1530.223
1531.076
1545.019
1524.134
1525.023
1532.051
1541.188
1547.275
1560.144
1558.323
1563.463
1561.137
1574.340
1574.182
1557.314
1576.788
1574.871
1569.071
1566.563
1580.031
1590.557
1599.981
1601.200
1581.382
1599.741
1605.141
1602.563
1590.729
1607.359
1624.132
1623.831
1616.497
900.578
906.499
898.429
901.354
911.341
900.351
911.579
910.521
905.230
917.946
908.063
923.040
916.375
914.146
914.899
921.961
926.054
932.468
929.077
924.127
937.469
928.074
934.548
937.204
932.375
933.346
943.394
935.236
935.749
950.981
944.636
946.361
955.226
954.651
950.655
957.113
955.702
952.080
963.725
958.284
964.614
962.552
971.757
973.269
975.925
975.707
968.438
975.412
969.153
970.797
979.172
983.118
975.318
977.573
980.280
979.552
985.457
983.253
984.257
988.891
988.894
1002.418
991.942
991.139
1001.836
1001.429
1001.766
1012.363
1000.506
1007.714
1011.940
1019.240
1010.842
1014.285
1022.271
1019.845
1020.007
1020.664
1025.874
1026.544
1023.622
1023.482
1022.755
1037.570
1028.394
1027.801
1039.899
1031.946
1034.755
1044.893
1042.925
1043.576
1040.329
1044.218
1055.891
1044.205
1044.424
1060.612
1054.902
1062.537
1059.238
1060.616
1059.064
1058.588
1063.221
1055.339
1054.126
1060.209
1056.222
1056.534
1059.442
1064.155
1065.307
1059.618
1058.491
1052.471
1057.916
1064.095
1061.285
1059.188
1061.359
1052.754
1063.437
1059.197
1054.993
1056.208
1062.680
1052.979
1056.695
1053.898
1060.343
1066.164
1060.421
1058.467
1056.323
1052.538
1063.639
1058.432
1059.111
1052.282
1064.757
1060.134
1061.102
1058.491
1064.767
1057.856
1062.619
1059.366
1056.887
1057.704
1061.886
1053.682
1060.181
1058.271
1053.624
1067.517
1061.161
1054.461
1053.644
1067.483
1060.748
1057.402
1064.216
1063.956
1055.995
1064.627
1060.110
1063.695
1067.602
1068.538
1056.661
1069.003
1056.962
1054.133
1059.807
1060.385
1061.087
1063.422
1064.066
1063.928
1056.814
1065.457
1066.453
1057.320
1057.642
1058.394
1057.999
1067.427
1068.334
1060.981
1070.105
1062.642
1067.465
1062.849
1063.539
1057.073
1069.788
1062.909
1057.215
1056.563
1066.796
1070.246
1064.670
1064.231
1069.540
1069.324
1067.302
1059.127
1071.175
1058.898
1066.742
1058.024
1062.307
1059.469
1063.698
1064.210
1070.455
1058.611
1070.087
1058.803
1071.094
1058.217
1061.909
1061.311
1070.485
1059.221
1066.553
1065.341
1062.970
1060.485
1061.260
1061.840
1066.121
1063.484
1062.195
1071.971
1071.918
1062.217
1061.472
1072.804
1060.355
1067.423
1066.845
1073.182
1069.719
1058.759
1063.742
1061.071
1062.827
1061.681
1068.703
1066.364
1071.138
1062.461
1068.722
1064.428
1064.167
1063.797
1059.701
1071.729
1073.180
1066.040
1064.679
1059.980
1066.294
1070.960
1074.984
1073.032
1070.249
1065.406
1063.138
1067.820
1070.816
1060.814
1060.529
1067.285
1075.674
1066.301
1069.065
1063.083
1060.704
1065.647
1062.105
1063.511
1067.398
1075.955
1066.865
1073.213
1060.973
1068.400
1064.495
1066.860
1062.825
1076.757
1066.170
1070.483
1064.662
1061.295
1062.507
1073.433
1075.553
1063.340
1070.692
1064.239
1063.546
1065.543
1070.208
1054.526
1062.796
1056.762
1058.719
1052.804
1053.705
1049.764
1056.610
1048.608
1054.180
1056.531
1042.037
1049.481
1049.435
1051.354
1043.872
1044.156
1049.438
1045.968
1046.422
1033.664
1034.873
1043.621
1033.509
1037.871
1029.338
1039.960
1025.653
1038.396
1034.863
1023.972
1026.372
1029.480
1027.546
1027.882
1016.432
1025.340
1029.571
1024.317
1016.132
1021.116
1017.650
1013.905
1012.587
1011.606
1008.215
1004.946
1010.661
1006.687
1011.443
1006.938
1007.640
1011.230
1001.352
1002.927
997.766
998.412
997.144
992.120
993.912
999.674
1001.710
989.209
998.516
991.069
985.838
994.898
992.135
985.115
979.509
980.610
977.973
980.358
986.446
985.728
974.355
985.222
985.579
978.957
977.171
970.814
967.397
969.165
965.353
967.415
962.526
968.953
973.726
969.121
966.020
960.953
960.642
958.857
959.334
961.111
956.347
954.176
953.733
958.907
960.354
947.312
945.529
949.397
947.968
955.696
940.356
939.613
947.429
938.184
943.380
942.399
937.904
935.107
941.544
936.057
931.035
936.912
934.285
939.809
939.091
928.988
935.854
929.823
928.954
929.605
923.626
932.802
923.442
925.956
914.699
919.534
911.718
915.013
924.322
918.014
912.569
911.538
920.961
908.194
906.775
914.790
916.417
914.236
914.570
908.569
905.151
908.554
894.708
900.389
903.687
900.009
891.942
901.207
888.713
887.081
896.844
887.393
890.240
897.391
896.282
889.969
884.067
890.372
879.625
877.135
876.757
880.707
880.616
872.287
872.802
883.756
879.962
875.810
875.707
871.995
872.056
873.879
875.082
864.855
869.265
862.587
867.108
865.921
871.037
855.719
864.821
864.482
865.909
856.971
855.470
855.119
846.721
859.544
851.001
856.544
846.010
855.139
846.393
850.839
860.867
852.112
861.603
854.461
863.294
856.972
854.647
859.813
864.149
851.401
862.846
855.951
855.601
861.026
861.837
865.916
853.854
867.370
859.118
865.086
861.703
861.140
859.662
859.458
863.593
870.493
867.196
871.328
857.576
867.734
863.324
869.408
864.406
860.670
874.004
866.518
863.780
861.077
864.454
867.359
866.088
862.816
863.768
873.421
870.996
874.602
875.465
879.475
868.999
866.950
874.909
872.993
868.698
869.235
879.342
875.010
882.435
877.685
868.753
883.742
872.174
871.163
875.018
881.361
884.929
876.204
871.972
871.665
872.211
877.529
874.642
873.373
883.740
888.602
875.187
881.477
881.253
876.286
881.004
880.127
889.832
887.761
884.202
883.061
886.893
877.664
882.343
886.162
887.479
894.419
885.427
884.102
886.445
883.093
883.451
887.732
888.269
888.522
896.211
894.834
894.902
887.029
890.396
894.799
895.119
886.278
898.474
899.999
893.022
888.714
892.462
896.934
899.597
900.645
890.153
892.798
895.556
890.783
898.250
901.624
898.805
901.833
904.799
904.000
898.264
895.851
904.980
897.198
892.951
899.554
895.683
905.623
896.360
895.498
900.649
904.419
906.838
907.830
911.939
897.320
902.451
903.098
900.553
904.343
909.146
906.471
899.772
905.109
907.021
913.413
910.745
915.915
913.048
915.079
905.503
915.483
906.237
907.447
910.524
910.293
904.641
910.275
917.124
918.916
910.948
908.449
910.650
918.242
919.556
917.778
923.726
915.829
911.086
910.013
922.142
925.246
910.293
912.183
923.456
917.113
924.350
918.902
928.362
926.397
922.502
922.995
914.226
914.959
927.434
920.906
921.902
920.016
918.087
925.666
917.825
918.422
920.417
922.886
917.879
920.443
919.302
918.528
923.870
916.571
920.695
917.965
920.766
925.521
913.032
914.994
911.742
915.069
909.944
922.424
912.995
911.520
912.320
916.473
917.553
911.551
911.192
912.814
905.995
906.338
914.138
910.102
904.468
900.960
901.801
907.337
911.719
913.560
905.124
908.559
900.115
900.919
904.421
902.204
910.250
906.865
901.346
898.915
908.127
893.634
898.625
897.680
906.264
899.122
900.129
895.785
903.995
899.694
902.452
901.543
888.962
900.129
886.604
889.453
899.096
899.330
897.512
898.436
894.693
884.633
883.776
895.701
892.840
889.534
890.038
895.016
884.899
881.036
881.192
882.841
893.077
889.048
891.900
891.376
886.725
886.659
885.284
878.774
886.615
877.992
881.772
881.138
881.468
875.955
874.890
882.419
874.882
876.764
882.418
881.261
876.220
881.585
876.335
866.758
868.933
874.967
874.600
875.431
872.028
879.276
875.437
867.692
870.492
861.896
870.869
873.923
872.599
862.670
872.296
864.784
858.118
868.182
870.806
864.139
871.794
869.571
866.071
868.310
859.713
853.908
868.112
853.533
855.171
860.510
856.531
865.221
851.123
856.398
853.410
864.354
857.139
861.090
849.002
862.236
849.023
857.594
850.088
856.151
857.674
849.573
845.786
857.812
846.914
849.027
854.407
852.165
847.270
840.890
845.854
851.186
846.171
845.690
839.831
851.165
838.740
841.945
850.013
838.745
839.288
838.082
841.901
839.533
837.310
832.915
844.763
836.671
840.662
843.735
836.209
829.618
830.019
838.182
843.485
839.448
835.883
831.692
832.090
830.598
839.206
839.271
834.373
830.752
831.911
830.948
821.911
821.559
825.425
831.084
831.561
823.097
831.844
831.673
819.777
827.152
829.531
830.286
833.580
829.189
822.388
827.036
837.269
831.130
834.136
830.153
835.906
838.196
825.250
823.767
826.565
826.742
829.230
833.144
829.507
832.406
841.016
828.755
834.302
839.878
841.156
837.486
827.694
830.322
843.589
828.996
831.431
835.994
835.640
831.660
834.076
834.398
839.935
838.712
845.075
840.119
844.867
836.976
845.534
846.795
840.620
844.606
844.742
841.982
834.047
836.047
834.140
838.082
848.331
840.996
847.408
846.780
836.450
840.912
844.797
852.055
841.213
839.562
841.139
846.030
849.666
853.718
839.640
841.499
854.243
851.959
853.808
853.917
840.795
849.935
841.590
841.198
853.335
853.466
847.535
848.581
842.501
845.081
856.853
852.668
845.773
846.354
856.900
856.843
857.441
860.075
848.052
854.174
853.662
857.351
847.903
857.373
858.011
855.941
853.561
854.545
853.487
851.537
853.209
859.444
854.475
853.486
856.734
852.830
861.243
855.771
864.161
856.348
866.464
862.663
863.205
860.812
862.656
868.059
865.632
865.653
853.238
862.145
853.737
854.231
868.140
862.888
859.173
870.522
855.929
869.241
863.744
858.581
870.780
861.429
861.027
866.217
861.097
867.599
864.034
865.216
861.114
869.167
865.126
863.973
868.872
865.126
869.617
875.014
873.815
861.952
871.337
869.130
870.743
876.486
867.396
867.312
877.671
871.218
863.918
869.049
866.570
873.998
879.939
870.438
868.977
868.482
878.136
876.746
880.544
882.158
881.817
871.376
869.183
881.626
876.822
879.810
879.726
879.647
871.117
883.727
884.182
876.701
875.868
879.615
883.857
886.581
877.984
886.038
881.832
877.790
887.983
878.572
878.956
873.355
879.682
883.577
878.676
883.454
883.426
888.201
877.836
889.468
881.783
885.279
881.295
893.581
884.439
887.433
888.637
895.319
884.443
883.791
896.564
897.856
895.174
895.824
883.974
890.002
888.212
886.936
895.520
887.147
894.752
891.821
901.555
890.066
903.178
897.639
891.553
896.275
901.200
902.836
893.329
908.185
894.734
894.787
904.638
906.460
895.199
900.117
899.251
899.354
912.903
904.381
903.911
903.127
913.695
908.168
909.387
915.820
904.937
913.645
916.863
906.308
909.787
915.086
920.102
920.072
908.214
910.350
907.079
908.626
917.028
913.285
918.869
910.491
912.291
922.409
917.517
913.782
925.039
918.059
922.214
917.415
917.780
921.055
918.755
922.681
930.468
923.167
925.233
921.898
918.834
919.772
926.642
925.243
928.163
927.609
935.103
934.346
927.482
932.540
929.328
928.241
936.028
939.569
929.946
939.447
937.991
941.281
935.116
931.033
931.352
928.531
932.524
941.016
941.003
940.089
938.863
934.142
935.521
944.340
941.472
949.044
935.564
945.328
943.293
943.455
941.807
948.393
942.072
937.596
946.104
953.805
950.279
946.195
948.383
948.114
956.579
946.526
943.858
956.395
954.851
951.325
952.770
957.434
949.828
946.297
961.341
949.406
957.903
957.963
958.957
955.351
958.328
955.825
962.154
962.834
962.203
957.427
954.300
956.300
963.668
957.746
965.761
968.502
966.342
961.151
961.771
971.157
962.192
968.629
966.735
970.774
965.398
961.595
968.226
970.576
971.762
970.203
967.186
972.425
978.923
976.338
977.492
976.519
980.214
980.471
981.959
979.244
977.614
981.122
981.753
979.488
976.378
979.374
970.991
984.153
984.479
981.157
974.673
986.900
984.620
974.242
980.473
978.514
977.621
981.547
986.564
975.331
980.426
978.461
978.831
976.030
974.528
975.424
977.053
983.653
979.983
974.394
972.437
977.164
974.105
978.136
981.141
975.807
984.176
972.298
981.676
969.416
975.365
977.101
976.031
973.420
980.027
974.658
974.988
976.056
968.806
978.353
972.923
972.948
975.245
968.007
973.217
975.313
973.835
963.484
970.938
978.465
963.750
976.873
962.458
972.223
972.969
963.760
967.621
961.016
971.957
965.113
962.977
973.386
965.248
972.872
965.344
973.835
960.409
960.505
962.326
964.779
971.182
966.185
959.908
971.677
963.289
955.665
967.029
955.907
964.403
958.758
954.107
959.295
961.676
961.204
968.443
961.980
963.652
962.526
957.282
957.055
959.495
950.832
960.006
950.302
952.324
957.128
950.878
950.213
951.138
953.960
953.642
948.782
956.199
951.610
954.546
954.501
952.866
948.825
959.999
956.052
951.581
951.350
947.890
957.275
955.214
959.044
950.911
947.088
952.298
949.938
949.395
953.563
950.506
956.410
953.962
947.142
950.046
950.611
940.550
953.045
952.819
946.362
949.057
946.704
950.181
939.649
943.756
937.176
952.474
938.607
937.097
944.981
947.441
950.289
948.739
943.757
941.681
948.383
944.641
936.300
938.987
935.150
932.847
943.227
938.333
932.071
933.397
942.424
943.673
933.729
931.589
938.468
939.652
944.624
945.014
929.260
942.327
932.862
937.280
942.418
928.423
936.457
941.807
939.656
935.548
941.785
934.888
931.299
938.821
930.394
936.086
939.412
925.042
930.916
938.523
927.780
926.997
932.838
928.532
935.671
937.239
933.242
935.506
933.307
921.442
932.507
927.740
923.318
928.289
931.605
931.371
931.252
918.513
920.695
927.644
930.553
924.059
916.370
915.398
914.612
924.893
917.993
911.489
911.840
919.902
908.566
908.759
917.675
912.515
904.213
915.737
912.873
912.400
901.552
905.775
901.510
906.079
892.982
892.488
890.768
896.043
900.288
897.115
888.437
887.612
891.759
894.078
888.977
885.895
882.046
878.691
889.126
877.794
879.088
879.152
871.535
877.872
882.419
878.723
876.105
870.558
863.647
865.803
869.146
864.490
860.597
870.476
867.284
866.047
867.456
858.555
859.330
854.762
859.733
856.282
847.695
854.415
856.886
853.709
854.066
846.752
839.975
848.343
844.751
839.198
850.029
843.388
833.519
842.997
842.075
836.299
843.661
833.810
825.935
835.537
831.351
833.513
823.254
820.292
825.058
818.364
829.144
820.132
816.260
814.053
818.855
810.516
817.787
809.700
819.522
821.156
816.735
815.901
808.622
804.302
808.679
811.549
812.583
808.564
800.671
797.524
793.473
807.100
799.152
791.981
790.834
787.319
800.491
799.207
790.154
789.948
781.890
791.298
792.333
784.378
786.184
789.097
774.610
786.585
774.391
771.272
781.077
773.529
777.950
774.538
768.263
768.330
765.458
761.425
774.466
758.411
760.626
765.758
768.513
755.680
767.105
760.338
762.725
750.258
749.471
761.156
757.955
751.132
745.331
747.278
749.773
749.995
748.118
750.785
749.970
744.443
746.213
738.806
732.665
738.196
734.579
733.226
733.403
726.682
727.888
725.102
736.405
732.448
724.942
730.375
726.840
721.275
716.133
720.075
721.576
713.696
721.174
721.719
718.113
709.040
711.648
713.499
716.670
714.418
704.349
711.836
706.033
706.222
707.043
704.988
700.444
698.084
694.306
692.435
696.257
695.876
693.778
686.151
689.302
686.823
687.401
681.058
682.421
682.308
683.257
677.555
676.533
667.734
677.632
664.915
661.437
663.844
654.287
657.296
656.078
658.944
655.092
651.388
642.583
638.316
638.133
642.453
642.802
627.234
627.216
636.012
633.049
626.173
620.585
610.846
619.880
619.810
613.016
606.172
603.024
599.053
599.202
605.071
594.273
595.092
592.421
591.257
586.004
581.884
575.112
576.488
569.518
581.554
573.298
575.526
570.839
566.333
553.610
562.466
552.374
549.955
550.661
553.481
552.857
545.363
542.800
544.382
535.258
538.540
526.299
532.948
532.540
526.826
523.448
519.378
520.393
511.186
511.745
514.427
502.966
504.599
501.675
503.544
499.548
501.000
494.464
494.171
488.117
478.273
485.565
477.168
471.107
473.678
467.449
468.512
461.481
463.947
463.332
460.313
449.263
452.504
459.483
450.266
448.903
441.017
438.442
438.861
435.235
429.331
432.839
425.754
419.516
426.664
424.589
416.919
412.424
417.294
409.977
416.183
409.910
397.334
395.748
396.744
396.944
402.517
396.082
386.243
384.558
380.752
379.211
382.026
371.098
370.487
372.243
377.549
374.975
361.002
363.986
365.944
356.252
356.190
349.078
357.552
342.766
343.595
342.595
339.472
333.247
339.997
326.888
330.439
330.527
330.664
325.192
325.422
318.263
314.458
315.893
304.203
307.225
300.305
309.742
303.573
294.573
290.960
293.863
293.188
286.425
278.780
284.520
280.562
281.805
269.304
278.140
267.297
263.719
266.065
256.865
262.970
258.776
260.850
258.221
258.889
253.929
249.069
241.743
245.890
243.122
233.783
237.665
224.603
225.037
229.854
229.168
222.436
211.426
209.459
207.933
215.733
209.539
