44.353
44.003
60.959
56.168
137.144
135.895
127.516
122.035
120.676
253.305
335.886
368.537
356.710
340.966
749.658
731.413
760.278
1103.345
1061.189
2667.493
2462.998
2649.720
4220.284
6354.932
6636.605
14487.320
13498.272
12318.132
13313.415
14596.867
15585.473
15552.606
19086.617
44990.110
43762.312
86827.365
126456.494
270806.598
272101.183
282336.872
456452.034
425553.425
870497.546
872955.025
1744640.268
1757052.489
2655868.546
2894508.929
4720128.070
7281659.019
7250759.399
18597438.591
23271975.583
52256427.566
107956201.746
104936162.502
141994388.502
149121595.682
330876420.863
329475058.639
321582885.255
322069059.461
423711204.614
418377731.963
980192658.550
1934235771.585
1844666625.525
1785693368.256
2394080142.608
5080312416.169
11076064392.242
10298693041.121
20348503481.588
19650244238.534
20087926383.788
21268291733.038
26991932202.533
61437830369.985
125060534335.100
146286641825.033
163067665664.586
177779680750.132
175775147348.508
177590791619.036
191351883163.032
296703777139.988
329207794006.494
308870336881.479
297510573389.959
297405923270.784
299000868840.794
684220329802.447
923664708911.384
890876192254.526
1941211285754.916
3149002374142.879
3231116168511.981
6526566849668.342
13604309365810.891
16488596172963.436
18107525642139.852
39372761826502.609
34822656074192.773
35713217725258.773
18405042070196.438
17269503539841.172
19010620475591.738
43189609166548.219
44658396681772.062
29382393532074.457
41529572018492.953
56608269992140.047
126905948391519.594
259271085007624.000
215312468956505.250
310157760331502.750
316613092760442.312
362199932638650.500
781582766376906.625
436099254661371.312
583535379011428.250
597711989134951.250
668497349597400.125
816793391800597.000
1052124529388481.250
1409061931829571.000
1316927144671809.250
2147124979882936.750
2313924535704893.500
2235348889866829.750
4423058498818434.500
8770929018169795.000
6341381662038500.000
8200563586483183.000
8732774002711966.000
5867763342909243.000
7055257295785443.000
3664583158236746.000
3495735953663464.500
7053254265595578.000
3837398412127736.000
3954134877666357.000
2293120833287047.500
2411122367481311.500
2744226000760309.500
4369140822023309.000
2612709479551662.000
4243709218020769.000
4772393519831277.000
3472078588114675.500
8162512103739543.000
4367252660697986.500
3333957326226679.500
4201128172755771.500
2156999843096308.000
3276053696348817.000
4664690084948746.000
6955713418438042.000
3719697174575333.000
7462323675351769.000
15732037692645548.000
15885577044958034.000
8720690439916755.000
11764723194454668.000
14989634019682084.000
10417276303106264.000
27746072081224856.000
28760705005102116.000
23674861207702604.000
18716790372967104.000
23568834399912156.000
21881476975930904.000
12433370671042462.000
28584811673858584.000
46598781217262216.000
45764120566555328.000
23639734891675580.000
26451618885864752.000
14147630300978384.000
11680247737963974.000
28833793116662156.000
27019096247175584.000
37208370220088624.000
86906618757730928.000
80251351641694272.000
70026153541652464.000
141629549329059952.000
225470721627568672.000
236099955881451456.000
538454417509245440.000
669330871948358272.000
830046446136496000.000
724609914201522048.000
1700139974698220800.000
1489365803762104064.000
865355837075476352.000
827369278092121088.000
451519443630622400.000
255278241846093536.000
196532281350503424.000
460381484118399936.000
277430378181304224.000
219679298618638368.000
497756983670367360.000
672189790047101312.000
665353794435571456.000
1759843333261073152.000
1203169250200479744.000
3123133043372714496.000
1632455410903935232.000
1273847559170180864.000
1763634179979748352.000
1294611412262058752.000
751785670722203008.000
834325025835307520.000
975412892564359424.000
1220380950989131776.000
1709173539285246976.000
1416107761986812928.000
2119145202078208768.000
2979229890563192832.000
4070676292729883136.000
2405977679449434624.000
1379073467255452672.000
721174784873045760.000
434019586932794304.000
655028672139300864.000
820318342548688512.000
1694615618266365184.000
2215299337809488640.000
3013989917525458432.000
2396767549376745472.000
1329256318473455616.000
1490280628346608128.000
2345108930317544960.000
2058604333337176832.000
1153677587273371392.000
2585804891537648128.000
3957373814131639808.000
2443833989462907904.000
5691097922048598016.000
8306592659753218048.000
17026429419288643584.000
16440832017189347328.000
12248838926114031616.000
17428298883104538624.000
17703003101226917888.000
12736439532509827072.000
17095585041774962688.000
9139636866753086464.000
5401844286237376512.000
7897139028036139008.000
9387818117558061056.000
5394005567874364416.000
5452749286925225984.000
3089154003405458944.000
2308630398266266112.000
1341446871342431744.000
1215120785121251840.000
1476316304030244608.000
1171368365597730304.000
3021146238921704960.000
4784503503032000512.000
2886990956099972608.000
1518784399714348544.000
850912771090135808.000
755154770226965760.000
1696429212931429376.000
1468357573321167104.000
774573250856012160.000
651104113875263872.000
1477490707751961088.000
2974517536717240320.000
1644272225041104384.000
939322233632688384.000
1312344654016439040.000
2816673071549490688.000
3150766016923763200.000
4843451168953209856.000
5553586760142906368.000
4648239406398953472.000
9281142769109420032.000
8404076686693936128.000
4392254612155049472.000
4708795208787996672.000
3747410356141774848.000
2265088843925950464.000
2534673100588047360.000
4049499600378659840.000
2219033801736659968.000
1336937820513688320.000
786880920272817408.000
923728781696185728.000
674299636113534336.000
774521564042802176.000
778977589884285696.000
1173652265207829760.000
2925631834110196224.000
2730054573484426240.000
3044201727145147392.000
1677318327982341888.000
2138204757039675648.000
2802660486554667008.000
2157325111170534912.000
2982807221184637952.000
4233752623105387520.000
2179987398009911040.000
2900690561306068480.000
2500284926852266496.000
5555697393077439488.000
3153889231071349760.000
2803094184970843136.000
1447758705573504512.000
2336107940669157376.000
3139880976103231488.000
2752971660182025216.000
3017508524274621440.000
1640101952476679936.000
1428703856871317760.000
855853160514917248.000
473695438961204224.000
286052962763194752.000
417030662516585280.000
913591961725009280.000
1311670245514426880.000
1433635953973919488.000
1262656653077141760.000
1494189934646147072.000
813681471531915008.000
700579729475883136.000
894215224524071808.000
650910752276009984.000
655374092035783680.000
832666454435910400.000
927026438843760000.000
488194987070322240.000
687951304749328128.000
885923567921393152.000
715678646967002624.000
671040979819326592.000
773622176644121088.000
673940655823740032.000
945985471727050112.000
874790114936723328.000
795622525882920192.000
478599287521746880.000
521851159861254720.000
267375037819122912.000
139595930182902416.000
147565983442139328.000
136895996612365344.000
152919841679202112.000
138263241313915696.000
201196729748684096.000
496903210127238272.000
683037370670042496.000
395283147590322816.000
421828169583010432.000
901652779900548480.000
980654533809170560.000
742603894452815616.000
384497860563734912.000
481815205788127936.000
511729623860539840.000
707004229178659584.000
770726589131037696.000
635570034735129344.000
914234046688510848.000
642580504666485888.000
1611849040331615232.000
863019048342739712.000
517537702958310400.000
464550193442598144.000
741218578340602368.000
800367089593226112.000
434271341080369472.000
502914495701390912.000
286093971676053856.000
245398390269660192.000
146735450736237920.000
118688865726939808.000
159494097864046144.000
133066286242090912.000
277875365674270016.000
367222772805405760.000
459856128509063808.000
422633928686767360.000
365064605648055744.000
474992706013287616.000
772819154755880192.000
815794885894396416.000
866353506881876096.000
649986858335826176.000
946499952135389952.000
502041084681380480.000
519916903045968192.000
296719040716492608.000
230343831633108928.000
240127399137968832.000
133111001863027936.000
128463501807391920.000
66507164517949232.000
78071165805275792.000
44183395108083648.000
23168921880427512.000
13720668813408736.000
12466658065545120.000
14705837448852660.000
11070891412468068.000
5878911755526858.000
13599912918688088.000
6945760097436981.000
6898455265758826.000
8691989171999731.000
4872052042462839.000
2604072043448132.500
1460859689192255.000
1866450411632237.000
2114727267064017.250
4577690092360389.000
6639635915077020.000
15800244583716714.000
8619766896052919.000
4725287604591776.000
3774391878650734.500
3938258454901219.000
3491028884360131.000
4251735385861140.000
8650390253368493.000
5762360419230458.000
6937159967289316.000
5939990435867124.000
15137939668047230.000
12261816624530972.000
6834890781435850.000
6470144866603701.000
8605520765444905.000
4513537421769813.000
3633922702861029.500
3814752078273307.500
2279395825022123.000
2561177286687784.000
1325477429542456.500
2016529592912283.750
2690260168559927.500
3656242428220161.500
8190485726996436.000
11436569220545934.000
24077801273990696.000
48370770058211248.000
74172606913295600.000
91252991785427696.000
69470802493924248.000
36047154193528792.000
44012707838923024.000
24225259069473884.000
25746652447744660.000
50520831737414936.000
43241150481363576.000
35438698071456364.000
20776797371113032.000
49460807210692056.000
40387005125774120.000
43106850115808424.000
21793600144581060.000
48222414971165328.000
36196506794881648.000
49610255313245880.000
27973047508743900.000
23031660284048880.000
47788756732763512.000
49667456408711536.000
36404301448045416.000
41778762756033472.000
92167626134199104.000
122835027240455328.000
62664092935816768.000
64558381903986256.000
83158889811933104.000
126539056492015312.000
70233797448485616.000
38633002885058160.000
19582381676128704.000
11988129221921206.000
6972311794053257.000
6103633843149249.000
6587452851659970.000
7999749857341168.000
4312866898932355.000
3461105933712211.500
7992649254174432.000
7653499665260420.000
6435492506919870.000
3350269943430501.000
7685188301767413.000
7741956624762503.000
10584793639541172.000
13771077600642818.000
13956932474613542.000
19856174096330440.000
50553615131508184.000
74148800569035888.000
87825019747035872.000
142858810394702752.000
134571010222264720.000
272992696761248992.000
440892523455393600.000
265841948207952640.000
232633676554363968.000
472740133951267840.000
250255981145033440.000
271389885565105568.000
387240219020836480.000
529532353180671360.000
493779379890477568.000
492695780043372864.000
795752933401075328.000
923384197903962496.000
506502837965385600.000
384871098505736320.000
474355907016976576.000
369438518723804160.000
979213093462992000.000
1285258736709241344.000
782565817571324160.000
827255079945594112.000
662311735295428480.000
917185129879540608.000
830584759042693376.000
460517113388506560.000
245792964694176832.000
283683260527332832.000
161693341468422752.000
138327725844777664.000
129667528489639920.000
120846718213718688.000
159774229193391232.000
152244170947959136.000
128952681545422848.000
302588283338966592.000
451911988401773504.000
230954339454426176.000
369299669074516608.000
519849878608874176.000
280632469131449472.000
250854174582321056.000
217289494706847264.000
258427654492871200.000
220208176418041920.000
133743723838430400.000
155727694553946656.000
87325707721760384.000
65538966314725032.000
164801209831968288.000
84319325197801968.000
167850537420285792.000
160355969934790784.000
113527632058128016.000
158148506707507872.000
129296699793220032.000
260519741344257472.000
139340971114396992.000
72811012528299808.000
79419691604014080.000
77438356904826544.000
39743977812174192.000
48685354279817360.000
37390667403339296.000
35072798854418216.000
46296505776791408.000
36949078578361360.000
38680136337815680.000
46348554520731408.000
37630991520281488.000
49789772278271104.000
27316231037445804.000
33725623414054456.000
74592322218586464.000
86348926913995632.000
62473066800233296.000
157002182751112416.000
154088246260330976.000
236622146652750432.000
527807844728018752.000
487430249602856512.000
421741002251674048.000
460519065351397312.000
263630631316779712.000
527333017712042112.000
478296664783376320.000
277921186751505728.000
438404848621908480.000
374185730542887168.000
383637749600377728.000
200090070555962016.000
449991958254386688.000
524460567863899008.000
411888969711302272.000
662155834817013376.000
789808991003291520.000
467474748281857472.000
246303295952117792.000
136469405443675424.000
119696082034421120.000
296740456285114176.000
196883282937922656.000
121238900214066784.000
300267958877220992.000
196146166671904480.000
250199084154052128.000
233581313005663744.000
532098719874234816.000
427352142228766784.000
230377416137971872.000
206793812887471008.000
505154552709325184.000
263584382954051872.000
228213557176913280.000
463826041402153344.000
403006964964777792.000
477263579011459648.000
259698854603214048.000
156286794477264736.000
109471784080063696.000
280472272340285568.000
450002691330856576.000
241603466901944512.000
199907663218577024.000
249536851823951456.000
493589894106573056.000
536126033611250624.000
299754544955155008.000
474004499587908608.000
272690205596856288.000
378577899129213504.000
915699037831179776.000
825273992638989184.000
1703224217535680512.000
894798414007635456.000
746604682616797696.000
970276060151426688.000
958236165443947264.000
714105098970201984.000
883723495634657536.000
943122285966136704.000
828973619539851904.000
637574144513355008.000
799204065921911936.000
950843972380915840.000
917476017469976192.000
724653214998270464.000
684455097977187456.000
788014495898557184.000
438767622761528320.000
883039986663984384.000
450817984604684992.000
484817486092739328.000
277135889482851328.000
202396036525540224.000
259293566596728896.000
144834197247836832.000
136981608913878224.000
272467854309421792.000
287902146725863392.000
364973705385115392.000
376664702735457984.000
211249023199449248.000
124086391836230992.000
127380616655609712.000
72943158028439648.000
81277363984824240.000
168144955537689344.000
86904853403007840.000
67853852190394040.000
86457430945571424.000
138893603676871360.000
119146033049342272.000
141195478602515936.000
83021681279650816.000
43107079796192712.000
47336783947957280.000
44211549919833064.000
49956468861559512.000
25701719064549232.000
51243336699865856.000
43950428632706232.000
39936662462060712.000
43497424642203000.000
26228612618105748.000
14757288934147122.000
21283078784128448.000
25143365160752928.000
13756441562294180.000
28240557238781428.000
35774378177372532.000
18901361535280284.000
24866691545833716.000
14908021206370692.000
10400137539357842.000
11731846095928426.000
24250173295887908.000
48009488703663384.000
49805509040573376.000
34349235895151872.000
39232777168577208.000
45911504049610120.000
44894618421775016.000
51326125799327472.000
27064621511536648.000
21388890303226476.000
20512865897879584.000
28351380486459656.000
24478457039745504.000
37760373010372384.000
77117903927470400.000
88452406026758144.000
127577232487027408.000
152769181441277888.000
133464531009036240.000
148222055330491872.000
116835414936856784.000
115302993705436096.000
253756303104091936.000
151549144740581280.000
81995248708216464.000
44138507285737696.000
66087772868921184.000
36099119604346680.000
51686469312320456.000
36663652276607232.000
81572405582944224.000
163429664718093280.000
92470895265649696.000
91424484758959952.000
60689860560313648.000
85264635973002160.000
76065974632417824.000
87526659173565360.000
90501547468939216.000
69989266709660536.000
37510281280989400.000
93246105683590512.000
72959392815529056.000
39903462092754184.000
88933733283449360.000
73010355672566880.000
44191706306413152.000
25100031074632780.000
28222820245594884.000
27121717757216752.000
23370447538276584.000
46763322712435400.000
39045901363178192.000
90701811219820160.000
69807464261060000.000
143459100160620016.000
302636528103920064.000
298877792067115264.000
267752909622342016.000
210562316270192480.000
212202796845332928.000
459079252377697088.000
397589985199546688.000
963974040578095232.000
765750890764787328.000
745492202521588352.000
801725021830057728.000
1243051486795220480.000
1177120145884101376.000
2393492058834604544.000
1244528437827846400.000
725706409038513280.000
1657234307968636160.000
1449334581754995200.000
1707305145608815360.000
1427318123017204992.000
1586227510614629120.000
1251423964429603584.000
2567513432741553152.000
5525895801953681408.000
2865368182108211712.000
2793333678097829376.000
3091192993781553152.000
3084183789729974272.000
2242766430826535680.000
2701709733965928960.000
3726723999305897984.000
7988384747078972416.000
18413522250504173568.000
24981564279540965376.000
28842120649137209344.000
23636967870627115008.000
57957815591478624256.000
32376054400226869248.000
26519016062273654784.000
56323445868779405312.000
40290393055460524032.000
40933185948218466304.000
58857396060308365312.000
42034416052559659008.000
47983771325385023488.000
25448320705010089984.000
39141988848596312064.000
44402448017730551808.000
57530840911237505024.000
48626496861083721728.000
51968779553034887168.000
44440770885576777728.000
39727903875755294720.000
57643970897650360320.000
78886561365460811776.000
46013391917736837120.000
53567677718648233984.000
27228878252406673408.000
15431612391389616128.000
9109102238705900544.000
7330485153367170048.000
3973379548306125312.000
5099067084433148928.000
4083669569765167616.000
5610415152057808896.000
5226721295876234240.000
2820105968706292736.000
2749532103017899008.000
5669591709525219328.000
9088021888032740352.000
5492054889411495936.000
6747550401216117760.000
8055441674081170432.000
10122243491745738752.000
7752652276786400256.000
4451453571143995904.000
9114023009822720000.000
9176335747914887168.000
5293018096915302400.000
3788458573415516672.000
5033287438133840896.000
4250713715058921984.000
8775276731554537472.000
7729331601446275072.000
18316703449958731776.000
9412898884913215488.000
8493414350473772032.000
8517191959146098688.000
9896885191935043584.000
7935932980623079424.000
16836979814646454272.000
16912168775095033856.000
14738751798940239872.000
14223086590859067392.000
17632808868102119424.000
14710289489402230784.000
17343027188424763392.000
13841115816476485632.000
6904721201606670336.000
9351467871215679488.000
7009591702060650496.000
16536998227082993664.000
8789492270808614912.000
4430453793175575552.000
9562345370356310016.000
5387167695618903040.000
4248777936491432960.000
2153824394286776064.000
2839139992239068160.000
4240950196982923776.000
4422838274111537152.000
4893369094279156736.000
6955174536846958592.000
3782906740994430464.000
7807406054768793600.000
17684967392419045376.000
9663799454776279040.000
8257297151630312448.000
9575941666804051968.000
5445032953615027200.000
2789868265028102144.000
2293242838812832768.000
3067266304681137664.000
2335607696753891328.000
2267059582679847424.000
2373911064666843136.000
1378931653309270016.000
1264130565711497728.000
1766300505849690624.000
1499205496176441088.000
1761361879610535936.000
1618149552551759616.000
950777027050306816.000
490761106851834176.000
536431151338963328.000
354840528788509568.000
402311784940902208.000
902766640878520320.000
657395902368522880.000
357762242112384832.000
483049142423330368.000
462596148620372544.000
380786135873418816.000
207299076413893056.000
114401683507618016.000
293611917863076800.000
242466770893569344.000
136678550685461136.000
153187208916562176.000
124009468813407680.000
272627342723349120.000
159994448927229696.000
251402816380817920.000
208865369034821280.000
125540347152673232.000
271653947628851424.000
139532335406124288.000
148502662190012672.000
159655315321833600.000
206629777131707616.000
127617237563167840.000
120813903815322688.000
72178757724326000.000
84486058755065664.000
49255251701275440.000
51430822797092544.000
72830613218078832.000
76118282170695984.000
42739434236191856.000
21469109725607444.000
22216275652623144.000
12555297200343834.000
6996514530191196.000
3738477141189698.500
2165478246964500.250
3369193013454044.500
1827590150658379.750
3990849296228538.500
3979204881464487.500
4443377395459521.000
2654432617610764.500
2398074358479727.000
1426301608065765.000
1146934172621807.750
596508901313240.125
650199253669871.500
373160497700966.750
741648401552889.750
415487547168795.250
465787625167821.750
241424227199897.719
249874997463484.750
188431091034138.062
413441373944414.125
338712219392239.625
173048816968761.562
249454306071805.688
179409423025361.531
184772343152886.281
105851263390941.891
54918628215743.211
77027824041559.562
124112937614732.328
201036520041081.281
228906242659983.219
353237137557836.438
189569496559629.844
436595718466319.438
251178023277408.562
220045517585343.406
466047238050799.125
350222347352952.000
190554500219335.469
190975050683954.969
107685480771642.219
63365710710370.375
68352065532126.031
58599437848491.406
31441858970961.090
76327786453861.297
78407212487481.859
42467452489091.500
29989822705646.996
17438186759795.150
43674429815044.141
40743058860240.719
41130841008337.836
43958814616335.055
23679606636869.391
20549417817318.957
16254690617490.955
24775838059639.867
31311542732688.438
78402746510096.312
67402158878447.273
54673412591059.758
67899827280013.344
37688905627208.141
33769575426625.586
70272240246895.094
56279465833667.008
57804025942196.516
71938158964506.406
102767027623854.781
109146986486814.625
62769773961679.641
32284599442150.867
31136250489287.074
35292559561714.742
41286093428587.195
24272438457366.867
34526452599598.809
17711041848330.766
21446973186388.949
22068981811581.430
24892768134742.262
37815932626155.602
78765634221202.875
98988315427473.547
138297398407758.000
128298166682872.812
171060900438519.750
377764827593147.562
218478602413480.500
218347508794726.594
223886933380274.656
177646110669224.906
182073597124380.344
174861245482178.906
363085189880394.250
807134953067259.500
1021551218616650.000
2476107811726981.000
2408715012576702.000
3574023539909780.000
2012902155052292.500
4180503381176954.000
4665926496579873.000
6086225660021358.000
8014091786229663.000
8592637836544431.000
4602252488930466.000
6146812513753672.000
8427328449658569.000
11395103316297224.000
27628544041219804.000
35181426954063304.000
19760708794839360.000
21798873824378324.000
26472122356071024.000
36050096026110008.000
34988315729705164.000
48521587422697536.000
38647835245799280.000
21541577784486216.000
22795541553856976.000
26682016672817504.000
21916854357702836.000
20047482539069020.000
48493434229435288.000
74509654420469088.000
86139060123265088.000
49518712067976552.000
44620381992883640.000
25083127102789284.000
13051677597678196.000
12890646196954558.000
10492474470768080.000
22764133927730524.000
26266562036464756.000
15779042929642814.000
10541725523404590.000
28272172433365128.000
41157625489385024.000
64507082288839752.000
158455944285313568.000
146970243774544576.000
161698123457586656.000
219382347591681888.000
276158924874039584.000
368279161667804160.000
780571334688866560.000
682264818166031232.000
1415306957604733184.000
840827693774146432.000
1753404083957013504.000
2099010943055971072.000
5405318431442681856.000
7118307670394805248.000
8346941781724274688.000
4870693980721056768.000
2823491573564494336.000
2567275184362491904.000
1386434176261011200.000
1679660214028066304.000
1415242483647115776.000
782715438941839232.000
722297284415921408.000
887399838697725952.000
716569513345648768.000
883661266813663744.000
1400494851561783296.000
1553932211844450048.000
1232724432474864128.000
2841742598552892928.000
3982164004557058048.000
8434389434854085632.000
8869365379328849920.000
7948250396712899584.000
4451705949515418624.000
4453947515559968256.000
2389363514594503168.000
5533137938146639872.000
3015765577449415680.000
4168341834893990912.000
4896345130919282688.000
3817953979454866944.000
2329052225290647552.000
2709050412360075776.000
2274168760207510528.000
2159467660403865600.000
1166016013186398720.000
1341948289694880000.000
1405371875316900096.000
2785350718780865536.000
2571800181329747456.000
2190671341785699328.000
4438078721248491520.000
10131718187214198784.000
7470232867068877824.000
10156342129929097216.000
8435590347587260416.000
4943931868515068928.000
4947734258247398400.000
2516144614437199872.000
5556139626465374208.000
4160763654244911104.000
5498626091753478144.000
3016362981716766208.000
1716584061468162304.000
2518775599279868416.000
2435413212090433024.000
1385334984423469312.000
1649821108239003392.000
959542404225755392.000
802118797471918720.000
447712512786312512.000
449969662479698496.000
655235722874423296.000
860979817604782848.000
772697423208787840.000
1707213142935256832.000
1358868786939068928.000
708208407027089024.000
1463249084826363904.000
2348704922001322496.000
1182698181282926848.000
1623552379924455168.000
1751601568433056512.000
1237878229109778176.000
1681754541553360640.000
1272336979421777152.000
3075256188522957824.000
1589725948210239488.000
1643778628326071296.000
1657211420101103872.000
2644516673762203648.000
2288377081809604608.000
1159297329037731328.000
719523098859718912.000
1580544636191325952.000
1420872139180712704.000
784511675591083008.000
701821087533586688.000
811579666244573568.000
942678092900705024.000
979768867319685504.000
715048101468873984.000
957236467775967488.000
747698767365410944.000
944287389252839424.000
696448886966596352.000
892872714821906432.000
775339372013071616.000
1202223844621898496.000
1741624500410838784.000
894715951415249024.000
686900797722830208.000
354622481099818176.000
438876427857255936.000
473068096645548480.000
936535915529891456.000
651426767591120256.000
673358542480434176.000
366389661172719808.000
210237592195820576.000
498368519411549056.000
508461887685883072.000
286112022707584352.000
258287842953934464.000
207266676687322016.000
248971910940084928.000
137286115552418688.000
72149941813971936.000
42042011650588312.000
47139703533835048.000
25475664661828204.000
51727990078891544.000
39280000313190640.000
85502061128033664.000
89012200878419088.000
126628753217592880.000
142889256325241344.000
154009688481660576.000
78152999866220448.000
63899254782000320.000
92071423924900048.000
86492533969889776.000
71334241363787528.000
79138556295737392.000
123601105664583024.000
133636957367790304.000
164479892118333920.000
201982068546782400.000
116685340915577072.000
109048750662849184.000
64490717008231648.000
34500482858871168.000
43150804827411240.000
49282193994939264.000
38160596962928408.000
23359073016203148.000
48369643262774920.000
75180403982128704.000
121528079157220288.000
158646253443235520.000
144649897404683040.000
117042993635678816.000
297120649373337856.000
463972514137299904.000
274769449687795968.000
294781969947325120.000
417698270105864832.000
251186196540324576.000
248736727077927488.000
221905889051468032.000
206432346951195456.000
223250583386739456.000
286151286074452544.000
160453974643793184.000
87892733607717744.000
47683867410775168.000
42381515069437280.000
90665856011535360.000
75378119428188224.000
63598570759370456.000
66662569535505856.000
80454724533662640.000
111370057283906384.000
67584735694035072.000
83363749098708624.000
69222009749251624.000
89904761213002480.000
116496987729990816.000
234476230256192320.000
540685010223908928.000
473751702710400640.000
403934473195219840.000
942136990528399488.000
907706381513390720.000
671872332917547520.000
860913573046274304.000
835317175005234816.000
971734230102464256.000
725340133042649472.000
407544405958004224.000
439247553230006720.000
540603777416227648.000
385398512698429120.000
539972121609719680.000
479883893469208960.000
265014560876016224.000
236575580576549120.000
297889727143324224.000
236530518814089792.000
299473311901389760.000
444562765444878144.000
493617835427164096.000
507719864297862848.000
262928182778342400.000
240984776427232960.000
276167826267648832.000
230827726739017056.000
223881394858568096.000
539270070226826240.000
521719155584757376.000
289713006518873472.000
462715763088614656.000
476905436385981120.000
368062565718023744.000
541542629419515456.000
473566603547357376.000
733385707301593728.000
726076993375858944.000
1461161394856727040.000
1215407753223438336.000
2476149046799920640.000
1365675927898288384.000
1651367883715598336.000
1300440768349685760.000
1434578605063310336.000
1202114202509848320.000
1567950606492824832.000
2402882424628356608.000
2228944965528695040.000
2811328310586337792.000
1660411321345565952.000
1675084727756055808.000
1180818720998011392.000
730651018364720256.000
403416621565831744.000
375685908106146432.000
220903303029442464.000
126493626386144128.000
265248756772187232.000
245666926867155712.000
260840935081208960.000
415408776582960448.000
472282724748090304.000
365495607989644800.000
460859077766442048.000
464774686884565888.000
253033033278614752.000
132688387989621968.000
112167124121731904.000
161202348925618976.000
132053611255604240.000
70506263107725680.000
78290577690955280.000
42581989349257272.000
63930767395134560.000
166412193503318976.000
119642051515180368.000
299813302436144576.000
353112623439124096.000
210994556728541824.000
198242114490733216.000
435318778587639232.000
219435743591682496.000
208219020839409248.000
504503146346843200.000
488676224713068928.000
276836707677804992.000
238306291818432384.000
275167946347898400.000
145150089315755328.000
141474681417669472.000
81077744509379072.000
64603429598602728.000
67747688494056376.000
77724148150064944.000
41476161764986128.000
25161560770837560.000
21138008864878440.000
27501239600020700.000
21513324821927244.000
18899547095694692.000
26756532397035244.000
14869268195873854.000
15685351824760958.000
8543426591100084.000
4560337545019036.000
5985072352999331.000
6698843864530563.000
3996991234028066.000
4051687235907094.500
3775350267924164.000
1989527561076741.750
2496961924502473.500
1402723498567694.750
1125143314633371.875
1054011462342805.875
573917192599929.500
690174627570256.125
615743740719210.000
351062014072999.438
428432633193209.688
360386568074175.312
789906109759703.750
1258688874156589.500
1278695435114980.500
1004470819694494.250
1501479961121996.750
1405807162082613.250
1151364338104014.250
2721546688240381.000
2674893612280706.000
1867567336818569.250
4059447814130178.000
2471690957279080.500
1272987404955769.500
1146424519728926.500
1322169320816500.500
1388265625343732.750
781145934309859.125
689124012357475.250
351193919184988.875
744459951766615.000
553264685338412.375
825375043031997.000
824727399615895.500
673336396066985.000
410629883153406.562
451524243524841.812
425249689289908.562
361761283831001.375
370643517603901.625
386626191510017.375
197841396550636.812
214427715570342.938
209671063955473.969
219198421415936.188
309630504840263.750
706465824744635.750
605413279679283.125
1343576667407994.500
1236384864867247.750
1374820766081347.750
1196420657035416.500
1339327953416920.500
743793482112417.250
1495296559763358.000
1849843702793814.750
2039692293479038.000
2596160765162857.000
2138358833903572.250
1269957034809655.250
1217643712513198.500
1437587654285244.750
2118374079258152.250
2596331944300838.500
1405385056845872.500
741234424104148.500
396346946067990.188
461130232097891.125
564014949460770.750
578902787935627.875
683449026104715.750
658142873569677.375
988568720507533.750
576553847000847.250
590827672694249.375
1263503220687136.500
683034462154107.500
384816391332959.938
604712076359941.500
1355804663453977.250
1473490241068379.500
1008167925009589.000
2318995545422173.500
1223209544100105.500
1135111514432509.500
1245111520422866.250
1416928327201471.000
751280353719468.125
414690712209829.438
241539872666700.812
218241920032741.031
236334705801527.000
225223919910554.812
347914218255130.750
370005384258034.125
314514238094087.125
170545096892729.688
173092564282044.562
174398577378948.188
171713398524559.688
170864595883957.406
201310000799060.594
180628006800469.281
101858920783821.484
227009997540488.000
223996603247103.406
175612408852618.594
104836837775429.047
220392122215459.125
254548817434408.625
143085412990079.719
117957298911513.953
144302542567918.156
184161951215800.781
99654252704603.297
124815631231421.906
177608632134094.250
206274419322662.188
117779597339002.141
236231607047028.688
127176508116910.688
144045143266929.844
140738776170278.969
137322212144859.250
76605726336995.203
52909714541348.133
56769476862400.156
59769022134757.844
36606704735870.242
36474219883053.445
21070916779931.359
11214501274144.832
10088420125116.314
23047907678670.594
13011719448566.068
19124681095329.770
9784131128816.740
24888123719981.461
13219522204931.438
13211403512186.910
13327791043884.043
17698393899827.031
36296848725302.453
39356698320477.195
38688110695295.227
22716473503250.102
12004622081656.852
6679050746504.095
3514582053611.500
5394605789947.124
2895455595773.900
3349988434013.754
1879802305117.944
1885000977383.826
1102340275200.936
1214258139894.737
1909870287938.123
1042518357179.766
1284813895287.316
2067078255711.813
2065322134555.576
1147969143768.119
595509908880.625
317891635284.868
506694785743.875
1288398673642.875
1996401592100.289
1032762863974.636
903274460554.437
1999676386146.923
1562982560521.425
4060880205044.370
3088281614825.335
3382668010692.904
3560387462824.978
2815793632390.675
6458433820380.016
12776488284807.906
7064295457649.208
4054389329617.840
3785975251329.901
2059478648030.953
1657970356193.494
3451887065399.876
3730124316081.690
5985726574356.094
5242972419440.909
5314782747199.486
13748460593753.721
17706435856439.598
21017838280764.031
21798569971336.812
33814763141828.148
43044328261962.609
58665082995041.320
72374443306352.016
107902600010367.000
249231125567096.000
397937713523063.875
618035600765168.000
1361968047303692.250
1214887248085379.500
1315845620762941.750
1337897922961449.750
727873234983875.750
1508853824836899.000
1320528198170426.750
1244451516013393.500
756572890885974.625
554041882362686.625
609282681137622.875
729023436367500.375
441554043549408.438
389374160808360.375
409080528233462.438
470489584217068.625
257157881265057.656
137134542596689.188
125987214298038.062
70671260916226.562
68346557344150.172
57790964486529.984
125748600884324.266
171701933415169.469
440162884949015.188
229885432618620.719
308519426769766.125
665579011168591.500
731679364325538.875
690750252623800.875
1472954553069109.500
2431386513940023.500
1250143627784093.250
1384337989391877.250
2091370180442954.500
2401495248139449.500
2272598533953252.000
1209790412579365.000
2672756621176972.000
4333757568641058.500
4604995882274801.000
2470128028678744.000
1487083208859574.500
2089349289764209.750
2287246103310515.500
2150474586909145.750
3362218770128880.500
8641207417348998.000
11827168657999590.000
6820217186209415.000
16029130104386244.000
11060164197121400.000
24482379310937356.000
49966895884792064.000
70610768347426112.000
35230211965090888.000
47973155717556400.000
46167876808327008.000
25060686862674080.000
13816246613135944.000
19687777134475328.000
19826454905145652.000
45712194345625688.000
42392214802205416.000
25846739680182072.000
20476168875068216.000
11346500929890992.000
27630303152396752.000
15409921839797952.000
8617747520617087.000
6231732187162380.000
8347056854214294.000
6864963518952282.000
7164239733825863.000
14943572149697962.000
7806789858898612.000
6343832347732422.000
3254652380421454.500
8208535241248569.000
7967408102043949.000
10597062331696026.000
26215658525007072.000
18720396780532972.000
10736496000671878.000
11823118118319356.000
13233000972396112.000
7954935346063928.000
7872213052347407.000
4406076015384331.000
3736818345712804.500
2010427454844252.750
4727520927422163.000
3833491291406070.000
4358558701210934.000
2610926092603618.500
1380960010314461.250
787545116421069.625
719316462638752.250
385297075954239.688
347396344362276.562
445724356403844.312
324172979462201.125
359381126476879.812
342696947197570.812
735309538364885.250
617597774130218.500
371121378477587.688
828479348536231.875
845049874187384.500
591549106698179.750
1283924035529577.000
708430186556022.375
643280300170245.250
332388209855965.188
741723248948013.875
834565796488573.500
817614162040934.250
1242493375113264.750
2483629086097888.000
3214209687791734.500
7901094076560040.000
6174031025190519.000
3569539446616934.500
4544182514680455.000
2439662919557821.500
3559169523894086.500
4519353178219446.000
2329737030004733.000
2470693572387749.000
2251682360483705.250
1183899119409267.750
1375242842147139.000
1364813812864980.250
1103497217554172.625
558085483241308.938
644620432840845.625
1002487410304944.250
2378613521367853.500
1210500362376895.750
736835099611281.625
1491998697127813.250
2432941192932695.000
4940235979874946.000
3310464552688479.500
3439218191682772.000
7354849193478382.000
6380735687801820.000
3222537969502625.500
1922608157741604.500
4688509763477224.000
3602511127591216.500
4273433503961349.500
2442095721343478.500
1965879181079999.250
1168262398392455.000
2336928776150509.000
1344531349130646.750
1955968101305165.250
1885090767921480.500
1913388934022557.750
2360871543100701.000
2214258923874625.750
2537340211396204.500
2566710268205426.500
2550808644864091.500
2085336456456989.750
4270718445133618.000
2364025302968690.500
2291308180609828.500
3443576193241433.500
4274420561202494.000
4925175321779065.000
3666141574305373.000
3885894351561144.000
2269628197345035.500
3656863279478369.000
4349964951712652.500
6884544363645554.000
7603588406468626.000
11094125274981962.000
5770324890614209.000
7133816132197932.000
5958662276095305.000
6456675483912183.000
6092202383345878.000
3409254299016695.000
7445197792064987.000
15650465002859562.000
22952564569421088.000
20569175166515276.000
49391545084237080.000
38499464305235352.000
21440537875314944.000
27144996163048176.000
40025163345699000.000
36250083761262512.000
77618418068784192.000
87192718625841920.000
115446131528237376.000
70788592949760824.000
83370425158649648.000
44912598900102960.000
61842034009555704.000
129375291020992320.000
146596686523724864.000
82828903132130736.000
131593980482579664.000
79256315528145616.000
112647421011939856.000
145105334516451904.000
109011738277082432.000
247743344547835936.000
264052055609433696.000
374488345959087808.000
472627443520065088.000
245479549218583136.000
515567637355283456.000
263442557629193312.000
204488284997246336.000
237879426621857248.000
135850089089587504.000
75982740144675120.000
119586134870728752.000
143773746775282400.000
145559774625392928.000
81986623104535168.000
49398409112932064.000
50869594765855768.000
81788262306395552.000
130373735609799040.000
124580420877031200.000
62987674427948856.000
138478974892152080.000
117962809218257056.000
120585401710691760.000
166027716189500800.000
110615114851592720.000
154047261075889504.000
163746636074673664.000
211990353897895104.000
119226414210147936.000
141430980494704640.000
110227523963674224.000
167680069452913408.000
197309125046682400.000
119049483167745424.000
148181079645956064.000
217385670560070208.000
228612573048059488.000
288083218426350752.000
218743546728465696.000
119364507765167248.000
271165824117697888.000
140091170542413696.000
132310189026652064.000
163295041902446400.000
233519104194826208.000
258397715395401536.000
389827857436808896.000
413554167596123072.000
517519580888863552.000
689864401133734016.000
797158867345619328.000
1145902777359275776.000
2662765651883090944.000
2213624339865691136.000
1316815395779737856.000
3137181410173269504.000
5178193774233492480.000
2982841167154789376.000
2109770564657537024.000
1273609837982638080.000
704588531586616448.000
726882082773251968.000
1624570090269108992.000
853158782038785792.000
728377823786700544.000
384454714350560896.000
525857754159376384.000
440304891354611968.000
462671191073590464.000
417029123197939264.000
212712044853589568.000
434809617471280512.000
444873795234110848.000
915777723579485440.000
467624720647090688.000
255048110401178656.000
292853001742726976.000
235452464660729856.000
291280529937847168.000
249751856668290240.000
238095468205500000.000
118876714368642656.000
61212894963299680.000
149078635621124160.000
82956642310636512.000
48085329262320352.000
26623168675402392.000
25878862958231540.000
21746964454295576.000
19560588617101928.000
23032183628899644.000
28479600175251952.000
14657018705011038.000
22803108665873492.000
19587017683130720.000
50029834201805544.000
35200897167851836.000
40333759302057544.000
23765527402719476.000
27635208032171664.000
38866227216164760.000
45366311968312160.000
26072815071029068.000
24477051915287784.000
12833689117744944.000
20610115111433020.000
12055611493110622.000
14617016847890230.000
20035179386062208.000
20686054538797048.000
23136852304851992.000
19643293163055480.000
20987706030133988.000
19482678470298740.000
41998125142940632.000
40765417544388432.000
48924177346381664.000
44569004083542864.000
60825025531886576.000
157651968461998304.000
123100037861614832.000
71473607866421024.000
154534555872615232.000
125677415419086096.000
165853622224985984.000
140380546976881632.000
215704341089388416.000
256838989174042528.000
248153313906287040.000
125948369958406912.000
166195947093572960.000
87477913858410992.000
69815891149393392.000
140981253383369184.000
76805277977082032.000
43574609296685520.000
93386335327908592.000
48606159646235888.000
25623647441587024.000
51176603786967536.000
38731708068732088.000
89517383188958112.000
127804568703017312.000
109191692965218992.000
125070079771503632.000
71364717641687744.000
90817937222407264.000
116698565084417296.000
160372537792507040.000
139950440244601408.000
121333950376774192.000
68374621319242368.000
88274021273275072.000
50595809863172768.000
78860330320170896.000
46741317564406408.000
26895581761651896.000
39201075787325056.000
43384140340504696.000
69756128918546760.000
67764442754212608.000
139298871702460240.000
166582285924054592.000
268595021188081952.000
210495028635352064.000
514846996921338112.000
469964649901238592.000
271890212810465792.000
273714794979815232.000
197868925603892256.000
481755654486831552.000
366763202892480768.000
885483099079073280.000
780195615698880512.000
1672141817266772224.000
1558945344997402880.000
1270924561625073408.000
773970406483224576.000
649835745860107136.000
370840228330991552.000
802810859134767488.000
873788319296504448.000
802227673177388800.000
409519200066998656.000
949181159606836224.000
1445385760726730752.000
1312695562125940992.000
3021178950461190144.000
2662535464860925952.000
4179441280790830080.000
5253208055847662592.000
4752070070277844992.000
5055341221052220416.000
4559638102224135168.000
2684302413191263744.000
3047551110972214272.000
2639021491257121792.000
1570668932865153280.000
2439559346467578368.000
1466700332374881024.000
875348624044467840.000
445826652081882304.000
437209889834176064.000
891311351005380224.000
860041405089225472.000
469891612075891776.000
957218901786231168.000
683167672143948544.000
377225673432518912.000
763751858873744640.000
638379027724552448.000
831367862051715200.000
1706239591949235968.000
2776599795593212416.000
1477147799263230720.000
