47.019
59.617
137.344
133.193
215.423
194.155
472.869
744.757
1588.816
1505.157
1560.461
1631.196
1628.789
1586.693
1498.703
2330.636
5030.254
5122.585
8343.151
7861.848
8207.122
16810.892
16297.406
23638.632
51882.731
77163.444
71435.004
157105.404
151485.706
151516.374
309689.330
470241.514
428171.646
1005712.231
1355097.617
2887507.997
4441638.035
10915585.083
10772843.113
14958711.978
33933252.233
33042088.463
34214197.522
31916122.497
49902213.109
53566626.796
84041032.874
203916327.486
314904644.127
675246120.168
1002760876.510
2023384334.910
3055226569.456
2807307380.879
2665268562.959
2889215177.498
5936419790.182
6329864550.733
10091741539.126
10207122037.054
9639708714.019
20894338844.990
29026540015.778
72033964886.122
66122379368.397
69231203039.323
63351485486.019
62326157301.233
63892369895.872
60473188244.592
62507013409.141
131623992270.588
187807694516.148
428013037966.355
596053767525.485
1243629261527.380
1140955481390.822
1083701093761.463
976028135226.279
2021817638091.371
3235947151901.887
6948157036283.991
6528470653461.900
13422152455146.586
12547175939186.271
11492277278512.836
22875519711645.137
21650140332473.012
21345107506347.359
22564056226896.434
24674760501221.172
23191955571378.289
21674486922086.875
22380130558292.453
23651796557094.914
23935616417957.793
21818306514702.715
21472356346747.090
19531864936621.191
19431667240391.535
20383536865302.316
24106068672613.863
20866572805412.195
32701257609584.898
43519268491069.906
40967618658796.930
46372030448679.523
38023451747551.328
20588760075565.234
41333409913516.633
82186777435107.141
83724662281909.875
107933354834235.297
233093288487010.594
230824576281842.062
205875406098615.438
111907400925558.188
231208593220589.781
130737870239190.578
183024392295635.750
391124623139343.375
204806738446336.875
191043565784868.000
244666232222677.250
178639428714463.594
265731644389814.438
266096248224720.688
198217784741038.219
437511888545700.562
661645023684605.500
383619598807840.312
212253007724196.781
339225458027092.938
395018923721771.625
458763115241319.062
390205245839661.688
224106759864312.375
115914102477024.203
241136006120721.312
199586431595237.031
224224064860249.000
245927170986124.500
264090484064791.531
255656514243665.375
132122305084138.484
176618463404520.688
242729498119521.625
130856003053527.375
110658153190377.672
60378825116711.414
75861538787717.953
68472598840061.273
60748237845668.047
141829868293859.938
217313363981702.094
206949268100979.031
265039908830870.969
249127639251535.969
182662623692934.219
459053854063578.500
692182831494897.500
346482638347897.500
415183132072076.000
230188435494049.031
461522806719663.188
462328787363248.062
691957819062907.250
1060068651141856.750
1079052414795711.750
1099574893778309.375
2317039373659058.500
1839219419710378.500
2669704293975293.000
1503634014830000.500
791224966527711.750
469022264256392.500
738077790798574.125
1174933387625189.250
1065954542608966.125
607598069623784.750
679931810975718.125
772991841643896.375
751446999370550.625
420109685714740.312
674521157091109.125
707039502819526.625
553752115221611.812
596507544394501.000
1239839297065712.250
2492629774218208.500
3728073032175079.000
8887826828925106.000
8794231795626792.000
13662120243338302.000
18896638867730484.000
42700357456450552.000
39451149193048720.000
43836113254220872.000
41437247162193744.000
37906738139793576.000
38971148206815552.000
48552066213316904.000
42542208196853408.000
50039521505659656.000
26228474114616672.000
25215135902990376.000
13547704853434034.000
7558579268776013.000
11807980111142850.000
14758765477853662.000
12754531221421064.000
13075585404575616.000
11344039465161820.000
15205570828901292.000
20045894800327216.000
27062581747916752.000
38958664706971416.000
21324853245812676.000
49462877394659864.000
35362054130430168.000
21211141058671888.000
21640272130871672.000
49120975629913224.000
38158743421855688.000
19050619325642912.000
26103435515015512.000
37166365152320408.000
22523668888110552.000
12729681643490140.000
7602730552562712.000
11406730310636190.000
11921459034524200.000
14617132156894782.000
7799219646993321.000
4412850389368221.500
3931676582869381.500
8412299532080498.000
7990886934866265.000
7225496181613388.000
4358303420167564.500
3522394099646421.000
8660618674547321.000
13301523153821834.000
20872588075467912.000
51339984758316656.000
36419867310940032.000
51795292089310968.000
69038789029704632.000
86459107311039360.000
87069007625335824.000
65665997565339256.000
83157504116269984.000
71761922393499648.000
36040022059625112.000
21285214072660196.000
48229784837371304.000
26479517642817944.000
38827636246911256.000
50881978197729096.000
26949960008609720.000
14419402300619958.000
19765160316676936.000
24725036320909268.000
49009061918181352.000
37975719625401720.000
37527248022084976.000
42738179953742056.000
37838164052394744.000
38708003261866128.000
39615479863835192.000
20562805827165412.000
27498014789529548.000
15902738902845294.000
14897332661642046.000
14335255126923888.000
13759447662894190.000
10982698171328240.000
12718039465126374.000
27891678839965188.000
37991279564031808.000
49914551935400800.000
28764013192061756.000
45361612497837968.000
68120940797528600.000
36469014305125032.000
39181008898333776.000
20947522017552536.000
48978657650794488.000
28309844573034432.000
21777754707078436.000
27661058148016812.000
14668907293424952.000
22895987866175640.000
26304839811402564.000
21250779618137076.000
11033385901306942.000
11521967338127098.000
12692424015799552.000
12880703287585732.000
11702405662513372.000
27797622567000516.000
20104800052845496.000
25999741584623192.000
13517226874850752.000
13413281488235706.000
19113497356252452.000
44563498677264312.000
45062894024899272.000
37332627240580280.000
22402749424783380.000
13342335550750520.000
21544306535296980.000
28069870315612084.000
15195563921500194.000
8470643915903640.000
4500291765562367.500
2597400208173987.000
2648068391964229.000
2317758327968541.500
1920934443071772.500
2071375208088231.750
4732148595290771.000
2698902927521171.000
2124067650091147.500
4465554988741922.000
3364371603660508.500
4722003525169821.000
4822900298403024.000
6535688106596327.000
14695913954309716.000
13300115260947890.000
27841465199036320.000
20945567648233644.000
23115961325610744.000
47305737416617056.000
28467423516382140.000
24259336438120364.000
36520336062482856.000
51367983168088504.000
50744589467645296.000
40696133843508808.000
33981949161831420.000
48834604732088856.000
28512395069165060.000
15692574723042412.000
12914526380181404.000
7786429303493942.000
4103195555084441.500
2295098574308484.000
2258678703841444.500
1955398541836645.500
1113740559664953.125
1487489636101727.250
1797318051248253.750
3983998331796835.000
4636167001625443.000
7450953521536154.000
4025645882246026.500
4604021690478868.000
6952536314939005.000
10366611098512954.000
13904942863995852.000
11039378278735294.000
5827903824429410.000
7857781294149446.000
7238200065425375.000
3995268805297300.000
3557773558543638.500
7883845237830300.000
7577912012988207.000
10869638359855992.000
13915172688946710.000
27610108259187204.000
44072430888887072.000
41289008151104488.000
63994000107822520.000
36666839294520440.000
47392790308910544.000
41889492220803056.000
50057668268624576.000
40303746906039016.000
62536251590899032.000
37097270720799864.000
49886765232678584.000
73377141517457104.000
166535657755686688.000
207478106556252992.000
120549300409917104.000
247568836344504544.000
131189868214884464.000
110486789390575040.000
118470644766916368.000
166970999700457312.000
118239192469132352.000
165111072290947488.000
208765119256098240.000
205067782224326080.000
227108250715342464.000
511649412613425984.000
726451531124426112.000
937968510742830848.000
508838571505387712.000
461771627821394624.000
485389858652556736.000
504927970742568128.000
293954457658624896.000
251252855881832928.000
275969521424974688.000
247824216686047968.000
368435515135900160.000
816342026259020288.000
492931139485442304.000
394650304465360832.000
934204561533667200.000
881207382797920256.000
1141227355546828800.000
1288518365975502848.000
1333782926524285952.000
721306318520653568.000
962600770080814464.000
1439740792474019328.000
830105485755736320.000
804810283936095360.000
694338282827338240.000
872879095040181120.000
702096322968971648.000
383556699194279872.000
864460985447637120.000
469810669126173184.000
236738154146471968.000
274799285220628416.000
140014824661715152.000
79589085680134800.000
120653151410523184.000
163739872195435552.000
240055074980869152.000
137588612850115200.000
155835775432127648.000
136281786445328784.000
144921290926147712.000
87925762759130224.000
50669277120822304.000
39855749738960888.000
41118884388644976.000
62290189835562480.000
38590934517382344.000
42125614172709728.000
86452446216069712.000
134769791579544208.000
285196224811201536.000
203836318554164640.000
492174455362581888.000
350568170692579712.000
397739816073235008.000
474659477925755840.000
274354706375993088.000
200360506497788640.000
429336294006716800.000
243061959437398144.000
145354214689937664.000
163570413368476576.000
119943083973617424.000
70267098617441784.000
143175671131291008.000
119139904435183984.000
121387158916226368.000
290336788112795328.000
194219781049863776.000
115954746345739248.000
260889536184100416.000
157149974958208896.000
82805658544637776.000
59098273074304896.000
91953668176820448.000
144236209923514080.000
129838972160654352.000
121990330498926288.000
165402024443461056.000
113994606875472336.000
161042279181323872.000
115800493467776752.000
70288909689875816.000
69713418107850896.000
35028222250644872.000
19263350061503952.000
25171202332550016.000
22276002521166728.000
22479610130339220.000
13785445888736674.000
13298404522505688.000
7142293583877825.000
7404695286166476.000
8419051597690804.000
4803339474993354.000
2591117467665683.500
1882566084344335.250
3959883588235291.500
5985814750108969.000
3198127136200518.500
1936541333690041.000
2428012143229714.500
2534093001014544.500
2008329602838524.250
2173364806949569.750
4419598210790409.000
6018255022176017.000
8220254149698014.000
13261068055834992.000
7631432247971177.000
6198865171305415.000
8603255426791421.000
13658847937173672.000
11916904649822460.000
15553210700651004.000
18457370852503632.000
23219601074062956.000
22073307060330312.000
21278871742879972.000
32821372661465428.000
38452387929195320.000
21580197680722048.000
21969907983955804.000
23611076403468412.000
13823179566764660.000
12424952674047598.000
10826259992783176.000
22586518228177076.000
26688377122370048.000
42543890115724688.000
85708612955969104.000
49274451569738368.000
58837562934498376.000
147472479077922400.000
86469164909955760.000
74858507042335664.000
62384575353999128.000
162601681010371712.000
121456301279487760.000
69501303024023912.000
109590411099432208.000
121200773065747120.000
271740391973743744.000
155029839039440960.000
218125240591596672.000
275922372680018272.000
358489254697448832.000
786513556696208128.000
473400570971201664.000
239584092911498272.000
124626867371056992.000
143051329221463648.000
77933307196145312.000
40994060828045264.000
25149684763595096.000
13030317105022318.000
19225603680514284.000
23396164604635344.000
25899469743660500.000
34247422365963216.000
34039737689095888.000
19895167822376796.000
23613014021814324.000
49873112472838208.000
26523353530145200.000
14729969775863042.000
20890348493933792.000
17835219727871318.000
23243937900602260.000
23595807687012288.000
18092256875294456.000
46441789017613960.000
45947459989312528.000
25030601806825980.000
20167126548691164.000
26337874291607856.000
19560666070015920.000
18070751438741796.000
24215357886967776.000
19646515163352544.000
24123328469099528.000
13355898475731744.000
13745746941647080.000
17536663071036680.000
45533201019420648.000
42713615491404784.000
22186855928801220.000
27612230128694412.000
26952825418033440.000
36988690290154680.000
76447909576664592.000
119032868962463184.000
269569831629725920.000
203854716821748000.000
516291019345285440.000
504262486424877888.000
332199208647455872.000
418977548728330752.000
372393038515771392.000
353811192701827840.000
395894965102883968.000
213716771486154336.000
336502596413011840.000
509165738524220608.000
638882595453098112.000
927532499999972992.000
692039859135355776.000
382515903319394112.000
518305051035889024.000
722839734748713472.000
410584929200701120.000
479543465750327552.000
243895490110937248.000
208432505150535200.000
250811622745041280.000
206035868071249920.000
126992326811441008.000
277299406352944064.000
439997323522975744.000
494507166214781376.000
414360477585752384.000
430968938675853056.000
909315354690783872.000
1142239265084493824.000
2779065493151025152.000
2363607417152783360.000
1301116686226560000.000
1568481196051892480.000
808192965491168000.000
668540025844155264.000
810492940968797568.000
845116825826717952.000
711012820112662656.000
912627338782097280.000
1323213765041423104.000
1581189347225332224.000
877105069284666880.000
736165712989367168.000
395027076752582976.000
827674845512081408.000
448649745549531968.000
619228846418331264.000
925123505438574976.000
1435546007580498688.000
716642214267522048.000
403696011635776832.000
466784679771867264.000
381683597215208448.000
370836565542935616.000
413808499484467840.000
370175896078082752.000
199727970832745376.000
439450934751842688.000
604921714269723264.000
1266959204477438208.000
2763381030083592192.000
1460951606859664128.000
1173196659901566208.000
1461141524772554240.000
879046840877150208.000
1318515682453552896.000
1307629990440236544.000
764263555247183360.000
452397522831192576.000
910356396777730432.000
1369265744541399296.000
814221349624095488.000
622549596932916736.000
951929369201552256.000
1307617009801812224.000
746688838225858048.000
661478967597476608.000
1527611891233527296.000
2111571803895346944.000
1125892638378735232.000
1385807363905871872.000
1224306736059046912.000
2938081567681196032.000
2202528572828440064.000
1200671276919505664.000
1362188889300469760.000
2748046287358701568.000
5473042421958705152.000
4758340395913119744.000
2498771765335650816.000
3980653765992915968.000
8064317279203636224.000
4086138754585853952.000
9192080076442246144.000
7886377613110286336.000
4167311718220708352.000
5085369710422840320.000
2947836293489320448.000
2385115010217867776.000
1179162177078301184.000
1267802196829695232.000
1649335621595065600.000
843757123262754944.000
426501257567013888.000
874541442221475712.000
1343121390031768320.000
3086437176717513728.000
1634624245316535040.000
942370568846794880.000
483452014400501888.000
282729797605206272.000
247809113267673216.000
251739217603153728.000
135599375870291264.000
73711156875181584.000
77388542854862448.000
87257163827686496.000
142211800627498720.000
107611950682510032.000
144840433815033184.000
84609025919138400.000
114224259402615248.000
63800150843070000.000
36112100321500320.000
50503664521667544.000
33980810845835412.000
37324402177665256.000
21720769631051244.000
24406375633568892.000
19332218832342824.000
24100563678159336.000
33672592099382140.000
50142311599414912.000
80305617718971584.000
62132629419101328.000
36181931976289304.000
74681124821989552.000
39191554489754592.000
22915702329193192.000
18717106222941396.000
22914776752477372.000
50556452890884264.000
41663002975469240.000
66137093655360048.000
36971144807152944.000
40043236653418800.000
22661690393845368.000
27075680737935184.000
14486420800244302.000
18911847476495456.000
47394312504947624.000
25534875029613120.000
14385931422632858.000
19592508238204696.000
40430580802370848.000
44229552580197152.000
90788939491040032.000
80983265031016576.000
44146633204327152.000
24966520223262176.000
19268386500991452.000
21623866678937120.000
13053687537105420.000
14521841234233366.000
14470302389004342.000
7495795934974239.000
15512022308333604.000
23504422955858556.000
24898593904145376.000
13648119149650486.000
10880668487601824.000
22869452435914372.000
12393618813286130.000
14226890115255492.000
12836354538686930.000
27239650595388020.000
13923867518002836.000
7005406584434855.000
8005481034869914.000
8502805159758781.000
6240067019075732.000
7418546249759655.000
6270406734821481.000
3452057767815526.000
7804535056393279.000
8732375135781792.000
7551352558061154.000
6552300647553216.000
3588791124748033.000
3827384756466522.500
2234677088305307.250
2637445971820530.000
3307786351216420.000
3900572485164159.500
2357482583075628.500
4939174835969249.000
4386119874613846.500
4521873413069747.000
3303064863480380.000
3647733211832445.000
3991845632613737.000
3307234921119251.000
8339514982716777.000
12213125430392744.000
10651717862182638.000
6118386612829982.000
7777000445726106.000
8232605798021568.000
7963322219654921.000
11957858953083772.000
27709019174005548.000
15202757049026870.000
20257635648151308.000
20861328417520432.000
46234878110009848.000
70478197335808320.000
42382797149312384.000
22515179309350972.000
18918406841344720.000
11695208800621524.000
27234141186570408.000
15685472246824720.000
19976419111051212.000
21566228562480332.000
24733952703520992.000
14063491182303024.000
22433614758219080.000
34825158247933168.000
48774179797539688.000
38005982028442576.000
21791549269782384.000
27289126560922564.000
23725714226908980.000
20514962257039824.000
27450090947783620.000
28730309312386792.000
23638137993414072.000
47432123615923648.000
48824756904822176.000
35660769762740840.000
41609027502971088.000
51963470660818800.000
39270108481071672.000
48453046770684192.000
68129826672788760.000
69175754424698128.000
151035926561998592.000
129752782349017424.000
115651764790318320.000
157524191970572992.000
143129857170171136.000
227272003953378176.000
237752106874279648.000
131815001460014752.000
76851526946020000.000
110747634058627952.000
149759515046925792.000
80251618173852192.000
129463253933586144.000
263836924855431264.000
220652421496646720.000
243892126304770560.000
249159277610241600.000
285684237226766720.000
363517820228833152.000
748413902591179776.000
381873949315298624.000
476929317406787456.000
955746315704004352.000
1520421462796430592.000
798616622218352768.000
458533183022938688.000
953963073165591808.000
825041072685540864.000
970750248174435328.000
878653874060401920.000
1249521904805091328.000
3035642691690642944.000
2181235097912190976.000
4857516459544066048.000
5518072560494144512.000
3020952180611819520.000
2396555030103158784.000
3804616407527110144.000
2146297344140265984.000
3083020091699059712.000
1685725762498754816.000
1411719155576452608.000
1350431612648293120.000
3007343149463829504.000
4147876511712572928.000
5256213178070769664.000
2663364128193131008.000
2330152594208228864.000
2524912512178330624.000
2127690971503215360.000
2574846812920421376.000
3948104677895116288.000
5270754802918427648.000
7386508129608057856.000
16260762430180016128.000
12258146552415754240.000
16850968060092059648.000
14168817132415473664.000
16225519823476672512.000
15102344338316902400.000
8033697911707278336.000
7469133900506997760.000
16367821719665756160.000
9239769838199156736.000
8093951159062824960.000
8451406447008912384.000
7086716246597303296.000
7362448588969208832.000
9034838342414466048.000
7169897431463700480.000
16951007768364228608.000
24992534385382150144.000
12412953247713542144.000
30814971759799709696.000
23262406807070834688.000
22896375651347529728.000
29911694502615584768.000
43085000534769926144.000
23813267597616869376.000
48090654136041709568.000
27893688531624476672.000
22658424272222773248.000
26376015090070994944.000
32294595196537065472.000
29531686701957185536.000
22645229431433252864.000
30823645420089200640.000
17826113117090865152.000
13092533643239720960.000
31343057947519578112.000
24394658920954519552.000
13033183444834504704.000
12619701485071089664.000
15166001674673115136.000
17021531615843450880.000
9455134901919633408.000
7804155176046571520.000
9829054708083349504.000
7566620474385133568.000
17121439793464279040.000
9775105318072088576.000
8759244001532758016.000
13963257978616848384.000
8604315308318102528.000
4318378007367469568.000
5007629146581044224.000
4768109918714396672.000
5058968679911725056.000
5066720577235507200.000
2908931370637989888.000
2278805494655945728.000
5024181163539701760.000
4063527540101089792.000
5079340465866423296.000
2603531036184595968.000
4176106508174284800.000
8524050604439182336.000
7361194743185768448.000
4223206948815814656.000
2555150619484470784.000
2288251035796849152.000
1282274638493754368.000
1613346337345840384.000
955438753225132032.000
1178641917015849984.000
2992357017446404096.000
2111029250719395840.000
2917164745037868032.000
2399971946340091904.000
2929230414415069184.000
2322749827272228352.000
3119997284940723200.000
2810528659387764736.000
2472743970653877248.000
1272095816132574720.000
1152582643606023296.000
1588347478607155712.000
1214500960611288832.000
2862076425648993792.000
2548375339423060480.000
2459607840927990784.000
2076946218340221952.000
2244948519692465664.000
2631339829155836416.000
2315233039055250432.000
3052729784525496320.000
3839648556375989248.000
2339771140401098752.000
2416633048427787264.000
2871477213029819904.000
2497024665918077440.000
3177819678005074944.000
2867038555826722304.000
2488494559812227072.000
1390445131256327168.000
1671765346098193920.000
949172503292398720.000
734643167938683520.000
364082261062838592.000
808658707135032832.000
1245304127445991168.000
2534319999008254976.000
1476319200850107392.000
2065237216508122112.000
2699441391038716416.000
5626047442927384576.000
4287511277233001472.000
4013688619180471296.000
5579469072767628288.000
2840432687056539648.000
1693850216327241216.000
1465569363076231424.000
1563108093519455488.000
1300550379129296384.000
674095610422681088.000
691617455237239808.000
905223659185515520.000
478478758646682752.000
712395012329807488.000
419588067900683776.000
465797558828335360.000
259668338026888160.000
292965259803220928.000
150998228535167040.000
139061313209697648.000
159700103092518656.000
143373175974118896.000
296540206996082240.000
151790510509907680.000
90515507485734928.000
47435041197099552.000
64057934258525976.000
155026002713297440.000
82600144468445536.000
48187043527379704.000
61613210583399496.000
77139040885436752.000
43057803597279712.000
22784260803566208.000
25671799051108896.000
38176300315055536.000
47174985182653568.000
34603609096121992.000
71369381869985376.000
78872980212629904.000
64721186105326400.000
145798522180340736.000
159035515613000640.000
203006382498822208.000
211119532612712608.000
244208227651357728.000
214186328616078336.000
124314259351485392.000
73803568007644544.000
67683039773565960.000
87781404248456080.000
78366192116769360.000
43225240569576544.000
88953110092258032.000
139140600531648864.000
287784141320928736.000
461625080374537216.000
412325096072932288.000
923275908103564928.000
771254269483949568.000
967485641984323200.000
807579388715059712.000
466528626701475200.000
240655583116825824.000
137665910348774992.000
72497656280732800.000
83218197160870080.000
66230893504150392.000
36074216605569984.000
86079540337323840.000
118173993469571712.000
167499628712941440.000
88467322432141088.000
65514252272332104.000
37131933151123112.000
89595549007350208.000
64691853698065832.000
65042266948660240.000
84569686201009456.000
65165554603569040.000
83604553504954400.000
68311890244565040.000
141428312833890624.000
132809447648734096.000
116329054680702448.000
60673322620878432.000
71257094232127488.000
86059265963138832.000
48315610684863808.000
51709006913349648.000
42012839904120024.000
91933284785096768.000
78516769405939088.000
84615528564830848.000
75749037774861472.000
39323111430732416.000
22963394234008756.000
24238140874439332.000
12366462198229682.000
6454783603938965.000
8302041356113838.000
4563399517271038.000
4796022421085029.000
2445158982231574.500
3343233097501401.000
7030644276276662.000
3602915285818656.000
3363794824981259.500
1999418545385980.500
4451294956139785.000
7134231071240458.000
3870138064930762.500
7795454216854439.000
6885583884586013.000
7348749716942673.000
7816834411332961.000
11827944301629244.000
14411363297846930.000
15221669797891250.000
14256422034682928.000
10935479593626714.000
15810667326138022.000
12233103290864486.000
12110880326548404.000
26547340901799192.000
27101791564551924.000
24081744299572680.000
27882166775453196.000
41754709147824768.000
86684729291609856.000
45802404459615192.000
34547422020432136.000
35991365192878996.000
73018514356798592.000
42897999625333944.000
48541290270169856.000
25994639668707640.000
20379869374224956.000
24250415747690888.000
39096035533043824.000
19273670400685476.000
22006260822108772.000
45453152675493192.000
22988062923663300.000
22010063314987732.000
13247651758576346.000
11640792197421042.000
23612528504327836.000
25171850164896992.000
35996864730114788.000
44069029099540384.000
25486789696815196.000
24592608531869064.000
12702074590461786.000
15862908042910830.000
10615241620929046.000
14711944911634168.000
10962731613084762.000
14847048806476922.000
12850098139040048.000
15603574373437408.000
10849331269826908.000
10452023843203164.000
10714097920744080.000
25797464304019008.000
25350529575006412.000
20414677788206016.000
12033009107373870.000
11408903985257996.000
6986195304750829.000
4178102873116805.000
2329050039108031.000
2302160636407956.000
1284485531244404.250
1777485954571345.500
2078666253206123.500
1153977829622736.750
1831396611732314.000
2125221514527289.000
2684616989436666.500
1798048523900582.000
2147796807960799.000
1890399186989778.500
4410774290622901.500
2434453932658996.500
2264723326100670.500
1329156231641601.000
1093359942383549.375
1084224334289333.375
2680818074806653.500
2402368889565053.500
1443190805317074.500
847793860185469.250
1150344070364944.250
1285280044918038.000
1375225236043607.750
1469325307417060.500
1457438019767135.250
2328443111162925.000
2115033088931869.500
1154408920286316.250
2470487483741970.500
3984955995390271.500
3753076871290790.000
3325131486657126.000
4133810096216121.500
6234138217516059.000
5799533800606127.000
15502969463232650.000
8710890016789181.000
7522634918023937.000
15160252041875488.000
13379613400797940.000
7706927932162418.000
11141874293143210.000
27005806211947232.000
15658817457743192.000
13345519629536168.000
19478760818775260.000
39866655305269160.000
21546401027553264.000
12521592116055292.000
14818205813072654.000
14048796365608906.000
10461874742680086.000
21562199586451140.000
24196554828428296.000
14025746820419464.000
7823630143358445.000
8664708990119316.000
11943473750812154.000
13310768899769980.000
14375087663289270.000
11432844697683192.000
12292451168355000.000
7044123149695812.000
7596164991742104.000
6160029644866038.000
3481477488284494.500
3953838105632521.000
8290532837417827.000
4282615714691569.500
3470752181674073.000
7311888360358940.000
7422856180618099.000
11539947760283514.000
6323293655429266.000
7736443232930722.000
7234329574105319.000
6147843398835809.000
7034922411555464.000
14077430110630630.000
28435923734318780.000
36088347435482568.000
49134438066115144.000
35808883411307284.000
47422197386765784.000
37821014687174184.000
51814690598925488.000
33980916276404124.000
20750655282364436.000
12647695528952644.000
13818197954518476.000
18883895666799472.000
21368724156646736.000
20903415428912680.000
12797605250650234.000
25749224663836444.000
34836275317658400.000
81571013728778224.000
167025288719788544.000
242567112744554688.000
259502972435607456.000
267827196094315040.000
302150701108814400.000
258626128580129184.000
394848015567408768.000
459856692648771392.000
520854725196569216.000
385314292082979840.000
199578426707423520.000
292168369612943552.000
156634657784416960.000
115457074988475968.000
120348824786576032.000
121919086292964304.000
295246736780195328.000
247360182199946144.000
264201194005416992.000
229849720710866432.000
126134686922215888.000
293225987874564800.000
375391524951928000.000
464292398623193664.000
358757197257463424.000
363888422411418688.000
374982189942217280.000
936160077089708160.000
506401494463625024.000
509270556208772352.000
812343224509649920.000
964880356431602688.000
693672109117019136.000
754717476188902912.000
894572090600211328.000
655352385996948096.000
356710953124046144.000
737402014428291456.000
898841226762146048.000
922455713520738432.000
760163065607074688.000
665236361692390144.000
849744532219249792.000
1735686558833687808.000
1371013483914620928.000
1705496967699165696.000
2763984817907219456.000
3080716341667724800.000
2723594661092772352.000
2097868319127018496.000
5143870584525066240.000
7978413739197456384.000
9657529182693715968.000
12215887286811871232.000
7028659156501445632.000
9115658947826777088.000
7940811637642668032.000
17202665810293291008.000
27213500641541451776.000
32774885202925809664.000
25678195373214851072.000
29621943922394906624.000
43280661955645022208.000
22726587565943365632.000
53498104127232802816.000
56175595192163131392.000
58867349328114540544.000
52650169720850079744.000
82937890911450808320.000
72147135202171731968.000
42018053975719043072.000
86834216531897073664.000
77347231347843203072.000
87991604362628726784.000
87578410598687260672.000
51736168104677064704.000
50667845540291305472.000
30131527354505859072.000
28743012399217594368.000
16038533422769483776.000
8959170833548847104.000
6797233252017991680.000
8291641857638528000.000
4803400703048753152.000
4253976349333028352.000
2527593045004897792.000
1306502062965277440.000
1541433268236750592.000
937443153712536448.000
745172647550119552.000
790328101619072768.000
1261286556757658624.000
2629438865828992000.000
3145974058527999488.000
2257685845274029824.000
2403214718405377024.000
5693358370222373888.000
4961868511761102848.000
4268812706516601344.000
5278930957236830208.000
2963791968194900480.000
1729260608697436416.000
1755509683838825472.000
2802944260498413568.000
2219839300485048320.000
2666229529252578304.000
2289972799204472832.000
2965279124092707328.000
2566884981921465856.000
2876267362015739392.000
2789858500879625216.000
2447769318512289792.000
3730355698044407808.000
5018439405084794880.000
4866816247678198784.000
5294606884333897728.000
2999624780918902784.000
1573492238890547712.000
1498564255259359488.000
755912461254624768.000
704314437480968704.000
884535961488729088.000
729332829171864448.000
433573159061565760.000
229428196422425632.000
225009244966993248.000
357600067981746496.000
215235331455848640.000
439709860147892928.000
479879464807230464.000
257662762032988416.000
135460401799037824.000
111530598321799584.000
122874675196229056.000
63044201442635832.000
92973828590938160.000
135579021775875504.000
109889624799106288.000
138702506712917248.000
301080281501070784.000
239910498649000960.000
275002877378656352.000
198098585372498528.000
122071972626460592.000
68372472064604472.000
40603706472779008.000
24662963826985752.000
22184552133198500.000
11452077747338426.000
15884323133306030.000
11696811900862026.000
15925412364162702.000
14024990688122268.000
11564742431647330.000
27537998434338824.000
15767849006054682.000
8301104778945773.000
4551539674502559.000
3940582996058935.000
2353577387136541.500
1268887744730949.500
710439797870672.750
587106213961330.250
558761632487517.250
731349474701951.875
695769237115763.500
1480410759523980.250
1149886398194704.250
1399341021609446.250
1256496858416947.000
1177884894251108.250
1459546086922977.000
1065872675986320.875
584043387801975.875
569214911818656.375
1225089146972065.000
1102754815916164.875
1219322289016203.000
2442613107470411.500
2451245532753899.000
2590713992949782.000
2087707713840196.750
2720478427118057.000
2727827844407905.500
1899036660127829.250
2066209227963173.250
2174950005751549.000
1242208143564492.500
1945907875518119.250
2578630685028892.000
3955647860341654.000
2073408690949662.750
2697409419820070.500
1939298240557605.500
2225558070855844.250
2187102728455641.500
2594341909781812.500
1786200606884566.500
2251425835534483.000
1348626289554999.250
2703002572195590.000
4238393260235704.500
8466278939867904.000
6030664970676457.000
3348588372216352.000
4684839515114962.000
3459536466541419.500
2012525502296124.750
1014185638463435.375
551226587803268.500
1339611866797249.500
676427909562477.125
348359630414732.875
402283122228492.438
819237273851473.500
1258713931074937.000
1128676532535697.250
1088782726237300.375
2409715503258658.000
3245939709402757.000
8072588389977583.000
6742732586800459.000
3591622011364350.000
8123707886261726.000
13014198735399268.000
12506192279525370.000
6822362344368603.000
10646966810591760.000
12572348582176108.000
28449704424076008.000
44738449125305560.000
60591066955626896.000
71656560308160736.000
154943340872765056.000
152598588393056032.000
117700704554511536.000
69219304415227816.000
41144058379875888.000
20544197102222660.000
11357632434642270.000
13062336688592240.000
7260126731634362.000
8825858414607813.000
8894306255454191.000
12831178320933708.000
27291662187152172.000
43175829550352320.000
22964650754605144.000
23809619299460480.000
13114898798415362.000
11344390953547176.000
6560137630230880.000
8704043611835082.000
7858761685155865.000
6379146893777127.000
13345418388254808.000
12707416684104614.000
11627848016232020.000
13646349942932604.000
14893315359289750.000
13996848133464534.000
14802849385212978.000
10913057948901376.000
23148934038142040.000
13519577837096288.000
28083168370178468.000
15993627185169330.000
12673026345711302.000
15711684048503220.000
11262827455467576.000
24799967243019368.000
14697440701829102.000
12168879939542768.000
13385623346487174.000
12777952391140560.000
14700048247209288.000
19833781839470428.000
41900595613364888.000
21441216854711928.000
44184810874557264.000
60604269127465008.000
92763644127456624.000
64449144620377656.000
67979416963954944.000
78828266032139168.000
125650875275043568.000
138826922316620400.000
206748850113997696.000
297420992829075136.000
270898266936788704.000
213539558038537440.000
216101605084906144.000
134159480745348624.000
166158881446038624.000
150669035446221088.000
162045331232420896.000
85630465737183376.000
48233706838964512.000
27937572103656204.000
27887624287388640.000
15098424326529224.000
8050540944419708.000
4227368212044865.000
2126876152085934.250
2191767148232363.750
1117303994711697.500
1356300612989043.500
2093031955367757.500
3232741198803590.000
8906887510255087.000
6112450567916737.000
13203304119450696.000
18872812112002168.000
23956995587102912.000
14190523223342248.000
7989757724943196.000
7761235875411899.000
7112022958180884.000
8657281282115022.000
7741675785965590.000
6293694381369398.000
3824981277229023.500
5779130843945527.000
7004666631798838.000
4273477930260610.500
4403012271382515.000
5944262718003710.000
3586850400004566.000
4395626625856891.500
2589304320853494.000
2290126678471006.000
1361890203602578.250
1129481141403645.000
632654649985284.875
691992302361981.000
398915600716185.062
811000377452863.625
1021168830276939.000
2676278619860682.000
3728087132185929.000
4605402931615280.000
7150570615709863.000
8380496987968317.000
11891706828715036.000
6117485962718107.000
3236726579948855.500
3739554453129956.000
8130988610387287.000
7472217696854280.000
7882390422186458.000
4731220891306878.000
4763425650814644.000
3376785880315484.500
4902713966261032.000
4442201333228832.500
3489016057092844.500
3789196943406570.000
7652876353223261.000
6345132448052613.000
15181640829088986.000
14095810060962006.000
20542896880678412.000
27779983814611112.000
20713219971842136.000
43409027315910760.000
34708455939609296.000
36957540793697976.000
42057153373945336.000
49194028706015480.000
24956311572251176.000
22134732368008120.000
21916990234147780.000
26988109642098408.000
33861527614543428.000
82050310262746672.000
49235367266775880.000
27632372253697020.000
21802943042607296.000
21863970133352856.000
11094304537004760.000
15617568106148898.000
8762764523967187.000
6943540991225836.000
15410039975436284.000
10963387021917562.000
14505415066022574.000
19435245486271488.000
24003966855379536.000
14617282487437696.000
8574105479499094.000
6927872251860445.000
6944153870737407.000
14227807961388820.000
11159461257379970.000
14664788077371564.000
13783683939835728.000
12429540387486416.000
12647909231059014.000
20131474052823996.000
19271359732168104.000
20176811745878000.000
50798658401959304.000
80696005279734656.000
74108825089026224.000
153749696404680800.000
140797727011080256.000
76992355343854176.000
66450494934179472.000
37641413406767696.000
20134727288702376.000
23279275468948968.000
19819638412832868.000
27888554561512212.000
15288550492122994.000
23787744926047128.000
34191284198423532.000
84274785504393456.000
136051148310564016.000
75671814203351232.000
64323187890175840.000
90453661935825312.000
141535528283031296.000
72833257760868672.000
36972914685462800.000
76469520596049008.000
82731387205982432.000
71219029032737480.000
70077121915108160.000
91857459547230288.000
88605260958950992.000
48067371582203464.000
51751372385433960.000
44026787409346752.000
69251062657857440.000
152710302878123520.000
210492655695871776.000
130428504948357904.000
113340515271213168.000
152913300905518464.000
82256378976597600.000
65048689347064936.000
74936264098371904.000
90206894545030160.000
79177509040599520.000
113856108108483408.000
302601686262486464.000
237184629216265696.000
203294056136557920.000
218746156379210656.000
229249756858271360.000
203786022182170368.000
209123982903370944.000
266939620030523136.000
299687204689383936.000
234418797687897568.000
297834006424872128.000
395306318360857472.000
221592724307272704.000
118963964962816592.000
143250447867484096.000
148030198464754848.000
109775424280186592.000
154861312669453888.000
130781711218570080.000
69252691263345704.000
41698830242015160.000
45968711003590968.000
34699845727328020.000
49272419393559136.000
47825126517274512.000
34788536584212744.000
89777631626173632.000
50526226798968128.000
44905360766329472.000
34396950160871848.000
35159881715651808.000
90869337643681344.000
77825388038228752.000
117082096400728768.000
123668887742384816.000
65577398825237448.000
142729718679385776.000
110753614269826672.000
68066939206412224.000
39601765881512232.000
20901458687639804.000
28271980428828004.000
19400651500988172.000
19528187794494128.000
48648215689399928.000
27022488452535636.000
42311096416750720.000
34581470861328580.000
44717616155731368.000
51436504914535672.000
81363934175888640.000
120018078262335776.000
297762783139900608.000
222617873412454272.000
232672116467349216.000
209875527513984768.000
239098169922735104.000
292812776647501888.000
280376177356482176.000
143284679151196240.000
219205163230739104.000
204445478309896864.000
246277548040102368.000
355184351669829952.000
792868012531259648.000
669382792582377216.000
410549147180868224.000
220805837004536512.000
443921748953450496.000
222201091365719808.000
116306007112885632.000
131108749853208688.000
76340741607670256.000
168339597227790336.000
87882913197437520.000
62260739454046088.000
74983917231161232.000
161873995417596448.000
207027453446473632.000
246558788844805664.000
367174857344083776.000
225254843160562208.000
244498458962444352.000
123665389385410784.000
135681125608287712.000
272275432136591808.000
274955311893644768.000
144651075325980416.000
77983388347974976.000
92924025364673472.000
51278834786451128.000
70924197538413248.000
43764556091520776.000
25348227855150904.000
27420462043743780.000
23054589795774216.000
13292047944356372.000
14735723836310468.000
11427487416230152.000
14090522759744610.000
10899241128433228.000
12456555158585584.000
15465573019798826.000
23336990922198860.000
47387481122883584.000
47888314068830696.000
73506449711907136.000
88288436568706864.000
49368988312644984.000
26438121515465136.000
21239097883273636.000
26240161192190348.000
34054508513724560.000
76165083915260352.000
38984488189130664.000
35135041591557196.000
19892184006359700.000
25808307480083956.000
18854207705751220.000
48449689642164760.000
71923928638775736.000
111442809557523600.000
139098613739357440.000
166519699609066528.000
249783293635214592.000
130320010936624096.000
161242777016543776.000
165850253199254400.000
124703059274792016.000
144608661676764480.000
225388099405108288.000
195822247257297952.000
297182816356951936.000
156252757859475616.000
201770800677395328.000
207193937238769952.000
248659015887975936.000
281613924092787616.000
456127812873300416.000
692112651624022400.000
1736010549698969088.000
1562443787143837696.000
883388478985325952.000
1397557476780066816.000
1222720305001801216.000
2565849902928181248.000
3073800640607448576.000
2297061750636050176.000
2709219544673838080.000
2102711173001997568.000
3001418560562064384.000
1567882866316054528.000
1387306854569200128.000
1593491943277881088.000
1494249156802524928.000
1452040006399890176.000
1286131703318380800.000
1452524847561949952.000
1343205045983846144.000
2146074480326695680.000
1286295668466362880.000
1147462758457636224.000
1618081475061421568.000
1286299528015025408.000
744934436090760832.000
882459479202858368.000
932247133613403520.000
1429386721443304704.000
1180359618667919872.000
2630608898157295104.000
5244137844191960064.000
2759426311035889152.000
2750512266755239424.000
3176448567479956480.000
3737021329578845696.000
5330780527635407872.000
2766215124428003840.000
1433951849467847424.000
873803818653767808.000
967657374800645760.000
750505486166109440.000
767824105724979072.000
1621944969607425792.000
1705064754380698112.000
2089730216441679360.000
3133070352287969792.000
2993872426594982400.000
3824450014061527040.000
3731645464414324224.000
2242186984246012928.000
2192385812289580032.000
2862184138852938752.000
2965385105960410624.000
4013386400651523584.000
3919688149674032640.000
2185657390920133376.000
5453806532150537216.000
4005328459815975424.000
4531263203187224064.000
5656406489569881088.000
4518690439814368256.000
2274052540020884736.000
1241044431145739520.000
742122740875416192.000
420894482785665792.000
398420674799305152.000
541693793880303552.000
415600106573199424.000
378198212587316800.000
911626605188378112.000
668485389442643968.000
841141168988321920.000
457513554193075840.000
230146213462219840.000
235039324137124032.000
474952463962092672.000
511007086908830720.000
398672292939137408.000
200421773760375616.000
242582357414827200.000
203785907236090656.000
279402787957733216.000
229024002993585056.000
132546555652116880.000
80005604732095168.000
120981555599297472.000
151526361159603200.000
139746893085756288.000
84824748558915168.000
50856641076745056.000
44544197460685008.000
35712143159589756.000
20190798479078940.000
19397584075149948.000
24002078196712672.000
22555084100713248.000
12506658113301624.000
13951255862615084.000
11708428619010622.000
6166058549799580.000
7081806290840253.000
4120978702260631.500
3728795246347821.500
4424121277655851.000
3228313753080253.500
3671302929262148.000
4873951229575346.000
3707968623217961.000
2220130600690647.250
1149371647056404.500
612699082734149.875
679714413267209.125
566032357162959.750
701453316898736.750
712291411120230.250
732095170673121.625
846387788234896.875
443256661237127.062
423503003086851.875
328120586098417.125
700212001590467.000
1471987939496908.500
1044426195657869.875
1292299862767271.000
1343857049979149.750
1087618418328785.250
2207350447927149.750
2451958735719055.500
1378265785745940.000
798122802388164.625
437262169786425.938
576505575991441.000
1200445667226270.000
1344965214290419.500
808187398225663.500
414921194911117.375
377934773743280.938
811878028314280.375
757208525004083.125
606645812379000.500
