43.805
66.049
144.666
202.798
208.354
466.013
663.486
1402.371
1367.302
1311.157
1979.621
4270.454
3876.239
8707.205
10979.186
24942.024
35192.475
84111.388
81925.236
80854.617
77182.398
80609.194
112249.792
121392.511
123221.780
293728.232
382426.272
905186.992
949114.771
1337809.827
2988953.263
4284545.665
8826545.184
12849507.412
25883523.839
27846016.770
30076965.937
49170922.084
75459342.222
159253292.530
245995325.321
241010057.051
557296098.209
773176028.005
1577713088.854
1673013208.932
2395595767.338
5924655622.334
8482333758.942
9202716926.576
9871896866.136
19913805423.207
27079572330.625
66384408945.005
107035060703.967
173011597890.530
189909620887.225
377344225760.027
386318891533.522
612984732244.416
599112278862.200
600101517066.571
559548012806.639
1190189283818.931
1221124218591.500
1245203278857.693
1785381572404.179
3682558081015.208
3968777688061.095
4074374131090.603
6586594555185.355
6153931541505.188
13374648044270.631
13313682446905.590
13506482231320.943
13562786626283.346
20073117712831.133
19990652391422.504
29645292471254.523
67600861062361.508
68174136176619.828
68973476023360.648
99373137065675.531
209849249240821.406
214005290002092.000
232791972007221.750
252210058627336.406
252307920757829.531
370199550075399.562
751739922748884.750
1047022947089375.000
1034927967980672.750
1002717288399016.750
1076494803749834.000
2399932710484203.500
2502927990445191.000
2410483121681142.500
3331138359802709.500
7473408735691289.000
7630912692009376.000
15198810686385262.000
8794278591581715.000
4684938912140313.000
3573539257282224.000
7748767798932702.000
5966800119866997.000
3404646178495430.500
4391445672626209.500
4055170818771535.500
8489657897312199.000
4837852683885225.000
3741530238744930.000
3912334848667159.000
4448304907556511.500
2334280130028399.000
1858899472789136.250
1092420504585711.250
1525335072147318.750
2298703014578063.000
4538202940298421.000
4362294079185853.500
6665006400707292.000
7849956902046775.000
7659931853629024.000
15121279430246610.000
11558589634328362.000
14741019286849322.000
8477174900112027.000
11536134612681516.000
13792963668731326.000
10847634983674252.000
6612307188940562.000
3286867918465267.500
1833190468954658.500
1036429212660673.250
2463358269230734.000
3296586749100935.000
4938133135406476.000
3646325570036808.000
1991324733339432.750
2327862273629624.000
3277197475226995.500
3709045946623967.000
2114919018608483.250
1855443832199889.250
4811131488803299.000
2641901074710328.500
1815855587030773.500
1064671644092440.500
2255433704971596.500
3644575206393224.500
3216027416701145.500
4658613744101329.000
3361012572913693.000
3905944609279199.000
4539507287458134.000
6901448133623843.000
5877991564748512.000
6492538724892248.000
3903607763713395.000
6253710447289710.000
5859887075401154.000
14399097892535932.000
12356469800505252.000
24563482942840144.000
22701491760720852.000
25070025880765888.000
21119547387153224.000
19996691512510896.000
20505762694242108.000
23334136314194684.000
50504328413257224.000
38677867468067760.000
36442469868550416.000
38008891019815480.000
35352038469588668.000
21178286653935740.000
47066866932457592.000
26143501439710792.000
22268463199147472.000
46072434538229888.000
46467958088832400.000
26469359371790608.000
14695723755222944.000
21472134568339884.000
45853321141689864.000
72002375441243640.000
153000225525899520.000
114847129398929280.000
164301505860261376.000
88266899524057824.000
81904336746294400.000
83523452280825728.000
117021292699754128.000
148921405337672480.000
231848008413298464.000
238542367681900288.000
277427785787861312.000
207866634382416928.000
425935075683238016.000
539831096467569088.000
699227055380340480.000
1629127150352428288.000
1200025555373038848.000
1691300584657959424.000
1265498874310225664.000
1237504524898777088.000
1552812341870611200.000
1610230500882049536.000
1759576337262814720.000
1737373465877790208.000
1204551805554090752.000
2488947623430532096.000
1362038151163838976.000
2777605512818551296.000
2428041852725313536.000
2532452324881103360.000
1292587969735795200.000
759635583138845184.000
415531429733269888.000
451954393122442368.000
266426958699447168.000
152319269644031904.000
152987320910121600.000
85092199473210624.000
43742185762369600.000
24346069647130156.000
22837798219121008.000
19166180561248680.000
22247453559012364.000
11908568968856794.000
25134434228141204.000
22991473044732444.000
34206748105322536.000
72573771673441680.000
38829276284991672.000
19938085627654876.000
25527272746686180.000
15012558260578706.000
14595864806528364.000
8371206984544488.000
5837390211461739.000
7803803510194137.000
7654189816893103.000
3860039123431858.000
4320221259191064.500
6056292499895152.000
3311652040320883.000
7877228401617665.000
4354730033508803.000
2272896716452312.000
1283350162460027.250
1505579176004282.250
1117359877633342.500
1420335431149421.250
1110769183124463.875
566593559484139.250
762550370359068.000
1169160195327821.250
1247136321014301.000
696247734091831.250
727139741107064.375
415132984810110.938
365270464684575.875
405218281201093.500
844949481085880.500
688552080205825.625
620298359212923.750
1384947007740931.000
2237006821794603.000
1816100667542411.250
2478604362942848.000
2159418022702208.500
4303051552566264.500
4270558300033099.500
6103259827121886.000
15074761323539960.000
11162492220860358.000
27489944097792636.000
24627901978362596.000
19703211032955872.000
51829636283416200.000
82315330639680608.000
125176024817610016.000
163753918970701920.000
86535416307146368.000
50404495782289664.000
43243179315588776.000
49719580996772160.000
41656540407576168.000
62186263479358432.000
64231126076743752.000
158529240108671328.000
135280819275775440.000
155113782174968160.000
131657693486842512.000
129168565745141856.000
110965215294925872.000
146193358288297696.000
128699177357412192.000
152390280553447712.000
119889057975902016.000
154727243471028608.000
140251878570700032.000
157503528126682944.000
93264103789300000.000
88551930052427456.000
68241944185763448.000
165047360358902912.000
123006765075984720.000
291820216752384704.000
203738292777862752.000
116051329061151360.000
115265151912614480.000
65925874952571800.000
74800336269936896.000
166401546813681120.000
252204672783357440.000
364321822014021120.000
834373679570257920.000
1645294859900183296.000
2157755507097445888.000
2372818142856217088.000
2354486749787999232.000
5272778033472544768.000
7420811669606298624.000
16119077673039458304.000
23811636625045422080.000
14672911230921295872.000
7405156003448980480.000
7803014513643717632.000
4598172494688313344.000
4852956836068652032.000
2473103161095118336.000
3088549617950184960.000
3014037533480469504.000
3727190838548279808.000
5385862512694604800.000
5713775246750275584.000
8122820053670905856.000
18328940756380915712.000
16520556890854324224.000
9713692428407932928.000
9326502137428908032.000
9239452484339849216.000
8403112605459041280.000
6763578442934572032.000
7528774334860204032.000
10052614300336562176.000
14452630447816263680.000
30475303745404198912.000
43701869876318732288.000
52188618742718783488.000
29999450004221829120.000
33245578728940023808.000
25900209827117539328.000
59853512049385832448.000
49147779470195916800.000
58884763948300697600.000
58058509242926194688.000
82601820429281411072.000
186664613746108923904.000
287812634124124422144.000
148321351512036802560.000
75462901780728348672.000
97078303310583971840.000
80829582187046682624.000
91829162233204375552.000
101663637991888584704.000
52669704172842762240.000
31904215080385376256.000
17403319803932995584.000
15508388690233450496.000
12596249792279562240.000
13305054848112519168.000
18449184517134520320.000
12504025992637997056.000
16654249600508020736.000
13207538569996046336.000
14837288835879739392.000
12314417274706298880.000
16429473814894403584.000
9117254574903573504.000
5449769417815283712.000
4120952514915255296.000
4346365721426874880.000
8803908631283431424.000
5312227776337337344.000
4229941312357864448.000
2308850455281184768.000
3077855841744507904.000
3777457535432334848.000
2157520746397696000.000
2670090783965907968.000
2289383249055515136.000
1201103252483154688.000
1224861553582580992.000
1670214793671255296.000
1332799162920192768.000
1626278460410577152.000
1441183801925655552.000
833980701889649280.000
744568541493183616.000
371339044027211264.000
505909334616820480.000
463472533567622720.000
710472392133134720.000
816399430538285312.000
646618626103345792.000
392590563517021568.000
230176265617516896.000
139741914347819536.000
283241394034550208.000
398179485668962944.000
971400267066499328.000
661758212153082624.000
786569963319058944.000
885661560648265984.000
475435839740489088.000
412599483231108544.000
243971864639352832.000
280172830000369152.000
275245507434493280.000
417006703891338176.000
487365253606387584.000
357541574967699008.000
521332022828789376.000
289155095026864832.000
301817614274029824.000
299810580168036224.000
302735704450991488.000
454029737241619392.000
471659190835463936.000
644491084689207552.000
947962981620261760.000
1450796975029756928.000
1192159678191590144.000
709197679721145472.000
1646851742012259072.000
1254767444277088512.000
1638110647260038400.000
1259038493970057984.000
1282435723404723456.000
1360539573927324672.000
2737733439830889472.000
1406643656127354880.000
726681991744966144.000
1648824994271561216.000
1474325701613971456.000
1678278842766215168.000
1275161248590431488.000
698682463756522112.000
800131153271847808.000
857158610636599296.000
673390432696298240.000
933053525729280128.000
852861105479357696.000
434379513908838336.000
242568015140089376.000
518398097041367936.000
273006041244339008.000
158503627798485952.000
144745132589862016.000
202927273159319424.000
409666361744263872.000
511347622487198400.000
455228163101761856.000
363809619695300928.000
408492057887500736.000
817235071013735040.000
854790902683231616.000
1224288367447723008.000
655069723411810944.000
385042522912378240.000
399660018228352512.000
221028143421650528.000
247324476421509696.000
141293358698139936.000
161237313953332352.000
116084028270040464.000
142452828777017472.000
80350201814529984.000
79034302884359280.000
73110565245023312.000
36749526844116800.000
82276327484232720.000
47695673023095504.000
50962394628691848.000
28101253075718572.000
34105941713166388.000
51757350842014920.000
43498791489188232.000
62651959599707200.000
82262244670945904.000
49472914794146392.000
45774719406319152.000
48001169049227448.000
38265027166451688.000
20237804676537380.000
10680337944078834.000
15995726182931826.000
24460547047876752.000
27304421812513992.000
43763585721982536.000
35168827897853268.000
38360053905720336.000
43976882476309064.000
34764550216753292.000
39828463238053920.000
92516718085104416.000
122547354354764272.000
124993183865200800.000
75903160630093584.000
41529206852946208.000
51539069661030920.000
33794395999473032.000
39320154651225008.000
44127353789615592.000
66818573768485280.000
81817772244870160.000
75703428267807952.000
44568251053702080.000
90048981197375728.000
48618781394053264.000
33933687883286500.000
40730415267135184.000
49829561355315448.000
69456357541781040.000
68924692303690352.000
148357371044052832.000
233272380743095776.000
300974299688050688.000
368247774992347264.000
460093884609982976.000
413676784756643840.000
494388040070177600.000
282688482246168224.000
416861866689461056.000
212980685468428736.000
270028222790379040.000
300898556113302272.000
266567777354472320.000
289742895409496320.000
428129981949650496.000
517478558790229888.000
665501342763927296.000
1732737631218630656.000
1233870935254379520.000
715835679841118592.000
857677076095103232.000
453766157483823680.000
430139387123723200.000
262430507565454752.000
404544640946692992.000
241736550043700544.000
282481421686644224.000
229933683718944640.000
237531722764638208.000
499818015073240512.000
443713638577554176.000
678802183179975808.000
709871586418719488.000
794277737639829120.000
690572746586255616.000
917727567287681152.000
661622389127136512.000
781822591075666688.000
966790472058389504.000
652396247071143680.000
800711502873344384.000
774338370029319936.000
912462507877267584.000
1448740342562068992.000
2250742898934756352.000
2352794537086193664.000
2261259521506002176.000
1171299796705207808.000
2437759971405636096.000
3114788650198298112.000
2213925763453874944.000
2941202307958456832.000
4257076892070697472.000
8542113661544896512.000
9078828913547598848.000
14364001325422338048.000
7712246097918441472.000
18405030816741085184.000
21699590762802192384.000
22099610681825763328.000
32284559044962820096.000
18050679773138051072.000
13938769372003155968.000
17524677081612492800.000
14763708966091378688.000
32754323012831944704.000
47803924535981244416.000
52255522267783815168.000
57813926556293939200.000
58781109158830833664.000
84240558762800152576.000
104062282388322074624.000
57321560463219941376.000
29427041679967272960.000
16623947158100047872.000
9835021435602311168.000
15931882048980242432.000
8374919614538593280.000
9691118986867376128.000
6770838394921064448.000
10051604853090648064.000
5495232578078764032.000
8050962750381479936.000
7377990142381913088.000
17979682400287078400.000
12674022265333370880.000
16580694380361220096.000
12802561646542368768.000
14445358852410662912.000
17295462471857942528.000
14257962342927159296.000
15531814710281443328.000
16523865503334928384.000
9431147487254734848.000
14955169798379864064.000
17355850713426155520.000
14460022630074705920.000
7563823192710034432.000
9935236221296826368.000
12876656670112477184.000
14749379751246229504.000
16249263749587085312.000
9411259130282426368.000
7125578313117126656.000
4086788560731412992.000
5185973435188316160.000
2926920991314302464.000
3932747894127692288.000
2400549393432214528.000
2485199344265544704.000
1303992459752691200.000
741269751739321728.000
410712249268183232.000
428901077985575424.000
231099076859698144.000
266680041656992480.000
157933577623723808.000
133062169067939408.000
117376465807827472.000
260371934495431104.000
211071446147532640.000
443704599705706688.000
432132451443898176.000
966775834778511616.000
687042755265923584.000
1449654707327117056.000
1154770204580555776.000
1421710630763748608.000
2904782305133754368.000
2398714805775362048.000
2671900389401156608.000
2337436340534525440.000
5367642112314799104.000
4628368593759944704.000
3820764344627686400.000
5624506789358318592.000
5097349621122618368.000
2882948220183228928.000
2603635501697861632.000
2286029622274297856.000
2559785855186088448.000
2778549480241379840.000
2352300332104174080.000
2960391557347977216.000
1721680135196584704.000
2582479708737483776.000
5563482474160138240.000
6711355373350316032.000
3702379341560788992.000
4749986971108443136.000
5341178934296944640.000
4529741989337525248.000
2504677327269321216.000
2807107012904941056.000
2831197783457390592.000
1514691015555356416.000
1402996960745636352.000
767772924107718144.000
679153867914827264.000
1484523467311043328.000
845052153142124160.000
1273389882294749696.000
671307651969462400.000
943915302686216064.000
690010386382804992.000
850052962326528128.000
476046082116075648.000
456556520236623872.000
273054482164391520.000
270342355598552800.000
225413594115155136.000
279239791148985824.000
449355879215572480.000
462118133636375168.000
499072961945888960.000
803472506109328512.000
468555073876709248.000
974712884466169344.000
842322108181458432.000
500023160813820672.000
357827353568367808.000
863117159094365568.000
492403292632759744.000
472519039395259776.000
378159646126652224.000
526873356729212544.000
295308830441821952.000
154651959141864160.000
123964506591754080.000
161881312537901952.000
108890043029892912.000
288553150334103872.000
404682675404568832.000
908610724023061888.000
656679622362521344.000
786513104726438016.000
439058195513371392.000
468357690769936512.000
405084078249229056.000
227179293974586368.000
301741795865978496.000
268243952607026400.000
386087373468954816.000
445679137674690880.000
887799003183207424.000
493392170784883776.000
496814964960162560.000
398142349016193600.000
427047960534022656.000
896198928105325184.000
1231256210617294336.000
2970452249768714240.000
2746870390325656576.000
2758561752964238848.000
3779976910647354880.000
4527262926420192768.000
7155291970302088192.000
3752190266730975744.000
4918784869501158400.000
2556119704190284288.000
1293625923680320768.000
735232093978592640.000
1515373840278452480.000
1148123629640128896.000
696428924885705728.000
782384507626372608.000
402263705486928768.000
236132006608656768.000
275702955797051136.000
214569670311184544.000
263904502613404512.000
153154121444554976.000
115628511976984384.000
134388123547564144.000
72158071982936064.000
84056950094225568.000
73939127236992848.000
81172840032952624.000
71321510242687264.000
86067094707858624.000
49150111647284272.000
67063079457938752.000
34174302313210892.000
49883854640417808.000
81593666359634816.000
93417983537788320.000
62325355709236176.000
77396607828337520.000
165827488340750144.000
133408207595681920.000
70141531184965280.000
42272362767093488.000
84818045424349600.000
72512393044482864.000
66906278983972400.000
70034960759264472.000
75771188770545744.000
157085496110377888.000
137837342030565376.000
81355876160068512.000
119420914846539632.000
151364547804977856.000
140334877262976576.000
75672973163582368.000
46146843519160408.000
24222966037514592.000
50623295812983776.000
66754816293822280.000
163515509190332512.000
227827140798063456.000
273496699790048288.000
204024922632139200.000
245821408648767424.000
258944098509058336.000
519370203505811008.000
386033112343488640.000
935951444158530304.000
542525650044475776.000
438131461876689024.000
438547622873355008.000
257178388796649376.000
298636573500564352.000
456182957876113536.000
918206932582942464.000
519524074895539968.000
399942048380703616.000
899738869551401216.000
1206658233462260224.000
673706773666969472.000
966916854412528512.000
808139758792880640.000
896782585230899712.000
744158656945292160.000
952520274518810240.000
545086955689360576.000
478527319172575680.000
745613314271550336.000
1569170184673712640.000
1397916421100427264.000
1359478169684642304.000
818301871137370496.000
444974872480138816.000
507045213488243328.000
276848760195166112.000
149476091667343264.000
143820873125110912.000
294831832957595648.000
166797862576936256.000
261544557013890112.000
147625412676427008.000
88705477028630960.000
51944852603423568.000
78240393138433936.000
79848710304623744.000
47707110082694840.000
35916841518844300.000
46632116099312912.000
46808507811781024.000
24546773481652608.000
22707875296317624.000
47063757663070368.000
66714165791165376.000
88262046510397872.000
76952181362825760.000
161411089573885312.000
84414156441952368.000
89887739973051856.000
91216168160833392.000
78433732229859904.000
69636463019547168.000
91411189071030512.000
86530713764764080.000
45745849728651944.000
26639391965094132.000
25021898849171844.000
28286250560675272.000
20983197218616364.000
43295275060007552.000
26212774299481412.000
13439006776318296.000
28127800480930044.000
21955610716437300.000
45315164368341040.000
35279441709730872.000
44079772396821856.000
35836842758117428.000
48272484295071008.000
26021270170691252.000
23254537355793312.000
28543928595864424.000
28539802934167456.000
37013076143144272.000
19036656943276484.000
24267072960337488.000
38787428261828648.000
37988364024497568.000
78240244250947152.000
88525700162935136.000
71088406524367880.000
143317172093865328.000
75624247166960000.000
41885663680253304.000
39014078449865120.000
90910827091556416.000
87745999334154720.000
125745208213946656.000
63037066005078296.000
34375119690094476.000
44975167272888528.000
24012328882150484.000
27784116252361204.000
25314964405444620.000
13187009915169448.000
18902950033102692.000
26658602098999864.000
24339049222481252.000
28390377155348796.000
37098093422927936.000
42197428540114856.000
42526896388134008.000
85528579703088336.000
76204708614562480.000
86052081105132400.000
47418465624991168.000
60985456714053416.000
37988226964462048.000
50551482299488088.000
34564155986511736.000
76255420181808080.000
92154869492019456.000
64333593195098256.000
36531853495671176.000
51832916150863568.000
28407759003376584.000
45164400650048368.000
50717782139114816.000
37542602428333776.000
46839826958276016.000
38411642348996920.000
38776423077745672.000
40067076211250576.000
63437902230031536.000
80855415629087888.000
124985974348522144.000
115490813844339200.000
274025918568949056.000
144585862631513984.000
139610522828997904.000
123659908357427600.000
249182513714239104.000
259220317052119072.000
408909528561237248.000
245175398554277120.000
525749731652377536.000
512865138698217984.000
464386576929502016.000
262722293319296928.000
243564193567567296.000
262849774001442912.000
367157787470522368.000
429056845400091584.000
540212252446419392.000
488161648000019904.000
292625615690926912.000
157516288406063456.000
257314610261365344.000
538932428749839040.000
525552942392345472.000
270888998508260576.000
202460259295735008.000
109883774014349280.000
285573300603583808.000
266309043366732768.000
289754474078371712.000
300346615945815040.000
240656231409082144.000
269341203062671488.000
137652702174812560.000
221271891202047968.000
541282419158773824.000
399768089788259200.000
200698489130675968.000
241813382207058176.000
124030391213604320.000
69810924200070816.000
90197147090675072.000
74923567291523072.000
69222393082292272.000
83378953489369888.000
45186985509780744.000
42123245537520488.000
37396826867962416.000
33989095508075128.000
46440943187281344.000
51556073877822720.000
65347121198277232.000
40240307497683384.000
20069930737104672.000
12050973322830552.000
6811886136857552.000
14083320545170554.000
14920452425608518.000
15378501517311442.000
12997175512498930.000
20951168521900520.000
12132572877255330.000
11491181863958646.000
24569513078607376.000
14356159653131242.000
19026654339164500.000
28573838251573324.000
15350324252116640.000
24135613011844420.000
13545116871052508.000
11220375501713556.000
6689739290526006.000
3695900234953937.500
4483579122100605.500
2643698213282049.500
2701043864322279.500
2341945384464957.500
1287317278505934.000
1410455506460084.250
2097068837431371.250
2501303765941840.000
2423869009828817.500
1366409800998058.500
775959975152713.375
634551049795401.500
758264336605674.250
453433152781264.250
562824187534118.812
329848167431731.312
763979239964643.875
667095919352824.750
347848356865756.562
395600520794361.438
228560660411696.812
177800483193049.625
185265739483291.250
193770432787721.250
255967496886790.469
174279470655607.562
199199721550084.219
195448294169166.000
101883032600232.469
253125205818565.406
341418230652483.938
424874490696995.625
235612544610464.688
326838333399939.062
371328905523445.312
752920219636222.250
847872268652916.750
1020788794383260.625
554360826062649.500
1260095728366222.250
1339830341889555.500
1880032242085417.500
1117831792097843.375
1410430619918420.250
1096036430755376.500
585496890327970.250
1182884801414943.000
2436285114279971.000
1319198822837000.250
713376264728172.375
655689682511799.500
641274105132970.500
847904977649851.375
1135086628520339.000
1419577911595211.250
2198079076384822.500
2067411039183684.500
1958339328290853.000
1111341104113413.875
647189410686277.875
667819189592190.375
806933799021028.750
429917294881349.938
323340689093562.125
701208205623692.625
778209443305781.000
1107494958899405.000
1135045402870371.750
1365063053634244.250
990491508043567.125
2067264737025100.750
2538088268795261.000
3897113896838513.000
3956566322490976.500
4406273961103163.000
5955315680609086.000
8756895051629622.000
6081444574695625.000
8765735898365579.000
8525663237809681.000
13884870193622796.000
15053278377862802.000
20893359101194020.000
12754765159512660.000
28748979684689632.000
36566782115891304.000
21181999064661696.000
24594121318803768.000
23941565678992484.000
34327158075320032.000
39629315017745720.000
62377004965216840.000
35074563880376448.000
45265656552037728.000
44803110082787712.000
24471185651920680.000
22633513963720120.000
26598709406939664.000
34467817787966168.000
83678090899118352.000
63272492289292304.000
133692073362659472.000
265081042338934112.000
295859339787271872.000
394047745516180672.000
495224670343434816.000
266979327953406560.000
144474870534848096.000
290734940686626816.000
383235755071347712.000
779784558724991232.000
687470035595223040.000
980607507427811072.000
1278258292917925632.000
1469727017500732928.000
3141265132420557312.000
1673305186828721920.000
1168357614183377920.000
1265684990024024832.000
704425642354544768.000
1648317885814205696.000
1355651840541851648.000
2874403946347183616.000
4372718538958685696.000
2341666110973704704.000
2772169125217754112.000
1644481874224417792.000
2107758173175151872.000
4822888311564233728.000
2637126972301974528.000
3010924469056806912.000
1715746143911752704.000
2496747186795591680.000
2069108627580481024.000
2501870039587276800.000
3161240066094962176.000
1703739997812872448.000
1274969314127591424.000
1296491177395068672.000
793553533948737920.000
815998981458027008.000
977155381067812864.000
972905502474426752.000
880316392636993536.000
489590391198933760.000
774595027840319232.000
435940277607782656.000
376136342689462016.000
864477014517213952.000
1367482140190131712.000
2716963363918554624.000
2946726510209903616.000
1557963141934682880.000
1288286834783024128.000
1705883798227388928.000
1239525220549497600.000
2706321114494419968.000
4203532415142699008.000
8781239389646015488.000
12495516523496189952.000
13097947163567568896.000
7319527395460251648.000
15551822225501558784.000
12808101728362668032.000
15976514042460698624.000
9108606529202590720.000
4777529129235778560.000
7002163607755013120.000
9443710669452392448.000
7640465351860353024.000
9517048950322907136.000
8622384745310108672.000
4760930979994748928.000
5113887849299932160.000
3729549185564523008.000
2277351866765799936.000
1178560758306112000.000
669814360317687168.000
831340788775566080.000
1148215844066575872.000
1652868149675487488.000
2673293119574853632.000
1523495240283694848.000
1520449195777233664.000
850043615179392128.000
641939426378076672.000
665995538584736640.000
405395375057450112.000
428325869042988416.000
259734520875249696.000
198013023013322464.000
293324786608144320.000
293516453948356288.000
160500956027247840.000
212866611433272992.000
208015704572195744.000
438206080655294016.000
514065169498888384.000
261729935776843616.000
208509538330661248.000
122784881768832800.000
150884369431665376.000
117634547677800736.000
143087790559080640.000
116134779613914560.000
147906141515883488.000
302534362455931200.000
388708844565520128.000
468990590196800960.000
273398725722831552.000
164437708155222912.000
130052724204847568.000
115758863130362768.000
132790497257192608.000
164566504640707072.000
91773035911907008.000
90357083099304432.000
47891622149230056.000
46485720265934144.000
74153944870472672.000
90185915462085824.000
73944458371422432.000
40633646754090944.000
22132313155471224.000
21481123256208904.000
27950413667786720.000
38177071535807240.000
48845780544482344.000
25266224694098964.000
51695086286014608.000
26643264298225864.000
38725508064281080.000
43998461228782304.000
49602924413764952.000
25256062849722984.000
20344831898494716.000
22496469013278224.000
28321703914157164.000
36578501661893744.000
79239249148470064.000
162526482321151712.000
119950260078844832.000
268728578543724896.000
224123770474029728.000
507749554021290944.000
261315216540080352.000
265833467625157184.000
135984162425955296.000
68841798952417488.000
36699958742910944.000
49487313991191608.000
64369008651178816.000
137500240877328992.000
120738080175027488.000
146389858447872960.000
77643292074994016.000
64049531327987328.000
75051526454839248.000
42315377471667216.000
37977942221094672.000
41056362572058688.000
63451042643703632.000
82073149823393024.000
63377549877919568.000
74932937928689136.000
112249796244601248.000
115999294339384608.000
136645165796379472.000
73955444222697440.000
43334197501442448.000
49569126570919168.000
38648592101685504.000
87817642734849216.000
129405432388083280.000
113592904118724160.000
126289146113408912.000
122529315003833840.000
256635882215677568.000
223035116732805216.000
116416473972759920.000
153304140781350496.000
134823289254496016.000
146766722222057856.000
229436478282576032.000
501356297270726464.000
384665869985208640.000
903426398500702976.000
1293275855163732992.000
1255381646926398464.000
2904982475425333248.000
2219095872431654912.000
3032938124436065280.000
2867247711926314496.000
2635888349537777664.000
1358748216319449088.000
3012787065566359040.000
1544874423225455360.000
1306410400599437568.000
2922755958050668032.000
1625597757753197568.000
2465462097141331968.000
3157808983104945152.000
2505777750345501184.000
1417501006791859712.000
1736631046537555456.000
1496216962288257792.000
808534092543429248.000
948718245339423104.000
498383040835860800.000
706708688356818304.000
1723579287828809984.000
1364033897710359296.000
766454298344735104.000
893434261645145856.000
509099139490707456.000
660108809178093184.000
1527777220233873920.000
3100533009722599424.000
4269262018203675648.000
2512540961938527744.000
1468038555072755456.000
745790059349612032.000
1727358977457017088.000
1595801215146235392.000
1595137312800313600.000
860584084239987712.000
501982902904893632.000
453847375235565184.000
655370394358030208.000
396856350644241856.000
371366690613358272.000
542413012824702144.000
299681012169155648.000
164074234249846528.000
239436633405885024.000
126264151574917184.000
132598823581865904.000
159486117390027808.000
83452660986690272.000
71389169263264912.000
43762494543623656.000
22291430461356184.000
11551679353295406.000
6203938626092403.000
7762853640256314.000
7673733411348357.000
10645875366214928.000
26105744976291668.000
36944080594628128.000
40926519619959760.000
23702566915424316.000
21174455194165820.000
28457407668015160.000
15157392804026562.000
11134437085412238.000
24836401853652296.000
28359487151562548.000
21701252574452236.000
46872587046078656.000
42057913176235320.000
60928908058633584.000
92663344967340352.000
70114217333629224.000
85730705394841264.000
44157750308188680.000
48594732179349792.000
63060422215434696.000
72457730500000128.000
72055223297269448.000
152724302114262528.000
91078077394147120.000
61838707239053480.000
38270032971377648.000
19831413908743908.000
22638074384194656.000
23095730073026408.000
35179176105421560.000
45392113573187856.000
23558686624879300.000
24712558265275196.000
12826248386798376.000
6882466280013546.000
14628258423735508.000
16016339445535714.000
8417540069755690.000
5897565264424245.000
8038252213857249.000
4630593056734268.000
6696104127111317.000
8265053394916366.000
7484827701295461.000
4269712701304872.000
6908656434036169.000
6783948002324247.000
7144538187249689.000
8368978075022142.000
12057530316058122.000
7050145280827021.000
6109771683199328.000
6689791534899608.000
8013599343257420.000
6828568301878809.000
4066101399434837.500
4303263744866414.000
2197946583593923.000
1869732818626452.000
4372286355885650.500
2300063481046813.500
2223033808309835.000
2474741738735169.000
1377845247285265.250
1084135385920414.750
2712939325468216.500
2153975857650337.500
4762755287155541.000
3502170890872415.500
4588102083434296.000
2488125669029449.500
1390515104756250.500
2049672913625827.500
4786673636217597.000
4762107548480652.000
3868715655866571.000
8859797793813579.000
14159129708460320.000
13636987224770114.000
28795013357796532.000
15773188614961044.000
8879865152486163.000
13482986789762052.000
19553707271996048.000
11352670987155584.000
25592087486230968.000
51575659878527704.000
40143010255958456.000
42131569010440520.000
66500437481969016.000
78249470146084944.000
112695166388659808.000
63045740888812776.000
152769231714103968.000
208813415497319680.000
223488659618848512.000
207851048479081536.000
290117695880699264.000
431895094257265088.000
506832442758374336.000
353048107346689344.000
492867390408830528.000
806927891676989056.000
1748969931146048000.000
1165281647410901760.000
710477410592573056.000
1504531746365323008.000
1175946014472527104.000
647703981074817536.000
809211568722749312.000
441980385189412992.000
393781003262505152.000
514421877892455168.000
278041006435134752.000
252248771146145248.000
208657705302073248.000
266309036972386112.000
364852972735357952.000
436058234524829248.000
530020064355626304.000
358815448701264576.000
390142199097610944.000
436836440242281536.000
868923948048972672.000
522913112895906560.000
679453747748537088.000
642231114280518144.000
840575401971276032.000
1198642237715017728.000
707357013685573376.000
379090566852051392.000
889177785931241472.000
1159944890260334336.000
1292804958337560064.000
2807990008993380352.000
1442335733775343104.000
727188785771732736.000
1720921611547057920.000
1463512041123507712.000
1225850808727753472.000
1219325191902878464.000
1547551874644313856.000
840201863140453888.000
746406095148862208.000
821081980734635136.000
968898497135101824.000
1555688174674550784.000
1562337969212607488.000
1334286385588439808.000
804083499259712896.000
864777949013520384.000
446013638339236160.000
937819245333948672.000
814453631514947712.000
679710126437751936.000
673815103570609280.000
689259142113744128.000
1708112259222794496.000
1383210250843508736.000
714822291486451200.000
1486247502419483904.000
2190981501083900160.000
2740297686722581504.000
2851372479362350592.000
2273105211919430912.000
2780555594516250624.000
1468629272197295872.000
1276629027534888960.000
1494991610447928576.000
1286989161156580352.000
1153366014839052288.000
2878473376482796032.000
2217372995053837824.000
2539121194296663040.000
3878715289472770048.000
2281099147147569664.000
3037422791980118016.000
2169601916214528000.000
5132764298237180928.000
4354612693825213440.000
4278637381366748160.000
10262062417411061760.000
8989008147864787968.000
5359684540535365632.000
4942108617810678784.000
4471810199052580352.000
2724267042724647424.000
1458336541323883776.000
1512491036805142528.000
1367658895800763392.000
702453228973419264.000
869465455466050944.000
1342503419275365632.000
669282647409600000.000
822469926108321792.000
866497417101592832.000
846324051710138112.000
509859356525877696.000
416885704061779072.000
363253365364311744.000
207571747387452096.000
127016900479933232.000
64698222608560384.000
79749831006154864.000
43276100146191960.000
69832162611027696.000
84784307319890160.000
63192995331023440.000
141477245952366912.000
109597228051506688.000
268105663308762720.000
220926720637274976.000
118618881629339696.000
271655025820025824.000
154940942957388896.000
88788607418624688.000
65178772238453216.000
85876799670707280.000
76868737159729200.000
39863528648291880.000
34106644127244212.000
75784613664382944.000
38758527049761472.000
49655155824917752.000
49216894086148912.000
28156365336126948.000
36988131956787520.000
20136111886335756.000
12050894716182380.000
11398152496883060.000
26954263110428828.000
14742754803740470.000
8295464942125713.000
8236131311122873.000
4609200145878942.000
6114136790882721.000
14743262378691028.000
7780647312865392.000
5859405433002023.000
7265618442273780.000
6781180557866197.000
7716097508258882.000
11631134592632604.000
14122046307894098.000
13558229327975810.000
7383432116759164.000
6527357131524258.000
6303335014061666.000
3425460156287186.000
7209440363128074.000
7218404247488479.000
15157932740944228.000
8167340511327087.000
7250534953255685.000
6170709159643768.000
15114002483906058.000
21818312411908352.000
26078402112519892.000
20779182648019684.000
22602036642884628.000
25256735977871540.000
14075656017606336.000
11264394785780804.000
27795390888378680.000
23766739737567172.000
11993608471360754.000
28093102625376060.000
19811224934265480.000
26234836686897800.000
13539776349120200.000
12512086348779582.000
15322175841833472.000
8396239668306052.000
7614403195299804.000
8396920790845348.000
8774652137472135.000
4658224510247490.000
3985027399452328.500
2229050186226123.000
2655186340668206.500
3551724443881824.000
1860218718440471.500
2384492822431696.000
3361390899538421.500
6912742307184790.000
8693122231265037.000
14045174973642434.000
15107785342448980.000
22365705749330916.000
11299614743194078.000
12423991371973440.000
15736191812243950.000
8544238511145259.000
8289272201847518.000
4879188523245993.000
6159570870853234.000
14352398662859316.000
15344559494776768.000
8603213947773538.000
4483287326200775.500
4444556826333045.000
4558303733512858.000
7252614139545819.000
8454578355023164.000
11598008901212424.000
6376288805496383.000
3215491395341310.000
1852035250882934.250
1138436562569688.750
1344589890544437.250
1038531147926158.875
1214911134326241.500
2690588049414204.500
2305000083301389.000
3520931198169974.500
7592917100902258.000
6072040051984359.000
7717268196491741.000
4207558975028442.000
6551932075030690.000
4002476077174530.000
2005257119128174.750
1856859950596282.750
2120420034664222.500
3354693437208684.500
7742791031949275.000
5772136242490977.000
5862180465518349.000
13558815972507800.000
21117389031731940.000
11385613567829830.000
23371886288780280.000
35476470730715508.000
35585312077235520.000
39734181186116664.000
44118668805280120.000
34852665673459108.000
33902660777334036.000
41964278787605728.000
25564537750661304.000
25086623806522596.000
15180935967063326.000
11907729280035306.000
14599169281002664.000
20726761946777328.000
18852819204979276.000
21906197208062204.000
20729816017613080.000
43105282342081864.000
36553342771524000.000
92849988331401728.000
79537155416782368.000
127584795564428416.000
142988648673456384.000
163046262545285024.000
134789054170828240.000
81387846035689552.000
68553358300255584.000
37345999101061440.000
81158759545719920.000
89398129668221680.000
92045779119189392.000
78945113738093328.000
43713168552157832.000
34305199553464200.000
84809904481253088.000
47951243671427840.000
27915947714028680.000
23957876879380752.000
37746106312719368.000
81995269274986864.000
92194319664781472.000
120931495696871664.000
155461588007332576.000
122173672916822272.000
124451463008128432.000
119607534658687824.000
158365335858854848.000
202738438304916576.000
269480644397408928.000
139431992259705696.000
128888456350852224.000
110300273197288880.000
150832065344980032.000
80943985444837808.000
46382303315243984.000
41910899928491136.000
38953681885702800.000
20478390461150292.000
21920943465926084.000
50125553562232824.000
28162583708482996.000
36970810198525672.000
35837192734642872.000
88538618457254624.000
72257765373369440.000
89410758666782208.000
133927914004117696.000
207366391955905632.000
455215409232536704.000
662095815552515456.000
1524426136485074432.000
873634143627566592.000
480105346417841280.000
435389329843801152.000
447378413107890624.000
708233894627542912.000
642596733609071232.000
655310661756762112.000
400888809248410368.000
494698554647882816.000
386155353541713792.000
465948040325582400.000
255664671362715904.000
129837512078243024.000
71459009759869344.000
85742937315393152.000
51427585777549104.000
78611276790056576.000
40321999688206584.000
41739482180948344.000
43777393426132760.000
65227419138352512.000
91923455392532576.000
47299438359332016.000
26487744332481696.000
19224821960375528.000
46939491625648992.000
40457830905852072.000
45190621091224256.000
68339063936867560.000
35143918162513560.000
44240181314575296.000
41046065788994104.000
36912678980793104.000
45057090945626032.000
25501732112195656.000
37862462615811296.000
50793597952211568.000
80534829692508928.000
164963269441820832.000
270946686974725728.000
145368849418194720.000
116026559522574512.000
133561001648758816.000
291357649107765376.000
150539988078418208.000
225069624731967456.000
296887488332339008.000
154892249140326400.000
135292002695233056.000
74126992539723280.000
40977015871725376.000
36589425328698888.000
22375811314791756.000
12396159516551568.000
11669281452079010.000
10369278580725422.000
24557995150330976.000
14695375286535780.000
8068435936858852.000
12737733193292956.000
7150742278628290.000
15736606467949070.000
10742314934185046.000
14427899509207188.000
23314752853522764.000
47845190169477632.000
24742603907369124.000
14933779758657012.000
8182884283406111.000
6868912150348215.000
5945116892967512.000
8104771852228554.000
4891033213906789.000
4601744078763877.000
7276017205532884.000
4343833373227382.000
4894337920998156.000
4172109163360347.000
6017788229817858.000
15730373366563524.000
13489712393049740.000
11347808578477494.000
11316499803361104.000
11600546150788784.000
14400031035692102.000
14468704712235990.000
20002560927656352.000
20026304328495108.000
23251766760399012.000
23123876111466528.000
13644533433425516.000
14683418675579826.000
8291189037758146.000
4717587763088545.000
2622785721536103.000
2360975993392509.000
1432591500865938.250
1242830762498209.750
678703224924780.375
775393072495770.625
1031086612270278.750
1035623666110909.250
1281237529296015.250
2739129080255310.500
1400470000071616.500
2193634368014560.750
4846380865470251.000
4569935680849855.000
3775608311604755.500
4700048264621808.000
3504825316562488.500
8297883999208770.000
11614428706747212.000
11390830762592150.000
14444180599581240.000
19387188743263764.000
26272101808658148.000
25387287996248740.000
37027575391710584.000
34981426557265272.000
49710761962443640.000
25826957261829944.000
26907372541941776.000
43999770192430120.000
22404533929387632.000
12754169894387634.000
7166495373567535.000
3891190142362944.000
1970665355924169.250
4409680729801985.000
2515279255444244.500
3253291339881895.500
3247488529711331.000
4829861369949624.000
6935929804182969.000
8634644214146352.000
5979605484169327.000
3612519249506641.000
4350082099140913.500
2631087893837711.500
3370400042587415.500
1884324747810471.750
2649952530793569.500
1497607028195908.500
2292840840704374.500
1300959515678704.250
765631292616559.500
1187373249356622.000
606174840113163.125
565159050313715.500
1287750964499277.000
1460888718679677.750
1892536028786178.000
4797046579423041.000
6675724180819403.000
7564477416153467.000
4150397981326258.000
4452209732989005.500
4671685662686251.000
2645568236032356.500
2723342490403054.500
1865613613492633.250
2591134278585645.500
1792079042817094.000
1054661124715653.375
1240170628360757.750
1841675135021287.750
4324641645472561.000
4668221575590164.000
3546856298138323.000
1779513196473157.500
2372684710942944.000
2382791133482137.000
2239746598627680.250
1303284688858544.000
1306627286243305.500
991763593487649.250
1508224485975666.750
1201737191381994.500
1380401290297061.000
1525326549067497.500
1025731113563393.750
2546946628157007.000
2559868877356553.500
1428887065259135.000
1474405114958480.000
1042137466531806.625
2237979361920456.250
2508282831819061.000
3431942306722605.500
3820883159839006.500
8185588061301348.000
8590082494326032.000
12043844610630162.000
24445206496760152.000
27655975940981720.000
43798728334581256.000
50249974421690640.000
80608066335189536.000
90011964096050864.000
75840074369160576.000
72501563248083664.000
41177621500491472.000
51248246084607048.000
80089359695635072.000
88973373897820704.000
71494123287367064.000
65708361300377768.000
88307685700687232.000
72918960316722512.000
63725448490450376.000
92860368150780848.000
83351470737551136.000
85459621171291008.000
72775194932491200.000
43366322974216408.000
25997661777070544.000
27524596089690244.000
19434986030247036.000
50429570027819224.000
44803279802305376.000
46096791164207584.000
68392912553638544.000
37915613371259264.000
93033494050421984.000
112255976114272912.000
290125337799627456.000
284182985768707776.000
280601254324677312.000
226446963329978368.000
498815059945719104.000
415262645920707328.000
941189986379053696.000
817267121239251968.000
495796875776203136.000
375606306987143296.000
444577553945393408.000
451995840638404352.000
269305956756792192.000
268735325682661120.000
203202254709529248.000
205637700088395296.000
297233700104259264.000
396657411099067072.000
208805743859343712.000
