35.300
36.297
72.851
66.927
61.441
136.252
201.137
454.340
456.675
463.007
611.955
569.591
629.328
622.021
1389.703
2746.063
3854.462
8774.705
8489.538
12475.322
26769.461
26552.213
27834.604
38979.371
82004.041
78353.172
71136.305
147875.958
138216.505
205302.008
491432.450
701552.937
1442158.278
2865042.088
4348321.290
10259473.047
9780880.778
12521909.898
13074269.416
12424536.051
31446859.196
47285809.718
95601816.645
95845777.045
190710913.501
178122944.451
185262650.293
246694444.649
496727639.103
796796845.549
1986740267.521
2724021347.162
6230042560.979
8442823148.026
20588301738.616
20947706209.953
34234231019.757
34276986732.469
54938781908.709
57750955685.121
92023570991.763
207111306122.619
279222985445.837
296967179277.692
612433054067.122
658858521530.506
1036384148397.990
2159433188580.907
2069223815791.147
2231028217780.703
2125090831740.163
2274041382732.687
2784369386085.471
6144775833206.079
9747489776803.236
21911135350642.902
29285905081188.137
31824943344290.805
78441425181517.906
78530569759995.500
98895585263711.609
210277761797634.656
309197679398571.312
325765863703958.188
339073835924423.000
680983400185511.750
680489395317123.500
1347857946208742.750
1299489188720388.500
2728063439377870.500
3928478754559538.500
4189881043577751.500
8908813491391213.000
10444634582707060.000
21684759848530380.000
21872946655348372.000
44996708655234120.000
45788510318742456.000
48895619706432384.000
45449247733059880.000
47251152160378600.000
92705656561302464.000
51022779254761256.000
82341118426094032.000
81058985570387440.000
41680383005740352.000
46205469625892024.000
26322853410937072.000
40848311265714936.000
39256964065562072.000
47362874101329568.000
64133096118562264.000
150088645677688608.000
150660200603476000.000
87072268336642768.000
61169895488392376.000
93285781539419968.000
78035284063482624.000
120578423094744096.000
167589738882908160.000
130181446875014992.000
136032039635018608.000
133237520530774704.000
119063523395058528.000
73147023941073248.000
77800355559903088.000
154565428696422816.000
83675115990373984.000
118692492217262944.000
132988663685505776.000
76289644468154032.000
43842914876626464.000
49553384381936472.000
38845594150668608.000
50249189675935216.000
42605697316160968.000
40373874036025672.000
48180487832319816.000
76302967461797056.000
76656264381223856.000
85857687121191248.000
47524957347137888.000
24322092474638624.000
48536304741324352.000
35289756477716500.000
37106058648596648.000
36060356666115936.000
22230696326492860.000
18939289591193092.000
22349724851807964.000
11503809712028816.000
13123919651746068.000
11251723902106542.000
6539336637197050.000
7435363042370557.000
7156995887528454.000
5994253126019512.000
6598679117856215.000
8092996266427192.000
8552067664902698.000
7423664645500883.000
6032291049774645.000
8661945394490418.000
12805564686787684.000
10756142402684830.000
27242893370897452.000
19605436098398944.000
10744383765484118.000
21919943180124292.000
46037585637375696.000
70546010500006520.000
68844949277083520.000
86723960588914464.000
50482226162251248.000
38023054793521152.000
44411869913990848.000
24022592738824688.000
34794996093325144.000
51959154072229536.000
62415067555224680.000
90381555937350928.000
65878523774849520.000
39501191865812760.000
81109218105948016.000
115422436688824080.000
146139192219705088.000
140464517889037504.000
75273828675215344.000
156648755245543840.000
128679657464606256.000
109337780350060784.000
113244679328800048.000
144706896354132384.000
158436409842575296.000
90016327753918976.000
118840098236910304.000
142437781234805856.000
133151487095533680.000
265580246330612480.000
277996109171752512.000
255883218301466112.000
217237962343122624.000
199934129138650304.000
121263144746172000.000
289148397492164736.000
443212648069105664.000
249491519002932256.000
239888364751356096.000
200837105468425056.000
220073597463882752.000
248817565470919232.000
220472267571102528.000
134460215956208512.000
274415634763446720.000
297508928119084672.000
218589838585386368.000
130611893426698064.000
65786194926751728.000
82809907200374528.000
72262261880117792.000
91220181236630016.000
91129290177128704.000
144616237511670848.000
160717033110671168.000
167577527798640992.000
270176368463031008.000
143089429687056896.000
148932590304596640.000
86425366417160304.000
48583821418989096.000
74401611475263328.000
164120392368062016.000
90387400022278656.000
74459261899269024.000
65832636337802096.000
35794869070792320.000
72283932634807584.000
62455544711860376.000
76165728470818672.000
163147170041501728.000
110793362603181024.000
122401869409866960.000
262790242659893088.000
211624906833699648.000
249714953950534464.000
367477675918333120.000
865295263281780992.000
1378689282854413568.000
831673212582150784.000
967576727866167168.000
1435952009566931712.000
1199899359064334080.000
1414208143638986496.000
1440795663468271872.000
1275300186748130304.000
1327552048526313984.000
1728170679097383424.000
2727533017833680896.000
1643905846026242816.000
2560036631619547648.000
1448383450992326656.000
822375539608690560.000
705671847631015680.000
892953538737374208.000
537948242115777472.000
372617942918013376.000
525845016916138496.000
792994859106273408.000
450275661339735744.000
365749571829391936.000
433447546337880960.000
425013054657877120.000
231356463763221280.000
235661632069670688.000
207497873236871552.000
292147530515958912.000
474703289423407680.000
531548014836988672.000
419122786153246208.000
494356379458739200.000
283785197000220768.000
221734896676641248.000
213625748791228672.000
125745781169766656.000
70299411074644064.000
39975417117391000.000
37475937404556888.000
37522092222861384.000
47501409341554224.000
39198909909264016.000
19985937564295940.000
20950451865526628.000
11680367632258800.000
7058340810174792.000
15552573525387180.000
8183080429569605.000
7243894269690741.000
15683952565591932.000
8528085867712664.000
11516234753988364.000
10765921381905722.000
14576414415682200.000
22243710765940224.000
20393036031830820.000
27150063780554232.000
19078061492051356.000
39860991141422552.000
42883703562981432.000
23735649082218432.000
23660797506707020.000
12413945756636456.000
13763010321235396.000
14091966138592980.000
12006291477510532.000
27916211045645152.000
21659491894431692.000
46258769345163488.000
49939582747742080.000
41435407791631432.000
45739940575165568.000
35122799653397196.000
75176753828809200.000
87148637053495328.000
76609577741740992.000
156271875185350592.000
126240667451581024.000
126049518807962752.000
258732450008359392.000
361243225560053568.000
393700339079515776.000
225370811548370560.000
136210272062959072.000
283926935608712864.000
234254052925666464.000
272644199427990656.000
418835451178047424.000
246065685592105632.000
278551782765795072.000
234814052480442368.000
261766238704065216.000
300452912549791168.000
463741530545342976.000
251394946549836800.000
299733046714747008.000
208695794896976960.000
121563717329401248.000
60966361760032560.000
36970880250890976.000
84550156597990336.000
72116494590703728.000
43047906690557544.000
47420149347860296.000
27240316282794480.000
28054119883908948.000
14374700697256070.000
15164965860632866.000
8358755447811388.000
4851749805117942.000
4536264145311045.000
2578953200292892.500
2728410984082073.500
4223054550028858.500
3570924929471547.000
4113299593194389.000
3881537624537150.500
4828243700055156.000
3202432432631295.000
1932842999705984.750
4476256676474245.500
2376774119369487.500
1235433090487870.500
2479816501093866.000
2688310671333915.000
3627338381984504.500
4262781610727967.000
2395697011760519.000
2691734278769084.500
1396568714692778.000
779987198969531.125
610801526217379.125
1278450025492473.750
1454806895160270.750
1447384727232426.500
1384133856498202.500
2216699728031741.000
3398788850879703.500
7787920485790406.000
15762190838106750.000
8091203117316093.000
6574748684658158.000
14835931798902236.000
22804765515859108.000
36809680846602088.000
87322287308132064.000
74024946787292832.000
117410857059640992.000
63729642839642688.000
37352829471722072.000
79195005453425024.000
47226682106340256.000
49925017051625456.000
43625668743521472.000
48225950177827424.000
46615303694899544.000
25898330633686760.000
19445112726474176.000
27848571330662460.000
40772693437236976.000
65635095102615648.000
71366230027737736.000
76798696678158960.000
65182974726957384.000
153885563099332224.000
116097428389743168.000
65904421415565000.000
40502600507923624.000
49712455032919432.000
81291231323554128.000
45824362347313040.000
40536817093191528.000
23742392737175460.000
12352988209119356.000
10830675759824294.000
13504005414240726.000
11814472138562472.000
15943703986406746.000
26191994405434908.000
13425972719858000.000
11119636809774530.000
10260957621331312.000
23069462539042052.000
21178373256651992.000
11754354238188006.000
13708233630404174.000
7773948418931634.000
6973423710841943.000
11179892564210408.000
13494831482267260.000
11166191626654488.000
13200035164598460.000
6757285270404437.000
3957672729477656.500
3644749529761901.000
1963825329922545.250
1104869312975471.875
1054497764370393.000
2264350392174940.500
2071685157468278.500
1190460818918904.000
666497748170555.750
1383513244876140.750
1508287972379137.250
1796887541081619.750
4004273761854664.500
3827210932689825.500
7841827658654808.000
11203124646575710.000
10492312538559510.000
11132270580112526.000
11035540201144544.000
24559216961239388.000
12993734712581144.000
11497805792058258.000
13629035352670486.000
13011125178185202.000
7764536990260766.000
4038893190246299.500
4215768649535481.500
4688841058091439.000
7677651699351704.000
11413103467085904.000
15102626554224614.000
19142173869328196.000
11575224008180664.000
13130900742479414.000
26966830284392632.000
19721292777611580.000
42371694390843080.000
66093724500310656.000
35131628462182524.000
49758220671744208.000
26863758961485348.000
25741429458403308.000
42065417827756864.000
33119383373976184.000
19573961599926804.000
11587518795048880.000
7097874870846696.000
11156674443580138.000
13983743805854000.000
7691297909795626.000
6652572013634107.000
4028852160045735.500
2299203425621093.000
1380244572593826.500
803427714044864.625
1072294433065998.750
2487269771252750.500
1433233318254834.750
1753687387418779.000
1961339723922402.750
1201904507024844.000
694397980436665.125
977202114922300.500
2686401927705598.500
2376290408409304.500
1363255748470505.250
738401150278948.125
406715686340755.438
596265817599135.250
1293409138304453.250
1110309818101997.875
567068836996737.375
650174720437759.625
1035566123819909.375
2160794556642462.250
1895230280876439.750
952790726219956.000
1037091125942501.625
629086416906172.875
594400560841210.250
1429221645509975.250
738984918989591.750
402169591086655.250
232957231006261.094
203685729163728.906
124126930508390.422
170824652191216.281
221728195437762.688
453419454150387.250
294050989299113.812
671451100119282.750
977589085982398.500
541700625521573.875
539248131674927.562
702332990003749.250
620690864986907.000
722159261705892.375
428512824816396.062
302681809756624.750
818327125054441.250
968066984511362.375
964902020229502.500
2289173717921313.000
3428289647926135.000
8102984463068749.000
7223950505232366.000
7188909195177943.000
6723619273068979.000
6206026367923106.000
3712219999544404.000
4170322637098252.500
3729757059200268.000
2211164541119427.000
4470876910717877.000
4072340663822958.500
2229455808538026.750
2021947657640403.500
2158320766919111.250
4388488119095218.500
3867717832882874.000
6151442299915655.000
3259644675170455.000
1999002419225311.750
1933625621311475.500
4315760188686768.500
6708186521912780.000
6826475533395440.000
3614262985981152.500
4058819878824635.500
3059858646418431.000
1820805513361489.750
969361967049905.625
2420829918898135.500
2120296646662535.250
1240657942903615.250
667433319495108.750
782983500402544.000
427092315046139.188
593640333539265.125
674398289202856.375
1340422992642301.000
1345850946684046.500
1123495102244110.250
559406971627497.812
1143498962219583.250
2469145185726405.000
2598817295925983.500
2037077712310621.000
2485045812050014.000
3405991827593795.000
2100773029156390.000
2246277699788842.500
4603550346532918.000
5703519285602802.000
12802018750276878.000
10183567776974474.000
13603814594482280.000
21269873958787584.000
12909800463062574.000
27342812093810636.000
42130462880518392.000
62319350724241424.000
83522329857318464.000
75952162052187552.000
64550292333049920.000
142474315154057424.000
148615390116908832.000
189167322131215488.000
267497400628080224.000
204606401105983936.000
121093409062955552.000
273396737097640000.000
217413846743726848.000
110486354336800000.000
57092416614099824.000
76883107470648432.000
156614017090868128.000
149501126804227488.000
189960787216301376.000
464011126873463040.000
379355974319413696.000
340222128782779584.000
331179099666143168.000
676565684533361280.000
380455500808331520.000
889103161392769280.000
719026969105708160.000
417351442881218560.000
235402177372658368.000
288947401575398208.000
189982403199660128.000
118778959864436256.000
270898238664045696.000
264125109030580736.000
202794010689992992.000
116284082578698064.000
144521461829597152.000
134745145502998000.000
109425395263551296.000
128397135218859664.000
159696704760572768.000
158452289140503552.000
122334806373175216.000
67203668563011416.000
37370089587024736.000
33130148048214084.000
73649424470319312.000
106105400236169056.000
103040813157810896.000
210412817068667232.000
286892009231418720.000
223566502885041248.000
458261829000454208.000
397098039463961280.000
214160424753044288.000
341111855367175168.000
871865517734810880.000
1313299212819503616.000
1079754967740366080.000
1540942704140999424.000
1393133928920165376.000
1482030330536911872.000
1403608472554284288.000
2996704748511040000.000
2478620147030771712.000
1307125336516288512.000
3007774556911464960.000
3657233676313175040.000
2174787113090874624.000
1186012431692061440.000
1258840664915976192.000
2766530454528489984.000
1541599888225643520.000
858937476672955520.000
854701456295243904.000
1685765601903828224.000
1542033583917344768.000
2047038419773139200.000
1078529527400813184.000
1365542488939815168.000
1185844805536270592.000
2934663107252123648.000
2270398836209197824.000
3547741213568434176.000
4362287492248679424.000
2610745576169805824.000
4026785362258308096.000
2285716874846654976.000
1366640469364526848.000
739031631825420032.000
810162360918864768.000
1081099582478491008.000
1678668318885647360.000
1341739366282535936.000
795229035319874176.000
405843905217615744.000
246618810498494336.000
135725528636835088.000
215908359249313568.000
127988939134072320.000
70897317222221064.000
79677162854322432.000
47144207887709056.000
42676807475635792.000
22140427304229992.000
19064144628274328.000
21266649073850168.000
26862174896715724.000
20310460743726276.000
12242195053805594.000
25676423687699332.000
14319850265628158.000
8075214977183795.000
8360889552773718.000
11366580516443438.000
12707417573908198.000
6690665275326200.000
14279998224695542.000
11928014219321112.000
14163055924095548.000
8260845223738767.000
13239274239511824.000
13905743728322152.000
7212193203275556.000
14367099034453862.000
11261208573899060.000
14185443168380488.000
17707080327777198.000
48869430507189688.000
40298674373233112.000
32524266717447084.000
33131123226989728.000
44695161381287920.000
60710759974258160.000
36343847141539560.000
56881827009080688.000
68862168197893800.000
72590433756070448.000
59864276632395384.000
82634966286114960.000
74783944163350336.000
119105161892974912.000
148469410203318176.000
156911543777607840.000
246395304240973568.000
140577501053721856.000
114614257637980240.000
136816097367795520.000
140237686916655360.000
85227893574177360.000
66416567920808720.000
80618885270726832.000
72683014730764288.000
57591052696543160.000
61322660071989280.000
83724945400840928.000
73184216672446016.000
63648634789541856.000
84826712838240352.000
44826941507166472.000
33566891397146864.000
35035398879365916.000
36965203921633888.000
43529713096277448.000
21975882009311752.000
49309676164485400.000
25415476359389196.000
17528445723288168.000
39974012534088200.000
81325497639859168.000
85568186578488816.000
68560194769373432.000
68687564019899168.000
156143285365931616.000
254362731119339712.000
146095016048337664.000
79856166145943376.000
71240013258962448.000
76256137503589392.000
44785345372841072.000
22873626379226644.000
19407471733898340.000
27350872161317480.000
14293619325026128.000
7968554593802104.000
8452269938871729.000
5599332032247023.000
12017389548781096.000
12982806614791294.000
12520944626276714.000
12807247099750158.000
7672441872797715.000
6196801047282620.000
3775909077891332.500
8054902783780421.000
12961372202776842.000
25688353598332196.000
26089216574508928.000
18040865523270088.000
48245975400606672.000
63267570673944600.000
36754749848983584.000
88872520412912208.000
48358921341269184.000
44836452970289736.000
22789110236345660.000
21498277637683952.000
11487304451595344.000
13126738574218708.000
17604559899831002.000
22222321231529828.000
45287912972977456.000
60875109692420352.000
130118707392460240.000
104380055728013280.000
64193306940087672.000
144569911975872832.000
80764019784095568.000
42688549030996168.000
22430136426235484.000
46303737489896952.000
27120836996765268.000
27183049278863748.000
44272716230565464.000
25154590425449684.000
19679628841287424.000
24182054171393848.000
27607689805571888.000
22910535867914952.000
26588755740080160.000
14703356596763246.000
18815358444728316.000
10880232570455658.000
6554388619378319.000
6009566818087976.000
8248805816721556.000
7135299890235852.000
6654367462344281.000
8311148470451880.000
4756912570180368.000
3616851053218081.500
4702619521327992.000
3554100498066003.500
3811275986931615.500
1939501387776712.250
4156307308151258.500
4782845088252845.000
2498113420804767.000
3820694903251108.500
5480417473656534.000
7368258452551277.000
4467710876362129.000
3863287309526197.000
4346458100507789.000
4111239428231950.000
4508523544747398.000
2575337923591180.500
2000018193861224.000
1124775566870606.125
1786238155159134.000
1018735104455552.750
2644750571005621.500
4043059854964255.500
2148935845085258.000
3231492307481843.000
4071387228246133.500
3764625490424230.500
2133075855220908.000
1856494665997569.250
2365622484949017.000
3083480377361977.500
4538829590390631.000
6442950696416687.000
5555917422053164.000
7481199171564056.000
7687344424861410.000
11339800051265742.000
13828170818854724.000
18363341312784648.000
45619297952576096.000
67370915217455616.000
90204977143098624.000
61253720000342000.000
161740749213849312.000
191899829055014912.000
517780314660975616.000
392394780930573312.000
507467588537498496.000
519958862960975680.000
805161875999206528.000
1175665387279912704.000
2419586098557519360.000
1454328503126377472.000
2115296195897984768.000
1166245308572947712.000
1346678908466323200.000
1116494621880976768.000
2818759929529628160.000
2258037650019351040.000
3024397888594507264.000
2505334696920531968.000
5437819870299351040.000
4871042108701021184.000
7678724456900641792.000
16851923772552644608.000
21736313615702949888.000
22908162370948456448.000
23562264318367481856.000
28382712354570940416.000
16324575701478676480.000
13910075500634525696.000
8277338336144274432.000
4606012211574404608.000
5472954739411527680.000
4327561065964520448.000
4613758268554192896.000
5190938835900350464.000
4748282213779992576.000
6725794082002976768.000
16978200970757330944.000
13461964491340392448.000
21227618353719259136.000
52538288152583168000.000
30391102781654228992.000
39386927941576499200.000
22969784245626200064.000
29748490087485222912.000
22082559842914684928.000
31817970843454816256.000
22498636385421307904.000
22597724752229105664.000
30068837266239172608.000
39010936653740064768.000
97194534753042972672.000
99523872037523668992.000
83084913833115598848.000
102259514202490060800.000
168464051185827414016.000
185540683870992760832.000
297419081186931507200.000
241535583267276816384.000
315263430585455738880.000
229409986534684622848.000
558911372552834252800.000
559964837671006044160.000
298906894392218615808.000
157699764623323693056.000
165630728150484320256.000
128077316811196792832.000
183610246755987849216.000
166175297785898991616.000
340235933287870758912.000
269099858581157609472.000
336448511935727468544.000
341542742819095183360.000
261992444167686848512.000
418694907022996471808.000
225998745687645749248.000
620519579934309089280.000
557858270904835571712.000
596188744061297098752.000
345001129185455112192.000
255066464390733692928.000
279425044857125470208.000
143735362060618825728.000
76428048462035189760.000
160975145226703568896.000
145963203957173026816.000
169275063987560251392.000
193520529050329546752.000
169752091222123020288.000
136268353166867136512.000
78144468697727778816.000
47835908745830227968.000
58758173402875289600.000
73776029762353307648.000
88040510099403980800.000
106300206996573929472.000
94046552925204316160.000
73147536036949942272.000
91853778420806909952.000
79224037339287519232.000
88401917169203691520.000
73114034705492099072.000
97055759449318801408.000
51495310109959708672.000
43729043604393787392.000
25903046872319369216.000
26538943528633528320.000
15470358667568740352.000
17570984724855216128.000
9920779560859793408.000
14086698491322290176.000
8498462403158837248.000
18344686636458334208.000
12773875317319778304.000
16810124803989786624.000
15276450841703417856.000
13089540378818926592.000
7345281289876389888.000
9502883144589391872.000
7301495850812024832.000
3841020946725510656.000
4420562463323076096.000
2320762953325405184.000
1148009892730699904.000
2626780444169624064.000
3737889574545252864.000
4641859715602989056.000
4955829129969509376.000
2599788251811891200.000
4144334816601283584.000
8998390918366575616.000
5297056545935454208.000
3833651500766575616.000
9063537088976008192.000
10131973001195161600.000
14453171012429008896.000
12403427990084943872.000
16577210842941093888.000
14483751108738619392.000
7539865051515938816.000
10067300366111926272.000
13672376208253235200.000
8277260849749762048.000
17803207366438979584.000
15449739810757171200.000
9379269706984353792.000
6781778009260817408.000
9463928635666126848.000
10191077084958941184.000
7861607390764008448.000
9800876655192627200.000
5510982589014718464.000
5332988922846851072.000
4010772951966416384.000
4759427595098793984.000
2665062749184802304.000
2131558330220212480.000
2920151949585065472.000
2434495251315435520.000
2755973898750494208.000
1508938357919986176.000
1365409984378217216.000
2027663071195137280.000
5573208487868196864.000
5427816062685952000.000
8749301983307152384.000
5153842251829068800.000
2729840756631633408.000
2208780380208729088.000
1337013826462680576.000
1534229539551000320.000
1333490167116655616.000
2699281488375602176.000
1453130804777702656.000
1287146716485353984.000
1169009463883268352.000
627700727117856512.000
915629836547816064.000
1375725928253345536.000
1416997486311539200.000
1242292842405843456.000
2592466779314640896.000
2704503961267876352.000
3622146412746452992.000
5468014236189687808.000
9015270884264498176.000
8029150402714009600.000
7146438313529286656.000
9626477726343573504.000
7701879284057121792.000
7727708814462098432.000
16861244426248896512.000
12675363921161326592.000
7225980866578470912.000
4026041353700961792.000
4974739138660071424.000
4252732995842336768.000
2247239249433772800.000
1355739512241150976.000
772183535643234816.000
862736820851309184.000
449223404818072640.000
267277094151810752.000
260547386877517376.000
141686371179974080.000
217113794281862880.000
517888020379901952.000
810821951941476864.000
948414210823987840.000
1123748872802504576.000
1332140479141718528.000
2778068173239243264.000
2011380163307108352.000
2350769561093235200.000
3034875859500621312.000
1704167509219402752.000
1331024904333537280.000
2902213267544670720.000
2049347502379444736.000
1119969238650528896.000
1247176311720243200.000
1613147049813272064.000
2302963598556342016.000
4656069600236367872.000
2527264873246343168.000
2014989701130354432.000
1245604151748321792.000
1368220354884007680.000
2109318046752109056.000
1224373433404804864.000
702813196233584384.000
722615233229229184.000
830611822058790784.000
748011366214053120.000
384187465354006400.000
525470876504303168.000
472570325593986624.000
353942340420395904.000
505603021811131328.000
671966228392059264.000
850639284217199104.000
625453403843706496.000
1515971234206720768.000
847329397771115136.000
742653139570749568.000
1587193438975308800.000
902966659705258624.000
480015995139945920.000
698938362074894976.000
404343146835169984.000
350478360020005824.000
367253598395608832.000
788790157007777280.000
636853459685382144.000
356673587111766784.000
743040057099619328.000
638048334280296832.000
901752809923271296.000
752090298207223424.000
606741511750712448.000
1492073869495886336.000
870134116547615360.000
502924101064031616.000
384929469032869312.000
363857773004609472.000
481816724286142656.000
702593704733969536.000
709671449148538496.000
369886766925317760.000
911225485122370304.000
816330341839062144.000
486861811004865216.000
375489334022531136.000
385941651796097856.000
491252431290205440.000
455029612861319232.000
620947376258331008.000
823687485285975936.000
472861103113537728.000
767358508195853312.000
422974330773912064.000
515275623033447296.000
660034835496080512.000
774533384319148288.000
399185786180734336.000
505123307542379072.000
266991473289178880.000
136940135816496560.000
116213587312021536.000
65482616351576808.000
154788099657851744.000
107309235633589200.000
66472465335945872.000
136943137932755392.000
134083862420924848.000
78370491434806720.000
47633986305543648.000
74968796300404560.000
75791571566145760.000
120333248793169984.000
67866181603815728.000
103631786416818448.000
290508824809381184.000
394680576001834112.000
849339242321702144.000
435452580584003968.000
236225438054385824.000
211016277774738624.000
255936534232062144.000
136359450518769616.000
154746025879024128.000
119313330410603088.000
149754344270668256.000
108693751386060000.000
143728102604658640.000
141330095761486000.000
82028749078479024.000
49248775212210776.000
33244603867395280.000
32997735509655904.000
34194335588619300.000
42968036517128168.000
26002531085786340.000
14820155394390388.000
13997860894085728.000
7898090942405566.000
8064718058057218.000
7850657829458077.000
4314479270735613.000
4666978953517838.000
7202722359740393.000
7217535645547141.000
6077383366317776.000
8455852630093378.000
13033395160848746.000
7250399330758025.000
6084081547188493.000
3034930010520425.000
4636579836725929.000
3431067739106162.000
1723703885345106.500
2512651388398803.000
1927574828030326.250
4197322594608632.000
3153201188307887.000
4688464064915020.000
6044597913651101.000
12239283021824178.000
13946802281096004.000
27746962509312888.000
14782787585823270.000
20503991585885776.000
11750751078149256.000
15257200069634720.000
14456509546022176.000
9934829800304096.000
5888234371202352.000
3343590761608425.000
1922455206203164.500
1184898796235120.000
710225300801062.875
1090177065070274.000
1008267978998116.875
1435215901839083.250
2273914023855631.500
2014515641583316.750
1003874286845254.125
2387639296934805.500
3359615277113116.500
1720806765253265.750
2040774744306381.000
4271285851889286.000
2500508593658871.500
2408334549402229.500
1800757267289788.500
4330750778875425.000
3665829003968610.000
3264323241556414.500
3242319988697216.500
3789299101554372.000
5572198873102846.000
3068911599716960.500
3563077199945430.000
4275914945105090.000
6375980114790735.000
7291316046680596.000
15084325036498488.000
14076242236765496.000
12701080680262836.000
11600403041887122.000
10048619237345302.000
15332997931461690.000
20350906585269848.000
27139460700130348.000
26906744406413776.000
26914679413704196.000
38754390098160768.000
48929565486577704.000
45250393535490888.000
23450397291372452.000
35287626366652768.000
40288961588521360.000
50577838063947280.000
32348501066726448.000
18324122163443888.000
46158830597999136.000
58565810749168152.000
66531065192507624.000
83218134587036448.000
81620872076657104.000
72064052790507520.000
81120755996888352.000
72290193247401136.000
88208319797466448.000
47635331022128544.000
75581451081355616.000
162972867218597248.000
154985132009457280.000
78817412175389904.000
84588164493479760.000
125217847087187408.000
72880714451975568.000
154207965278449888.000
189875058565457248.000
207481395493188352.000
480216699369112320.000
511746996664084032.000
532517733928539072.000
699791933545195008.000
748908940242301184.000
934553223103785856.000
1326713012210355456.000
1178404435450045696.000
1385211158810183936.000
730814290566211584.000
1681062332404566272.000
914318041394205312.000
940813799830509184.000
485334622487034752.000
268956673625814528.000
291178028823221696.000
201826378193857152.000
292261521332230528.000
203341387590136576.000
254539726484018560.000
202350814579537504.000
281747140209106208.000
155512290677047680.000
84789340891634096.000
51051006934488888.000
65115864858071736.000
73437865918078048.000
106574241483158912.000
138598757506228176.000
137795351911305648.000
154272540804276864.000
240943408120772064.000
249161457363000448.000
235888752679064512.000
228522168966182912.000
218354389982726112.000
110424139639284480.000
276214250023535008.000
140147009313874512.000
74694218513961056.000
43739791892674112.000
65947897393938488.000
79949749634151184.000
90221195259863568.000
146110772847314432.000
131049680314021872.000
116479379328340624.000
108391802150669392.000
269762524108981920.000
235275429713837984.000
263068236529528800.000
225799831409225376.000
126706900549200720.000
296559730676165376.000
236055643860846272.000
196631687452882144.000
212805758190708960.000
115710079492476928.000
70882109864512832.000
91489535574720480.000
47062655718841080.000
27515011187355980.000
27356586954746532.000
21596684609486472.000
21168922764178068.000
12866618073773938.000
7288523918962865.000
3843388293611849.500
2112103673706938.000
4648924195908872.000
4325361965738644.500
2203917666151180.000
2599007310964189.500
3189205096022225.500
7413469402105341.000
6598686864105862.000
7946719998667697.000
6628100902994047.000
5785921673731005.000
6082875627315269.000
3690984024014803.500
4837490678031346.000
2599334358923943.500
1503513050017704.000
2172074611977732.250
2475864054160265.500
1883121565806029.500
2604408358297125.000
1417771248951111.250
1383934773157615.250
1134635695225052.000
621182209050925.500
684329412052838.500
1435236003157195.750
2180180008527584.000
1810955201598971.000
4376479681930289.500
4861950692413771.000
3253553888885854.000
7471161246630533.000
3857896980838399.000
4112296526455791.500
3757133598999707.500
2126649592721726.250
4890481953211809.000
4394181736768654.000
2292299783985418.500
1274711374056064.250
1006740065454216.375
2548465340156938.000
1936786335490996.500
1874026341242288.000
3974765784444815.000
8588680394374091.000
12008697291728268.000
18926461586092280.000
25385212328485524.000
19049857395026292.000
24525477750412320.000
22103685598093624.000
13287572654638974.000
11805325432526420.000
18730772760004856.000
20405390028974404.000
41911272688901736.000
50960918668699768.000
43957861358801016.000
49522589700930624.000
39340970099365176.000
80326402598823504.000
72387661829901904.000
42008332861901008.000
83311618424920448.000
88094879742962928.000
110145454559204048.000
121065167774893664.000
269366050590229440.000
142053900252392160.000
296140041111119360.000
463792667219393408.000
450693300783615168.000
388601291087193344.000
223091609670583712.000
120992027080284960.000
138030438848454176.000
114466083234681840.000
139677153277083760.000
133843296732514128.000
150872575673269440.000
124191759363411024.000
164084344342519872.000
150587143759594752.000
162932898072355488.000
93360978291182176.000
66651360533051448.000
81764526142670928.000
130772453720704016.000
265629992199339168.000
370835726011040256.000
498363330506754944.000
530081647303750272.000
736530723189278464.000
688147960266272384.000
359087562436991744.000
394253790367520192.000
868745711467113472.000
1344795475304345600.000
1363285123331320064.000
1385596884486190080.000
1718180106943043584.000
2525103889024310784.000
2370651794315902464.000
3149720917643164672.000
2320775770009742848.000
2738095449471273472.000
3116891201692564992.000
1698975530049552640.000
1223326858031990784.000
693615964401774720.000
730849293932403072.000
1539821997034170112.000
1242805737710171648.000
2496231099548263936.000
4027351831623005184.000
2214053033993373696.000
3008390876149346304.000
1561284940155969024.000
1168253285908816640.000
2666731227133050880.000
2464404797971857408.000
1446161650913748480.000
2159168781586027264.000
2105026914227514112.000
2479113323947689984.000
1278711493459305984.000
1761125725153484288.000
1390377693385501440.000
1710202396049601792.000
1320804794083228416.000
694520726302760448.000
637569593574162816.000
1452659383211857408.000
2871777789246770688.000
3092091940017180160.000
1634497447958161664.000
1460756533319576832.000
2904178340098927616.000
2775330330086606848.000
1445796197461289472.000
1199944568641389312.000
1597086322224099072.000
2362774827443549696.000
1430700299746015232.000
729963283322852736.000
850082689731147776.000
494466134157005120.000
287308798373625888.000
198926015987435840.000
291694027714151424.000
244438603179631744.000
251696049280796480.000
292437757799065920.000
266557269284759584.000
263332376591606912.000
198959326810405408.000
236645139847064192.000
206436158091473728.000
267226249549597696.000
216979923129110656.000
283362544246775744.000
237915604352227296.000
534748993482802432.000
489305968353246592.000
532291927373085760.000
429060207990785280.000
459370615686720128.000
516502945285389952.000
683354346867250944.000
951531961056924416.000
682313307181523200.000
1757688463981740032.000
947163518968588928.000
1453133334831915776.000
1568620429198458880.000
1745327447377422848.000
1344954631114320384.000
1633027397650308096.000
1586539094839124992.000
1221050420109871872.000
638906933974355456.000
827136467939423616.000
739810916252095104.000
687037076787342976.000
1602340666993823232.000
1152837737371442048.000
643910315894877056.000
930749410734878336.000
483477157210652736.000
365377474295658240.000
451616041328781952.000
931066836852100096.000
677047152488539136.000
718827539788532224.000
1505649936282902784.000
2209353623054460672.000
2761755552401392128.000
2499529865485906944.000
2385112440162713088.000
2490161357869053952.000
2123274366451768320.000
1206696828337984256.000
2705333803797767168.000
2206184453630773504.000
1268721228833856256.000
1504808027382952704.000
1173842384336056320.000
1274600114614091520.000
744305667921518848.000
1530165837684721152.000
1657626224904285952.000
1299707564599395328.000
685810693770921984.000
798480364827981312.000
903733126947712384.000
1236437624513812480.000
1442583587121476096.000
1568546578547135232.000
1747353605525217024.000
1417660763403326976.000
1328364887887167232.000
3169802994977327616.000
2312287900355929088.000
2487466528502602240.000
2858266331427730944.000
3698200026423899136.000
4670012168757636096.000
3948329607069471232.000
5169683619893081088.000
5675282695639521280.000
5434823437465042944.000
8779597902588047360.000
5172242401664258048.000
4292946774987213312.000
4114701545415864320.000
3850253559673254912.000
5121027273439605760.000
3907113148693586944.000
10072317818745989120.000
16044700506947788800.000
12635677810460295168.000
15672149370954024960.000
9226816269604128768.000
8418395051566863360.000
8819265966608045056.000
6884483485697958912.000
18085958110456338432.000
27706788043215855616.000
31110333148597112832.000
17075899263494983680.000
9312485121590435840.000
12636367117799475200.000
6915714467698313216.000
9076178663545197568.000
12816898585069574144.000
16072623267799420928.000
14297491315717978112.000
17366100059982555136.000
8913436659450213376.000
6775207000730086400.000
9024382253594008576.000
4991359118560415744.000
5494863686864057344.000
3906960681143344128.000
4195502428227234816.000
2505840440586400256.000
5337007378121203712.000
4716010946051930112.000
5294522442813105152.000
2731089137862916096.000
3005716323031196672.000
2591064845283694080.000
4051424318189476864.000
2035904628093538560.000
4893486494059603968.000
2951013452239991296.000
1721217489978133248.000
945244892865833216.000
1371641981043808512.000
831832711369431040.000
1647012078246780160.000
1394141682394502144.000
785116574125453568.000
709581643376945152.000
790658416358373120.000
425098571123058624.000
917452304067286272.000
480856228837890880.000
628101692209108480.000
383793571562772736.000
495780983783470464.000
286521279491916224.000
232839391420507232.000
523285882829082240.000
452364297967684992.000
257866169135804416.000
290043387423108608.000
208755723896789088.000
222812245588096704.000
482693533498149888.000
281732480790900832.000
444423644270998784.000
261678555715370688.000
225065943315565728.000
520688064016860032.000
358944781703591424.000
453698975097090624.000
902364996849043584.000
891466732397819136.000
482543200527730112.000
506092510910419008.000
287705511398074400.000
449176065313516864.000
261836110135327168.000
209262032962970592.000
259664756565168128.000
213246524858451168.000
236750440338847008.000
127503096409696784.000
105930585682904224.000
266795649020675936.000
294917709153131456.000
200302255829315968.000
527228030200354432.000
344607650649683008.000
429095605129658816.000
249708552723350592.000
135101295005511408.000
117524472690015520.000
154580821800083008.000
162273852455897504.000
83375142087354992.000
120786708920610880.000
144975499128411648.000
157555840988666752.000
163330803469390848.000
119885425340098880.000
136499007130343200.000
69487393218477424.000
82667588768863280.000
47768233500855976.000
38930182980731472.000
41748125837061240.000
66687046604376624.000
138501710976343168.000
76856279423025392.000
90838440631534160.000
73502898906594624.000
39322620867124912.000
60804628580945280.000
139919164293849840.000
74721576860905872.000
104667923275970352.000
65107757839068344.000
76995580117937136.000
86149731158321456.000
46950741848426280.000
38912766529427800.000
87216031076792000.000
49133808772989088.000
38552256932959152.000
61086987350551240.000
33223050635133816.000
20294968745481124.000
20555823238684908.000
19720824590193180.000
11959333505918090.000
15517455277773496.000
10789437444800970.000
26584417231808364.000
18951993768176004.000
26550987030391652.000
13874834471230808.000
13171677785895320.000
10150191152942540.000
10074244620432998.000
11102055022269508.000
24903497648176588.000
21408186939922928.000
21553708835323284.000
26660169499892176.000
19727678338994000.000
40678500813817904.000
38576929279009456.000
20050926388616416.000
47395843144107152.000
34604515637270576.000
79690681392647168.000
42722680292984208.000
45281879523556176.000
38927382503808000.000
41856733247877800.000
48375424405596160.000
27058381940661712.000
22743919166418516.000
49471608251872120.000
32170929957757408.000
19354705315241568.000
47005856170512064.000
42355304990027560.000
45064101240056312.000
25627335900199836.000
35473982049862244.000
40531210872478144.000
36373324809295440.000
19175094410984872.000
24730406954958652.000
18105543645021960.000
48903539315784464.000
47267440412374816.000
60235989201569552.000
133307565821729344.000
117304132329484992.000
119363240729323200.000
72181627802784160.000
38277744634885048.000
48588278292394024.000
44698948390290720.000
58654864053193144.000
31802146840566872.000
48498933216582336.000
27308220402243156.000
21958932804894100.000
25585522806997956.000
21579979846257272.000
10920262097688840.000
12041150935127610.000
12444794752709526.000
15202128473228770.000
8379994813239066.000
8026058712715263.000
13156601301112150.000
6845618793450483.000
5737661216351573.000
12598223972108484.000
26527093957158356.000
15246359385001236.000
10149291224753480.000
10215364764765032.000
5560833554802793.000
14141331249166450.000
7518160663615536.000
6883695914434028.000
3916149643448220.000
2136683972264018.500
4308898384810731.000
2406430619728967.500
2179931817101797.000
3017460453615781.500
3656536034598453.500
1845010260644023.500
1940878857146991.500
1130525442643486.750
1144681832930858.500
590234099330414.125
714768895293072.625
1443519040549541.500
1172944761007244.250
998122058565233.875
2107054888756091.250
2440232251992665.500
1918297789393507.000
1762855364961809.250
1924051900601859.000
4299857247898692.000
5856208838863390.000
11884245847952286.000
6918274038958737.000
7994889180513448.000
6516866233373819.000
8586641644595277.000
7517289098835567.000
6851045285279640.000
6709580112107601.000
7736117748671249.000
7642599528858250.000
12234786420723130.000
6905395385706823.000
5900508148011525.000
6044234922850822.000
3691124324854883.500
4414459812547004.000
2535703373939088.000
3654549939092682.000
3754994798610689.000
4426350582119719.500
2264152399929703.000
1261134329578748.250
1982880439775522.000
4608426743269215.000
2659910922868773.000
3694872747557050.000
4311116350131501.000
5963765465698462.000
7930475375900835.000
6662468845075304.000
3473683709587967.500
7371465481585403.000
8526279372494272.000
5716045157506844.000
14351056873884194.000
19049781247387476.000
10893700230902720.000
5602885317302006.000
7643291520897022.000
7863912857900916.000
6865662027272733.000
5605196925464369.000
7576358443731705.000
10755050112140542.000
14901635756818126.000
13391268141512418.000
7070019988306398.000
10455224223539346.000
25739951006714220.000
26021635186349804.000
22066155063082764.000
44414984629166528.000
49689611461223912.000
49716227770322280.000
41776343989937400.000
87271754427617568.000
64998316638055872.000
91474317489562272.000
62687857307018128.000
61726839983678784.000
58704048331289816.000
65704050232387864.000
35983976148273644.000
34450137271247508.000
82115545044470608.000
44064800716415496.000
42383420195095944.000
38061034878805128.000
19504943540644148.000
23457593851940640.000
37971539617646776.000
33237275561837952.000
78613404622400352.000
81440378986442880.000
61520586717747904.000
60600111928614720.000
138658682706104336.000
143779082541137248.000
200557852168325536.000
112026230059281792.000
107295096105353840.000
127051478101640528.000
165353818073312896.000
140856730077707392.000
211963616028189216.000
204581327956809024.000
193282156996574240.000
411833566518479168.000
397672354713457088.000
230345603042432288.000
293681437227905920.000
255117111584431392.000
220665527537035104.000
130086661933030752.000
68663225794391624.000
91453445748782304.000
144013198091698656.000
226582761136531712.000
273496658559277472.000
151728675625896640.000
83673948498245008.000
78651584916254816.000
70250421480421152.000
85670138024771872.000
66123697818526448.000
38679889114882848.000
88335351020915680.000
140663220852443072.000
73152275303006384.000
146205301195146400.000
161016656072218752.000
251034421314403584.000
129439727562783040.000
287834661597423872.000
429257621027659840.000
524300568135626304.000
522745995742330880.000
435022232864729600.000
877460661360506368.000
476727332557433216.000
769441522957388800.000
1206245635474812160.000
1521808625489885952.000
1176309101263901696.000
2966264128815905280.000
2063745621779537664.000
3095060529785300992.000
2777027433236956672.000
1551283109194078720.000
1196964216670241024.000
2767721459977535488.000
1632621675971369984.000
1436406350689259520.000
1183794409580099072.000
1693426662018014464.000
1531925006346012928.000
1543675033851624192.000
3121573889424309760.000
2400240553507779072.000
5195566171841277952.000
3066699879423261184.000
2410896485436470784.000
2861708373736275968.000
2450678175686982144.000
1454421830207410176.000
1255725176965973760.000
3037505899278103552.000
2604893907420983296.000
1518436513005161728.000
1469366039143718912.000
1626974806941730560.000
930869854063802752.000
850963129213160960.000
1337937999957314816.000
1585955472683005184.000
1175964248058151936.000
1351657685179608576.000
