32.635
68.519
105.982
95.060
256.690
258.130
366.570
752.532
690.992
1434.338
2346.445
4653.512
4543.337
4404.137
4690.969
7254.270
7388.281
11730.999
26366.925
40346.728
87565.093
128407.637
140889.554
133146.889
143781.597
205412.898
499210.487
493456.588
762229.707
1730147.114
1772276.856
2435097.008
5022778.923
9925125.089
13980557.926
12777505.336
12357223.276
13663716.963
33562438.883
51699133.963
50856895.790
80222569.997
176799228.850
238211494.182
241260707.929
579734209.534
532560177.776
561300847.830
551540743.181
524069330.023
499534895.727
759837897.393
1669806313.853
2680596933.985
6313797593.425
5932724793.426
8353671219.549
20936213753.907
26190113779.389
64068175551.037
96774383548.689
153090092327.538
386912291858.602
561348670867.641
882270717018.410
2356174849988.054
3441595514400.706
5000787519120.785
5375435386410.585
10888920384158.307
23647910944489.012
22213966399288.441
31031890951155.828
62499617555080.438
62733815228223.305
56587056142965.000
142867459146415.094
175869950850608.344
371443047707140.188
356610203876972.875
755092083897592.125
1170320211209873.750
2636910386982420.000
2439993034620961.000
3953585932648406.500
6350847608007596.000
15968131003182172.000
26345152615811944.000
42216986646963056.000
93413002452528912.000
144982362163663072.000
233257116042800896.000
247808683406284096.000
245700250250117312.000
236958135329279520.000
231844948912741984.000
214099112485268448.000
207983937540652960.000
511893486064383104.000
784404095031229568.000
786416976603293568.000
951968643364085120.000
840050514916158080.000
1228537416358530560.000
1741430994297833472.000
1603935677693300736.000
1366791707659923456.000
714045335935798784.000
762409441309707264.000
922589161971878400.000
769561785258468352.000
448051882558592896.000
424874382646547072.000
855061884720528896.000
879321370260080640.000
960551950265158528.000
1470935603961431040.000
787394365303498880.000
686171421164281216.000
400214920414465920.000
539798130592557376.000
474150535193822016.000
942479493946623616.000
975041307660025856.000
1146415150686894336.000
1539969864709970944.000
1176144014775228928.000
1308277000664493824.000
659985646699632128.000
854216203157156736.000
1680184844608494336.000
957175397069379456.000
499662751414653760.000
445246925822831744.000
248873551476012544.000
522669842355982912.000
809010283420410880.000
1312902431390966784.000
1752794142285390080.000
909341243294923520.000
902552148497859072.000
713817014294105472.000
373499367140078592.000
466646266810670144.000
715243281663432832.000
876847105710738304.000
1320180164934820096.000
1397258693368753920.000
1447784386979168768.000
2120413317749232640.000
4842350514041405440.000
5601776726448868352.000
2857728846104349696.000
1501864401774472192.000
1224475387223792128.000
1209858235055079680.000
1726922947697386240.000
898461646933841024.000
498411321078378240.000
298643759470686144.000
268028830483939872.000
217557308579128448.000
245180046606101216.000
130300269747990080.000
151834190900800128.000
79173763006219360.000
87440005840478784.000
47863710200863688.000
74085700500610576.000
44716163269145192.000
23096168117649500.000
22579539555823724.000
12475834131170552.000
6463608069674694.000
6066129043049458.000
5892842984219015.000
8881150465431511.000
8145346455779562.000
4892653839897701.000
7502139054531654.000
3783235659601197.000
2097757708354907.500
2566004693075773.000
2717623533368081.500
1482848300545157.750
1021753505639760.125
1457550388241827.250
1271816922197335.500
1394525567188363.750
1053119306394534.375
1426787762431585.250
1029877454558458.625
2282341922422471.000
4717991134927881.000
4805492250876270.000
7097678663065424.000
6563932701131918.000
6139188226128088.000
8177919973405713.000
4810803388409242.000
7018220949984775.000
7735371968066479.000
8541928125262831.000
6495373200459938.000
8241972717436434.000
7818777946292719.000
4136598556136470.000
4501600247429649.000
6953386371854700.000
8464031442018241.000
6069891006421986.000
5893169639480053.000
12806799627615818.000
7527642328227443.000
12131606750173862.000
16037969367353406.000
8630405547207099.000
10685716121224742.000
12136005321207646.000
27750499778820156.000
24138947109008208.000
12624920018687708.000
10663851821241234.000
25732262591173332.000
23154043414246880.000
13327168341085528.000
11904544708913478.000
18846997751985064.000
39218645931335792.000
48853141719692352.000
26114851300328244.000
42626401187879208.000
39518295420220320.000
47497286065188176.000
63822043834831416.000
88919694777943808.000
73606460841379280.000
87940691457325232.000
74266392144912320.000
151325211440728480.000
198932399636440672.000
273865535158414816.000
438160247964635008.000
245715999209930784.000
124924310322361776.000
76364661405720912.000
85465357668552624.000
88502514453740768.000
127472442950627024.000
156300762276617088.000
89456405367189360.000
72578867648676880.000
165548996525616096.000
227213529988710016.000
301567835722068736.000
405969440358698752.000
462882326153487104.000
443525465118339264.000
668960417794866560.000
1536515780132933120.000
1217608712451064576.000
700890788816137984.000
935650453056919552.000
1409809591789025280.000
815744917869321216.000
817144138788784768.000
719436083338416000.000
1631385907530632448.000
881531932102426368.000
1190252386411441920.000
3089944502674272768.000
4173142018814053376.000
4097844003831985664.000
8805487383156418560.000
8137775759481930752.000
7680387709133291520.000
8706603363202471936.000
9926364904771708928.000
15172660908367417344.000
12036488306656352256.000
25789105151152513024.000
25214142257021140992.000
28064177287689281536.000
43205519906432712704.000
99603379929427083264.000
52589519143376535552.000
42687972434826928128.000
25373945277835026432.000
29417415547291496448.000
25653890553293156352.000
33356991645931732992.000
23392262964493586432.000
28862091548976631808.000
16061675689472659456.000
14768982377254731776.000
16639220648092624896.000
22009882212285952000.000
59285924206381867008.000
43717745379009323008.000
90843764757959639040.000
49128544897534672896.000
29840749112283615232.000
17623179810368620544.000
9471855620270204928.000
7055896607727729664.000
7847632265167522816.000
8433214949585682432.000
8464722238645945344.000
7312451070694121472.000
10193445334198018048.000
7399350440828999680.000
7015025322421619712.000
4232733053467342336.000
8643383657177066496.000
4673890040956069888.000
5349798600452093952.000
8025104437918244864.000
4642732627154321408.000
2415818121326662656.000
1406987375866187520.000
823845877613958144.000
894730168527019904.000
677937533163349888.000
915698288119401856.000
736370251564245760.000
1729318935500754688.000
1415863674612711424.000
862410583149751808.000
705493628498045568.000
375507276682650688.000
902960993640961792.000
515284332250880064.000
673532304579006080.000
793215766173231104.000
449085964815169664.000
258066917578969792.000
154082166379011456.000
92374279065916832.000
49413827045772928.000
42103390259277016.000
47638007142815696.000
39301929154052776.000
22820367014751660.000
23740951002047576.000
37291585316063192.000
90174904618562000.000
73728674130584288.000
75239869655528256.000
40723525008853392.000
21895496078691136.000
44049830625677416.000
39683518571465712.000
21725775085923132.000
19290758638681360.000
10882035591216294.000
6416838549437232.000
7923742036911733.000
10438084867705938.000
15075384146233224.000
10630680638015940.000
6251214996744328.000
15720975686846606.000
8601695821627621.000
4781864087641350.000
7095454812598005.000
15294127496565738.000
8286771240892770.000
6409037992378632.000
13390274175577302.000
11041020904001164.000
5884267256333700.000
8247356681021091.000
10613384335710600.000
14494073211510896.000
14069025088935300.000
14192301833297442.000
12226986704626214.000
15979243066874292.000
12188984268131618.000
14676454867996964.000
8073512721382441.000
11361520953674924.000
6907003632926232.000
7752089207865140.000
6422562439817253.000
13569463423653840.000
16005699275307270.000
24762825741803460.000
13995691465044646.000
8106218692437903.000
4198499967478807.000
3788907203626361.000
3362549120965719.500
3351410273688980.000
7935177995522102.000
4117185454666059.000
3305253345693132.000
4136464092871911.500
3592254332917693.000
4221108424538851.500
8548040700015930.000
7906972106868489.000
11899185767103530.000
11673635485029080.000
6103472188917633.000
15019128943212492.000
14143259824371586.000
14648470525500998.000
10913391067777814.000
13744111978614244.000
10560145126985434.000
24418202659583360.000
50948273399026184.000
27720042934299044.000
27148882581181716.000
24834594398169976.000
28249573906211184.000
28583557839283660.000
46301714902097104.000
66073590957820464.000
60746240322085424.000
137164002553200880.000
166595996448461856.000
111561662399566608.000
154834214186417888.000
112658701282528256.000
61687705444517848.000
67289807499079984.000
35019342540879676.000
92437217698106304.000
71074902235045536.000
68049100787392224.000
41762413948136832.000
37362142680912688.000
85445579372301904.000
115991108893857520.000
123479096048817456.000
264215848210194304.000
370790696355685696.000
210978653067746528.000
120467766134179248.000
156411684821384992.000
216900005605489152.000
202198786731220128.000
297353564895020160.000
153269676557431776.000
79645073567736224.000
123508127281258880.000
253050539345154336.000
533857206798786048.000
419644384780854720.000
361114846947264384.000
882583178596877312.000
470150093538825728.000
737874530014879488.000
795213059967386496.000
652817015157436672.000
834228303862556032.000
923393873323848064.000
486246031728061120.000
662559018496585472.000
765209841931096960.000
1639883688520267264.000
2099534127303952896.000
2888756215113590784.000
2350027791288365056.000
5528467043044120576.000
4667164022464376832.000
3752027653246541312.000
4337334411718827008.000
8674239454903145472.000
9943040355142488064.000
8632314691082733568.000
6804534781509151744.000
16506307998983645184.000
25958605004202942464.000
22389370053052092416.000
32481266260963422208.000
27026318934476079104.000
21963895078626807808.000
21375957523778441216.000
28799550443132215296.000
45763042163486580736.000
51779715340599345152.000
40706249031972028416.000
58926965901353271296.000
43335027819255160832.000
23852232903884754944.000
22177365112407064576.000
53879645175882940416.000
56803884863002378240.000
45774871025969807360.000
23566887517442785280.000
47388032005683380224.000
39904119358422564864.000
83098693633585315840.000
46382586080302219264.000
39407562937143050240.000
22806082702334763008.000
12763660909947322368.000
16914043276766179328.000
27326871644850896896.000
30400887879119921152.000
46000548457852829696.000
47240366450394685440.000
38646142313557204992.000
102668413030525435904.000
150933429321955868672.000
89395278319838281728.000
54025363120108625920.000
30161228403596959744.000
27177271768531013632.000
15990789652203896832.000
24283124499263291392.000
25490174146889363456.000
31760621919738793984.000
23171181934666649600.000
50343302740150632448.000
28405215398660190208.000
32167113715060748288.000
31042097028681179136.000
22712920716472684544.000
12927452729070999552.000
17285724604626673664.000
15104111664351275008.000
12569167953981739008.000
12769072271310931968.000
31436808526271451136.000
29621707241046642688.000
26208132228767367168.000
22004396587678105600.000
45272229755905810432.000
92849583920557408256.000
79133865201582030848.000
43259491811926286336.000
24276862955858923520.000
22994689134130425856.000
11898957896644610048.000
7431485017196693504.000
8118106543037342720.000
12760992917696122880.000
7622389631937795072.000
9584178143707826176.000
9377090944569014272.000
4761531449300331520.000
5153406111380797440.000
8241510805401973760.000
4689692997628806144.000
2681478369639476736.000
2324689024895131648.000
1318651709378266368.000
1500691794878894848.000
1700582733475181568.000
2153868776421487360.000
1298199661678918400.000
3017133081652232704.000
2400320333535063552.000
1319465033375832064.000
1168392797641473792.000
1138529386395853952.000
634372412661633408.000
807088835501901696.000
428264372582018880.000
382283407222588608.000
520392362992202304.000
289715451919825600.000
248925776620998624.000
145106742542840000.000
81508046514815504.000
72231407424197712.000
82253719577911024.000
66166985982384448.000
89106500048304784.000
65643099333933296.000
33179914861919468.000
42553915619750016.000
47648393252185224.000
42664650637689576.000
23802118926708808.000
20054703145637524.000
48059240633096384.000
26662865770239512.000
19102736694730004.000
24212121550972444.000
27127440494014312.000
24613515553180632.000
27229535155761248.000
26520354507352160.000
39528677168181632.000
22239325247405788.000
31988069253171824.000
40292135625552392.000
86838143583665936.000
69853879165728360.000
38162121805125184.000
19688685509161676.000
21001075797210444.000
12518832324181556.000
11441821261656976.000
24432694554529060.000
12688105153902294.000
14861565896731578.000
12786283392405226.000
7465765889818907.000
6786511168264691.000
3644310236310761.500
3156577514776588.000
1694195336319900.000
4672175174265853.000
4504537197046744.000
6481676968328714.000
3701343646439161.500
3411435485647901.500
1919828233601238.500
1772267116673236.000
2385648816223256.000
1412144729143726.500
1242167550443922.500
1282994767914440.500
744865441344763.000
1150439736136915.750
1429834449365584.750
1885988639637187.750
2112332303026306.500
1284052385306351.500
699366856038293.125
939386646706426.125
1209300827744528.000
1916207150886960.750
2584368858520138.500
1395415007852271.000
1179201579945459.000
679661835290040.375
524194980381144.562
1398241021008043.250
1869102377611065.250
1710333907569223.500
3876859234704906.000
7735167548762822.000
12015923585475488.000
7374629750547706.000
9976248177455762.000
5416234051114837.000
15039478465693526.000
21681461849954944.000
45339135860763280.000
35611923192466060.000
86868045469465168.000
114711508609129184.000
67059828238639408.000
104216748114078992.000
137082142345403008.000
79323969314931440.000
59287080300822264.000
127533884125212960.000
106574425053112032.000
64011597246924768.000
64182178427848640.000
73501688360140848.000
72525783639125056.000
111937862022862416.000
144703435238954400.000
132784858054630768.000
103623165496988320.000
147934813027199232.000
201772386606971744.000
286300783478955360.000
454717630636551296.000
629935493921655168.000
369674790606278592.000
183829986657903424.000
260788089469609728.000
147002490730652192.000
82448519451255680.000
122161109179306704.000
148850948456117760.000
83293056258201872.000
57300672085975856.000
154615532476407488.000
81492531928612784.000
45702799007002824.000
72754639514561328.000
41946634640207176.000
47635627533729728.000
31451445908217636.000
35985461872892920.000
49712815796499704.000
66586174867384416.000
81726738400928832.000
88154386829718736.000
70301046568312688.000
89168322213038544.000
56719929483821768.000
88149215238130704.000
116152302715308496.000
120599676064319760.000
108547924067025104.000
114301258078678768.000
277564931521430816.000
212849372074366496.000
471978776808453696.000
366927654782911680.000
481773085755949696.000
516405320563920320.000
722639366978772864.000
752186794507924608.000
450693624623971776.000
473375434253271936.000
404935900800045952.000
613859117020851200.000
765691293971592192.000
1521485480679177728.000
1414444219842213376.000
3037487305958644736.000
4695387883998995456.000
2428180765718879232.000
2453343382643921408.000
1969021202228166912.000
5020704808197699584.000
4609086865158601728.000
3492289392742829568.000
4147746711447180288.000
2302805003941105408.000
1265686393147841792.000
2670562849144568832.000
2824930875463420928.000
1554440525626348288.000
834259152151049088.000
742333606541757952.000
380775330276495232.000
921576877219637504.000
777770765101811712.000
743961711350838144.000
924201295347523712.000
627171131644764288.000
879857407871564672.000
802572417312094848.000
927031202345326848.000
491697518131458176.000
359191461089637312.000
373922968942158848.000
185500671113633664.000
190772000911321184.000
113105822226935840.000
133556317987661056.000
148036144883473024.000
75634385729731808.000
42638854420893816.000
37761019343979888.000
83034764859072224.000
47580907419311888.000
26317022173535400.000
26630622007755628.000
20643878733798660.000
11160534579216262.000
5799520899994896.000
14297840128855218.000
19910719734883512.000
26991832453122516.000
41609575125182600.000
23594568450410996.000
13746298598186032.000
18092678255192524.000
23097973882111148.000
11736046382480756.000
5953826551538066.000
7870888793477680.000
6800939705226431.000
8059111514869202.000
10194669105674932.000
10596480610397594.000
5422529683053873.000
5669938578783642.000
5772537821142703.000
8207691012615355.000
5407513276034829.000
6114408436349447.000
7740056608770888.000
5827698367340409.000
12195185321640864.000
12624940649586054.000
15283784298338620.000
14178461747358574.000
9927390649481858.000
12305918089893810.000
6369306343785762.000
7107739717239474.000
5545546975822660.000
3026761810881771.000
3403682333019801.000
3953740264967256.500
3033786314133822.500
4376576128028140.000
3198628284189638.500
1778729421402447.500
4266842845205595.500
4584317359278334.000
7193538651416611.000
8175571599817352.000
4491331667468767.000
4027065502319174.500
2257913210493279.500
1985452537845297.750
4629768636258169.000
2406644607514047.500
3408597649862024.500
3803813049024897.500
3843569064592783.500
4240422532851678.000
3025279921443196.500
1837627510431700.500
2522697930613709.500
2419588004196725.500
1282372178296704.000
655429537421701.000
650793510978571.125
1030785308939463.750
551398318327545.188
641185204973877.875
1303701912332536.500
696392888646472.500
528845352370596.938
1330864306550426.250
1295222222413444.750
1012152373474740.375
2645152845083517.500
4194439660374452.000
6232487250445878.000
7162800324215483.000
15012640962698568.000
12220505713792182.000
14886463171411224.000
23669676238608060.000
27294547529902908.000
21701675633630388.000
26258934041793140.000
34248430904843616.000
18361872279408920.000
37477650984619664.000
48708048632249216.000
44679479191888416.000
69875673560582560.000
110760244515548736.000
278905633816024416.000
235384276147015616.000
128024891241425664.000
121886812083181792.000
124430484448059056.000
146719748591949888.000
79556075972787328.000
118562611387382128.000
122113992216218064.000
249268264218441120.000
285041850783025312.000
281447880664679136.000
285450124463150336.000
149995126611165600.000
82444747286363056.000
73311046557040352.000
41865893683960568.000
44512907320529256.000
44080598422155256.000
49878103424750160.000
32603528024241660.000
66716145889747720.000
152702386891852800.000
134261514233136256.000
69332253889411024.000
35823795561041344.000
41349459577135712.000
37590894461065672.000
84380374659279648.000
107232661736356320.000
115836989213069408.000
147116803370568032.000
129386536661763568.000
271739232175054368.000
163041614489361024.000
126061567905497296.000
141829742942239168.000
149720674562321472.000
133173102586800880.000
121118135026371440.000
61163302385977256.000
79867654457256288.000
75065128257724160.000
42093054160286328.000
25684884389190264.000
33880200961696324.000
77521643611113088.000
60509994542825992.000
80515531831928848.000
42394029039979640.000
46869494800635248.000
65631124252316392.000
32779408301900848.000
35474932621485420.000
40613974410109360.000
47127261428750192.000
66791439400541592.000
89053808275154960.000
123681204740786656.000
146795043984157664.000
81367918242579392.000
118168670142367376.000
63424841530245456.000
159415667671120192.000
244850345814991392.000
273197789635274336.000
159586125507462304.000
229267118011914048.000
268680048727209408.000
384153804553855360.000
357017134252400192.000
785559472731186944.000
1197848575950058752.000
1514789622566102272.000
3000445686807862272.000
1604563672421152000.000
882956037981194496.000
824629946812310784.000
661941590725337216.000
963529904594742656.000
1381162191216059904.000
818554583945251200.000
426301770598820480.000
246497479593171584.000
126024730288686944.000
106988216761200256.000
62930525804577968.000
91695078105086592.000
77100930220896576.000
62262323259104576.000
90065793396743520.000
76800343948769280.000
44167627210112656.000
35967744293824024.000
92072699045973024.000
69097615790601152.000
86263520288441680.000
113149477630537040.000
138508189165991904.000
75050775960345888.000
40070879820944672.000
45294630215160216.000
63250304503062648.000
163543039602143872.000
236937167901614944.000
204204341040164448.000
461404033674624320.000
262836511427356192.000
372494805761960448.000
201715374613769632.000
261942177241558848.000
411465818425590208.000
913599395315196416.000
1341296246617167360.000
1375919207446022400.000
1545852047415008256.000
2357446967853897216.000
4766597556009695232.000
9492237827393929216.000
7290441913220249600.000
9931103043683547136.000
8621120799992081408.000
5186972852488051712.000
4338117476938878464.000
8783610668261425152.000
8827344035751946240.000
5010839483044945920.000
4861864821254037504.000
2515207850564647936.000
2877067347346487808.000
4664590523442000896.000
5175714424091506688.000
4261853323114412544.000
5599868021113819136.000
5494393466180748288.000
3107659830537312256.000
2582202192999052800.000
4052840433277609472.000
4801068608252577792.000
4697697608170335232.000
10249530643875440640.000
7915419789721988096.000
8601051543667969024.000
12521038919138074624.000
25814659583851364352.000
30536173942131134464.000
26723421391424413696.000
23470249040078561280.000
14168063384753418240.000
15320857257591695360.000
18085314314487468032.000
15066508488245362688.000
14792269953471131648.000
22588764177958563840.000
13278481872585885696.000
7908205502630036480.000
9270352094628884480.000
7861105154395951104.000
9635757400283281408.000
8357368762863369216.000
18442657210981689344.000
12890720357329285120.000
33142258266490626048.000
26727347439640834048.000
32782637462618767360.000
17401746666950631424.000
15957130028687249408.000
9589736330751475712.000
4886818245235309568.000
2911698883974798848.000
4292284235850184192.000
5534693248043210752.000
4664231401089654784.000
3958232537862993920.000
2071319577611559168.000
5394156626710745088.000
6870558078433186816.000
15135775922415101952.000
8603445805241089024.000
9430191104329187328.000
8438235785705467904.000
9024028168571538432.000
17900626301016670208.000
27736170467049431040.000
42556683093847736320.000
54484539986887360512.000
58107013660608937984.000
32327843080456847360.000
17972855536230572032.000
15648461858132275200.000
17156864491678373888.000
9023049337652081664.000
8335857899406311424.000
6666536095148588032.000
4070483020863022592.000
2485378533052261376.000
2803733582465550336.000
2331500001226056704.000
2675120458345768448.000
3979452735205319168.000
4122820729938761216.000
5462514619838666752.000
4551886932681926144.000
2663707942333847552.000
2272841133721611264.000
3138091328557806080.000
2686198444795559424.000
5615568231206658048.000
2878264491330247680.000
2811165906483204096.000
3082733539364576256.000
2216693432281925376.000
2882212916095706624.000
1662823108092395776.000
2620299574550615040.000
3012801674994389504.000
2332371801243800064.000
1210306044028197120.000
715148755467612032.000
809283641778151424.000
668563891523373696.000
855268293490338432.000
794664845140376960.000
899542084657036416.000
525601248481679296.000
843834575646549376.000
884967060452125056.000
1220818095568936704.000
1357420483548171520.000
1179256820604252928.000
1681910381883736320.000
1208516104684600320.000
725199464340772992.000
431824058813114816.000
392307554375714880.000
371606481723824448.000
213470245116927232.000
118115170941070000.000
67851391170443792.000
164909011170953920.000
112843987147532816.000
145794641757245280.000
194700691718053056.000
219538112060234752.000
132501476424097904.000
162716914560649760.000
120477192251820800.000
64991815580445048.000
160018942267262784.000
199042481629322080.000
114822437737197344.000
147223252847522560.000
231002650565193312.000
274063554310875680.000
373607882522896704.000
949606814729018496.000
497996245897976384.000
276040466345723104.000
202487890266443904.000
120371001731774416.000
153608348518815680.000
78133510237866464.000
66501254484395744.000
76179946654923232.000
40881467281713656.000
64872010978345128.000
141797760030907088.000
151168584278925440.000
200456058466733024.000
418140640087289024.000
339984311995490048.000
188610902636731136.000
248426279389873664.000
211120680859628480.000
193817418843885600.000
232727872656222240.000
123828601535140848.000
72481084242596368.000
150504997216146240.000
119650376625918752.000
161110544697635264.000
264066524548038784.000
229675250567128448.000
293691154746273152.000
227622303566254176.000
268398099965990240.000
401927097866794752.000
949418516668838016.000
1491021909618948864.000
750930128817786624.000
662972931220727808.000
699851028854118144.000
1483322007601951232.000
1325365086558737152.000
1386266452952602880.000
2131930376222057216.000
2549854491408391680.000
1529768412043749888.000
835948268831855872.000
648642734782456704.000
1340231962432722176.000
1618097458217415936.000
1197622418586041856.000
2869904394805071360.000
1456942373280153600.000
1151487220516392704.000
1294598208836321792.000
1492177715927385600.000
2289391111896105984.000
4711572220815414272.000
2402191495977057792.000
2999184587188589568.000
2506209922786198528.000
5396198044023606272.000
4047209993166713856.000
2030863185881773056.000
3000311418047127552.000
3562654039021907968.000
7335629422156364800.000
9201649807915040768.000
8044975559374710784.000
8870681986844267520.000
8481949535507910656.000
5155721895310251008.000
8134948039496642560.000
9498101773705115648.000
12006625375702464512.000
16929735288872499200.000
23030586484291153920.000
31557105184826662912.000
16638605396632764416.000
14476979778355623936.000
23118724234664062976.000
56428672486509346816.000
51861174680968454144.000
53136460998690955264.000
77202162214497124352.000
174428141068020842496.000
282158444659429572608.000
146399582802518753280.000
120557878414312816640.000
165370722368633241600.000
182670592233989373952.000
135614433171269861376.000
145755162441918152704.000
80497911365118590976.000
102931223412362215424.000
162687658589906534400.000
85061490977004388352.000
46771994613042135040.000
47942217346065244160.000
57519566608933830656.000
47632207989139308544.000
26663366832817717248.000
13432473534540806144.000
7762396273397037056.000
7705154909942280192.000
7356089635824995328.000
9339403329684097024.000
14812426188369113088.000
12445733642787235840.000
29854640489855807488.000
23717501241075871744.000
27632307172890857472.000
42663083373113303040.000
49777044887222681600.000
40766684684390236160.000
83391817607070089216.000
45921168066967216128.000
25915665743508979712.000
14339944825885095936.000
22848708265871884288.000
11323875480185278464.000
13953308382347274240.000
13489744820966649856.000
8014170338461405184.000
12403984968982970368.000
11474352943732631552.000
6895519909315415040.000
3852696889089709568.000
5081522071235309568.000
2965757604954622976.000
1567761512199226112.000
1224473920164203520.000
1602851738731451392.000
852055728226742400.000
511424099001666560.000
286706382279687488.000
238037420587869888.000
513580747548372800.000
285695049927644704.000
396972578555706496.000
511391782467141184.000
279316184572577952.000
445890779799219648.000
393895788040853376.000
440304157021295488.000
407734593616047552.000
939413427242267136.000
522992036227618496.000
366908073510220672.000
204112093035430176.000
125945343447438320.000
68812899392351608.000
138046104402756864.000
111890606529997872.000
156896503478723904.000
90396554700294944.000
82301580683816512.000
72113297297774992.000
64667912002795640.000
82584743369544640.000
42611452522675464.000
35014203531424504.000
19744860154711528.000
18657940527190156.000
10443379690577878.000
14221830633500466.000
12488773766774196.000
6762702192097875.000
7723864495130760.000
6596703915472032.000
13459828066587700.000
12205624786281534.000
10914063719461040.000
12246648973192896.000
10232498019438942.000
14808488699684302.000
10566215374536128.000
14257245102609328.000
23179648616732896.000
26336854473520468.000
21968685238560360.000
27562143314444596.000
43241960558695904.000
42642582677705864.000
21674983427194216.000
18804282194426976.000
23322404616249344.000
36643341371302440.000
21193736948857632.000
17994094604407562.000
22460992129456324.000
13096796151687372.000
27587201247529228.000
33438629636332116.000
20861907430408928.000
11664046686353206.000
27218173111954120.000
25421607655894212.000
25514951799031476.000
13686705469451870.000
11579474046541992.000
26754803885913556.000
39216870195970936.000
80341551935652624.000
73949801827170016.000
107841449563506944.000
128857177940182720.000
152126356309673152.000
134358131846786352.000
160771405375365152.000
110522860580430960.000
147373055590576672.000
122310589186125152.000
68157470301361176.000
36676434693486008.000
41947641161472360.000
65300520355303016.000
136350055681937024.000
124532705912641120.000
74397986541634048.000
160853932396197152.000
85579693834537648.000
90259866783976784.000
85330907155130960.000
64577251968369416.000
129954379358996640.000
135079086022898752.000
122519647112613840.000
72841712258053152.000
69283616569806440.000
151814414752718592.000
77727848608032288.000
47299489673488992.000
48050365700319080.000
75432249087490512.000
163688857272736896.000
148268959563772096.000
86874257590844992.000
83656490446692752.000
48312243152340032.000
36765822516506160.000
73684800214803184.000
37935262250959240.000
43308042339276984.000
36986728373148872.000
38598850010952928.000
43992347049621168.000
39844162102635048.000
22918498049284908.000
34715441379130216.000
34753882815613032.000
76888148478345552.000
85597683760469808.000
72346039537846960.000
40274544486493704.000
61796288944061160.000
70933441620675672.000
85553376344457632.000
136578248226013056.000
165259428594481952.000
237366449211560448.000
266165120997090848.000
392565178078318208.000
352622866771503808.000
849661960451732992.000
443092174549326848.000
253524941384400480.000
351362546022176064.000
416833856712575040.000
348959644416960448.000
529428988049710272.000
787533755785201024.000
631358275387319040.000
964240338815848576.000
536402148707312896.000
280266335649742080.000
164186658628681568.000
108271897161885664.000
160695463773597600.000
136989926404148016.000
162482989094148928.000
89598313829802448.000
70834244700310536.000
147923092044467840.000
216156543952123872.000
266843366260295616.000
224672498494975232.000
266111548478835456.000
528819223453169024.000
438359162120902144.000
487498586018014528.000
708967479279470336.000
414801434549429568.000
206855521459018048.000
222379276875682368.000
520178639828414080.000
301182632592297216.000
404722459312603904.000
632933591696961152.000
1423949784034709760.000
730189305295748736.000
890236910696300160.000
526673235829785216.000
402682604127249472.000
377064086981349312.000
226950663467619552.000
197826162891640672.000
120580765792096112.000
147977796594046976.000
117189121255010880.000
69507508692217856.000
85931553632406144.000
49323234221899280.000
64271315913532824.000
167866486046493312.000
139001885618885664.000
74506189518403936.000
42641074064061384.000
64715612116437192.000
61713849715794528.000
78130434694301568.000
121870576731311584.000
110005384733192528.000
253001199360374656.000
197524208907292672.000
277333696849086144.000
441163616799536768.000
466074950441635008.000
461355847748526656.000
742741634800139776.000
446310818441075584.000
919630349972517888.000
847211470029109120.000
1705639931985986560.000
1505606629404336640.000
849361877777809280.000
955530268418070272.000
1257007607321079552.000
2519521133672170496.000
3756124135978563072.000
5375790340969344000.000
4406247067913753088.000
6768154124632474624.000
3892020389554494976.000
4446973903701934080.000
4279773788150243328.000
2336577974499903488.000
4946104215733915648.000
7985149242853072896.000
9367705162504869888.000
15140189708794050560.000
17094955158099070976.000
14085020824328028160.000
17761396663278331904.000
25900448127779536896.000
22772149254460346368.000
28779260785438625792.000
32159213855235891200.000
27577096834564534272.000
15268892540441706496.000
13412630516885850112.000
15130173727317458944.000
12741057348447954944.000
28879473916998094848.000
32826367026738610176.000
53743810958814871552.000
82269905220202168320.000
107964855937118404608.000
76427478878738563072.000
92949090426964459520.000
74698021340367323136.000
42097923136394321920.000
23685290308011655168.000
12971585672208920576.000
27667546017432485888.000
27188239035879079936.000
28236817203619385344.000
15093798938027640832.000
9043463722323478528.000
5105637524268848128.000
3917737356965437440.000
3735085011430624256.000
4799746547942949888.000
2616493493628123136.000
1585380130240346880.000
1178186786537076224.000
1453205394044835328.000
826369883918510464.000
660656515081311616.000
381174717963174848.000
545597204975252032.000
380540829325403200.000
403446753684185984.000
895034491259699840.000
843218612223922048.000
708926739759640704.000
647744767118928768.000
751265522932268928.000
448849086135732672.000
531945299097364480.000
692401148823114368.000
777784952149475584.000
1159085230213266944.000
1371194877590959872.000
1340157240912000256.000
1391802624324537856.000
706324777660565632.000
1742860569578454784.000
908023455889501312.000
519840451164874880.000
732270385589313792.000
439521674447948352.000
416227534339604736.000
227499241814809824.000
276581247096299264.000
301011856413184640.000
399264120792611136.000
880532447928784512.000
497157504550899584.000
982048195778488704.000
855992608915690496.000
937142001639661056.000
1351092174447115264.000
714939710435241472.000
852491272717335808.000
495416253504323776.000
444003867929986304.000
904581200311303040.000
882210263088764160.000
525671850811697728.000
833394261620415232.000
942190057737483776.000
894449809424656000.000
707196736612419072.000
352950560788008768.000
385838151336258432.000
511957741212743808.000
300051293606373248.000
237947969613658816.000
143420498224892032.000
163152844387504672.000
87779687904024640.000
66214200547430760.000
151053814703854688.000
78217267402891248.000
83028173928005024.000
135038175472709776.000
71092756267375064.000
93450412976632736.000
60959151555591576.000
88591650193283536.000
67643208643663512.000
37350552451837944.000
20154775598777204.000
22865068122588480.000
25683931845481788.000
21231098512209592.000
12574711976180020.000
14780845193395918.000
18809616971207300.000
11732525713752362.000
5959824384961174.000
3603342522713925.500
1832324710350120.000
2249373177912279.750
1274033899340792.750
709090098982807.750
625312337642634.500
366054263140785.938
215347977480095.094
256414632301201.844
310768092576690.875
344517363596086.250
789082554405007.750
604712344815584.125
662841467940557.875
686553864647399.375
1361420565132385.500
1292447770782422.250
1881253435088790.250
1142936870810879.500
1150558352067206.000
696376106975405.125
1097204976970006.250
2400021616412470.500
1292026827957783.250
692696629920227.625
1414684903696127.000
776447790490791.875
792360475861947.750
417743010126621.000
234164313857273.531
339023414280170.375
175376442222255.844
405829669917365.312
322820105136041.062
812064860732179.375
441787630638481.125
584934499874825.625
714589183300992.125
372221118071768.188
435156293494907.875
395300126805465.188
231673388036084.062
365276175652357.312
380980454283958.375
763285550235916.750
433443780844147.062
453151363931963.000
437763211606334.688
349148104312256.438
780509457523292.875
1083888028523397.375
1005112287895915.375
556919785197602.312
651825798172265.375
547128115235957.688
829933202102669.500
1059650517050933.875
625757020010254.000
343651436719185.062
383626749680826.875
337080897736748.625
700823226493925.875
549343347987626.312
1283434173622538.250
692418959445804.375
570158006259035.875
1265615276218946.250
1382138132925043.000
1095660662336916.750
637352000186338.750
573191281645166.000
756404051667450.375
791043679908629.875
1290606938232026.250
1480747642944500.250
1924808456606411.250
2688145854616484.500
3921268728559564.000
3304977422473730.500
3270408036110752.500
4157302179894018.500
2357955920655418.500
3600622322402716.500
8427332108379948.000
4647514833848985.000
4421451927393559.000
3413752869353333.000
4841090546735916.000
3893871207331955.500
4855990598305048.000
6515317231164295.000
6764751850585502.000
5940276319100450.000
3218730559707508.500
4579310207895983.000
4272876568676879.000
3457663113546566.000
1797817079043808.750
1765422388067930.250
1900793550270215.000
2047769571187669.500
4099314805822121.500
3515714051658050.500
3327001979114023.500
6987363351284514.000
8234048298059529.000
13524277356244640.000
18399407402033888.000
11197282843898692.000
6723246014154901.000
6970882127568413.000
3545093337393104.000
1878527806749670.000
3921543861091111.500
3984123446546867.000
4505163573216410.000
4651171306914374.000
3682322725875748.500
3664670519199118.500
7736973362322227.000
15345983512276754.000
11389706456790322.000
6981877436518580.000
14307099974721346.000
20833720137258144.000
11584115820013116.000
25161758449102180.000
27410132208529088.000
36367303780962136.000
36262489610928608.000
47997572167539968.000
65720461798816072.000
36217600747177312.000
19501367330069504.000
12038411311240338.000
28008423831485064.000
14827796019161780.000
12014365653597760.000
24712873583447076.000
13781819958214080.000
7816233764278894.000
7894932043158385.000
4149693886852578.000
5567640875035651.000
6499653150531218.000
15370057076405986.000
22643881923945940.000
46505758097204808.000
37284069593279280.000
21012955149380172.000
12763171899890796.000
19484563707342904.000
18601398648062336.000
26008722664076648.000
14495957944685924.000
8140753764216029.000
6147755814035124.000
6813677465521170.000
10737922400667084.000
14235866543627856.000
10373705598543662.000
6238103547741154.000
3453448629948296.500
2049599936356394.000
4473902778326911.000
3275621487564055.500
1703638091962131.750
4420303527186273.000
2619156925717868.000
3926014957454219.500
3538195109192885.000
2128435982508978.500
4697023084181003.000
2567040030868478.500
1306537150298445.250
1046568678582436.875
1227856778731504.000
1375236521682716.750
769770452473250.500
823372799951313.875
611572957915196.500
636585458859820.625
557672363560098.125
681587952278116.625
1355242023165559.250
2111660654275489.000
1222765124094660.000
621636635528019.750
342673702519619.062
296474672456542.188
184863253187981.000
386378516263982.250
211383172381210.438
221696972287817.469
194933052129212.062
200386747437567.656
243738966403127.594
327910317460770.438
688904333127091.875
1029348435431492.375
2134303097942915.500
2564264946233667.500
1396425230187719.500
2163714602783537.250
1277039983388608.500
771887437888724.750
651170419375336.625
805482179319998.375
782453663777435.375
772338557025399.750
718689993902448.750
988565232551337.875
942045990792664.125
531216725909296.188
1103951456858712.625
1328857352334812.500
2030354905888757.250
1221719464979573.500
2521782310280347.500
1331510543354254.000
1099790828325262.375
961834586606945.750
2125695493898769.750
1294290531363819.750
1115874664114962.625
2416524876893274.000
1242838985781542.750
1281077922050258.000
993672094498228.125
1011250652224240.875
1138086088455688.750
573009804136928.250
1170750077712215.250
1288252685915510.750
1894093618926929.000
1050035572953424.125
979531777466020.625
526030670359708.875
303006852224349.625
771540566400608.000
1222628219710314.250
1662975279284246.250
4142853189053885.000
3112253252893024.500
1814806421624051.500
977412341031474.625
1186676691216069.500
643673851248343.375
390035810827348.688
796675324930428.375
1010654208525385.750
1445707799847982.500
2047592571005315.250
1762080779726771.250
4100206297219152.500
3839384719208984.000
3207854120332924.500
3140767503725067.500
1763060536564071.250
2262144793372089.000
1754959667252243.000
4301644069560450.000
6203437981061267.000
6328775774113219.000
8405472595268527.000
6510696349049716.000
9833662391179798.000
14616991465125990.000
21626459881630036.000
10945749647392496.000
11410642134322036.000
12426897747052608.000
6725475006510191.000
6741973612174506.000
7083301737205894.000
4156001102232081.000
4567131979301950.000
3700636233366499.000
3533831265121635.000
7664373047606212.000
4585988370775320.000
4755034818282265.000
3166953343386905.500
1809597942956912.500
1107239427016427.750
1403771562620790.500
1778130493596604.250
4347280811281581.000
6390702309217062.000
5528654780077094.000
12668876778710952.000
10214726747171946.000
26832860715355888.000
25005286742182120.000
22002979088488596.000
23928601217540932.000
12197972945207520.000
7224586796208475.000
4248053097524954.000
3480907514204374.000
4594589616331415.000
3437738459828638.500
3047735167013738.500
4122178304055951.500
3980540296471710.000
5592177202068812.000
6456109936782002.000
8521253675678995.000
8036457131743727.000
10555679317247692.000
11417766423822800.000
6991705843892861.000
14783545916035242.000
23894942005814712.000
26394285957541692.000
23192962080021852.000
20196390367045900.000
20143231779023136.000
22787928077096240.000
22867485992305904.000
13837408226697094.000
8218773325981872.000
4285614757925354.500
6131648696551098.000
7727600984322293.000
5626825062001701.000
6273136701580546.000
14918502456612578.000
11181690628026484.000
22548480718268648.000
19541041933493576.000
44996944321899128.000
26636867521918984.000
40073729394556872.000
23583371281477592.000
50063965352876528.000
66989969425900096.000
73825305282254400.000
66461110992030944.000
74177752949589040.000
84228860520251392.000
45904604689134408.000
23415982740279756.000
26412435167985840.000
26217785412914196.000
24829342336943328.000
14849657839001730.000
22050360750505980.000
33771968656503532.000
38538934315393328.000
32814054282274748.000
37333342671532208.000
41654070306376880.000
21532525859751364.000
28168451821445696.000
27109400490792768.000
20501770361253972.000
44263748005925720.000
67039644352024560.000
87324658900761264.000
49374376568170192.000
43237331039803560.000
21896468746348284.000
20300868754526696.000
11033079582319284.000
14112223512166740.000
7488089076426092.000
8644812429171003.000
4459213047649323.000
6847573203796707.000
6980987448115089.000
14067390490943100.000
28269722188735856.000
40939423858889232.000
42752201531636280.000
61195320505361640.000
34267243243957388.000
18493197668216432.000
19331567961679372.000
21980088861184420.000
33112682250642852.000
33184674721015144.000
39326581531981952.000
81485378137131536.000
160751608404114336.000
111880891475432944.000
156743968170876160.000
127601489125327376.000
165854506027663808.000
135047864917109200.000
72531268196166864.000
60150429425129752.000
33374826648453140.000
75816426313011136.000
85568871015232848.000
89248160833750688.000
88256626286012592.000
125083513557949840.000
132546004439690592.000
107648372727229408.000
66431295337457752.000
78660364723873104.000
72081092671664336.000
36724788630238992.000
75937990745382864.000
67488529744125160.000
88947446783970400.000
46374548963203184.000
61825380807407176.000
81986334797646768.000
80860817132172816.000
114996476261717696.000
156279188899885120.000
126526011069781328.000
70637196557458328.000
89716177819558080.000
72335064136325296.000
166072277006658240.000
140427255734900176.000
196366088057218656.000
476030105642043840.000
956078786277148672.000
1472204509811564032.000
739960371693538816.000
396155540069235712.000
231695714797889728.000
510691142345863488.000
429692658767261312.000
259358267426475136.000
139728643740226912.000
108456036329661952.000
65964781870550168.000
66538677047561728.000
35971545180005880.000
37791058199567232.000
23252384414384916.000
26334154535430368.000
37200923529332360.000
35825521636265964.000
49224107638038448.000
27919195146646436.000
25694509375214556.000
23789678744920788.000
