33.559
79.614
127.942
182.549
407.214
633.584
593.768
1406.579
1360.105
1401.297
1974.038
5145.130
7658.086
6933.198
7050.956
15430.759
23415.934
23120.466
21383.565
52903.109
81719.890
164371.281
229074.542
465507.844
484341.414
499724.657
704349.385
1801404.244
2610971.782
2697899.832
5711629.886
7949253.456
19461910.244
25641004.264
26707667.204
27539998.548
28285409.276
44195158.787
46041969.485
104132751.485
153853195.829
168958466.327
335455842.220
658289963.131
829887910.673
1803569754.312
3825574497.941
3745828989.078
5411337281.824
8549468367.138
8398530905.255
9291952815.589
20202433881.226
21694429844.154
27643117657.878
57737305031.296
122438918991.013
122128114913.208
165557963423.127
394578911494.517
394436623374.432
422401414529.271
572879184335.517
1198428895414.475
1943722383388.976
4030870304387.750
3680827022085.304
3983386168987.925
6277133960298.155
12691443492706.486
13104975754722.164
12853132747136.229
13540740700082.875
17770654647754.934
41360024760192.398
61258102202489.188
151353404438485.000
188750244741655.375
465492628654542.625
706079170189609.000
766539950894321.875
1152630223471367.250
2539685888278954.500
4047705361495006.000
8180797866417699.000
7717547742403072.000
11258917287930820.000
25862563515538588.000
25488787116109328.000
23496634412889964.000
49696041029168032.000
67348462117954952.000
64980632780470704.000
67664365054217984.000
170066236453400992.000
270021188875972448.000
418932768407053952.000
896277496190476672.000
1423769691730005248.000
1460379541605386240.000
3226211602651328000.000
2479240476916963328.000
1374255416633420544.000
740581030256541824.000
391694519928394304.000
499610902760952640.000
737089460819026944.000
387905006428375232.000
913324913666520576.000
1334834208333093632.000
1678858492876352256.000
988184527344761216.000
566752625362163904.000
551522962912862848.000
549386504233351616.000
439009943191629568.000
523681406607691392.000
830087422497060096.000
1767570145028191488.000
986511111508082816.000
551562548469773760.000
387831940036156160.000
240295197447044640.000
132410286622363776.000
140823655626764112.000
139329113073166288.000
175432654410045600.000
149388337500185152.000
166958403024352128.000
230609108538632576.000
294599640725449152.000
251699977024706656.000
282304432311695712.000
161244626983950880.000
148634400356747456.000
315946610094455552.000
400267434586103232.000
566925345992796480.000
690141169907141376.000
410279963027387712.000
246152549842000928.000
268682920071137760.000
239544345099482912.000
143993512319974128.000
80325684544665232.000
41263697995713848.000
20579885895651328.000
48983610893612296.000
40609978118723616.000
22760014560491004.000
22146725528570752.000
45612017029661224.000
36334494110013216.000
81500682431656848.000
42705707087106280.000
25093597953497376.000
20689585938765044.000
50928447114056368.000
45167254419279512.000
26773398670364212.000
25963597081247492.000
24135904478933524.000
13848182781385584.000
11511473455320296.000
6948847189865462.000
3551441784361061.500
3807608722276371.000
3972891359972226.000
2388568098902480.500
1337447765342774.500
2047094193382062.750
4628869572708359.000
4469082562739906.000
2680133502197491.500
2328733421764299.500
1238758729417364.250
1532619521319417.500
853421270629971.500
611969134762404.625
856230276777566.500
871686582436706.250
595350676064155.125
327433310332518.000
482249663938467.625
429442044431264.438
666741186920362.625
382522698050597.875
465734862255707.312
427096625661399.875
611087045536270.500
700995123451117.875
396595851767310.188
364212170678437.312
808013479850203.750
691791683002446.750
876748200894419.875
600751106963027.625
364467568064155.750
485027369470390.562
638747225325936.125
784615288530782.250
463086637671518.812
463291034096661.938
483776195381056.750
696968927366995.000
406515983809263.250
462916048522146.875
472721631481322.188
245199738630565.688
190986342955502.281
246200095850945.438
254778013805716.812
380054553338839.188
380765704149422.500
848981178881874.500
443480791341938.688
244768398430750.188
125480580101460.797
138448340933603.719
187681793368310.000
186525093535014.438
264966182600530.969
407063344427766.625
419195041964057.875
428950549905940.750
419850556258594.250
235952350341122.156
193058563152584.094
104641602090936.016
60447996837394.320
33458191928505.211
18454834227451.887
10773065932163.889
10986210969060.324
23884070731548.531
12969578997164.500
11194701137872.076
12685930057602.150
7531725414551.889
7514361639644.031
11632679514749.033
10641681881694.182
13629443782744.281
17711443276348.102
18152589733464.645
45010889992184.453
46354551222171.891
32984019026266.359
44085877529999.320
66271782556089.891
65500208747399.336
82786790704355.766
67530708344211.359
83558886987070.047
102793893783744.703
266464873284127.531
211849746318716.562
237415578716566.938
142922206279785.812
142465199367987.281
213557237309061.438
215160943930724.719
219144060721287.656
271587168347733.000
415359283741973.062
862587273897660.125
1368677653638955.000
1995898448426969.500
5120468335460532.000
5114542850817243.000
4638406830099973.000
2785695687769784.000
4401889635445331.500
4292018728558759.000
2439696486466085.000
3920259639498468.000
5063076593763172.000
8045924369776146.000
4644235834622340.000
2409921447268856.500
3500292782790929.000
4916901719174553.000
6641710128745007.000
3762260020475129.000
2059708794847024.500
2415554564455479.000
2623258880553133.000
1539472106064898.250
1932683145931920.750
2407448301081907.500
1455683626521488.500
1367688457782961.250
2761966015589490.000
2123508790700753.000
1144848898242833.000
1323095203539300.250
1559592771635389.000
2220735554803302.250
1315179015840849.750
1480226825899675.500
817183048865527.125
1207147152361157.250
1306275279392546.000
1401083859543599.500
1127048853642196.000
2623566994855207.000
2190657235995800.500
2179818494066819.250
4396961817770238.000
2478755355211204.000
1500000388344549.000
2218669401842659.000
2665257611501239.500
4069743066284974.500
2488367473143330.500
2625474436080973.000
2764971152974129.500
3662215863570025.500
4490360689468271.500
2498820760149300.000
3713819763334584.000
4948110144206990.000
4127292019311533.000
3759203902850675.500
8525422456687163.000
11300499562360890.000
28293628118248128.000
25448161685301476.000
25549821289275732.000
39715259917400080.000
90156106339121072.000
128682327250833008.000
310467038066422912.000
313133889601230080.000
252162100906956832.000
235284589928512800.000
298920812503085376.000
212898983926543232.000
555007293726127872.000
757576887815757824.000
846754200722403328.000
1677975104040722432.000
1002794962000963968.000
900271592345395840.000
934815512231307008.000
516756327312542976.000
814543768956973312.000
476229800031229248.000
533635268433098816.000
429412083160698048.000
936449966100963328.000
512228942775870848.000
413885218038664896.000
494769546998208256.000
261513768663565472.000
152161128144412576.000
120766951387474976.000
152228776172557568.000
315254478066257088.000
380148504946676800.000
461068969465421312.000
984450661919616640.000
913117343105629696.000
750372518725173120.000
379286086413720640.000
233607277291043136.000
266976127697376160.000
223126835664801280.000
135495054163293520.000
286303665026343936.000
171803167139893920.000
282634556122593408.000
162592261196671712.000
217821011927058624.000
235947556590536928.000
289860427344781376.000
154334517811386144.000
84370351660980224.000
91011540266264848.000
125242614013301568.000
139915711136089008.000
160353001990474304.000
145153787446506784.000
145022361659526976.000
219459195730544960.000
116771962004328672.000
268328205118165888.000
264656103079017312.000
149153157653103552.000
171746932517647296.000
162014627390900736.000
243685000610270688.000
124720623676403024.000
171192972141685536.000
160743927211840672.000
87758910462596576.000
48221599934326960.000
28156737530750252.000
36129343108924496.000
40755823678826432.000
97017143794444624.000
52926040331329808.000
51476530614979312.000
70016152331063264.000
93451767157125984.000
68934679337174504.000
93065737871226416.000
86507703590251968.000
65431550778394248.000
166002811156535648.000
229991288671301344.000
307666826631078144.000
254171135276142912.000
132187572470167872.000
210253253612061856.000
522231089974492608.000
515678892323582464.000
458330492005539072.000
542027753059886912.000
819120021375363200.000
450916062495969920.000
563213351192590208.000
304883176155380544.000
299781306112189504.000
225379116015610912.000
257165274434618176.000
132320149019897424.000
164312649078088608.000
260668803100804608.000
289817595067310976.000
210695816167746592.000
308945454876009600.000
174874106111735712.000
261255722326102304.000
233890177824005792.000
545846347498995200.000
295952528076307008.000
153062746233606688.000
80092579777696112.000
90856442479728064.000
51914920572734376.000
26589107162706612.000
40513506738155704.000
53154448252515968.000
48842329946024352.000
76305606506446512.000
39298409904469520.000
42501723834931944.000
48754361870382056.000
41410505698531168.000
22555736694583432.000
20888956755056480.000
26555989162521900.000
20371302508422016.000
45558410876569600.000
92846544699666384.000
69640901667887024.000
37064402280943280.000
52019918793163768.000
46676376024069456.000
52764675199901776.000
37756626834770136.000
77950891118630976.000
87264823743425440.000
84583569874978928.000
83883787805617408.000
45192306857157472.000
25530484844660820.000
37027736247498296.000
21135871573180768.000
23197224200744728.000
11809700876212760.000
12565608251005792.000
16399403837640246.000
16204782957328426.000
11631409630477300.000
26490546980970964.000
25875002213586424.000
23803226249453424.000
19930759979639464.000
23842494203290512.000
29463048148691292.000
23292405412048440.000
24371270052951140.000
29458782762675104.000
37841678693019680.000
45671956986489000.000
91723278320064496.000
87833367939382480.000
51450098446933192.000
49590806727889752.000
29367621040588248.000
42436701165504552.000
48613963938805856.000
50580282963460280.000
70988838847631264.000
70887866199254184.000
70885480554054248.000
80202121617784224.000
72072879434398976.000
36094566085875512.000
76850224381258752.000
77574760656694944.000
95150832554390592.000
50709100135832200.000
28861844158510192.000
22251027207122816.000
23118383070229044.000
29507387320378968.000
23393282142324304.000
12270371292381140.000
7435324953675187.000
6558835923893568.000
6178760562745101.000
7961063650142126.000
4699709692284770.000
6817477765698236.000
8935824464055591.000
7411852517980190.000
3974017212816128.500
4199267950148301.500
2371956654449078.500
3646728128635027.500
3839560846407250.500
4490153583301078.500
2392866877864561.500
4922201896278087.000
4254657360264670.500
2256563413689620.500
2014122860273765.500
2718777023680428.500
2032473699664917.000
4894799432442522.000
3503856708128001.000
2133941961915490.500
1228045061048871.750
1162622841564161.750
2596671529298179.500
3739658269675173.000
4872534426671784.000
4796317840987849.000
7785469927394983.000
8670659399558115.000
4703006848355786.000
6217851200949879.000
9200504648777922.000
12352731659478054.000
13491542491042296.000
8080845193977784.000
4135976094550455.000
4171367878601231.000
4040378410310008.500
2404817775657655.500
2087687565360151.250
2517426946264384.000
1435545866567006.000
828057552364048.875
793302476621526.500
627606397176495.375
841947911281200.375
729399605569720.000
408909334331544.375
327942430222860.938
408709562318118.938
395570094835477.188
386691381782915.625
407646799433922.500
884376267901275.250
811377405830759.500
842017166661391.625
782722240164465.500
1544111384367209.250
1554759889309108.500
1300081032122385.250
1321149866781724.750
1531413523580865.000
1140058579279377.500
1065803313869535.375
1115558839102947.375
1448943765511973.750
1282610008475284.500
749404482790958.625
627920511867013.750
1509895863935218.000
1302667533849496.000
1113600672386784.000
1565937253723554.750
874406001149399.875
814370193240429.250
787972524763098.625
1576307767976154.750
2345950598092860.500
1418689845917723.250
1567976348077773.000
2530396529305620.500
2160691832306157.250
4973879599041628.000
7696231865885462.000
6747647993660625.000
7859504745087518.000
11941725824408546.000
6617330161775644.000
15434359854006682.000
12408749914539432.000
25416458361130648.000
39481386062754864.000
22240301517297996.000
49897212630277440.000
28673959576644840.000
23884351960851584.000
38306605967742888.000
41756652726724736.000
25365640523075492.000
53320000227325656.000
43319897368648840.000
94985913232937088.000
67422395905433816.000
80642795958455824.000
66461352550752512.000
163743629403350080.000
252501929335775488.000
261491481188457248.000
156141746579865216.000
246896328106901632.000
283006513029676448.000
300776910242446784.000
167857407251697696.000
133490535071333152.000
299484001384979136.000
220388074203089120.000
310325936697465664.000
251404874000008960.000
220095608837838560.000
287457618434141600.000
298330370132891200.000
488121893070024128.000
773267192300163072.000
424575163656499712.000
510681782975437824.000
268647946146437664.000
255734059018660096.000
285259457928049696.000
171758235138461440.000
161686504201570272.000
123520876429935088.000
150833460979312480.000
133239299019466784.000
274590351541169184.000
416494935520157696.000
911914091120647936.000
1464111323787270400.000
2223316520641870848.000
4752811347925519360.000
2449958504517894144.000
2840036475917591552.000
3060278262482341888.000
4194295494602511872.000
8987008778235618304.000
10666700706933266432.000
8423304646818001920.000
4395217759216788992.000
9988258766422325248.000
9123539661073360896.000
10143384254343530496.000
14737990842247688192.000
31220291488096194560.000
32821072951109337088.000
19308610166430765056.000
16724223156578830336.000
16777814671103920128.000
24990218247154421760.000
13421623212782143488.000
28343433403834810368.000
14709921865051185152.000
31848223663114776576.000
17236255917846523904.000
15127132372821082112.000
15774320877950720000.000
24635228166299656192.000
13828368098983778304.000
7964924495275439104.000
17034525856074893312.000
13329165972636715008.000
18435887560971642880.000
10654916491897030656.000
5690594849855603712.000
4108019912952875520.000
10076547945683691520.000
9994090978913196032.000
15701155770957807616.000
8490578415475087360.000
5031718112960135168.000
8177695079496622080.000
10041892124779935744.000
7360200852500041728.000
10371640389007620096.000
5786075122776765440.000
4618640800921405440.000
5584945433416597504.000
2932817315960222208.000
2531647378354145792.000
2436815518101053440.000
3069810964299954176.000
1677308919707989248.000
1312096688767795712.000
1838565757714236416.000
1705029472174636032.000
905403480898818688.000
1424209744819921664.000
1750949264847363840.000
1391692996877064192.000
1300791926014218496.000
2747129920431237632.000
3071612650156998656.000
2367134678651616256.000
1436280426934509056.000
1841649170604803840.000
1542853466646445568.000
1296877557028201216.000
705195786433457280.000
815699430857938944.000
817916651082890752.000
898906553185425152.000
494305099208228736.000
565427007805293952.000
755743089944439424.000
1560411257046446848.000
1339871303608144128.000
1837771437596019968.000
1415166529425458432.000
791620919137325312.000
414866189553390848.000
534170598331945344.000
289951404276997696.000
277639505134801280.000
146642164111106240.000
85203263434426416.000
92435522407152016.000
47441598456723608.000
95013161621563376.000
126826026539623824.000
149679743988330848.000
232477689147719136.000
492418498828079680.000
551127401877917376.000
291701991530977600.000
157566148564573952.000
120143005595522912.000
171469729429973984.000
118638160751623184.000
160655824936970688.000
83633140526029472.000
44907641140486104.000
92060378592932400.000
48723154876332912.000
46821397045759752.000
42135564209091384.000
48324586015742832.000
38729615892011336.000
54022425479229656.000
50681116249621576.000
42435911672234224.000
21702207358952300.000
29955301687772724.000
24880672787523144.000
12696494851758306.000
29384142592235092.000
39324237994756560.000
49226756875722184.000
71627120572513296.000
93932321349713008.000
92619756974702816.000
70123901752841600.000
68596095669289144.000
86103449488436112.000
80120938952908112.000
47170288746553616.000
65083166391069776.000
90939712549885264.000
127902579753793296.000
141211784087704288.000
82592782974286480.000
67190363452626496.000
83508597004863616.000
127180016718921184.000
300777620116130624.000
245051444009802624.000
304565376589602432.000
305525426518588288.000
232531147154761824.000
515045815541175936.000
536275510173910080.000
291356250062374912.000
159458607625291840.000
83043202170749936.000
68379618850307856.000
70991766232774808.000
39912324191150328.000
21253406476118364.000
22737612585919996.000
25505914426260488.000
40605191132626648.000
48250202785137552.000
97516213346132000.000
71685975869463672.000
40056870263378248.000
91158578223844432.000
144688634261675360.000
165598342169284736.000
97366287764902912.000
83149228715846928.000
86407577063669088.000
77592545795808864.000
42427261651473040.000
52114154097105096.000
74961295967768304.000
84607788173610896.000
67218790976444432.000
39458536642646816.000
42273575159100600.000
36441752569919744.000
95980462468417760.000
125571641994974512.000
302305340286222784.000
251419560944132992.000
301475733780905408.000
154598626914212928.000
128043146134626384.000
69818330712921104.000
94763406035185472.000
147447818813566208.000
139334250205475968.000
73475686419460272.000
71778218336045616.000
144937619378317536.000
225258020867632480.000
213795751919234432.000
510478342987540992.000
1003329274290009600.000
866448366672261504.000
524937111446529344.000
267923429237727552.000
298771934115310656.000
171549799272013728.000
156495170375706720.000
146722261403320576.000
312326795514200960.000
243222001249291008.000
136427522136419696.000
169140043109956064.000
96566691172753552.000
92638336403127616.000
84859464599324096.000
76026292869694752.000
173742805828786048.000
267699826451579392.000
211709059104170496.000
120287973313468864.000
159548526095273664.000
121838183727377744.000
123553937972877984.000
170359736418351424.000
274466968798978368.000
228563055819151584.000
117478742094616480.000
293975963493427648.000
155973040527657600.000
116397538278315504.000
150194082242280096.000
81062523297814304.000
66181275194698832.000
152026302980795136.000
173642604355020768.000
169346909289588288.000
131518909171150624.000
122809629029455488.000
313546861991177024.000
250013052129920608.000
147429711379494560.000
85702854759437648.000
118811785861502272.000
310287314768658624.000
174293538303374240.000
156333034860754176.000
81959336814164096.000
42930507925416224.000
22292178867479620.000
25878077466487816.000
36272025724298080.000
20025827755347804.000
11392865499191192.000
11071017200807718.000
22426649075702880.000
46940712642862264.000
48935517016186048.000
27674529216917412.000
37780248704054216.000
38526989630473704.000
41267749556673520.000
41551541213392632.000
37191314602097248.000
23046996325775080.000
13196953074452682.000
6891959353096781.000
8204232371964369.000
7628954439181788.000
3865217462216790.000
4654621997386869.000
3543542267158234.000
8489015230382214.000
7530837833031490.000
16245602163267746.000
14407488910042394.000
14555993850686256.000
12877977049007438.000
7020167287379683.000
3681172334076785.000
4939409717051127.000
4615407780375996.000
4827917316080196.000
4334300298475959.500
5138487575686096.000
3608845342521074.500
4228997395694071.500
2476861020064679.500
2182281250214046.250
5063862409141430.000
4447041869691642.500
4312203808215788.000
3670682214924727.000
4450648729410647.000
4218009446640782.000
3898633259988948.000
8313468841947816.000
6550345200913542.000
7382204696942643.000
7520270890895523.000
3893211344349452.500
5023013231080791.000
3518475532160321.500
7478779192267587.000
11497932607991436.000
14085140451347228.000
15201451674186650.000
7858265959221912.000
7375631154474452.000
4091675800261267.000
4967765324502598.000
6220866120068950.000
3594629870233116.000
8979985392144711.000
13897297571265706.000
20288872276805148.000
23231959768222092.000
12498825345799568.000
7089935813358164.000
6311400117648875.000
15314333449867444.000
8785131829251054.000
6634079723988018.000
14506243319512456.000
12562936787389586.000
6639289198671005.000
8021353793887311.000
11864972519488020.000
14816656042975218.000
13842742296324618.000
11895500305177764.000
14307786697296628.000
22081108971255648.000
24740975908542956.000
12624582395953592.000
16119186178330722.000
26282515035296512.000
28714298880423320.000
44746179417661224.000
24754898486822732.000
28559539585395260.000
46480352136948984.000
93298910893720320.000
67412206773609984.000
85435788824363616.000
172085798705959776.000
140561992434987504.000
130856847397557648.000
210040710223832160.000
470573906294427328.000
567068299245043584.000
380887602202641920.000
989347253651968000.000
1552428693203483136.000
1560639404970438912.000
847372564592661888.000
489670535691251456.000
516630349551779776.000
801784768297127552.000
1003848693933366016.000
1272724375337997824.000
1228743989666359296.000
3053420063756495872.000
2692900319980424192.000
2590915115905279488.000
2618408922035771904.000
2393154066132553728.000
1231158906107802624.000
2714888182631810560.000
5417433669488200704.000
3101861901833236992.000
1702720825313025024.000
977641923646387584.000
832261659764153856.000
436829718649690304.000
256243349637554208.000
379244108657715008.000
426941733930715904.000
423745317325704960.000
402436744698367360.000
248247992427052320.000
223920853636662784.000
245390672484503264.000
125121786124711200.000
173234280814436864.000
96083328346656624.000
69127657961896240.000
70711940149323240.000
84989599138909184.000
43174167499711832.000
25019244231291888.000
53650769696314104.000
47195697578921472.000
26852039664795904.000
26343095830838796.000
38505829059356096.000
48364567936684496.000
40038116511341056.000
45702489616710296.000
93721783506651440.000
117389331574900112.000
152476208633851936.000
77255484082530160.000
96552947608637856.000
68915438307348224.000
92286236093507232.000
149222786567292672.000
212831071555560704.000
492104819863163712.000
689733030023334272.000
939744418591551744.000
809638212625222528.000
884925430394003840.000
757273955396359040.000
449294457544620608.000
559987863664576000.000
450298177049086592.000
406550176592585728.000
823092273927085952.000
444715262527109376.000
503918488667385792.000
812059819289829248.000
967046556449729664.000
875259724998227072.000
502541151733468480.000
459659900757075200.000
511277916609820480.000
442969635184124736.000
513437235128130688.000
557007287638290432.000
386568879036065600.000
433853051707401664.000
566115388917410112.000
483528075046266176.000
442296139048133568.000
223197750994643936.000
307272386171579584.000
162207969402907360.000
94349502798609072.000
87314030092077792.000
96502180519459824.000
65557898423971232.000
78441171397086912.000
65275021913390904.000
80261390243200640.000
45483529508358456.000
36961008108572160.000
93857765279150320.000
69539672683112848.000
82220074145044624.000
49632450145419648.000
40768997901326032.000
51871419799331712.000
28522751060259968.000
28327282733566256.000
28492031570583888.000
36440640441988080.000
38670924639543800.000
21638341162919352.000
12403654692795008.000
16079335753354742.000
16520102133128432.000
11853166924440770.000
16721573246583026.000
20669700067707444.000
21250650502369632.000
20781213984176824.000
42025414537761192.000
25356188800411132.000
14397224155058232.000
14205665644731118.000
30034634678052000.000
42143663307672480.000
25501745923189496.000
27782654773995112.000
26481673557570460.000
15082088134118510.000
11689749877039974.000
28327857175324916.000
26562665573747172.000
25754584776191584.000
36635279417603312.000
84038863711424560.000
78443660896627232.000
87994729629472592.000
86146425631700112.000
67636458492410120.000
154575147525238752.000
123887880930362464.000
122278985457518816.000
125318930664654960.000
161658736381943232.000
89074787990696368.000
84756842081507584.000
134665962100390576.000
117304830861517104.000
70457883078164456.000
80893860019214288.000
42215338350143560.000
54211705017438656.000
29054364907543476.000
21576351474066372.000
19999817679129244.000
28233558329987412.000
21701274655628260.000
24306440026822920.000
20504752616870648.000
11439838117481320.000
15770103076212222.000
13851042586772312.000
12258583347079204.000
14076160332866354.000
28000848563871828.000
14496378652300562.000
20587703881257032.000
28505391057518140.000
25970180422224480.000
41503436073429832.000
23556832279825092.000
22369052335914968.000
25437213199412544.000
20578834312348576.000
27030396802677328.000
14420507783480188.000
14143080999106276.000
15111495780200488.000
11687335231393778.000
16673140911163184.000
14207685921119580.000
21380162453153564.000
12914424512708804.000
16293439826092596.000
12549921375402066.000
15304832552743000.000
22344124470353612.000
24643501489742696.000
14106355975512416.000
15103060570068164.000
20872072369547580.000
46691701121681752.000
53845694415058208.000
48175761457654976.000
24472951546504416.000
14236577028985648.000
12365874525188064.000
11928193909660542.000
15825512673279594.000
12040159804807872.000
15846414227218588.000
8994491361061936.000
11879844008969766.000
14893611653471438.000
8921450338210942.000
11711563738312708.000
25877374852532140.000
40898357725266944.000
24223684569822660.000
21958172239216988.000
46539020668424384.000
66935361336002080.000
88347965393742320.000
173828775611830496.000
138012171005293232.000
168800898307461696.000
90617795803086224.000
89704928045913120.000
88533244835760912.000
69703605374792312.000
142039650669484240.000
284312998853401824.000
390638212570952320.000
237850884188089440.000
303555924271850368.000
396179859663041408.000
896495568740324736.000
955814292588210432.000
935279706881604864.000
787599683796098432.000
464282890933088064.000
950080094815389312.000
1001349874007186816.000
707924419828393728.000
379480963597603904.000
979921684010341120.000
851943599903115008.000
862410993865626752.000
512741122340640320.000
465041977664652672.000
380496251147311808.000
385679547615274816.000
426619068736060928.000
524572317462554304.000
526683948674261184.000
765918319213232128.000
464856698387205312.000
533899339593326656.000
541403059044625600.000
287109109149495840.000
272134192262497632.000
158568605221158880.000
223285105999696896.000
129225665495960000.000
119925846615079584.000
145190817052393728.000
77394082741795392.000
67866053241193632.000
86336095721364720.000
138470128108579984.000
170395190371963200.000
142185387745416016.000
127297479212317296.000
162700720728058176.000
145861600085694112.000
307308014475928128.000
260276013090592608.000
133863153111561136.000
70729967332454416.000
82208620011842160.000
129198587075629584.000
141275895018643440.000
172408937285033504.000
90285508001217296.000
64665337671248320.000
151392893213981664.000
161097617536102944.000
209578788951906496.000
280682234892477632.000
314516646074602368.000
261320171967388224.000
306287194904008512.000
289026481014504576.000
165712284744662528.000
128007446557305408.000
157128166566121088.000
93078892491348704.000
97285258229091808.000
118421953490124672.000
292726871710562560.000
227917188207832480.000
132734710076417392.000
162345220875878304.000
125714870758024992.000
133273544345588448.000
126232362081538208.000
150937888083377984.000
297736315923730112.000
240681150463527168.000
131735175239692752.000
165663590838977856.000
217154179409716512.000
298138410896826496.000
238620423166582176.000
506005586515169728.000
408640924469461376.000
517821878067466496.000
416198420559606400.000
841796081187703168.000
784188320149619328.000
990109395528771072.000
890500392858317440.000
787953760378783104.000
891839344355798144.000
479994249578487936.000
258643480943619616.000
561024556039563392.000
750258934826307456.000
721976826580994816.000
403429727228973888.000
451197496000782592.000
507575886196787648.000
285972049507620672.000
269265883546866464.000
136837842418827712.000
82020880254109296.000
70777083510520880.000
73007514618725248.000
116551230314792720.000
166350864621499200.000
214641861650714208.000
124055433049774272.000
135030399248054688.000
174380082922986944.000
241873559518356896.000
142640177061986384.000
72745432512232272.000
156490180259347808.000
169551965795748000.000
93270634372245312.000
75015517435564672.000
168101344142413472.000
158589729213812288.000
95504663751688992.000
128674002600322944.000
72904855683595520.000
78831520178234944.000
44018089930586152.000
47155702902156048.000
94557888640155072.000
116835414048373584.000
243372122730046048.000
308223883533989312.000
423163173710028416.000
999113857468561152.000
763924971681196416.000
1728091502000427776.000
937876072514533888.000
720131505866276096.000
391171501305079424.000
542722456771195520.000
383233524362455040.000
211067350088731680.000
258717819312948864.000
226687355896788896.000
265799513810183392.000
153869594417814112.000
144124741939946880.000
130230473858863440.000
148587738142718784.000
132548244252914256.000
289717843935807232.000
245190459416422848.000
500289862577580864.000
392172715941553216.000
242293000354403520.000
384696689596707264.000
485617836228005696.000
542393716398289472.000
382479252098497344.000
470234631440894784.000
275689741033907360.000
288299018180998272.000
400285730753755584.000
218774750395589760.000
298567333973742400.000
490750327001115648.000
993244073079703296.000
525641323650332096.000
310792528328395712.000
171076648962869344.000
163327297702899232.000
91762930415292336.000
53244091324601592.000
53679169648803160.000
74030113319755568.000
94115862327627408.000
81976443846382880.000
64841039735550768.000
70992412704145600.000
94099429599566288.000
67059270286732872.000
35984974813146168.000
43995678361561176.000
38987995914310880.000
46163171995416424.000
24259365193938228.000
27504715429989984.000
21418178276255136.000
45063239470135200.000
24959334762118156.000
28241611146094236.000
23055137307284256.000
28751335699385976.000
26854911276454132.000
53735181595649552.000
43755383231589416.000
23572723040383412.000
51175726800384352.000
52250738099305600.000
28955365360752328.000
24195811138189276.000
49831956701453064.000
72412589007280608.000
150175165994054624.000
236552168556265184.000
306452564183135872.000
308560570120051328.000
209820850813441312.000
237128095465463424.000
130696908553642704.000
136849538087994816.000
285356321442928992.000
149545015583751776.000
78809807350540000.000
84153195713362272.000
170067906622642528.000
124651229071346816.000
301294085876179968.000
311424791274508480.000
279301214716136640.000
236630177855259168.000
511248217570077376.000
1017438303121611264.000
812754048686085760.000
1663717218218359808.000
1785286895998805504.000
2520536585023785984.000
2288863132885087488.000
3142160436080436736.000
1645870985014847488.000
839423630465114624.000
685495424003852160.000
405457907537547968.000
542057063226582336.000
453097536201503808.000
247377486369780512.000
399505219967750528.000
569095411809770752.000
855028413598832256.000
483312160432408384.000
560175100974981888.000
531330651451886400.000
300372612860165248.000
167435684375942112.000
116228833105308176.000
256652232790495424.000
247556351652241728.000
530962500016050304.000
407192215388439104.000
544436739795376896.000
471649842554939136.000
264828949795705600.000
222634385778741760.000
281868619640940288.000
421296211744544192.000
486089695442276352.000
549858895722861376.000
445546058695691840.000
512542718217191040.000
300414169935485184.000
315333974364387712.000
294467593566227264.000
262613900180345696.000
421361312760702976.000
497232913831934912.000
406366161493033728.000
509410414654077824.000
680602594571749888.000
1708689056137219328.000
2324691857014212608.000
5719397676649287680.000
5856602575336682496.000
5968354274226120704.000
7616166987009686528.000
4157296999646584320.000
2380146067740775424.000
3288706575750435840.000
1768380690887991040.000
1680780887261484800.000
1292110038906796032.000
735615155486776320.000
1719915700417557504.000
1312024534592736256.000
755145986117979904.000
1015947571649607808.000
1467396584757888512.000
831293608014975488.000
455980614458312768.000
522924645691726400.000
492725813641509312.000
538526823475040448.000
402255577697714496.000
551912805187215232.000
566689467595728064.000
509513049882599552.000
423214071753224576.000
931536145413525760.000
526155533188045888.000
795139608908098560.000
715094734760464512.000
391420037589377792.000
521448878179645888.000
395497576870758144.000
210773734283454656.000
288216291800088640.000
242469724641032064.000
264726507100399776.000
160037903526415808.000
130166582163262656.000
288137782550036448.000
470716703654848064.000
399354025119335424.000
911697989598264320.000
1447175674105719552.000
1373734080387313408.000
824101643376457344.000
463135832918512960.000
509781546578061568.000
690120358846459392.000
972128956991174528.000
722388977591203200.000
1011460244974444672.000
894338972177124224.000
484864347552191104.000
409710564620809856.000
405130198254771008.000
526345142760975616.000
845907072262895488.000
481727010636170496.000
490902392661717248.000
497014268844482880.000
258264240418559488.000
560958339153191040.000
385869945541622720.000
474211483167731264.000
511842078726712000.000
260288798889031488.000
212489756938052768.000
122727585003915264.000
311802645409835264.000
225521381875165152.000
215259875426884992.000
568829728329375616.000
539109357210374208.000
421121904635990528.000
521541572986534592.000
502487493374312256.000
284358274189580096.000
150794703728038112.000
171450274615253696.000
88887788743484064.000
144047221256790464.000
171214289365539488.000
90563491829206592.000
70220245370710872.000
38886536493947400.000
51475352705447856.000
26347730146362740.000
13897056148545632.000
28471321995251492.000
40455746328819056.000
41350141762728464.000
22945507067982036.000
12239809873251780.000
6610589703533238.000
3739638776084256.000
5098413193874966.000
4247019848437323.500
3454618970619349.500
4291648714384200.000
4917290380067050.000
4781358232261901.000
6504624653546390.000
7746248268378505.000
11961340740054490.000
29463980033928552.000
16033004279800538.000
15374522579168082.000
21131063524883884.000
24966472122176028.000
24037695756336468.000
13445702140152592.000
15219343092150350.000
22666500663645508.000
13203188838433530.000
7615481588072574.000
7800072354368207.000
16646007692833812.000
13129193056947598.000
12972031650343608.000
15620382435920148.000
13112584173812058.000
7960933822761775.000
8174676362086723.000
4672225007705284.000
2431649285802139.500
1390913536342345.500
1947387878939150.250
2304773092910391.500
2366602286658864.500
2541381372722780.000
1419553290779230.750
853339981880684.375
1269886998890473.500
719833605303151.500
885454572014427.750
1415723882249874.000
2297336590433097.500
2597521804118756.500
1316788587568095.500
725022829528264.125
590857220867020.625
793998697789269.500
592426815405629.125
593412133493950.625
1444282944554691.000
1566587909723572.250
833058226109359.250
467081697599357.562
364302116892970.938
194335037970681.812
271265029010397.562
242279006228062.188
325452274482860.562
463920073271746.688
453352310454285.875
333148116792209.875
463740361570999.812
706266648094033.125
1133285969893953.250
2641064332400114.500
2694841121029390.000
1907556465494525.500
2172044455682475.750
2466551749505232.000
2445636585241550.000
2222681536948170.750
2825811352166103.500
4097807684927840.000
5129575908191228.000
2725660476696865.500
4079614451122935.000
5127969466439752.000
4907853061617165.000
3956598036386420.000
2070925498043153.500
2294295604397435.000
2351653695646808.500
2278444100518326.500
2752056309406480.500
3461186356679276.500
2064240412647361.250
1270690953907284.250
1234572937460288.250
690074514003483.375
1498122994474794.750
819654516374460.250
1270216570247868.250
2839441088585819.000
1451609756637708.250
855540039529271.875
1392032931366948.250
1383868565187648.250
2014084965735856.500
4830982698705358.000
6819205483106085.000
9270152934480240.000
4971427840117606.000
2571629723587462.500
2269688781763887.500
1198177618984270.500
2595393343618837.000
1400581430080462.750
1217628162578917.000
679437904077207.500
395856168414607.125
358054177509908.125
853806713280215.500
486891092927956.750
263409533372112.969
263325508044557.812
247565986746410.156
218494623551901.531
247176919266789.281
396832426541851.250
587478146541942.875
1266835848094054.750
1119746970738252.750
1374807432173505.750
1334150479547599.000
1077675892110453.125
1294293741670669.250
1395126110429824.000
1344522600576796.500
2076072751642887.000
2082651361585285.000
4381396164888457.500
2588471372428130.000
1425658715144222.500
1333986658564042.500
2012919799127114.250
4424609384649614.000
7130480945100718.000
9003636655698874.000
11591581875145856.000
15792177020214150.000
13960815707592420.000
11530224130888046.000
6259268201641217.000
15903194896819410.000
21938871909199816.000
13495787203966094.000
7988658259372478.000
4114479056267266.500
6645739347063713.000
8766934255722672.000
11681327186969412.000
24354768681374588.000
37977468919487472.000
45895947351375600.000
48743024873996848.000
24869569222205772.000
27377190845780412.000
16307455372911158.000
11930989342407808.000
26953507787210064.000
15406522141476092.000
12089302560862222.000
13468182941847732.000
7655472513170247.000
6421520368037344.000
13286275016975208.000
7277967916210673.000
3973234229201011.500
2360881174074862.000
4964905568100869.000
8009391286662405.000
6783907666900533.000
8004887989894643.000
9274468495490812.000
13966665963481110.000
12431843554342924.000
11079557730394804.000
24450087845828464.000
12861494141094496.000
12173436815576064.000
24831776750132020.000
25110717817746924.000
26555947066994352.000
14416962763778726.000
11724429671995946.000
27867495251736852.000
30059414413318128.000
29807273478999548.000
38376230789407752.000
21371399934667292.000
43329437502179544.000
49497909676667496.000
25502181163059452.000
36977996321591480.000
97205336733824800.000
77929235538833248.000
78095019870315792.000
67271931844125208.000
87896120777737296.000
46055492766194144.000
51490620907020288.000
52030977834433640.000
69117890111115512.000
78585858960056480.000
77777416879624208.000
96855473019134896.000
93146007713244384.000
78776547001249200.000
173146903770157376.000
236870692328581376.000
245421280413105344.000
145465741708758752.000
151315580347197888.000
228698335289505792.000
526143524939870080.000
481668692960816704.000
276125745454350464.000
146364714472568160.000
174215953490110784.000
157478654059459072.000
94957197906828656.000
83857410142351760.000
68177624678985816.000
138145858252064304.000
79378541851301664.000
66729507987018360.000
72506082433014800.000
73490401161754464.000
42286197953458632.000
38646633667203920.000
21863418741782608.000
47334539285997792.000
69904791776714672.000
150535550951061600.000
119203943654576896.000
173105252455189888.000
146942335910077504.000
85404605033489072.000
46074432294601648.000
52479633745313848.000
43498446733789896.000
37724019610908704.000
39800715593692496.000
44213722485236832.000
26212114692796092.000
40848361186797032.000
94633061755266672.000
88720591415681584.000
46166254472436096.000
41538306106442928.000
23838866291442652.000
13275625893617960.000
8101716150493738.000
7197964171437311.000
7480659651792668.000
16027383584480704.000
11799374995689910.000
24123390753189048.000
14700026286485946.000
16274466453357662.000
26328991724284160.000
14292411244707926.000
7912004660374136.000
8388705135560634.000
6691864618551205.000
9243949884513938.000
14077554476669634.000
20743772425539380.000
42015418110470840.000
21954985675019776.000
24679294549674400.000
29916466575143064.000
25131835593089160.000
29469746735364084.000
23637576353553428.000
13942873634663782.000
11272559355129300.000
6444922220084044.000
6301899378562992.000
13925163474256468.000
11823401419735050.000
12708506248920940.000
27013562657455904.000
37164464851284080.000
20174965238836996.000
12090444530176038.000
13279765764883116.000
14249645253573870.000
7374140959602546.000
11388962790130072.000
6536765714678685.000
8275992875099817.000
8908777372519960.000
6844845480049356.000
8161713079169047.000
7195237020325093.000
15766067673741418.000
14091860981534320.000
12146346226741734.000
12246123344900258.000
14071300394110518.000
29628210802594228.000
26016432056598376.000
21822124769487004.000
23741526563952300.000
20963189561071064.000
48553652927487656.000
27534472713003080.000
15512688945468656.000
11995334866627812.000
12365846267973856.000
11158436217825632.000
25683409130208056.000
22026500515560804.000
26723807039938652.000
27924363828522092.000
41460629175415288.000
93303877002002000.000
67857836233248288.000
39924948197973920.000
87610715403819104.000
44967376568281296.000
25541660405018764.000
22898630872951656.000
20770759689069596.000
12427201442174912.000
26069829598591932.000
24088625309253480.000
25514401668128508.000
50774645038126344.000
52624480473058184.000
42744557564445312.000
36080805188423528.000
43793803825599720.000
25506262933287432.000
13360020285079074.000
7307335886366838.000
15285066485065806.000
15632761818796482.000
12651697815219850.000
7646844226691571.000
9018179929185844.000
13599277165985002.000
15931643787521274.000
23399963194541972.000
13290227004365488.000
16494105138584034.000
23977118864382888.000
48489598433388096.000
40333400695625144.000
42369530813375880.000
42511506180846880.000
39155618489282032.000
44708481222135368.000
96008220358234544.000
87592790127905952.000
50201763535823952.000
28865514497550592.000
44058778607416496.000
26594185394144796.000
29752620062746628.000
41172955402506672.000
87182293975403328.000
126616628736271568.000
140948003156261504.000
165988975221430752.000
136062692176542160.000
78131067255109824.000
67835866760885032.000
152896556494501824.000
84047073099653328.000
46543206612943288.000
26871584642293560.000
15268010646903592.000
8353484191889939.000
12078844218581210.000
15515928939450298.000
23833231398224632.000
25133265476972148.000
12758811285492408.000
15566315109908358.000
21310317745641852.000
11875566778473558.000
14603431184198668.000
14486129547408574.000
29479605416762200.000
48522302714556936.000
72171031229691488.000
69757579403861648.000
42878386330877360.000
86685851564982000.000
48815921518876368.000
47589575978226496.000
25162303153059508.000
13981618057176794.000
8044040151510018.000
4596911544363881.000
4176825882349616.000
3730763579052507.000
8259330784358216.000
4566865793123015.000
2474323007626850.000
1306329748033431.750
1058186123616100.125
2598947578800008.500
2092914105236213.500
1154471543535868.750
1127296956918112.750
1230900926263524.750
640766224575079.375
1527274187102406.250
1553427851016979.500
1112654255059751.000
1592145650839577.000
1204426992638867.500
1318562406206837.250
754237515193396.250
666269151971234.125
392215637967669.375
866716963202613.875
664225662110319.500
703404001466378.125
1116737927257197.125
649264486542189.000
611912964701192.250
1360229474297388.500
1549810907470663.250
1429109202120181.500
