42.044
58.216
151.556
225.020
209.840
225.587
226.002
221.710
477.037
701.392
1445.563
1360.313
1339.961
1988.698
4489.753
7118.681
16354.151
23544.312
48949.566
77426.498
175805.841
273944.380
272856.513
391167.427
897006.615
906916.004
953599.308
1525911.361
2260471.423
5167694.710
7251782.969
8181764.766
7749843.675
19364615.920
26210626.133
54664254.946
79265903.261
173183300.816
187149192.366
274379765.966
559266731.211
615631737.666
807564064.242
1747548338.189
1759349955.008
1676479198.606
1774014032.465
3591003520.309
5691200378.827
8562129037.896
8541231285.720
17580345583.957
38282531846.098
57145345489.882
117470757501.940
121453976779.463
118875278766.553
159670345992.131
383590244313.137
382370265425.150
349295314437.471
506674735933.514
1149213121562.528
1175343701104.515
1156884693812.777
1639779299893.085
3977761413996.592
3964508575805.521
6148593776275.756
9601843003092.930
24168261714096.473
33374684045540.293
77250937669250.359
74209950670142.422
77687693529639.000
83653523973335.062
129193536703231.938
272372243282050.062
333262580018837.312
823825584806059.250
873433874257037.625
825123765796594.875
792879671588690.625
1265896288145570.500
1316296835344913.000
1899761280907658.250
2030872125413074.500
4380317317505224.000
3962161029108424.500
8472345751333408.000
9026707053530072.000
8877863748538017.000
9056666333062448.000
13791861507272142.000
20334323510471892.000
48602833871882856.000
73577760767518720.000
71278508678430528.000
160394041188833088.000
220646045685937888.000
536653373828009856.000
432725553219581568.000
257393849928558528.000
304901436422185216.000
439421813361506112.000
409901444071497536.000
906920567885330688.000
1285495710015400448.000
799888046673301760.000
467364817249984768.000
250308910387956608.000
566735762751645184.000
531795060245086528.000
306257158065060096.000
160508350216753632.000
94295511718092464.000
51746684485342096.000
36782304954572200.000
21674120388832896.000
25796166628729032.000
15468880040239920.000
8855776390482729.000
13669342182290792.000
11359408960393298.000
6913832235833235.000
15036723288473496.000
21367070349195100.000
11366955050428008.000
6478558231860034.000
8986256274209364.000
6719287265325286.000
15857687213903706.000
21417932963366652.000
11818548680938966.000
7018743449142006.000
3689195569893720.500
4508031937936249.000
2464727304631091.000
3963157032231284.000
2446151023354989.000
2780014097351115.500
3874133180894916.000
2253336501212657.000
1940629807681650.250
1946576780243772.250
4344564465257355.000
9013216579356060.000
6887281407652650.000
7984301461224027.000
8812965177777692.000
8651483610358912.000
7171916406809164.000
8775858809240084.000
6348153613963033.000
7604275970630498.000
15586936664594392.000
14879431100652516.000
8914657912293435.000
4957452051847916.000
7907035512025445.000
12637234397940718.000
14765209000165622.000
16671831144871946.000
15384046471140070.000
20475643378709932.000
28192467549686252.000
24962147695952172.000
26587350791083976.000
23824953202040136.000
21053438708433740.000
11487654189830794.000
16405781641709790.000
12798164035097736.000
29410422195493504.000
28968944958648448.000
43316297030098808.000
24149304233707108.000
12358628215183100.000
14262125902051442.000
12705245921495762.000
27893361104833348.000
26874210833174048.000
26168231367423992.000
14565633189297230.000
15900535501492496.000
8769414535514041.000
8667482019241884.000
4565212826754765.000
6473869934267255.000
8155527618130312.000
7886749297096073.000
11780454491469934.000
11172306033540584.000
13744117510460724.000
15881065437173818.000
9159117389093866.000
8264153899856635.000
16541967589627818.000
11385983237090358.000
6828385210698990.000
3801752484923763.000
2006880694430943.750
4332503509255101.500
2342382803836685.500
2080033594025611.000
1992815819488755.750
2268887004666668.000
2561883945787481.500
2354102812682235.500
2579742935888201.000
2363320450295437.500
2663718812624460.000
3857014362272742.500
3660631634865201.000
4085252786046548.000
3884552126936206.500
3533385701477743.000
2139519714673390.750
1969764709521363.000
2651285949176230.000
2675600147136761.000
2499374634267127.500
1413756008176269.750
853396651010265.375
1231354510487493.000
1461269400656023.250
1319511625811755.000
2664623073782145.500
3750446096124526.500
4744927775297345.000
3550615599775964.000
4293702980149395.000
2200753191024745.250
4801189986980362.000
4863804537854618.000
4784502678962197.000
3991594721638092.500
3655669721021645.500
2044866338818216.250
5153490295279592.000
2646716683427068.500
2282208441296811.000
2446230035444089.500
2828427529314790.500
3573520199111871.500
4521347400473734.000
2394593297230997.000
2854842266543251.000
2230429458020731.250
1344206706557317.250
2087465884533673.250
2597113398551564.000
2864103074937062.000
1476310930080180.500
773651487303055.125
858749331174605.750
1277490174900533.500
2627479194230748.000
3655525429229081.500
1907833670008952.000
2175849838022405.500
1343367705404543.750
1199106276578553.250
1275783760080834.750
682137428950871.375
834844529243238.125
472800276639676.438
714369372993629.000
795318256928018.000
702739127700171.750
1508136120979682.500
1059238427964956.375
1485573347257327.000
750723882112853.000
1571529456700973.250
863721615321278.875
806866229861887.000
861128724959027.375
676816814183353.750
382473892805742.750
333769149942594.938
862014391514984.250
1412228152220082.000
1926807664984130.250
4132267868086883.000
4523688371562081.000
6602648924020064.000
15205846421071490.000
13676255855967460.000
7253503274764293.000
7280926476255927.000
4213064537862036.500
4631609986171071.000
5089373015062208.000
4192347342559016.000
4489348725006651.000
3414316304852591.500
5075863781331080.000
3751748782807362.500
8670180017973148.000
8777637367706592.000
11317121531762088.000
16128020880795696.000
26221257128339704.000
14618637269910476.000
14629212670025820.000
11342909499613308.000
6369991555671744.000
6567736028798211.000
16307482753402830.000
21824018515487116.000
12748728455479284.000
15778176609745290.000
16645017758128942.000
27072683615580792.000
24669923118471672.000
49889897643350304.000
50740850385849448.000
76309641412953472.000
88924252023225296.000
137067596894658448.000
144724460534476416.000
138925997914370496.000
215802332184267584.000
294839195008530048.000
254531825917708480.000
140415426352883408.000
167870398812689856.000
139982825994311488.000
172087198498930816.000
130150703280316928.000
175371628898127328.000
274062158736571872.000
310629251446589248.000
437677064075486976.000
696657331455776512.000
875867744213739008.000
895024167762729344.000
1298268843742661888.000
1742110675112416000.000
1800641587816818688.000
931685588727973760.000
978394222488733824.000
805368817325851392.000
678462755129502592.000
784422746716361984.000
745968719524139264.000
413872747226748032.000
246139358539636544.000
241667982267089568.000
124127511874160352.000
174128167318516576.000
97567819886180832.000
146080085160952992.000
312783780459299008.000
245694829707178560.000
286138647107962176.000
247165852820502944.000
208954329665203040.000
209702452464624704.000
278457330256665120.000
433220989193923136.000
251624869580024192.000
379457145311084416.000
927828952722854784.000
552673515403587456.000
536048012938679808.000
476863683464654272.000
239616798983377248.000
285620012924421216.000
165380386936088512.000
134221750939923184.000
81839354984855808.000
87632753104247264.000
51979077552957608.000
47433251420466496.000
48493108293640280.000
45531487959163960.000
26857468856310728.000
28696594812150108.000
16605764423173084.000
11612695958337706.000
16177754729448216.000
11558940075719464.000
16692161014416164.000
20196762839831988.000
11532110944855296.000
16248067768399288.000
11232603193214538.000
11439400180054284.000
26603595573874944.000
26799901308571616.000
39985073527293768.000
20300874369920784.000
29634540883747120.000
37129872327967048.000
47175670822976544.000
24098166857173920.000
13404995340040928.000
15272398583399788.000
14423834864190686.000
7446866620735615.000
6215251378545527.000
3569390697946262.000
8425489881525237.000
8670314754634029.000
7062589526377793.000
7343773320304254.000
7785466670360326.000
4408370535272404.500
2386015782705938.500
4857751017420063.000
4338119613866185.000
4735615289446184.000
2639873351018266.500
2473072686289321.500
1903058429550132.750
4252429419429020.500
2562390985750782.500
2129937467917496.500
1078972621126983.250
1162312724626072.750
2621101002694171.500
2216663206106563.750
1211914687706259.750
724550550236528.250
651989227076979.625
330478658329054.938
382269628484466.688
438586394893093.750
361007933686948.188
216580223271917.188
182840880438820.500
104441844131163.984
61693560520182.945
35782024258347.664
17860718549547.090
42362843694935.930
37604722699268.375
22132360323349.973
46244603584773.523
45248738953562.398
73601274166427.891
37713238372364.242
31410368423106.938
38486921314420.031
58061332554635.461
64563874964303.398
61151307826579.133
151042497895046.531
203305315384362.031
228084788468764.188
478073612790624.812
357418166519174.438
456854158387185.750
252070956305752.531
220799824109435.188
126063979919126.328
69920327200829.250
110157380088245.703
135227523539027.344
119074084732397.531
112540030671749.422
150510697222082.656
131866035327303.641
262216545898975.531
422365988290744.562
231648698664263.406
241681337607410.750
195846308229619.250
481409551755756.312
337749743936220.375
753593718429074.875
1523855912649874.750
2140776216824662.000
5058135696738604.000
4851518295313413.000
7555376374411486.000
7302495298569590.000
15457942305458064.000
23234635907253812.000
13023839994394104.000
7191485257198088.000
9181350720237610.000
5034407906457996.000
2835324175356400.000
3872437740698319.500
2378192008490160.000
1934459685501271.500
2173732960946064.750
1253559066647860.750
2571213703197726.000
2022633398834799.750
2160386154489358.750
2711843023206999.500
1434357605064655.750
1150115474988404.000
1143706916418408.500
1069111631512846.875
1241388123792794.750
2745748835371127.500
3571804721616501.000
4429275890811702.500
4362285972468536.000
2178854095903307.250
1964243081939799.000
2430803120942603.000
3820972874186722.000
8185233922229572.000
8960565789513672.000
8935767996732976.000
6880456335897383.000
8478679017268471.000
9072097302204756.000
8848632018847027.000
9251637224886192.000
6697344400469039.000
3844712839829134.500
9131581179032360.000
6337605529232511.000
15308621672195868.000
21231644628846100.000
13228494542258256.000
14902471379485716.000
23846797758916600.000
53511643013502416.000
77150718316081712.000
163383827613111360.000
118949732853638816.000
142078727431410624.000
73301586463817872.000
81597292994352720.000
48936009686677216.000
75860201056891856.000
170713594192510656.000
171614435480972160.000
210069839510858720.000
273858981925802912.000
156789384552687328.000
167559606671991264.000
125124786396946400.000
259427661331675392.000
290575407419848064.000
277586163716709792.000
229238015167632800.000
277858485867417888.000
141234414554813728.000
307497065808885184.000
285811441461204992.000
155532007052719040.000
138303311225178384.000
154974253970676800.000
91146448679686768.000
79206681992126816.000
66805395560003840.000
65233631897718096.000
84716905103614480.000
80329280603206416.000
87859690663256288.000
75630470868178816.000
39628152989019072.000
50658384593627544.000
51954107926133752.000
40170766365990664.000
49190736624329360.000
41481314229497936.000
50072214061441904.000
67990199898046120.000
154154778396459328.000
84511837985404192.000
43648045405493192.000
24361255943779884.000
13926697942427132.000
7124111639761618.000
4309174289273871.500
2536836028674207.500
4045314994866579.000
5101623654089569.000
8153268116859745.000
4687126554288493.000
2414569904552833.500
3675492049007976.000
3607453417058386.500
2117651808291474.750
4310901301582049.500
4571527784059564.000
2390787234281158.500
2439148156218838.000
2698924346454396.500
3466727043279598.000
7147139778653721.000
9137439896795930.000
4971123391580610.000
5128571197631666.000
4379659477669985.500
6815009992485382.000
7956677918097978.000
7843803847195765.000
11980613081790556.000
15725874048988720.000
11316144531251348.000
6436544831826365.000
7454900367224425.000
16625194451172518.000
24759248633168244.000
49481950857100680.000
43244514637672976.000
24523202881276028.000
27340308206167008.000
29170903729804456.000
42495193421576576.000
21136403559715824.000
11712949229844056.000
25574607254708408.000
25677610952673832.000
28077098475132092.000
25030173569535796.000
49910932969706744.000
28352019366711312.000
24698817473312220.000
28934399488370916.000
16545540596714154.000
22596648204588756.000
26503282818965548.000
29603911519734428.000
24206605191138804.000
13840954731541176.000
12013409624179912.000
15790751863925982.000
8640870843703876.000
11116616135554392.000
29344021830389940.000
39356724416923504.000
51463679337221240.000
29861109126169720.000
45001441434850528.000
22548220038514820.000
25447509199178292.000
24690066804540192.000
38448528800119544.000
44658056884374176.000
53739242931565488.000
42268208003860096.000
46795328590849608.000
25977950039039592.000
20260604604962884.000
42178684316641848.000
23006521588816020.000
48128563100789464.000
45188128921441160.000
51427557437142392.000
42263845828446384.000
44027663364795416.000
38774228545219328.000
20685010030717848.000
21270986581871104.000
27152761452808404.000
26947058988412544.000
28020520571684388.000
14958227160095826.000
22448548848391580.000
27430080360797300.000
29485299649367696.000
20103950335287572.000
27077289619021024.000
22998316820324144.000
13115240243983290.000
7669353638342326.000
4432984252283359.000
4245704459727456.000
6731303529396392.000
6572160931889618.000
6652065195756945.000
15300693435218120.000
20152583378306128.000
52140437632559104.000
40561307008624272.000
52493570367444768.000
46880676084103880.000
43940713193045456.000
67845924122800536.000
96970822872952384.000
132338806824007216.000
137752340106646048.000
75070689303220384.000
69039524197321848.000
163167067271325280.000
234097552088229888.000
282452275404007680.000
143919706609909072.000
165261190712952544.000
90085880763097008.000
136070074289223936.000
306411687742299840.000
162283999074063072.000
91062730969965648.000
53888783198113280.000
77064482790346752.000
46804575435980856.000
25053864880690708.000
14870306249005974.000
14815610431753772.000
8790714280692650.000
4706663947017960.000
4103374927030209.000
2047888950891873.750
2686250177121588.000
2728688035352065.500
1558175504968722.750
2549399297142706.500
1453059422028570.000
1359835609356499.750
1911834378766824.000
2869904408675725.500
2641135426103718.000
3655039442782349.000
4331642065167240.000
2492922174910471.500
5092913620958056.000
3882373088032771.500
4451051936652619.500
8966054821664018.000
7274013192757909.000
3849560379424775.000
2061170070183939.750
2500023991501758.500
3758558339726727.000
4734686209501928.000
2853301683679576.000
2638756417002961.500
1896546862677414.750
2288085262911597.500
1139076836739613.250
1570935055502827.500
2579597122556932.500
1446696301924719.000
1440650950561133.750
1063927637287747.250
2265084351682504.000
1937965668703477.500
2789473090995866.000
2456001332799659.500
1350991513622572.750
1334323900721651.250
1261816559717052.000
668919140436621.375
798556692988508.250
1251493858496152.250
1542085280662075.000
2138370606981620.500
2446553881871916.000
1429894571897730.250
2253944443391421.000
1160993074339599.250
1280330539893416.250
1222213008422266.000
746431309182748.000
757072551338154.375
683400157504826.250
1386370914798086.250
1080885545149316.875
1350668046498598.500
2139831391144931.250
1108975340076053.875
660058528133918.125
792872690133143.250
761253072830438.625
834373793266626.625
873615040712964.750
1430893828778931.750
736674173591518.750
1535609152940102.000
2142503944400971.000
1078790816641087.125
606316274427472.250
842476966774197.750
702888726798822.250
814754633786079.625
675729540073687.625
618738445115446.375
858914500043247.125
483364837835925.000
259246027540530.188
381365172405540.000
593972857089162.000
1417953882761734.000
1121139552024415.875
597328119561126.375
368528160711630.438
342535520957423.750
492022721074594.750
709774568288965.125
621180929035646.625
843129032170126.000
1280752317966096.500
2771200473365799.500
2634503583861451.500
1915070529887814.250
5093200906787994.000
6786697887274930.000
6323305452655892.000
13215420547889910.000
12853219674125260.000
14078990504692622.000
8267151333892005.000
8596010828951062.000
4332093095066280.500
8731913446103731.000
8931155462317080.000
6143297414443296.000
15368084751616498.000
24079568742515744.000
12808795490385470.000
7290290071776552.000
11640873748713024.000
7015665443457246.000
7827020440091694.000
8406534264435931.000
4992887756641097.000
2808296139164193.500
1475506888056170.250
1335106407238786.000
790348392922588.500
1123857711680094.250
2692796316316732.500
1900323625233053.250
1164458945993846.000
1392846146216561.750
1444351212883509.000
1964033107744058.750
2390955102668864.500
1378122338210133.000
1346475008823535.250
1179703315788579.000
625889395463028.625
1418544435667745.500
2237241185473821.750
1935104083494165.750
2404895082964558.500
2862893223713349.500
2354776929376927.000
1337777275705966.500
1473261368346151.250
2239420623738731.500
4845415878505515.000
4665770153873823.000
3801398855544608.000
4697364969796534.000
2685389961603711.500
2389192476127787.000
1387102580735831.000
1453126411993634.250
1059414189661581.375
2688181855339465.500
4102453688794505.000
3982150400729505.000
8875539010003749.000
8837977795590577.000
12703490003662050.000
6592829901859941.000
8690871939608513.000
5138738848708225.000
3756635832504086.000
9260682363481454.000
13661118229489330.000
11112853199039308.000
11796053881944180.000
26662573322855076.000
28767271783941156.000
15186272759070424.000
15522052950030158.000
8931504212532882.000
6922290383574784.000
16217207913502148.000
15213731271256774.000
7752904749173844.000
4554748293060091.000
3536279745807659.000
4373268410498100.500
6254265744682673.000
3776356936967691.000
3707095226655105.500
3909028593763500.000
2129971164411754.750
1278493445132612.250
725377480495317.250
851717937767846.250
1139378907955850.750
1060982155431341.375
1190596844355590.750
1538041266221524.000
794098667628383.125
585258807102480.000
675606242882804.750
372518916720181.875
195270443566725.750
202674669931874.719
121229427735380.703
61889481991713.812
74623251979013.562
119538041424637.844
148822008497626.188
150963310397865.688
150538330640107.312
239372767159828.969
235677356678703.562
347322143218529.188
414219947628151.250
386165537265850.250
452034574510127.500
340042237190757.375
449064419831521.125
691640041396246.875
701976993981083.625
421646016815090.875
391524324009278.875
468252491202909.938
599169556408707.625
1230114874324704.000
1936279986054275.250
3982731537486118.500
4640671260149091.000
6721279651875386.000
7809620283832223.000
4505531685395590.000
2430226596220246.500
3634571800449605.500
2178440107272310.500
4466940195014907.500
2672002636871171.500
1381284333997944.000
2786930499579720.500
4245482227531548.000
2576246038998799.500
2692370002759926.000
2365493042585291.500
2699232110447543.000
1378600599816277.000
1565981650873490.000
1216761459290179.750
1506732386285667.750
1592276517829479.750
2543693489022036.500
2014102446817951.750
2707064214766891.500
3994573998372342.500
4913075137896658.000
2570834349988247.000
3728838113136135.500
4701222753669120.000
4278781923984019.000
4255151450594601.500
2326433026285336.000
1181445330649311.750
597549890164896.875
639430919043936.875
393873543536015.812
421641369307204.812
219434468967506.438
487261796338663.688
404176602751933.500
426332136961431.250
474789462169973.125
425814057017237.625
250495232913216.281
214157160398823.062
436797796574946.750
231230933187290.688
251783622327368.688
403404213498901.188
430483267209013.688
424310140295489.562
325821302878039.812
484952745271623.125
732230817567722.250
664948843054793.500
1456946866671200.750
1313446038745840.000
772879903586476.125
424762072861002.125
396950719198980.375
398296051387080.875
853335736821350.250
1363202186522345.000
1409924341669756.750
1528997548241566.750
1259291178499595.000
699136814397320.250
1496366262120306.250
1405119922034765.250
711249617314773.625
785936375529551.875
458780744256160.500
233321758143605.312
344525117275702.938
742398473811956.250
1196733442010978.500
1225460242285273.750
2487882673585382.000
1411604211205316.000
1549652241795908.250
1058726381726634.500
2476449564923231.500
2611462899021787.000
2161488129070816.750
2029996516059993.750
1221863719543692.750
1500584859920866.500
2064452850521298.000
1264871084362244.250
740000638346678.000
819585009867466.000
452995512491062.562
662910783355690.875
660879367257641.625
1495250505110537.250
1204785638556341.250
1414474621094437.250
1123685188237720.625
1302246419677640.000
652267404624816.875
378814000026877.125
218410483183369.312
119437805123554.203
115704773435680.219
116108125408490.500
150327490946840.344
142479598325760.031
83413090180481.781
101545637977146.344
272194005316803.812
231223593522582.250
124956471283467.688
256096333726186.000
401794327435601.062
334468557728538.250
387841795743833.750
595649117688007.000
854512467593801.250
662683155815662.625
771515985832421.500
827156720342530.375
486209367348167.062
267329010011247.000
188574563416255.219
240080250179633.469
271050477036375.781
386512461298785.938
439591317740468.250
335422292697483.500
751214085320373.375
1165247386169909.750
1166072953581013.750
1145525991020173.500
1099517236045444.125
2526189454205959.500
3856574065577308.500
9142602543256572.000
12827173195988642.000
7134855060916895.000
9096119909155596.000
8866074357514825.000
7599822594075075.000
4338601103936613.500
9204191077139904.000
5031601423622434.000
4039392771351013.000
6317072338704611.000
16503472978810298.000
12742753851750396.000
27720689336972116.000
38976601518542864.000
52246634925661576.000
39551487156532632.000
23507978031937508.000
24236279636450300.000
27013252475382612.000
13708202135766940.000
14253325955374800.000
21576433620555792.000
20761528367888676.000
52383527028667200.000
28149332418026880.000
15386732836745970.000
22167007499420520.000
23750855556676368.000
13087126022368642.000
12528396191936880.000
6430104334001519.000
15536255481250860.000
24467728596883412.000
36894386719838120.000
36868149847745968.000
77668031722090736.000
89436145023049952.000
76151796607714144.000
88453888278645040.000
85542509067048496.000
94782896083439872.000
145756514292465216.000
168605789653292864.000
137304154346981104.000
172921819932900832.000
168839312655485472.000
86479617645936384.000
82409191719018736.000
168453850748661280.000
87373044387283840.000
46586782798122888.000
69834551419534784.000
169442404769960896.000
90881737104196544.000
124311400946295760.000
139482905383565568.000
128032488781808432.000
66072765542046624.000
86522759702661504.000
48968886078490528.000
37549632886294992.000
53637679920399016.000
79142809175164048.000
170936328877316960.000
211760350938119552.000
556354686324454720.000
798250429597381888.000
1238176489778287104.000
1821293642188432896.000
2253181414564763136.000
5488105567697247232.000
2831166919492304896.000
1729828505775834368.000
1435392312346147840.000
1418549944440754176.000
756551808813768448.000
936305345706364544.000
548901199271354816.000
291757109989806208.000
237319422347437600.000
267231369328046912.000
302968688875521152.000
170966553932521472.000
211741130358451328.000
476235446727844416.000
991895361758019328.000
884853864561419904.000
506100152905031168.000
301133020660100416.000
155777701375220416.000
121527777161811920.000
74728193490472400.000
44938590536929888.000
49826245331897176.000
53782679442718320.000
72539399650699744.000
171561690598462880.000
96361796828223408.000
51756800313614088.000
36210059090395152.000
22100275665902292.000
51777106720012528.000
46422094113108840.000
74106920655980272.000
38623264410473104.000
41809095513489152.000
21168201061389864.000
44533865096453784.000
24866334462427228.000
20432189073488548.000
11860857271568598.000
13324980702212742.000
16223634292036608.000
11581393809285612.000
6794612809574820.000
4211305131236813.000
4160625813963343.000
4205427336088784.000
4810433401386199.000
4526996128798077.000
4533220135906781.000
2561805138352278.000
5085426336287632.000
4373325901827545.500
9172798595436278.000
14466632463232680.000
7311191750607113.000
15088206502031892.000
24397133893209112.000
37129893279990176.000
89607700495502192.000
49152288765696104.000
29727165205176204.000
15428624042065014.000
20025902931488224.000
26478538797564584.000
13914266344422728.000
8381470926190504.000
6318280267752341.000
16501410578281676.000
11244268591953208.000
14402031148157430.000
12472774325506662.000
6759971608217687.000
3467713985648026.000
7088663170509348.000
16309786127143260.000
15347006790832260.000
7862556967531075.000
11860072489064568.000
27240043407617412.000
15488973819673364.000
12978134261783290.000
29319354208109976.000
25075055333778552.000
29084485566535500.000
27492389364618252.000
40924627145783248.000
36142227278150232.000
88338717487063200.000
52192639404784984.000
28372638081349952.000
23044956990373900.000
11879533285877494.000
14851337322188080.000
11136188370226146.000
16541987171070758.000
13734348512117096.000
7357648449647985.000
3838627040887037.000
2369852913124004.000
2294709410424967.000
4859857630251417.000
3863626291880373.000
3832093482071868.000
4174762706433085.500
2450749404242137.500
3701551793218506.000
8525554831295332.000
4499431922569024.000
4959098048844303.000
3714214925699122.500
7517876170771780.000
4163271735136807.000
2311228315468452.000
2745073291151584.000
1576036043479232.500
2102637668363085.250
2286147770257292.000
2502197342737099.500
1363096347761185.750
2021218324497128.250
1919077398273506.250
2858133394572943.500
4110356440073014.500
2182446235163273.000
1093440870623620.125
1077227154827692.000
2248896460787907.750
1171012477274976.750
1117891107939267.875
1538234335891824.500
824531861876451.500
593651092115872.625
662578444811888.125
1549343135047260.250
2422378621958596.500
1322145429364307.500
1939665664832510.750
2798914950233582.000
3913497180356246.000
4435824737898935.000
2547930871432569.500
1497254152765671.250
1483397845639644.000
1964193858294344.750
2210471506042963.250
1966975385583167.500
2215459028835300.750
2136637492746440.000
2334303602338744.000
3656145143968869.000
1907066252571125.750
2627655317155010.500
1916512120621469.000
2456413199955742.500
2557182298793329.500
1318290460614414.250
709003919062043.625
796176263670756.875
716697664317145.000
681246382877536.125
1526270332492303.250
1987025568244412.750
2819751979017082.000
1901985583201038.500
2136997976945099.000
2231762594963055.000
1145954867250187.750
697955705646866.625
396096296742274.500
339461767423947.938
469644766677289.125
454034688031883.375
646533564865434.875
335440830339309.875
194367552805698.094
460915756618238.438
461188835589604.062
251295962927026.094
127587386716323.578
134610215442162.641
74562057978186.203
45301090389374.398
34960166939194.863
45141520986321.211
59888574344364.516
74542362824293.938
40111695654471.289
22877196545277.570
20769680906187.957
19053222149418.781
22330377499908.586
46379220398041.281
34375478505186.363
39558786971506.914
33412856972958.438
37524337594232.617
78171679322244.859
104429404481905.312
114687449333183.266
248145380000667.844
136733957692144.766
73334168436021.578
151541538678667.688
146816838100896.719
208385811651225.281
118872593052959.078
141489584896761.000
229979256159471.406
256798505962854.781
139711517413559.125
108502941937729.609
237982566045555.188
239574065008466.281
128835488726350.969
130361062422909.469
71731051086544.484
73302923172829.891
68660340371061.094
69156846109681.453
42048332536562.062
58149186519896.070
80240330760592.938
69880966421926.336
148029761375805.094
186764826829670.469
204618169317234.812
237931284194761.781
325487456414640.812
795335597618549.000
440345228003935.125
683466124775185.375
418619913695604.625
398830643508625.188
218747923377025.438
243185695085137.969
374408945180516.875
203256667226448.031
270226209916062.219
208846670345608.469
240108623621277.875
348815994329950.125
813212937508500.750
749843155473674.625
849076421351243.125
1352368497992342.750
1370296960468954.750
1519233678992158.250
2075837059338267.250
2244505530825789.000
2827529210356697.000
2856589749099132.000
2348157733427580.000
2672553707766308.500
1458182750570677.500
2175321319218879.250
4451070609537285.500
4718252351265974.000
2849992200793449.000
2076283531997766.500
4513540642487726.000
4962887982097238.000
3951195695640932.000
4846135951289521.000
3611280006139562.000
8849424703772416.000
11699140667032090.000
12916808911666082.000
11666269350336330.000
11322624185736398.000
14489194901532290.000
18057658368617564.000
25532262303712892.000
13543266084913876.000
31312542900668216.000
30994669649024596.000
24933284823944852.000
25761666791746352.000
25678185583386092.000
53824513038398288.000
72779187463949584.000
163633082744211456.000
175942602108330304.000
131109743615896368.000
80676088700062720.000
44547224853172800.000
52702427209193184.000
77582620217612384.000
183277025673079072.000
293942419258104192.000
299452701385030272.000
157283950400736992.000
133243630034096656.000
71702961301347368.000
98406041752385088.000
73102241617082368.000
83077954405804864.000
73457514950613088.000
41749149562914344.000
90367803187530224.000
78689334343085088.000
78744340930196608.000
71075238894330824.000
80896156489932832.000
85883356623189120.000
47363454096006440.000
44386858450977088.000
24985952768358604.000
30593251291984160.000
16939500200359556.000
26976280756162308.000
22414672256802396.000
29863491982752728.000
47033732352082208.000
42952501111173048.000
91470327772055456.000
142861896988983280.000
321034997771147328.000
299343779301122688.000
598381248265330688.000
892175639786224896.000
1058692239391632128.000
836508799479418368.000
734241753380641280.000
445994355915363776.000
274742618490212032.000
439581872637678336.000
559281328157536704.000
285114513009383552.000
321088821741163456.000
524757098682743488.000
426040399787320896.000
452256286962799424.000
1056912200032089856.000
1536160737184083456.000
765870476791561216.000
919557515768082048.000
845977948178417664.000
940206893734503680.000
816591907098380416.000
404674925871700288.000
226172873720794208.000
140283635412805344.000
291600144652716288.000
157214873502309120.000
87981274312433472.000
86552275263120048.000
75171132487516832.000
44889476005772376.000
98005904079363696.000
86297070366282096.000
180456612287588832.000
163640780951294496.000
86886084491396704.000
88709087795555968.000
68658858808279544.000
39028301771731712.000
89626283216334304.000
135024317538868464.000
170852677622476672.000
147063059223512064.000
78022509553195312.000
97689560568869856.000
49839306710195576.000
41965442408654160.000
48139206717293376.000
41380151251440696.000
37898377342150040.000
94620359299813296.000
124454673638868480.000
166989446009150208.000
95384350433747600.000
82400978773042496.000
75033953598308432.000
42847399575760920.000
66788390972357584.000
91355599738338432.000
85703308566711328.000
80941178738918480.000
67928847589280720.000
41977356532843856.000
23748008088060608.000
22127410611937012.000
25268144766357908.000
37507380069722344.000
39245858313163552.000
49931227979420504.000
30162499042212272.000
26364962669490112.000
14574079464893486.000
14106281164372322.000
13139448105343678.000
15542761540290492.000
23989758489429740.000
13393997075293148.000
16816195907625978.000
9208608650850590.000
4672983269682522.000
6999814635122629.000
4209572123267920.500
5171232575878985.000
7565845116783319.000
15798561624487236.000
14124584238834488.000
28838287520262620.000
27235640497551140.000
29433844549912792.000
43744050781940976.000
24646319007123548.000
22250363947098680.000
26885745473536828.000
14434969964580932.000
12668126970842844.000
7039453739777659.000
7766046713468870.000
6385309206614580.000
3513641058814622.000
4537905577260957.000
4819370785044616.000
2699905162975277.000
2143228386490925.000
2565407881767946.500
2826027748474180.000
2436341861949649.500
4941427408051335.000
7218947564842821.000
4289040075514492.000
3505639728687948.000
7751949493796380.000
4449524235385144.500
2374809363687262.000
2711279417116302.000
3650652735656079.000
1866844335391278.000
2290002615114640.000
3669279859262076.500
1937695180970526.750
4284112488482325.000
3814978024022477.500
1949295190666059.250
1902787935967552.000
2058358971770122.500
4662959618420127.000
3490621275673892.000
7277340548083348.000
6918221773981487.000
16118427691189598.000
11745323991890254.000
28845670798319340.000
25364568621383584.000
22312467033271092.000
12356447658698316.000
10614000013215834.000
26342617126686092.000
35868165122996484.000
50270527777448744.000
65533833680045096.000
80173000571992064.000
67896445427508504.000
39161763674623784.000
22187629929412096.000
22447847598267780.000
13530917840730064.000
21595534478010092.000
12496328695672006.000
15603573741972352.000
10566386068712538.000
21624800366071820.000
12280205109225396.000
6835140155691845.000
5929510952279978.000
12853641064879032.000
7679275849263605.000
11823440869588432.000
12843279748237674.000
15514241095352294.000
10839841589347498.000
11762565074344264.000
11872680475569320.000
6543805160110240.000
13366289442800010.000
14593174043114418.000
21265131695891788.000
10831519860810456.000
15454524397085326.000
19743601561153388.000
10644485349116646.000
10450150094669284.000
14028671427323328.000
14626752410020664.000
23343737581181752.000
35941820312482308.000
41425229440346520.000
23815918250906676.000
25790472656308424.000
20217485647903140.000
20103898338533344.000
19074637041563200.000
26353831743742040.000
34018484195234500.000
41687253360943120.000
23943813297923800.000
19302243595157892.000
22441135548616896.000
13858628866965274.000
20806697288429456.000
19694273785013800.000
26063365680937072.000
26955748072627944.000
34691196777343624.000
39742100956649248.000
87754440470327632.000
68611703292476408.000
72012879902343384.000
150057031333673408.000
85168956957080224.000
134743176034496352.000
159107998887612192.000
166158459620597280.000
204638965989469568.000
263419565445118720.000
147396908823883328.000
84254279076002096.000
50995723447594600.000
40035228900394320.000
23969717270749332.000
24094299378059796.000
28830162126836412.000
14832860549538856.000
23101092422801844.000
23225917146668820.000
18957704388148256.000
22463236297465856.000
49050192925372072.000
35604351945897992.000
43109709985052280.000
43565142031822832.000
48742990718555056.000
26173840702782640.000
41786425020842688.000
39976201485185440.000
36071192328816872.000
20145857891737916.000
10639110076868480.000
15616570644822336.000
15839519392538000.000
11233420287994798.000
6823656315874462.000
3780547148505074.500
4491947531674289.000
3534395690347618.000
7664832744784988.000
6006362794006146.000
7990702507429703.000
4632267376528505.000
3479431851471595.000
2150777536163151.750
2486293713268655.000
1875948146985549.750
2107229847763154.000
1936326759979274.750
4260736172450219.500
4095024786776125.000
2249896699025260.750
2192080999390994.250
1846801122092066.000
2713940259322408.000
2416533886535671.000
3712126359643148.500
8101653473051323.000
6926603989707398.000
3950677606983743.500
8283822549658733.000
6125615835567472.000
14835849859752722.000
10484128722043368.000
15562680244804654.000
24945299537984312.000
37212650122213456.000
86473616929085472.000
45560671819373024.000
48559430847453128.000
40331260096420112.000
39704132688989928.000
21164804663720872.000
26971573346869420.000
40811295125961128.000
39512941201663504.000
21010420873677952.000
23343879575291424.000
12434129801157228.000
6256218263845267.000
3818471105140684.000
3819320831941193.000
8396733627281149.000
4508994208106169.000
6383165053208874.000
6554631089116999.000
3342679994692720.500
4046422260503788.000
2252003079387936.500
2170774326147956.500
1287306196599747.250
717424010858987.375
1138990300671990.500
684774127709062.375
744776243419058.250
408973489313536.062
623220118367443.625
741935123050588.375
598373982250001.875
371077088132604.500
216662270838172.906
202528636870272.781
170616564980766.781
178004676995440.844
228201089738710.969
172008920287646.938
359223558387611.938
456735744618787.562
394189149007553.562
607700178432935.500
1389633197562672.000
1989428078731386.250
2692992802687093.000
3324090872713016.000
8016291849081440.000
4820466053904920.000
7865322345519037.000
4811386970319144.000
6541107249932664.000
3313086785086688.500
2080711470075509.250
1134676547537514.250
1306884148532688.500
757549316076415.875
1088921475446694.375
1461077600162170.750
2192273916189041.750
1139564783271362.000
2422040704734967.500
3837871565582267.500
4246796275116299.000
4153284166904238.500
4687474724852870.000
4850160561690295.000
4138853777506695.000
6331780096841182.000
5943715034442171.000
3554425735748603.500
2199384909464644.000
2710102074858420.500
1450503412562669.000
1304056141585994.750
1174736180699423.250
665853752705936.375
657903745451531.000
364616906855222.062
195292262216516.375
189146997603938.312
188999287196856.531
94819282847515.625
96717797878188.609
94458597096858.203
100695580483105.594
62800759465154.211
36042748235842.055
21477914544837.203
16392888826836.143
9650312262654.613
11593489744528.500
16222778079442.535
9523416132427.518
13319285596403.363
7236898735050.291
5249594200897.666
6661397874311.919
5355235647867.112
7007562814643.357
3664590031736.178
3645064515103.342
5153490181596.996
6987126420468.955
10491775097114.785
23267238057882.020
19519426266357.480
23731026200857.613
33227176056767.305
35565721257790.539
53055995578910.992
52313059178212.219
139736650490697.828
130461601801897.781
143528103034292.438
126519290395981.281
253475950947541.219
224819181288346.750
204464773239544.875
420555622822024.750
211959367864375.656
214458472725956.500
198120207061303.125
195583040586039.219
410000061778417.688
217824297401838.000
211718978427477.500
336676507805177.938
354666091928512.125
191343035555075.062
117762893138337.844
66738030124028.203
66055617867954.219
134137751654576.781
126245291415179.719
140878443218321.719
174519381773125.375
213384448538381.281
250431058885323.219
198108517784653.875
233540873828566.219
127028191906079.922
104727087596505.516
135901893612979.328
77969169557494.672
41884221682620.531
34875554056818.477
30468620276515.445
68208066525990.914
57597823895827.719
62042611171440.250
37431644726434.328
76390053789419.250
105847389289206.047
98923682990813.859
121191012813895.906
123934868546873.844
73763320284996.375
44072573548700.172
29071496433613.434
32679556969333.551
20110864052048.391
12187078981996.371
12130720697261.830
16120278122769.904
9776556163715.889
21497529338490.961
11664990010227.211
10254408158609.922
23963398083154.473
35812483531710.328
53946836103525.602
78192363464368.062
76784456194268.156
40605126604358.039
36614371615165.336
55397853467967.609
114757924193170.391
238153029112656.688
228658775486341.406
225579597142408.844
213357952011342.250
313657084097050.875
712306695356246.500
1436747840165095.750
1408416108603402.000
1427617183049195.750
2247679885716729.500
2293975038604204.500
2580466734886337.000
2558984991875924.500
1914832642465236.000
2473540335964061.500
3899721625230148.500
2346815355577567.500
3287909984513530.000
1950649124276949.750
2298775449786674.000
1289090189990256.500
787827556336185.750
1260070511859239.750
1322186442716821.000
688600884323638.750
353348404788166.250
208864833499301.562
261749527529382.750
209592787091442.156
179397447200405.344
112014630420829.547
107474953450140.812
134321998842103.250
191992228167112.844
116025950306118.766
124575039393458.359
173369340774381.000
107943106759486.188
57263401554535.922
32410035285117.941
32694740070760.266
19459928719335.969
20077029383947.137
42836435115879.898
43588971352522.234
68225937769158.383
77420506001531.656
113865761523571.047
260315458337619.281
186264864139528.719
203495413800731.531
313913498126325.188
726815390088284.875
717960212063335.250
675809446985691.250
828385042752483.875
1016245118684845.625
1351941182263095.000
747506767816913.625
597607237884438.750
791140084419878.250
581710142878366.500
815567102160580.875
782158815531854.000
669402968786988.375
401240645519425.125
425424620677029.875
388724202333945.375
235823429846916.375
207867129639663.469
256998082026597.656
211918159007405.688
310001549477287.125
733689763935388.250
399462845068825.688
204317433808953.188
186602136871863.750
251812219172471.938
349045289267339.562
321095626232456.812
817854744204219.125
580095157326194.500
643822823326120.750
1438033048917315.000
2038343472104634.000
2135881325738057.000
2654138556257956.000
3367206815093020.500
4065968867828808.000
4210199487849495.500
3575183624458920.500
2186169458751026.250
2583489220720921.500
1896662117021986.500
2700618126586904.500
3801245236484103.500
3933565425434490.000
8404663613533029.000
6594430866019149.000
7790497589136328.000
4697503364400363.000
4879445574645601.000
5893401515562944.000
14514581799739190.000
7649690944604847.000
4269447302358353.500
3248525803299853.000
7758445672310631.000
7347567146761266.000
3863030635807587.000
3929243302945457.500
2385293858489758.000
4945744254447490.000
4230998096186308.500
