31.917
70.019
66.458
66.954
145.591
135.061
213.363
455.216
455.768
610.026
1518.264
2448.833
2574.302
2361.072
2486.839
2548.503
3795.085
7734.350
16146.836
15927.401
24693.851
39957.367
81240.860
171120.394
256528.323
514892.267
528220.276
534250.540
701993.675
718805.795
1724599.406
2640237.098
5287037.080
5007260.987
10691240.698
16617961.104
27067353.355
58316101.859
61569523.472
87042001.233
134324536.673
352452923.273
566416899.412
584670159.609
581595320.858
596954662.525
893416083.988
876569861.943
1867324924.187
3001848682.611
3167839179.681
3210384127.772
4739271960.628
4962768425.576
4702206695.121
11982791239.528
12263028436.500
12112859833.731
15356744240.048
35599166951.887
70810919351.764
89938174952.299
97432435966.600
203262354427.819
312730328414.818
316136375654.883
321835578565.585
755049997342.318
1187315891096.272
1271935010574.837
1256722628160.353
1355324412928.333
1309210778656.400
1880262722363.682
3900285776359.804
7779518475936.317
10220126050506.928
10047731885323.764
22900195386443.781
24335985838988.273
25048878482644.879
23081323594513.074
33676342077511.336
72892002935653.656
116407927870425.875
249819196553357.031
268116035364032.250
317840906727456.688
679273664000882.500
1425388290595578.500
1440315546176906.500
1485734036626688.000
1445972142204008.000
2350604893068258.000
4717814788584695.000
6252587239375177.000
6127736327773562.000
15505239194384402.000
22441759388813360.000
49614418010323568.000
71125308384911712.000
40135958904564024.000
40105081952542240.000
41569171576620088.000
49502333869805168.000
49392958248793584.000
26829956054750640.000
20980414595533152.000
19323677283871920.000
10875911314772100.000
14960291218957600.000
13223336984240078.000
26472799989376380.000
28417916397037572.000
38039320898877264.000
87845211095740496.000
48285172929853120.000
38119713193232456.000
21952933481600472.000
21945052342908336.000
27338660896095860.000
15014088987401238.000
11601418938381900.000
15698279634383746.000
14145964284187820.000
7161369537706497.000
6488790189112356.000
7180157693162615.000
3614196841319624.000
7723476756540757.000
4304158315555303.000
2436649032718712.500
1409479372378094.000
2140966005283954.000
2568804531875703.000
1399500890414838.250
721176698755176.250
439433237793320.438
464409433009532.062
335350965740681.062
381787080186209.875
425978247360884.625
236645330641958.031
327288246883151.062
360025073958058.688
352736812433274.000
312931726876513.688
740897915326102.750
853633865423604.875
458725835580388.250
699752157133516.500
1441824113672521.750
1224884246149483.250
1901917187613962.250
1946593405475889.750
2361961677406987.000
2401529856319766.000
2604487552044943.000
1440263720660720.750
1208550274376049.500
1358064289338844.500
1136128725903483.500
1071569314432256.000
616762883703904.000
329116777123759.750
799361940713910.375
740054920220655.000
429967732463715.812
235718409604264.375
237394128617383.219
249877717981747.156
245864238968343.781
340117925881294.125
201325880560532.188
106576385274542.141
64257233476887.383
81270968822922.266
109847922601450.859
54837167095639.289
142412302562876.406
229039484504510.562
344669559276964.562
408149856912589.125
247668029604509.094
179608633594263.656
103848746949025.969
110492095749507.297
57045620307940.469
69525173927280.914
59053926602463.984
139362012462193.125
141375965411676.000
229538553000027.312
195692163412450.531
232275587653328.781
117923144704124.859
188419613125797.250
115403091274721.234
69193542625666.367
41833159145375.352
30922714533548.840
71579384676446.672
115905429079743.562
234905394474985.688
127052759010288.625
119990817091796.859
130579989579917.922
78936091135215.031
77655040465961.266
76040933061128.672
66845685213290.883
76822457726389.891
43338322496077.914
66590470452066.484
53874339057719.836
31961336156564.402
69319742616733.867
60900410789483.062
58520511099685.078
117957191912968.922
101256888035950.109
260146513223800.375
139441967253136.047
119362616480156.797
64778638128196.797
142821023861780.406
141114614740256.844
134387259262318.328
178127404430216.719
235238953744999.031
343198332558221.375
780973462918379.125
796721659027322.750
554633445465687.250
802770329383403.500
752557365983309.000
806355645691556.750
1011356394978060.875
2236306431524212.500
2699322472077083.000
2293551680570778.000
1306038506243718.000
1306297302977698.000
1113314103410741.625
1039817317010984.125
2413866611249489.500
1301217437634599.000
1504670601509941.250
1356869853389237.250
2202905732778413.250
1237697059475593.250
1002853700849604.625
598584806916402.000
332455819550116.312
844928218142533.625
645029480532018.375
625844132578548.750
1425775427423928.500
2108325804185727.000
1133308781970339.750
618010052336346.625
753312984996385.625
786391981639608.125
1234711132122954.500
1959472915308255.500
2552141991734628.000
4132134516369176.000
5974448429594491.000
14364134156938882.000
14836440673697684.000
15246923075863116.000
21805167503319292.000
11651137016572526.000
23605156670575116.000
50877664982473296.000
79597222904323200.000
40124734653004624.000
44865290671436304.000
70082867282580792.000
40720876912462000.000
51093954922082400.000
43422034190658464.000
22688858622307504.000
24442101398686284.000
20680541636240156.000
19519490539830812.000
46399238592744000.000
91872709970005760.000
66281358286283456.000
37452563358718992.000
44587102627747784.000
63132032797426384.000
36629808125195280.000
19845467896830276.000
10487467062648238.000
27464973825247240.000
15670998195488804.000
15117074506136602.000
14086464386748154.000
18673991656555904.000
26384183615136860.000
23525285096398468.000
20685253037356928.000
12710282420197702.000
11833183753009508.000
26208418421426436.000
24610142064756432.000
25124254295475116.000
34485310830860272.000
91937072896597456.000
51088069517103304.000
28318204633504236.000
42586451597362368.000
25547270454492264.000
19026410787697920.000
43457810686023640.000
51070379755457352.000
36170078042815968.000
35154030915669624.000
21508120830115528.000
24993246426461416.000
21191188223686644.000
44006740881252896.000
36683410174162064.000
84284483308048880.000
93358241350907024.000
129330336122357040.000
131504339762981104.000
79309610116796832.000
46291768492469536.000
40746767763819864.000
47478965460354416.000
43725483531233976.000
38860042876303048.000
23249863703714828.000
34474976011626948.000
73137415204826864.000
80871083649702736.000
92893773779530944.000
69572460804479888.000
42400131354731016.000
89550509527050880.000
145269579565340384.000
87150724749875920.000
116447281836321616.000
150786214702933216.000
218074083156325824.000
289829901347047680.000
202055136974267616.000
293187261824695488.000
272947302585864288.000
300712155106449984.000
435852045794329408.000
442206217217787456.000
493922788822674624.000
293709466854216192.000
301548576346824000.000
222039975574194336.000
123559569674237216.000
249546547085391104.000
502376511282082112.000
260335567978633856.000
278862191380458656.000
213549534475434656.000
250583856338302848.000
150951486484750464.000
130650735373292112.000
68979121221111608.000
89662096318682080.000
91181888166694368.000
129539038928743744.000
148378969916034080.000
207057666518684320.000
239355153287597856.000
206836259007211104.000
124583315630453376.000
294295814255356032.000
225860848824650304.000
134785651621689456.000
302398596313456896.000
263601740855875392.000
201044188547142464.000
455997970964397312.000
713330688455795328.000
392233543145811904.000
833962218142228352.000
673051204488845824.000
792118597429793280.000
415263380214176064.000
958101216191337472.000
796286264544641536.000
448550182492447488.000
417107507887097728.000
392321237904775168.000
890906915870073472.000
465795280880452096.000
451277717392504320.000
421673092626415680.000
954775466877053184.000
525950397659712768.000
267767380893569888.000
137843724375587376.000
120862929068733072.000
277295063832363680.000
406447371241425984.000
250826964613581568.000
379999449545525504.000
784070158355692672.000
451246249086389824.000
359310910808325376.000
778226839936194176.000
1687230569496744448.000
1526363084081999872.000
2409463552293038080.000
3074687321253136384.000
1682151623208711680.000
1492898884393716224.000
833590825113309312.000
1218169550144139776.000
2879381221638487552.000
1546089830695125760.000
1264480663687449600.000
1494318563367337728.000
1172276226912977408.000
1490063637019652864.000
790635167388357760.000
882141028701900160.000
819335682872820864.000
1233077844573248512.000
1153832472005602048.000
662980848284160256.000
358908821042124480.000
393039469772922880.000
463560266971668544.000
694402640808099968.000
833254261583085696.000
496738144047700608.000
278551495237053440.000
142047119027012144.000
84455891583127248.000
81157848435015968.000
47228468601138360.000
24598109775896268.000
23327998010511360.000
25909189033296748.000
13073165819075550.000
7221864888393277.000
3805098743010999.000
2084001118527407.000
1796232249311179.250
4789492569607222.000
3744458845430545.000
2219727450973045.000
4830679277640942.000
2623200021077038.000
4241613106563862.500
6418262430580477.000
8046679277869415.000
7502921743009632.000
6208436663830901.000
7494421276249096.000
7217935193302188.000
11188230034221276.000
13359208831093084.000
6922545233045205.000
7008155546079019.000
6236733922370829.000
6929094219415319.000
3768337335177112.500
3611192387772133.500
4315940094749572.000
3323778124030629.500
1976779554417741.750
1199786863521187.750
1408582003428465.500
1406055875822527.500
841601159519376.000
465719859475705.438
754612556720750.625
407132943032332.125
309464746432746.438
179708249547851.969
254445881379606.562
182987332320572.250
453251512643650.000
335136591137603.250
395292406510619.375
337412638756699.812
372187317886415.312
225223146607699.688
199074736345349.500
311367687975084.438
751123427155332.750
703912380433389.500
590093603614968.000
593231299095618.625
1306708234759105.500
2599469008068602.500
2014497465438015.000
2034261776681673.750
2071094175894879.500
2015038730056029.250
2688424102241593.000
2044727923563572.000
1799897240612767.250
4888862195565251.000
3917213797490082.000
2232916626911599.000
2204221323460291.250
1172522889898411.250
1525011601183287.500
816534356670831.250
452001213608540.625
411905015685565.688
310452364342431.938
691758111616236.375
582740665163174.000
625651673493907.375
314645344927776.375
378532143326393.375
771401775753538.500
405705762232210.000
233219911580541.438
140847814811019.906
114273534210461.188
124510856384883.188
68894795506168.648
69589056372919.648
39540508756263.430
57880700623755.945
131908281870175.797
137118132988687.047
196597217338053.688
111595445309863.188
141291438477345.375
101744921534338.047
242050520366137.500
342083750464344.750
324688113037980.438
840381570552119.375
1152238096860873.250
1164349755343274.250
1132935620364815.500
2484998493087753.000
1946256688541157.000
1799469787289096.500
4856260407912439.000
5940540311893764.000
12509806355299084.000
6316000924721505.000
7499047598578802.000
4098670282678720.500
4105571827243423.500
2355104752321456.000
3654605402850173.500
1968263751248447.750
1052992717790733.000
645619455485126.625
626858729215816.000
347853650653745.062
401989991147854.125
802053530042820.000
432713212935314.562
373140502369481.375
768407104576463.125
763860682656131.875
572622361777643.625
600762100927741.000
622874398908384.250
575458878308129.625
757858944681085.125
442059152208240.562
442528183920965.938
566975299867327.000
673220810651878.125
659370246817772.625
647735678776587.250
1371265452394876.000
803747164363730.000
754323369608159.875
396464869376237.438
789360177928631.250
435815496045866.000
393430428621876.562
460313413419037.250
362986266943905.438
408463526596896.375
315120923253871.000
776921583865280.750
833538346606105.000
551514981067216.125
326480075292042.062
169225550742505.656
460363559681441.125
369332637290352.500
815336453870295.250
425188770713368.375
385951909405526.875
333736344921161.875
828027888856834.125
1317064447544224.750
2744039769930979.000
1437632329406836.000
840515293630417.625
724544078807600.500
396680621112067.125
339662850161074.250
696419061819509.250
680663797292677.875
676472130747803.875
796386694119172.500
831317936763597.375
1160820154923284.000
1430904389341285.000
771826043764727.625
656719038337204.625
342711668077724.375
802513928440825.875
1122926031264184.000
663254944363261.375
828162054947814.125
1051427304741015.875
2317380603119409.000
3556454841835929.000
2084237660685647.250
2207352998464097.000
4693242584285259.000
6641174715136059.000
13568038096233764.000
11319439197046734.000
12740302968048214.000
11507091952921770.000
14781538119511056.000
14333466326762188.000
7838452516589299.000
4355425066219551.000
3294346700357318.500
4684799173816605.000
6317683893996889.000
8776371976125441.000
7502431467927219.000
7285950829858035.000
7007634878275866.000
5864223992968287.000
8680247815377975.000
8933882976094525.000
5877827475396350.000
8073161645777333.000
4430816155114266.000
7093199079848491.000
8134332249531055.000
11164219614438760.000
28282298370693204.000
26062843364225408.000
14837703019075922.000
21375021122369736.000
43836520270460960.000
47498552827219952.000
70450445349161264.000
143809609202828784.000
158102209765966688.000
82633555768878240.000
76327137214149536.000
86866133821889376.000
46860493982264200.000
68606026804741752.000
86794862600318080.000
88956190115758464.000
116794814461787152.000
298076000125171776.000
168330825566176864.000
225156495597496960.000
201061139577892768.000
277889461979936160.000
229887952958982720.000
247761356825983392.000
265102596140482016.000
227054859276996512.000
552267540928395072.000
726012563324920832.000
697797863348689920.000
861116057667325056.000
1362239371555964160.000
735703755303241728.000
403594940588481664.000
551277293943367744.000
389585006040757376.000
494818009034636288.000
363868065712840576.000
936243968252182912.000
480945226510591616.000
502990741048048640.000
547478960733614400.000
493765193925122880.000
292134128447311744.000
214979081796269440.000
239035887581771488.000
205778550203084704.000
116989084969036800.000
64738658885986936.000
94750541623348560.000
67762567930764096.000
160092781333922592.000
219762880556972896.000
120538976309628336.000
126617064698755792.000
171391015711133632.000
89704216278079808.000
114449229623143840.000
283409268650710112.000
158722551248624128.000
217164658177282240.000
267055627962883744.000
137227629258556272.000
218484345982747296.000
122276217529683376.000
285785493004693664.000
168354976872959936.000
151709458516429184.000
242744973184804224.000
309856963259382208.000
162942293761359360.000
90089240059859840.000
65906382672887744.000
154884303830446176.000
153631889556441440.000
89947138660293136.000
76841853431387824.000
63099751072359824.000
87669903823415264.000
65377908471463200.000
148486949571425760.000
120334708581869552.000
256927918685329440.000
260689762300927104.000
544665277533651136.000
374893398758872128.000
425236885847098432.000
524719288998741760.000
391878263325200448.000
559979094767698240.000
692792163780428800.000
1571649290210120448.000
1299032158430740736.000
790890087087882496.000
1627113176926502912.000
1364771827832186880.000
1553268080910155264.000
2218412431514628096.000
2756821762225076736.000
1440528917435798784.000
1605424220997826560.000
907044158471305344.000
966702453056348416.000
1330393349907572992.000
770301117413630848.000
428554532789686016.000
392942259457383360.000
213906265802794240.000
273933657989665568.000
165647229062086656.000
262111877683980128.000
267736240957762720.000
227852130753445056.000
208196173102288320.000
256099102440462752.000
137500118151442880.000
221013358271575328.000
253056072678696576.000
223615608632245920.000
455274277606772736.000
247694793963944384.000
382701828655261632.000
547268123140987072.000
433696095363358912.000
442331030867983872.000
956664793728605056.000
767255134329113984.000
421228166857345728.000
516635081183313344.000
1013807769705652224.000
832466785523619584.000
917620796015297152.000
1449446566984200192.000
1570107108913239552.000
1378837856645905408.000
1540451137499581696.000
1823561662060640256.000
1330262719636775680.000
1674541878249283840.000
2486226738234435584.000
5454927092741407744.000
7708334700315053056.000
10282161678975434752.000
14609473433423130624.000
7390617888047798272.000
15773240314289405952.000
13889213129455089664.000
33721068640073048064.000
43711611035316559872.000
24274525634887184384.000
12964362261570600960.000
16815297293661476864.000
12919281363654311936.000
33036081966025875456.000
53269717526384287744.000
60629939041197178880.000
79250033875509346304.000
47575674150761119744.000
26313813669180407808.000
24703280428384444416.000
15237303258342170624.000
13550514394431277056.000
31017175770891075584.000
23573334430350983168.000
56532096447017091072.000
29625671042272665600.000
41857758802746728448.000
47575375278065311744.000
24412665741612511232.000
28045409065025404928.000
30151579111116644352.000
42715500136154087424.000
56188940073542860800.000
33795784060281307136.000
47152080817088339968.000
45570303372373426176.000
27717464502335684608.000
33259490252660920320.000
29057578325285523456.000
17007726685589719040.000
13144370307302004736.000
18189779968211019776.000
13475327692995158016.000
27063852590127562752.000
14257772495627317248.000
7406161963437575168.000
9804897487514116096.000
5764348304287125504.000
5201097252645408768.000
2651039205379868672.000
3047809920253413376.000
1672730344525240320.000
918137924638699520.000
1799446870088495360.000
1495745133321171456.000
1696015321537386240.000
886442042397742336.000
667671378934496128.000
815603324360650752.000
888327724446571136.000
459344427384736448.000
434411954949019840.000
943278552448271744.000
510594725105712960.000
470278069100384192.000
939477578566287744.000
998432447663276544.000
960172861859287936.000
498422214305358336.000
696527953361679872.000
849823562008133120.000
1300773742383627520.000
1806831129482179072.000
2285033516664814592.000
2888266039889235968.000
2991549318822709248.000
2642811246292284928.000
1337800553616431872.000
1795283173651091712.000
1389431965698144256.000
3110581067894178304.000
2826211665572341248.000
2263916330231913728.000
1335672319400974080.000
1194108562448046336.000
1675341072420452096.000
853899613818613760.000
869033479356708096.000
462723855354302336.000
252840017089135072.000
298204169010962112.000
239477064822129280.000
123545970946945264.000
276314575000044224.000
163989188715575008.000
137388048305712720.000
74271523127264768.000
45139225672785976.000
40362244718049032.000
24141268760225984.000
28991979938897280.000
20881230735807636.000
25716872748411416.000
19924633791974592.000
22077556175123404.000
28776567450865716.000
20064856964681196.000
11412672721414938.000
6465250191562728.000
6388044780103028.000
6037877414545932.000
7947887327515899.000
8710824576781687.000
6952571239013321.000
6003600177558859.000
6971933369978565.000
8735384786264926.000
12399349859057942.000
13570574231544802.000
12731015973168406.000
11616742663113956.000
13399682640238266.000
7833711559914537.000
4031030511384041.000
2141663797316359.750
2223485617574774.250
2635325178757837.500
2212695728418746.750
3291139686609401.000
2032500861667982.250
4150006130717987.500
2431283502040882.500
1966728463300274.750
2053108286916629.500
2337191069811169.500
2422238091964935.500
2473106850993633.500
2133072547006026.250
1221200591506107.250
2552135503789194.000
2044230656014083.250
2332975155574274.500
1816857622880283.750
2425207486318541.000
2210827505843928.250
2015233793074488.750
1097493556365839.000
2787279028997084.000
1505579124387238.750
2247800784050522.250
2665471689752094.000
3376573274987768.500
7426789719596582.000
6647495094473589.000
3939753327948497.000
3382136692247080.000
8139317835190259.000
6505771084657030.000
7255421313005116.000
7754915515389369.000
12018248550374402.000
12326580544716948.000
10815589473421494.000
24275011552593056.000
38830195519901296.000
50720578558813392.000
51985202211812600.000
76805942111547024.000
113176081508895440.000
140538385605723296.000
157148717483798656.000
91978972958141840.000
48799352808683744.000
28499613977076036.000
20182395188030088.000
49654823167458912.000
27372487023173720.000
27123898021090860.000
15579479660274170.000
14083767431396626.000
12686918740773778.000
7634283560799836.000
4471949006563729.500
4095078661252119.500
8849691593869338.000
4695811769150707.000
7424198442406066.000
7627043245549301.000
7053173551744543.000
7390728104347510.000
3801777796575355.000
2097792364259881.750
2142784850225864.500
2682487833170212.500
2509780784609801.000
1479572212263430.250
1397663886883975.250
1931923491575942.000
2517918525030334.000
2600706173943095.500
1327291682552847.000
1523710235129754.500
1218142828935591.000
647132142304072.125
1404576147142450.500
1155928225684906.250
682098438907286.375
1436224881801850.000
1527871312129554.250
2339932701604810.500
2505152847985538.500
2274264026644976.500
1178538676483080.000
1356363609712800.000
763577292856455.750
626741245704795.375
556515173940042.188
706353884690681.750
1434535128558470.000
1428484056026242.250
1375823147438349.500
806133242329683.000
1054216658110885.000
1037738415428206.875
2462296434811475.500
3329726977628244.000
1821557736518894.250
2177416035137350.750
2740116585259742.000
3677010824434008.500
4197520232458402.500
8577805830035866.000
7257160626463524.000
6705703274357294.000
3983304519416582.000
3814535517891924.500
4002727156058137.000
4616772866998563.000
4703889909656049.000
3254987808835184.000
4378854895533377.000
2524883558352325.500
1328435233208686.000
753873614832055.375
1149417901104770.250
1190253238717921.000
2491442312904672.500
2103781779280945.750
3316229327701012.000
1813533522741598.250
1053435944180954.500
1521800544374966.500
1005178792499927.625
1248462288371454.500
1229292969351212.750
1377410249307792.000
1007847347841187.625
566525675633535.625
720871519141912.125
1160946637321103.750
637716329333602.500
615460453529537.625
308320579367873.062
443616190864557.500
308500131060700.812
428898816078076.688
439319359559515.438
343250206061959.500
190017583729962.688
115745895103600.719
69941618431421.656
98719092299199.047
261285644668989.594
313886554136152.625
184081931106254.781
238867476185979.750
366404132484031.375
755911626485058.375
821398024476426.250
739897645209061.375
445864295372535.375
695513692047358.750
1057292347255338.000
2199052679299600.000
1817288763097994.000
3891291913394975.000
3474585608943782.500
3662863998149522.000
7948174385018578.000
8343102461194298.000
11988310284915876.000
28132581339908560.000
41534912311559688.000
24996280292535096.000
51644872829539288.000
63822033903718784.000
152151137594385824.000
111549956390574192.000
65769728624098544.000
162257270900950272.000
197165124563523648.000
276107953343485888.000
143826476317251264.000
157439925993168736.000
112509072838404960.000
149340375568914432.000
208740196851918880.000
235331044491683488.000
525245479147589184.000
418478966756696640.000
385387822513226816.000
238670594833956672.000
540380544427647040.000
295852704118464768.000
412272732270697728.000
513648866406308928.000
435625232935241280.000
265338582218644832.000
237536564867411264.000
359688812784272128.000
364247542464775424.000
850971257680571264.000
733648962941410944.000
1686060691598544896.000
1522037475587346944.000
1694891287531448832.000
2529612877264623104.000
2831571542098767360.000
2175486399407534848.000
2748292562581017600.000
3014079685834545664.000
2364300784025156096.000
1458623735139182592.000
1596604621617569536.000
2487891866567017472.000
5223047416177260544.000
5067011309303266304.000
2863966014530168832.000
2899350103991361536.000
1721873017520950528.000
1468163865669792256.000
1592654353569129472.000
2329718355403803136.000
2269326203947707648.000
2614751130139974144.000
5494445695311380480.000
4723376674560717824.000
5532445032313204736.000
3131598848589760000.000
4495051222988737536.000
7007817859478336512.000
8682456015634606080.000
7495766906563497984.000
4568363085714593792.000
4921907293178532864.000
2483590448279256064.000
2093072804788342528.000
5435930411610401792.000
2828648069952206848.000
2371335210974614528.000
5175904529371283456.000
5229867588789794816.000
5302193359728672768.000
4655518795610591232.000
3760132706241933824.000
4522055885635178496.000
4610646377035893248.000
5353320060789276672.000
5310143595387027456.000
7679272273454516224.000
15910750526996584448.000
9669045184988844032.000
8080423165104233472.000
4457642560150813184.000
9035496300038296576.000
10103233931359907840.000
5662127636715886592.000
3996816512645114368.000
4231824028861512704.000
2536892321021062144.000
3846250085659894272.000
5408466388736546816.000
3771719169996177408.000
5387247527291161600.000
3699165604517957632.000
4863157220380175360.000
3895071717444168192.000
3930959037898971136.000
2375967145531783680.000
4807410471816743936.000
2440918314080816128.000
1419615078043918336.000
1694102197447335936.000
2659682893682338304.000
1378573897915189760.000
1740075433593852160.000
1464116295318843392.000
1633543554400350720.000
1578286312811431424.000
1203446674502577152.000
703149129379406592.000
802432057815925248.000
1193517516267357696.000
2651281557498755072.000
1558426741793005824.000
1705973141439489280.000
1337873287568148224.000
774972778052898816.000
657572067291146880.000
864346525886605824.000
1216370295892088832.000
3089209267474824704.000
2391147652599266304.000
2156486039874893312.000
2953352417655341568.000
2507829306389446656.000
3048759154811560960.000
2806946121103660032.000
2237872946205443840.000
3066175373392126976.000
4363284796221179392.000
2245540965265868032.000
2624794790868013568.000
1523205196357151488.000
774071058853525504.000
944323166307815040.000
830198416708456320.000
468443785427364480.000
255369190133043264.000
298693167914849344.000
235118127404438144.000
137458249601946912.000
141226174026156384.000
151433150712494848.000
137441516744310160.000
74004548283131616.000
161073480585934528.000
164564473415935488.000
257588684658020128.000
522280400649292096.000
297257426476412288.000
276696881215444160.000
241000700614915424.000
239447838359630208.000
291445895957237376.000
258969734463488192.000
232213869136198944.000
129458986351671904.000
291340430096626752.000
222272907867861536.000
129138133476518736.000
66441759812359016.000
82701159688607280.000
89818994457696304.000
138433088941572240.000
140042611575914688.000
74248758241841872.000
41413392392254800.000
38959621279880640.000
23796106403022812.000
14102692290147570.000
15310101700378470.000
19197287959709068.000
25832750913437456.000
21009436119843352.000
26696496462708980.000
38277980521916648.000
45613874453086128.000
69241942492151344.000
37044551146284512.000
45192922175916744.000
41590184725491272.000
48660397532382744.000
66725751882376672.000
84656830294850912.000
44744970318908968.000
67856924309175952.000
75911444907651520.000
75146317428567984.000
154076486085978144.000
79577091128639168.000
64875253567718000.000
77932716817297456.000
41349341756841768.000
47064996946349112.000
24168457043836544.000
27218723314148200.000
28802518337618728.000
41854913163624112.000
22376408615650548.000
22588095503305336.000
22564837703633100.000
27889768972499036.000
24904001176982148.000
37134931160566656.000
21005542937519340.000
25460171392507876.000
19089177304786288.000
51246556096981208.000
38227795512252880.000
86821071124240576.000
66204670713213056.000
38267427773905672.000
48549219653113104.000
73364976113360128.000
60829405120861096.000
34591686938071352.000
83228300466954192.000
45710071214261464.000
37857288787429920.000
42401565245383440.000
33826856159506696.000
50089028471586752.000
77767336025372912.000
88280417692714560.000
47278518878906496.000
38483566586806784.000
83436823884006704.000
49711440393344432.000
27472339907887520.000
19127533742946688.000
43748433183780864.000
39127301277331184.000
87044236892797056.000
129332793142481600.000
143549966637442192.000
83159972443385152.000
166681584475781728.000
219501207257516416.000
273134363360101120.000
151377714996143264.000
139985497070452256.000
205255806942509600.000
204386819365391584.000
301140278952216192.000
416246987587988416.000
471417251956238592.000
656189988488513408.000
827005155135627904.000
726730452651188352.000
1466785533400892416.000
1394140991212648960.000
822716486821890432.000
1189726903373808896.000
708185873759228032.000
805745319087015040.000
419305621045118592.000
669318769664832896.000
965370625537200000.000
817207552217740032.000
813875288256684544.000
1226275245596238336.000
670110228366040576.000
1421071328882840064.000
748822056510835200.000
1152547775017566592.000
3173140155924327424.000
5165926605843349504.000
5409328454543397888.000
7768779964632030208.000
8426161144282232832.000
8067313776980344832.000
10237074528019501056.000
5283524820415226880.000
4743642570945662976.000
2519846152832303616.000
3090522247523929600.000
1731622672075642624.000
1375501928233550080.000
3161935190846302208.000
1635214984942280704.000
2151643937019800064.000
2448460363630531584.000
3072955766116947456.000
1565816931248174336.000
2173557390562415104.000
3006170503867794944.000
1751963489157181440.000
2468337105774801408.000
1516466354213761280.000
2245105567740858112.000
2521660296687856640.000
1326793053570224640.000
1400226968575890432.000
796861504119373056.000
726826217371507328.000
419311156197638656.000
647735127161022080.000
799279221716867584.000
1289975570867128576.000
2776210697235744256.000
5610736205751844864.000
5121171552439609344.000
5608476973060097024.000
4735062305118813184.000
4272324148025629184.000
2205610525256816896.000
3158397697420340736.000
2303850122572450048.000
2775638247767188480.000
1499027240901232896.000
1689436043853869568.000
2643902395432239616.000
2065643781989666048.000
1158313747564677888.000
713405067600697216.000
762092798213789440.000
885880469602421760.000
843469294232434944.000
491539345721141312.000
436750478658536768.000
509698075194274176.000
359609368728056128.000
421987546125437632.000
257851437275167008.000
405049078838236416.000
524743640820928320.000
427479756660901952.000
954261216027834880.000
1190940012306988032.000
1492796553265275648.000
1324380748482007040.000
788596055603938560.000
971420020923900416.000
749022700402094720.000
972866119723349120.000
1499649435848424192.000
849191668648500480.000
691071780744207104.000
422720959040776640.000
414800431723903552.000
882468934832437632.000
490178858462046144.000
522601124115596928.000
365590742074283136.000
460636266345091904.000
534191069828464128.000
425880667311283840.000
372379309624972992.000
432588980589595840.000
248406042490784960.000
223948769605740128.000
242625137233140896.000
280510124571110304.000
274093618406759904.000
232183295767983808.000
502643575974980864.000
399485957968067776.000
536861920001106112.000
355205459881667200.000
764475413798639616.000
439743217858081920.000
881731895501084416.000
770550537457970048.000
825903351186027648.000
740348746083213568.000
426143870498395968.000
241035580123281888.000
257712222569665952.000
290591321359135424.000
290080656872594112.000
441017227295000576.000
529183421966955264.000
530133791112286656.000
478557420880089472.000
775095553389776512.000
652510009293194496.000
661941202102737536.000
963992761972444032.000
832491520125499776.000
766452832896960256.000
921889553487202304.000
530458711006006464.000
373081300155468736.000
946237173308646016.000
652869527374477568.000
953893163606211968.000
1495576131388118016.000
1180952919372854528.000
2470510748112296448.000
1237526914673209344.000
687378850224175488.000
671654117763318784.000
1367991161790278400.000
2747288905003487232.000
4094994464561193984.000
4100308724451773952.000
2473173894061574144.000
1338851826040598016.000
1525087317619919360.000
1157360906729172992.000
1415243164219598080.000
1243189088758045184.000
1442737268060496896.000
1258740854569957120.000
1231057329945968640.000
1293504481591587328.000
1650218646902476032.000
1226170108488699392.000
1755353581088679424.000
1647953710357015040.000
898898245102073728.000
770978861136710272.000
922085211539684480.000
1466074310473188096.000
1345089664228452608.000
1309488149412632832.000
1676289283417693440.000
1725806925573419264.000
2447657549517492224.000
1436610931505584384.000
788346537555456512.000
699683820277431936.000
847573580451488640.000
863903003371691648.000
662858922129499904.000
811577335605910528.000
921378312734589696.000
788770753828276992.000
686593778051122048.000
374948540756872384.000
432930926904782400.000
865963760522313472.000
755045548488995840.000
840255855096309888.000
657407382521179648.000
370960591542633024.000
907786255905128832.000
466706614786262080.000
508798769512481280.000
485507014508063040.000
262291528415162528.000
525647727635873728.000
722372815859928320.000
958562826606581376.000
826230795236854528.000
705795236535196416.000
965253114089732352.000
715028238390864384.000
862712732950600704.000
797185175589324032.000
1157637683339928320.000
2939008590310721024.000
2617131176485511168.000
2727643859634792960.000
2082067658030638080.000
3147765613665846784.000
2160338024449094912.000
2699943360696488448.000
2349617599673034240.000
1369995495206224384.000
1283657661708668160.000
740679211892172544.000
939201575990238208.000
1196005259614483200.000
1756252074793074432.000
1630303927640759808.000
1675237773324178432.000
2705599005901154304.000
2140675180647924480.000
2356308374214689792.000
2876958406116435968.000
2189584773115355392.000
2371157901427469312.000
1280594197204397824.000
1432207628632846336.000
1714949092877142528.000
2641564339240488960.000
1400599136261779712.000
1765756254854795520.000
2792888852814584832.000
1564042017327883776.000
3084310938292283904.000
2580607074166398464.000
3063438276717002240.000
2625030527074933760.000
2280488971804774912.000
3030561679088351232.000
1756039447831890688.000
939061413723730944.000
1150858166063961344.000
2379967661063425024.000
2612731136228392448.000
2910063349049946112.000
1720136843611559168.000
1494955964503445504.000
2293215059276828160.000
2468080823115856384.000
2626760962219270144.000
2989385752201896960.000
1651699523412963072.000
1400924540725211904.000
782686089947937792.000
454720773685865280.000
376030663281204288.000
807457259988728576.000
1693061429349795584.000
1392666893606799616.000
806748997097592832.000
413306939284580160.000
645566118102377472.000
1701363677854137088.000
954156052312189440.000
796484523155041920.000
898093212080604672.000
978383120833072256.000
1435864039746484224.000
1281692038859633920.000
2796426428035600896.000
1492328030617543424.000
2157789606483849216.000
2279228985229442048.000
2683498700952293888.000
1406916501765844992.000
2893138140631955456.000
2262093851028562944.000
2926884733626072576.000
2572254198850814976.000
1561113535715669248.000
1272961540379979520.000
2980561742719669248.000
1614564020660565504.000
835897467007779072.000
499089429813111936.000
451446227198560768.000
542048407572651264.000
769698132437394048.000
382650776790363328.000
979546094456412160.000
912405970658954752.000
1220975489796462336.000
1216476626168665600.000
1502329253294386688.000
853847694979386880.000
470715971812243264.000
277506339789022400.000
161558119281891936.000
123188384540245552.000
139192783670011456.000
80094214439757024.000
85811940327891440.000
68694690450191232.000
42019013088577784.000
35552158062004972.000
36862163263714160.000
22024828734707592.000
25659346504947532.000
13830479494482126.000
6984054943154825.000
3994395287510011.500
8204454028207964.000
12720436836650856.000
19786810109374072.000
27893118714791768.000
19783003921591484.000
22974309902521944.000
51588554491541536.000
67104097665327336.000
35297446758695736.000
40819491642271200.000
62356560018753392.000
79615061877822544.000
90574577222289760.000
92876489502519840.000
119455911880543728.000
139428521045298576.000
121565043820000128.000
139993745872168896.000
296320217138477184.000
166791875281355488.000
123117956369708528.000
114130765102146096.000
142738893984041520.000
80985102110059744.000
43946566900521024.000
50499509842136056.000
26229925780883604.000
19304723124557536.000
51173873895624952.000
48748654112332296.000
26535361039405712.000
15759677500378800.000
22273087428833652.000
25708235430906376.000
39683767261086080.000
33766801778751524.000
49331156934776808.000
49018534114573200.000
65924168647755488.000
86291354842950624.000
139732267374078160.000
77763209392048496.000
112275162638439792.000
239015682482005216.000
270329468750012928.000
296038254153912576.000
160665025600043296.000
87357401644997664.000
138759503750330720.000
295943274180589056.000
208075670144715072.000
289111285540189760.000
372298968619439040.000
218441537573270048.000
295455628885193728.000
436117952917467328.000
390401867886877696.000
505827094101893184.000
399209622298198016.000
420936685525916672.000
497492514477729728.000
514977085141901824.000
390935114669204352.000
952073933657082752.000
853003042195017600.000
448549845481478400.000
501983388131398144.000
263885013326924544.000
525576421860526336.000
273559074236097536.000
196272343164363456.000
444237415495082880.000
403528407166990080.000
833211560909913856.000
959225338040051072.000
788611979995045120.000
437128429586806720.000
958369272161473408.000
705256088908193920.000
1738455173920093184.000
1341895944654692608.000
2688542861508904960.000
2397723213425841664.000
2138372619736808960.000
4490771472733642752.000
9854539845364107264.000
9498978352262090752.000
8413897968780836864.000
10013884274501337088.000
14934063039123890176.000
30380773088332472320.000
26599920508420145152.000
24707725090162049024.000
12372573233516410880.000
26895391767931965440.000
40836043125655379968.000
24657908554221182976.000
51241583981983809536.000
50965089501453754368.000
52894151884626321408.000
46409912620891652096.000
57505489526221979648.000
45961940768821395456.000
39408514495614550016.000
21597896900281184256.000
33067641836538232832.000
28866247444060536832.000
24761188550406856704.000
57901424522144710656.000
41376947426612453376.000
59219548939262132224.000
32878341211162492928.000
26389937006253785088.000
25771975077667446784.000
29180394637568696320.000
32500451012378542080.000
22004664796268703744.000
24948306787616997376.000
14149029750572480512.000
14865557861934831616.000
7596614396705394688.000
6815499440083013632.000
10252983713882171392.000
14900633503029067776.000
33234453675321155584.000
26080211254394355712.000
54308910134853435392.000
43945090626667200512.000
52638010839403429888.000
50172952600431345664.000
104673937587604324352.000
100298260068052697088.000
86026053562022379520.000
48443127553625432064.000
41828091076873216000.000
50351864504611602432.000
41761938709079203840.000
98487012946359730176.000
51008722745269960704.000
26136028711410008064.000
15888659766831173632.000
33261789707963879424.000
24984304937878421504.000
21675317521329590272.000
24586817437301968896.000
27895456340281171968.000
29556093839231823872.000
27511821209664020480.000
30668193613548281856.000
25323008477067931648.000
22241850911341481984.000
12581274349551572992.000
7669836706254116864.000
16930047727944275968.000
9675246864097837056.000
5561063425536548864.000
4787368921613616128.000
3843459790811786240.000
2078585442197491200.000
5368004905838342144.000
4892714564550155264.000
4592635998660950016.000
3823221550371164672.000
5003150705925359616.000
3010745349019632128.000
4122812826253145088.000
5429336281085192192.000
7373728347377579008.000
9492590490951909376.000
12290963391707860992.000
15249098913394634752.000
18318769968001282048.000
27600843550736605184.000
15108515631940118528.000
7595641502545302528.000
8851736580113929216.000
8026462785206061056.000
6975009950402275328.000
9351587568760754176.000
7726097815997203456.000
9981055504836468736.000
7502274640457049088.000
10244918472304742400.000
13251869289119639552.000
16904214606038796288.000
14393213132488771584.000
22606863088578416640.000
12029108327445815296.000
18513573148100968448.000
13767299299754960896.000
8123456122673639424.000
4429246784528526336.000
4596166575488357888.000
4424726954836009472.000
2687719344561191424.000
2382119529186635264.000
5679649017492987904.000
4445724449638844928.000
4800513845346934784.000
7770033989940209664.000
4037884822417928192.000
4673012947488778240.000
2574788131034173440.000
1440926637630719232.000
3177765215885754880.000
1626485659027656960.000
1305565214287605248.000
1477625704804965120.000
1273573603066143744.000
778390211046970112.000
973308706669211520.000
1193506499542680064.000
1486043693188416512.000
1396499607438312448.000
1556561925881802240.000
1383785842958504448.000
1740551288521644800.000
1419537781666015232.000
2151875075328764928.000
5655806126261704704.000
8956596815258178560.000
9142737966957719552.000
4712795281054085120.000
4036565401158916096.000
5398757028492690432.000
2819017449207942144.000
1601114233682851840.000
1301664390530056704.000
1574964098318324480.000
1618384461578988288.000
1146817264838907776.000
3154048244317255680.000
2640852565784903168.000
5473909815133423616.000
3764568678749156864.000
2326115218562418688.000
3182138863861344768.000
2445062555430165504.000
5138917914027911168.000
5242196741777166336.000
7910732476965866496.000
3954627526515278336.000
5457642478115924992.000
4876784209212965888.000
2833408123836295168.000
2062136852466930944.000
5361611994119038976.000
7357457372204314624.000
8707133149521144832.000
5115139321808385024.000
3916707257279492096.000
3837583767618852352.000
8411676337641655296.000
4713971278194562048.000
4478032632795492864.000
4185125748045648896.000
5692016438393492480.000
4504008508723217408.000
4287377543301137408.000
5409075294148429824.000
3890603211260535808.000
8106670089754195968.000
4327127037874942464.000
3820122024918754816.000
10109719287739445248.000
8373043888346564608.000
7392182128678839296.000
4230209792318583296.000
5327422650751431680.000
2733497582714035712.000
2178035716372482048.000
2722327181661039616.000
1569407673685477376.000
1483861283075446784.000
2277447917898603520.000
2870046771811194368.000
3044285884170515968.000
1706514853167405056.000
954881800849865216.000
486154512963242304.000
278714055038990624.000
247224431992951968.000
299800752424032960.000
218021233528635392.000
118887021301993456.000
144648575005968160.000
76193549545041760.000
113777889431764576.000
68229841950760152.000
83703577139496304.000
127344213247499808.000
138307097583326016.000
198930060683469792.000
432660685931088896.000
682673104132136448.000
923241314814966400.000
832505685326570368.000
739341751928917120.000
749637705775340928.000
977601449126799744.000
1374756362054435328.000
1574899427916939520.000
3168908226813248000.000
2974103107220283904.000
1669540623033596928.000
2741064541671740416.000
2422876064077122048.000
1465731561847440128.000
817010560211175040.000
1212401302025845760.000
1490306587915869184.000
1305229965456971264.000
1453133794989349888.000
1544050984396649472.000
1292999611487559936.000
1580479795713683200.000
1264996576877182208.000
710623218904498176.000
929944090985745408.000
648340045857642496.000
878327380523678080.000
1290000473728288512.000
2756370949747785216.000
2072011980650459392.000
2527417252073409024.000
2584440306319977984.000
2813813507001746944.000
1501366226875214080.000
779000965043793536.000
1249488686975581952.000
735285141925933312.000
444886506342225920.000
393390626177866496.000
515914374886721920.000
457249629481482304.000
482853319332731456.000
535544348596037440.000
301780604466257088.000
241725033208536096.000
224417137470122208.000
252638744713570144.000
536576495438412864.000
357471534428372672.000
504613161387041856.000
730488374210449664.000
934755923377598336.000
680424688029532672.000
415451547765607424.000
367834586255773888.000
886144546258828544.000
464240714234617536.000
721366038776120576.000
356983790062956160.000
832019431136931328.000
1677164005734845440.000
2127268359992300544.000
1322435849465232896.000
711371021982386944.000
687481997362055296.000
