44.785
72.059
70.994
104.031
238.200
351.436
360.481
373.301
563.041
1316.658
1902.452
3921.500
8772.889
11272.547
11966.359
26686.451
26680.075
27805.377
35488.765
38488.079
83699.565
87787.027
80298.399
82571.628
123634.491
137090.626
149040.556
162014.203
167326.047
231248.242
211442.762
467350.198
509353.435
512821.390
505416.076
795896.178
1280798.160
2946546.443
4602519.371
9945447.221
9842730.896
10189353.247
16255906.373
24682905.385
49976788.832
45370669.787
106052348.714
135193299.963
342037181.310
335827071.309
532378719.917
498793488.025
492401262.775
463409470.444
1054397140.881
1139672359.444
1886649341.122
1875592391.042
2432083497.340
6339394915.622
10011902301.047
9948080405.932
10829988528.008
14192891429.894
33956381091.159
33633398540.282
68713344363.083
92097112867.025
95407911572.979
102404995392.385
212001756346.582
344048536330.397
325968991102.841
333503659782.529
324089709136.496
664134141336.953
978350811697.597
1052979076523.821
1078146940785.843
1693526558180.861
3759027636488.187
5090776301820.542
11277304706754.076
23260639223076.035
31129957488930.062
72762815957051.062
98770827683525.031
199623768922394.219
217004160221289.062
202544436472762.719
447427189174985.500
458861558695615.438
696921376902964.000
645530182147252.875
1384834550183914.500
1369953002229034.500
1326349727083655.250
1937366492166479.000
4545112647683511.000
4427092894203155.000
5858718614239267.000
8553313547808478.000
14013613640537284.000
11340657969292642.000
15511292342714692.000
7976381330386740.000
7334070800439765.000
15544716419234970.000
14257024462813776.000
8404800898627586.000
4274324177269656.500
3658383328981327.000
2235114415958285.750
2466516814036176.000
2510579157416217.000
1470626477306469.000
2047501442178805.000
1972094028585509.250
2330466833732794.500
2523611582116938.500
1977225258313245.250
1940036443020462.500
4287841346288773.000
5948461165802103.000
6988893788755504.000
6977262806004661.000
6298708455631994.000
5909464946972051.000
14139585201963720.000
12349436139156572.000
11076408190968486.000
14332181696939660.000
13419543357495170.000
20246963560077840.000
41045576578264864.000
48274009169924984.000
34744683854355928.000
19878324791014524.000
28106433877990696.000
14455775186708594.000
23318408667266604.000
24697793229123448.000
27289350524720292.000
19436638853046752.000
24203874735189852.000
36930170029507696.000
41223260013501288.000
36365295135472296.000
51291374232321544.000
62365282989341592.000
73587608070622416.000
77484597160800000.000
156843070862721952.000
196668883485789600.000
270997572533786720.000
543190728031718784.000
298209702496236544.000
430514241754503296.000
355199313463614528.000
545362505721859968.000
493768498628976000.000
455205240057379264.000
680363611164246272.000
389924209589959232.000
522425883219750848.000
512470994389890432.000
382437064417151168.000
221410350082161152.000
528275384420833600.000
503120565040507776.000
264799684982173824.000
136282067416631840.000
285378044513931424.000
387174945408270976.000
402277002327040576.000
511207447257544128.000
414235108532107840.000
371902440933987648.000
869877598524402304.000
463415702696063936.000
244521421883777696.000
139351104606187728.000
153861165170266976.000
90814919649044608.000
48774873373605464.000
25863518441125840.000
13692709227191906.000
11449987306778990.000
25609098678987784.000
50310004210912096.000
39819956566982320.000
40274514330571760.000
24544707805055076.000
37802047361553440.000
19830922103072796.000
45864487856162320.000
70119128297323080.000
78642754000487776.000
91040020781681968.000
120276465438000848.000
73915261694758816.000
39282330970105264.000
23538695279490528.000
27570960334738456.000
24210327430255808.000
24293599777092524.000
48819480314001160.000
40181499910839400.000
34683580117501540.000
87844766072779472.000
135812735170427408.000
117335151638111600.000
299248546001779968.000
274538558837928960.000
355622354765436864.000
969089167298686208.000
747474904729043840.000
808717123159479680.000
694290220261523456.000
1578173070969057792.000
1151226037421654144.000
2583128553009647616.000
2142467081014382080.000
3138573880217729536.000
1702311067928702464.000
2515072824024695296.000
5283967960539019264.000
5404958059869476864.000
3110853700297691136.000
2812775883919261184.000
5681561970613550080.000
3006515793100773376.000
2765733574997841408.000
2372484673977696768.000
1319080771311779072.000
1608911413120621568.000
1144317473480613504.000
2594606073581047808.000
2877364485652742144.000
2754845880468356096.000
3128809982550948352.000
3034543828451014144.000
2686524627193763840.000
1609529908816875264.000
1268791050137247744.000
1684655429811646208.000
1421772036790773760.000
848052866367361920.000
929048642872502912.000
511715381667952064.000
261150214380260256.000
371754013635181056.000
509756080024925312.000
274244784115484064.000
146848579001084352.000
87047248346225248.000
79901935424377808.000
40399161384469584.000
51864480548456784.000
43797354018289872.000
34963940334172760.000
36877618385594712.000
46087596264664992.000
74785330311475840.000
39149514612676680.000
36788785219756704.000
46286230487752744.000
68012125172574584.000
89521580780659072.000
131752975636444384.000
290953165403127936.000
399818928687023680.000
218096385459921824.000
129953495049025312.000
283260856436641344.000
227602856339495904.000
268783635894649984.000
393691669604602368.000
477975658675752448.000
661982346969303168.000
1683580194103607808.000
2071274221930983936.000
1167198568691589632.000
3175829068222629376.000
5030927616421795840.000
4642421014478045184.000
4405522739493722112.000
2563799310157757440.000
2294476364565343232.000
1155229178618909440.000
1527824167443709696.000
3065009290583858176.000
5013071291682483200.000
5537524036932320256.000
7098567915747287040.000
8847709782484759552.000
7312774231189079040.000
10229628674154520576.000
7044224646203483136.000
3941381264932559360.000
4300297512659575808.000
10180438281782046720.000
15669506790315986944.000
9455712211712808960.000
5589069266537615360.000
8207819000019548160.000
9269766615894564864.000
7970279185064400896.000
4786935823338304512.000
5402477265050248192.000
4697345690829377536.000
2744542183166476800.000
2442999196269474816.000
1404306106619372288.000
1718297761668122368.000
1490594586678544896.000
882437683321647488.000
1326358104381027072.000
799440161263587840.000
949197362251155968.000
722167029445256576.000
830496241419428864.000
457823713118995648.000
407065255261301568.000
381855659691721152.000
208728482170131552.000
289818602881803328.000
353426580733156288.000
814399846753919104.000
973258595818602240.000
501486715030523456.000
512892532138369408.000
755139927010810496.000
660070550630839808.000
1537369800652450304.000
818943071077789824.000
443402723871638016.000
539602078249748864.000
292818423744182464.000
276909787246670144.000
164221107710157344.000
258359014233431552.000
296667133225929408.000
475585643648618176.000
429566922716588544.000
534025972750886080.000
386422742591648064.000
801439225403888128.000
978357481267942656.000
1290512638914427648.000
1309827780589483264.000
1657471299705423104.000
1179801062188209920.000
2842361333864305664.000
3066651961072014336.000
3029725189061794304.000
3738140917865378304.000
8533298069237311488.000
7562478175182355456.000
4231392222707927040.000
4743218299192857600.000
9488420528795916288.000
5007687877160521728.000
3024336582786271232.000
4153760959435104256.000
4511661904265398272.000
3813645329581815296.000
4671118271191566336.000
3751361125234185216.000
5517657959837279232.000
4610587216047498752.000
5107567214950733824.000
5048574721463435264.000
5189163817116109824.000
2678799838274936320.000
3172399864839045632.000
2265052592508856576.000
2788218390051767296.000
2208650690645013248.000
3180406530472710144.000
2747413748704449024.000
3090416852565990400.000
4966932699440016384.000
5567595701881848832.000
3923840648132738048.000
9845592743714021376.000
15372581684707139584.000
31666636106818674688.000
25661744696797528064.000
25754267298519470080.000
15002753681418496000.000
18413970719972253696.000
16922582633357453312.000
9113173709259315200.000
6818730141605049344.000
4080867116292940800.000
5491126401161647104.000
5031428873914329088.000
4478468213476076544.000
6987674103245300736.000
15565788429232844800.000
8260622206190531584.000
4425930299639256064.000
6949178606852220928.000
15777508773509859328.000
9168996749351246848.000
5040486534407127040.000
5672184388719247360.000
5567187119573460992.000
4307399064815685120.000
5673174332259809280.000
5376832144371710976.000
4550187474645699584.000
9496655705126572032.000
8370539734028076032.000
4722609965031702528.000
4425921267221857280.000
3852047052704208896.000
8682831560446209024.000
10187187802750007296.000
5332533369680984064.000
3054720165036610048.000
3993937607024659456.000
5357131779168486400.000
8250428262484972544.000
8252940703338944512.000
9967199753713387520.000
8503786553592609792.000
9650631880904695808.000
4957946605345794048.000
4883605830226291712.000
5331301170316298240.000
4765074656609733632.000
2514040301215498752.000
1498782052091719168.000
2954840798127369216.000
4389793880426485248.000
2684211266360620544.000
2793536260598926848.000
2903351859381991424.000
3907880903483466240.000
4692682286732181504.000
2526171528210670592.000
3108894381915423232.000
1753420653760982784.000
1346367617288148736.000
775259100654934144.000
470080769154387328.000
261976878215788800.000
213395536274486368.000
215707624238202752.000
256070374048311072.000
151476762914822816.000
77286524007976512.000
158830729283049408.000
156732797523454112.000
116804645477263328.000
62290564150070392.000
86872406252333856.000
127960691968513584.000
161236515759218688.000
135132995310322864.000
291328749586057920.000
290149359694047872.000
196773368401133440.000
199634118361756064.000
236587145175337440.000
201306411078811456.000
293773286117900544.000
213661818273648416.000
289485794230936064.000
150465269537427584.000
301523225346393600.000
414879445391091776.000
432734546685723520.000
256578309803992672.000
148872788013662368.000
76857975535491712.000
41158590152574216.000
24177407756425456.000
13191263929997656.000
15551018910321920.000
10528623360533474.000
6105229598762171.000
3395311958364243.000
4495934837166363.000
2611104439248326.000
1813511578111484.250
2161450590647238.500
3377050881527255.500
3363551724042563.500
2023837316672373.000
1141076475029037.250
1218907881719488.000
1066857414584062.500
1059140193373783.375
558363284902515.250
731325947286951.750
421434289541799.750
308426276026351.750
180341068826150.438
172826067324682.312
359923864908374.000
205234326988489.531
113074935579109.156
117781504926147.406
176955149463373.375
229375447604660.000
218706470912420.062
120947248183139.734
136472133057160.250
129749581217956.188
66967731634937.820
75722953546912.484
54659017983308.039
54603230265743.570
114172390569050.891
62738005924790.586
76235076073967.609
56578647709791.516
128496102591983.734
175297688614077.906
234676248657875.469
257761215345324.438
212714325295637.656
326260664926635.062
408976571276040.375
318458947292407.438
175312157950898.812
196061006923541.750
188459273834278.188
436256994833830.312
244901511149216.438
333685187487998.562
305255492062667.562
412735322945503.812
216815451554990.125
455631998496036.875
571536438307971.500
1343415964363909.750
737381457482972.750
844430896807792.875
778250412235179.000
685414156569544.875
715784029423947.125
400655511455991.562
393334018202950.938
382005876865883.250
596210836607937.125
811727173750768.625
817792010971147.500
693672478071212.625
700060768248362.875
1467029083806655.250
1093928445266312.250
996228639600415.500
613948550409336.000
1431058075751099.000
1238099653600899.500
664445277698329.500
572557772203656.750
347481607690299.438
404388351077694.812
582596301866599.375
825382151893466.500
1162465675843737.000
629762216692569.000
778244893803096.500
660872184812162.250
392106102121017.188
198071155125350.625
207297113102548.375
120760250947495.812
71981173876100.547
67082120964481.305
63578735175488.203
66011261207973.102
100940734650682.469
99739762896673.266
239605845136181.281
243009619010555.250
183884358967887.906
101832590833805.953
205729220304418.750
224405295520489.031
196138954746843.719
398908830193357.188
221092768607112.406
118183975875345.672
102933129751882.688
103300088045134.891
228091597546879.156
363404977745472.375
733667022485900.875
381038455482156.312
383828249359324.812
406556875119721.875
221671840065746.625
357231314746378.125
306075097979023.000
712296635012072.750
1014213265434210.000
1472479152044257.250
1454945256279140.750
1455659303095907.000
1350645559400298.750
744410570645191.625
449905868587842.938
656939589232555.375
993991351147033.125
1283544244324467.000
1894925290857108.000
4314552224721441.500
2349312232060649.500
1315950806511154.250
2593471257340017.500
2078899972095944.750
1983858938109310.500
988750559317179.875
573649110735583.375
753834626834045.375
612118179582884.500
802007849030121.000
610971988156279.250
779369436699387.875
409296002604874.500
456934935739937.062
258279483788036.094
391295595367910.375
551789450438788.500
1196407250747530.750
690002510011970.125
658656448242304.875
398437942500055.750
803651089164511.250
557798281340773.500
1212468790127626.750
1018513439091512.750
1189666065808881.750
1498812328745958.000
2224701930126166.250
1169626826228411.250
1206629557526769.000
729627863234924.250
1443084601982741.250
1841758961755633.000
3868060355570680.500
4226528358617232.000
2182267859458218.250
1199435491969475.250
1171139285573588.000
1307473338284076.500
1425501871206077.750
789107463110090.250
427772406415745.875
601553194739148.000
590844447763647.000
361177426173882.625
416550297083056.062
383570398500168.688
325513669161216.938
688687538846941.875
412181716649664.188
350762916269284.688
181950050129334.375
98316846615524.938
102181835884460.469
137235369684016.047
79037189755153.547
120952020096998.953
130014095832309.297
126688124583999.344
125443730261778.531
256530037702096.031
327336420878547.688
720736150227995.625
1091117129004045.000
1253510169923819.750
2545076880107370.500
1501269581585751.000
1940250911149248.750
2466295812913739.000
3915932788809912.500
2349518373428659.500
3284214175303373.000
3875275426132793.500
2278576644261223.500
2436084418586517.000
3702684988317769.000
4438803896770361.500
8722851755678025.000
4582637098361097.000
3804505292866998.000
4574183921101817.000
4738734044814798.000
6990273736385847.000
7320770083704201.000
11187628615771806.000
12874543148774420.000
6911975522360247.000
3716004621825797.000
4139696488967978.500
2519380561874212.000
4123513928563418.000
8308331664427329.000
8360437586906765.000
13459287568068576.000
27472946683653472.000
19627487451835556.000
26752455784893148.000
22429310792598600.000
25120015859202828.000
13968954934735254.000
28190293693170960.000
35912051786596564.000
49980368810477088.000
39401733972221112.000
38342279070080400.000
42058379797907456.000
85822714698765712.000
62202496879150064.000
81969716653894816.000
60598983989044272.000
75333220977338704.000
93468473224808816.000
121734131671939808.000
65512337635484768.000
72553589074035824.000
39757836552221880.000
47422285379456696.000
37976982279816248.000
37170724268418248.000
38438642904333912.000
90814577403077056.000
46889000471573344.000
35955172998995508.000
42587311233537128.000
23417522595339332.000
20546223789490656.000
11157841538868234.000
15934128859941620.000
15391569797869832.000
15016962035569814.000
13956856814457290.000
11648537332629200.000
13084474359342594.000
11495210395194318.000
10505050025585564.000
22858852433683472.000
45608830898920408.000
60674960121664704.000
90347463914851392.000
116893514015729344.000
285089977551427104.000
260900742183080672.000
147512105164195328.000
207048449752232544.000
479754599472983360.000
269402261560125600.000
405906262611354752.000
359372888644564928.000
512785572289252352.000
728861242899812096.000
421822124726122176.000
393991965765400768.000
413018217767630464.000
847056621939180032.000
454164892822763648.000
463591122909316224.000
523923731916898432.000
659287089055960448.000
729332010317719296.000
730972792415889536.000
846346208890206208.000
454816177363558080.000
359950995110580928.000
442133857275946304.000
365807292708772672.000
470767055601325248.000
444722221216649152.000
358979958231429824.000
545554446877695872.000
458019642333979072.000
973233966373097088.000
533780460575450176.000
418517432338281408.000
402345894205214592.000
436242100399427200.000
245018210904545632.000
218985027543629952.000
115642299725743040.000
277866138865497056.000
144368443970079584.000
112194324911977664.000
265646355794439328.000
153455131961307680.000
303013808327119488.000
276312655520072864.000
162754027068418528.000
239872938872151040.000
502751418727807168.000
382593211015153024.000
417067616336949440.000
226156655848680864.000
137613142882482864.000
196687704603463936.000
282094443706614112.000
235882682593122592.000
275312106227776896.000
228278644424628672.000
198849608883045024.000
288217166665580704.000
280997489194044768.000
217371243394624864.000
299526138937742080.000
237786944513645984.000
120414783633450544.000
294132807024479616.000
429854123757143424.000
530789991370313344.000
364907023509046016.000
206926919870912448.000
236459218067316032.000
277843480803749856.000
163360688072599936.000
87218829435952496.000
143299455859310832.000
144380332509863328.000
216719799715360192.000
289120300577536128.000
159466568216403008.000
222791274096030240.000
236484705506071456.000
129274731065836720.000
140212663343194720.000
71460480153439168.000
80832553345325648.000
125345017224826672.000
164952774751364480.000
152291464642036672.000
116299955971596208.000
109577809941244832.000
228838256593108192.000
476605474060375168.000
395956383758330304.000
216742145559166560.000
261348142339762688.000
528296663368813952.000
436082386752118528.000
386072009107805632.000
439115344185147712.000
532902396707259136.000
291387498439440576.000
213553760648721120.000
521738792816783168.000
795703650741312128.000
881478092814151936.000
456190911547634368.000
417295104689764672.000
508727149159560000.000
452584751672327296.000
402958465861391168.000
228751672966641152.000
495755955159938880.000
668847145251785472.000
1399714672496218368.000
1692186367014939648.000
2179391006485757184.000
4688943236600933376.000
4002611104054647808.000
5390974292167653376.000
5057702006453559296.000
6750232308692311040.000
9238862629660395520.000
12758243894507628544.000
16234064583770388480.000
8199094488563436544.000
6878879942414531584.000
4167438464497385984.000
9915621855786835968.000
7480512989408396288.000
3962858489177619968.000
5239480741602054144.000
3121279487825818624.000
3777844796065551360.000
5049858165825428480.000
5195936770771434496.000
4808882523284081664.000
4775811842573295616.000
5677209826841662464.000
9321057538690795520.000
4773492386772678656.000
7631082427655225344.000
9653823395877373952.000
7113515988515692544.000
7844068269689480192.000
4170084258691866112.000
2345905653812784640.000
5064478466096656384.000
2934140718867604480.000
1709530581077996544.000
1501702950122353152.000
3101475715059742720.000
4421522189351357440.000
7008294184319778816.000
8108172004417072128.000
4893752483480113152.000
3878794417480024576.000
2393442260069196288.000
1466342330599637248.000
1213632100178219264.000
643324203727349760.000
1658962961080060416.000
1370658121546859520.000
1625284728693101312.000
870365152324631680.000
906039106541028480.000
480075250215105088.000
250204625793978784.000
132397434775979808.000
148567994789812960.000
219884655855859232.000
255402973804303904.000
297948312777973440.000
452491351077578880.000
448587823090429504.000
268818541990198176.000
394747083218608128.000
523690964753492416.000
441392222439687040.000
403985593409224832.000
214982100732860448.000
540873426435447040.000
506343361617542592.000
663950021104421760.000
732954819740789888.000
399954392531967360.000
231619605631918208.000
293394950662152896.000
375535694731959232.000
507641357283156608.000
540128637035228544.000
472267917012588288.000
277986747690900352.000
157754888226295552.000
240219879435098400.000
280406199236333376.000
211800600389243936.000
243882600929867136.000
134651623152049984.000
163848690755301216.000
85381717912761424.000
83517856906301968.000
47940727845710960.000
40057800819274744.000
44957682022308744.000
24043178705048176.000
23592849059085492.000
22421030717474340.000
12312076349848124.000
13821800508692948.000
12187022278074878.000
27500224950640472.000
22413195497984768.000
13041815193733878.000
7671113726918136.000
8813051660015712.000
6744273205449777.000
7976296283627278.000
6205069401692655.000
7882914349093385.000
8280860542318579.000
4353659600381582.500
3768836471844775.000
1922643801744873.000
2501146488804424.000
2562830726421624.000
1527238618181138.000
1507430125512036.500
1365873889996592.500
1173242903484746.750
2707753051703969.000
1491033524655794.750
1439492398061399.250
1262127096702681.250
730106017029234.750
1175938337502543.500
2700220814620384.500
2504623083486937.000
1317195084541301.250
668879948926848.875
1335895829648113.250
766424591931155.500
399377410698641.188
220877327499840.906
454892171936130.562
604450428936407.625
1288475982034035.750
716819991838216.500
1041474168534462.500
2270586071350100.500
1323023049548743.750
676350865283102.750
587170568006740.250
748678188308712.375
550196424383716.125
1509908142701678.250
1374324144052926.500
1279681610179357.500
1239077796844726.500
706850426511977.875
679830497254713.000
359599528332318.562
468793054350526.938
245841346072926.844
251605263241030.062
240737539010638.406
363778629878568.875
329168219776288.562
344248532011601.375
306302362173235.750
375764891599766.250
190322545386737.656
97486561883489.188
121580929476248.625
251062274814344.281
247762154184275.281
199231789599215.344
119168231178422.906
103188508935941.703
96980726074105.266
225510288711626.344
198372680016555.656
201021790584528.312
105487168574649.047
115372932068092.734
183510651262852.562
171461399688948.781
249174591793979.656
203429925060547.250
104992942069399.125
242081353641516.375
132006852300780.484
208924602014131.875
208504345549339.031
126837892107302.516
68909978099374.609
39476267078586.211
22543724604486.816
20838930802334.430
16722260992141.729
43670185081335.922
55078272363221.109
124970578275996.828
73547289945987.078
41511355415248.445
55913349850352.352
112361611758743.047
103600987349718.078
258147827917996.438
135658004900989.891
106807583990816.531
61587177136185.953
78338719650887.703
73847265927341.844
71026806953486.047
64245665972291.430
53600123904631.844
74551774687370.109
54118291013653.367
31523638458985.762
30882328172938.141
69786920929810.008
41744252552673.047
53030745304602.102
30606334043504.578
29269583178622.574
29256654329705.523
63890589045676.359
77945843581287.562
67986278376205.203
39177722121719.086
60008058935994.078
126660950741385.766
103313441626333.266
248914348864590.688
173928312591595.312
210370388840645.156
324033825736779.500
815600017498296.250
1032249177583881.750
1160917371653742.750
2527734899414146.000
2736095043538253.500
2731712112436658.000
2258253895795348.000
1330208309744928.000
1091066187159482.875
2714594769232575.500
2215491798454452.500
2632158293115344.500
3627784448242383.000
8759404206505586.000
4824576517320899.000
3513280280529336.000
1905018866880720.250
993823751860083.375
1478619985258954.250
1371479742779299.500
1458512218403315.000
2358191047961462.000
3656337662745919.500
8881796481472219.000
6459519198583702.000
13991737144434832.000
13032052337421408.000
19051460729493180.000
26878620770181716.000
42464084678856032.000
91251808377517792.000
79570425968173648.000
87647857597360576.000
83597991337255664.000
167419130071393440.000
150868072466973760.000
86463749811686352.000
90976602820519648.000
47660542386680896.000
49094636599146608.000
28200292204468084.000
35323155917537524.000
19336523357690316.000
27814045489512512.000
27619825322972832.000
25686308699360768.000
25093305517299144.000
27721655566731492.000
44664925338815776.000
34464535062763012.000
42750065874150824.000
89995049562101360.000
67291506084316968.000
166311910284402048.000
134548237281209136.000
125021184993622160.000
284865483008470368.000
396315542029356096.000
837924810921879296.000
761451214771587072.000
753513836280811392.000
454252454094404736.000
511122808650021440.000
423478497527371008.000
248490973757838528.000
543245368009652736.000
507009443783449280.000
446589847216109248.000
260596599919679648.000
237210246009129216.000
132184531886611600.000
129194549178295440.000
108753398184326000.000
271583436311895648.000
143161009486264576.000
150368689831017856.000
155660433653351616.000
92179320858844928.000
81761721539569744.000
63388958086748816.000
33683277961996152.000
91369334476830320.000
124726057148238432.000
153964721353271488.000
166748615261940672.000
149787534669672672.000
294246317659244672.000
390189346121555584.000
796368298802341120.000
940889138986257280.000
657641959015928064.000
801280070828001408.000
1207859021126526208.000
727060428862268800.000
887195485585060224.000
504802467145928832.000
288550247336530368.000
233613387054377792.000
274253871612658304.000
212646381391405920.000
111346245557932000.000
157514448564075456.000
81948615676350000.000
62809817644956240.000
148075505354851168.000
152754639409383392.000
85133016070927008.000
86220418341541776.000
50365156405183104.000
36949998251088168.000
18796287945898428.000
21645104178209424.000
24382577231299188.000
14544585011995824.000
21294112738985464.000
11746617322688920.000
23634427382774792.000
25252806234836892.000
18885131672635040.000
40348528431875752.000
42717818911895216.000
35654054030568124.000
42748896624744648.000
37740300561157344.000
43134521406447928.000
24848651228659144.000
23705281155771348.000
13793653541541756.000
15255334104400566.000
8318167737284464.000
4764093766131986.000
3990097522004579.500
4888479177746872.000
6607980114047875.000
8572117086790976.000
6391771276147794.000
14920080532253318.000
21667575540502856.000
50252995645694072.000
80459828141211248.000
81345169251259264.000
91916533102031904.000
111420426655964000.000
162680452015066560.000
156858742099911008.000
196877531057178944.000
402532865130482304.000
225645210957597728.000
119736715422484624.000
157549167067063232.000
88277494269121952.000
80715550719728096.000
67682940178522336.000
34891175402503768.000
50538404872444752.000
78532915930334576.000
70559567239431056.000
39889310311115520.000
22481221574902120.000
45594586874814600.000
92821222023885360.000
85514297339471312.000
60475781913461992.000
34670470127157532.000
81143602804118592.000
66014465221329608.000
64435007783473512.000
85138924765623072.000
84515764237727376.000
133896785655279456.000
270407536419599712.000
251780756413435488.000
286838444742792768.000
223994178078030976.000
205946696581824768.000
499656582275476352.000
500370693017898624.000
478854003680177408.000
538310970812918272.000
431155209148542656.000
459476772690615232.000
360643579671729216.000
216279729076348896.000
255464051095022912.000
270613796408609312.000
149987322190076480.000
88894800763372656.000
45820100328602160.000
50958310439808232.000
37463445407793432.000
20464186103978064.000
27922839465645536.000
19234372649663112.000
19621668306726844.000
24581871802942352.000
22398868311793200.000
47872799816648792.000
36375956492051352.000
46607906585910104.000
36007620954208576.000
34019193739695396.000
50060297838449120.000
66870445709342104.000
90731202834898128.000
67365903308509784.000
148397276227091264.000
301067736016312960.000
480853878951711424.000
640653964608569216.000
367039638849476224.000
404737738413561856.000
354672726936916416.000
213318364234441408.000
457066314391843200.000
245154864127714816.000
233888211783449216.000
278644158039483648.000
407812653628487808.000
244324210681661792.000
207462462094708256.000
545375989474601920.000
354741322668923008.000
484924348965431104.000
365402528860633216.000
198480526821179104.000
202032407717412736.000
441384333534326400.000
899523320665922816.000
483029833294393856.000
445498758600529088.000
634710900723462656.000
927642585738853632.000
810183083972585728.000
900294588418778752.000
521636774550662272.000
277558452924629472.000
165488457561688320.000
146766400393476448.000
78642310889641280.000
46086836820243000.000
64266870160096536.000
76837603442462688.000
85357353550685984.000
45485366124292608.000
64106144597750736.000
82680236832429728.000
45160087713837408.000
92222223081312416.000
122385576440027168.000
140838305736791008.000
299879075549748672.000
253375044105219328.000
207424387225555904.000
227739580729277760.000
131168703812950032.000
166159548527468192.000
127625027691241248.000
115903127413452976.000
249502471175382112.000
147989371487832768.000
132017530895923312.000
136232005157411152.000
157680014185178816.000
158098862378718048.000
139453468440032832.000
163336106993942144.000
220545559357931264.000
130379462162769312.000
271246632295353408.000
158534597751498848.000
127587289208921104.000
128352980926054416.000
69980707496358144.000
90871641426297696.000
86384520794098256.000
46419630524948968.000
48016559797564416.000
70408834065138184.000
78990478974573024.000
47637976477943584.000
46907519639583512.000
26254156540281692.000
42988210274772968.000
25647533441381676.000
24527965488236448.000
22425981585577392.000
20499895791494628.000
19105810718651964.000
23327261933423408.000
27073379840668684.000
27481326988203000.000
15236435901656240.000
12871642102277400.000
12222641176889718.000
7182143453919487.000
15557181019944378.000
13289379171550098.000
10485830071638570.000
14124742532379516.000
8047450815727187.000
12012179197203716.000
6422902050706558.000
7139212211734276.000
4146009253701069.500
2463713428596804.500
1833405982666977.750
2192747991706130.000
1839249153326877.000
2398557447267694.500
2604826262635428.000
4027469277453028.500
3594334950049617.000
7948914596333525.000
4336013312191705.500
5998730584833401.000
15764312203197686.000
12715388067852958.000
15390905781691158.000
14127068520966046.000
12426122673781972.000
10367910825409080.000
15227208186532776.000
13197324254336486.000
6941628688035596.000
14933365732093116.000
14489720788645156.000
10698080394981770.000
12282317457427848.000
25797119907902316.000
25255190009100108.000
12995235444525438.000
14504605752742866.000
13107981081876114.000
7624547529711244.000
7911447955080065.000
8110400767216404.000
12147364884921690.000
14110447850982014.000
14616437949358726.000
20073650773876644.000
27781418637396960.000
14805210015235040.000
7631693163261461.000
15669713268407206.000
13094248752575018.000
6960764899822318.000
6866614036515267.000
4020347602670623.000
4649836454410280.000
3855231403310775.500
2246912179656312.750
1267803250255693.500
706964221617265.250
687981154326854.250
1441825694850532.500
794212452730975.125
427507354018485.062
838048720418999.000
553996979996224.875
1205760943864678.000
1342602496526849.250
2694798807620892.000
1903514135659831.750
3833909726386413.500
4766790779872957.000
2592163584688416.500
1427621495680311.000
2172600538046574.250
1790748785436723.250
4413822978716871.500
3622941077626765.000
3775249929915460.000
3792769970710840.000
4234743049809287.000
6747572771477780.000
15507209378209826.000
25580251386787228.000
28684546333390584.000
21470034917159104.000
47657219273230360.000
72347684094011568.000
163580528774843808.000
109562010015504576.000
278960485897941760.000
367528570108124736.000
744751099953241472.000
1552099603685322240.000
2419402960453699072.000
2690755859922936320.000
2394913728003481088.000
2544000183159894528.000
5692482743330352128.000
4586037007426804224.000
7219385362038480896.000
7899197393548417024.000
9827443975575764992.000
5610946232083097600.000
3828643175828405760.000
4975687131007378432.000
10157964201290385408.000
5655203282307213312.000
8020193200496624640.000
6979386466557022208.000
17165776274399320064.000
18474311884493316096.000
9604502303712374784.000
6878601213722400768.000
3951916585677813248.000
5035816428705148928.000
7362736982754646016.000
9165915561799349248.000
5399671011316734976.000
3758458504780549120.000
8156689489626660864.000
4896746097552018432.000
3775464064398911488.000
4591407853392679424.000
5580818504527828992.000
8160699941154914304.000
9208058187138448384.000
10295639913880565760.000
7513606279578521600.000
8546088875513183232.000
12558324738451216384.000
6857086046115099648.000
6909016350867309568.000
4022049746251868672.000
5719361891204648960.000
4634690527154743296.000
7496236681247005696.000
17336211471339894784.000
9529016543062892544.000
6659221615802765312.000
15089818632386895872.000
13682794989808959488.000
15163647089248669696.000
17704079842196578304.000
13226322901910315008.000
31387744151903055872.000
22525841070068355072.000
30712903695623512064.000
32863917085318090752.000
30816990936346255360.000
15707778617126940672.000
8221886907063201792.000
17791849647552249856.000
26159306089591205888.000
28060388899889618944.000
31442767509554262016.000
27775565038164627456.000
27750205542571479040.000
59244488242317041664.000
55748000182406799360.000
52493393898566049792.000
31153418553103179776.000
29502383428712345600.000
31590097082737348608.000
25531019034816069632.000
13920086698253502464.000
8407103805285331968.000
4779917083384663040.000
4032340539729105408.000
2188731550596925696.000
1230057643216845056.000
1660727951495358720.000
2700239510402615296.000
5523488607941181440.000
2934545849668982272.000
2649091746666959360.000
2128640445952414208.000
1193060657744400640.000
2684281539108807680.000
4100701766078479360.000
5524699818581356544.000
4381535680121796608.000
5051994022550952960.000
4000374659052573184.000
2085663975998393600.000
2520538100794154496.000
2088394693237256192.000
2885557601655387136.000
1636042777050648832.000
1376794302740273920.000
815658021143867136.000
450312666172130816.000
257261970814076384.000
292583137120245312.000
216859277546333440.000
252071481685879104.000
223934288611917984.000
456738294513579136.000
369279499183988352.000
460979174747344192.000
516643881784713728.000
836270749749666816.000
642976988209824896.000
1596788429851183616.000
895860998711750912.000
692401445042733312.000
373682051412192768.000
917559371953965056.000
466202949364557568.000
403815452159962304.000
231258269853305504.000
508986413930411328.000
535224489720172992.000
367222619418891584.000
400692022072264256.000
217170014832774656.000
121057824666113008.000
63321010105511256.000
65085658945432808.000
39022769832537584.000
33764343578119212.000
89588919322906608.000
70186324026495944.000
40099083589523048.000
20967630148791480.000
10886187398993188.000
15727402853157468.000
8889542244025035.000
7045511185060815.000
7767115919647753.000
4513807923751334.000
7239478973611562.000
14914722937087102.000
20877741179446404.000
11340781636737330.000
14978630526801418.000
11696289014088026.000
15711883612504466.000
18750459738624452.000
21729837257407520.000
25738330474325348.000
35682819028044148.000
77668166204702816.000
39384647061880928.000
47458186624272440.000
26304879237306848.000
20694284775101740.000
26870353845183300.000
28350669586256828.000
28287101960621756.000
42143971050294576.000
84001844584763904.000
63387573633628536.000
74023588518334544.000
77699686706318112.000
66163552855823496.000
88659627836583856.000
110876896408051088.000
141438277011413520.000
209380031251537152.000
204624010705159040.000
500436138376049280.000
485902455890338368.000
475051057036141056.000
368185551844153472.000
789409685804999808.000
853985612236095744.000
793108004342996352.000
403980285360488704.000
408812495339144896.000
380830105053022848.000
206048655586041376.000
114907892677143264.000
70708821590049464.000
64873939075225616.000
76197145136594272.000
38242490821028072.000
84430984270032240.000
48121107608702360.000
43112021838237960.000
23957128288087692.000
19830573567358444.000
10529953646286086.000
6466367110188372.000
14225135767860320.000
8497727829185843.000
7139956966673706.000
3957238353172725.000
3732108156332148.500
2037115501174650.750
1955105413070717.000
4445367740342648.000
5982841495952052.000
7993035911013768.000
6447245988595605.000
8245904646962544.000
4650902616680313.000
2369004661082885.000
1892353290931795.500
1130449545565530.000
989111880954441.750
1149852537651251.000
1339130366975773.750
1085366973148653.375
2322184829337483.500
2687586176184696.500
3976544226777423.500
2243274420771665.250
2412802106107645.000
2651810514364358.500
4226037934735432.000
3408765203378265.000
7594937677910193.000
3959318634082279.000
6177036683879699.000
15456894369919032.000
15195839755395388.000
21110858966767488.000
42402859929732992.000
86777371868919216.000
73842881087311456.000
90805119776839568.000
61452891485118352.000
165190004744665824.000
157768910217456064.000
153493289070108000.000
167751064025021248.000
218167738202016224.000
122211086376989088.000
70548891194360408.000
144197670458868384.000
115212567300232128.000
62658504214253896.000
83072706151324320.000
121709303834278672.000
62628039725224008.000
85181293414996144.000
66434898348121592.000
35963688062843784.000
18942055907239488.000
26240805304681624.000
21223209506965920.000
18737934613614540.000
43412212426758584.000
35663055804980108.000
80499227758091328.000
67811733464262336.000
39033201104498992.000
90370711146356992.000
133853983071745536.000
109726602039819904.000
129407102804591520.000
161042846898660096.000
121909817807565040.000
260260930182683936.000
205974407000891264.000
111104932639712480.000
167140804598536736.000
85521719409921744.000
69992720281414992.000
75681106330067344.000
40111944354571480.000
37294755399066272.000
35863565928818608.000
42139189986763960.000
25537125971304936.000
24440333196386584.000
50378637694157464.000
72848452998485040.000
149577098134527552.000
156245066475645312.000
196551278023988320.000
400502835166048128.000
951482566134086912.000
1224241696987225856.000
724356888676558592.000
1454011508542990336.000
1229672171044068608.000
2898076652983426560.000
2600790997759614976.000
3954262811797986816.000
2258121794996207616.000
2167261475738498560.000
5629430838642967552.000
4680075930026431488.000
9447123602407577600.000
7630312251151760384.000
12109228567552010240.000
12709656556834772992.000
30216804398145888256.000
27778672781642862592.000
21606769509617856512.000
26226618054003118080.000
15200388433673435136.000
8697716706494494720.000
6868153296979539968.000
6777312658969827328.000
15510458949595375616.000
9012182156829743104.000
12028263207084333056.000
17869419444225968128.000
12375519748193574912.000
6731302273713008640.000
9124630249794709504.000
8271926740850506752.000
9371971995241553920.000
7625425310157946880.000
7484444498227070976.000
6970720720789922816.000
3829943941180758528.000
5476611431405007872.000
3083759411570022400.000
2409405112668701184.000
2599291698924486144.000
3103370753161549824.000
2276054172936230912.000
2097328921565015040.000
1165597599035226112.000
1572930123643416832.000
1334898575532700928.000
757887308421345408.000
450935500430720384.000
251436356039812544.000
219179130677692832.000
479393745791740352.000
715677015495315840.000
894737199665932032.000
812810811678683520.000
758190691527446912.000
1736579645188445440.000
1413967146450090752.000
784811478019383936.000
844123867494324992.000
665919381489658752.000
946420002881724672.000
1374462508535263744.000
1195888077924678912.000
1427012960808168192.000
2871433707914929152.000
2648871486897169408.000
2390392801738200576.000
1463693092603475968.000
1627537689332359936.000
827561965907943680.000
741983195406518144.000
938777476341102080.000
675677320118526336.000
1392548797206462208.000
1562913346539697152.000
1313950846838257408.000
1725945377244380928.000
1403893307894799872.000
1227866643120424704.000
1372978183637410304.000
1200118522413468928.000
731116173625330816.000
1619873113111306240.000
1333508990014091264.000
3106372338366506496.000
1690018500876820224.000
1669209921301194240.000
2457721112141094400.000
2268164502331805952.000
2427191301262363136.000
3053989266170134528.000
3865076749866959872.000
4245820896569492480.000
2253739759155430912.000
1173397333038893824.000
1611792184202580736.000
1634687291286950656.000
1344937448920257792.000
1540240439116244480.000
916242814751329536.000
664274760008504448.000
631658650807626112.000
962263260256485248.000
512950743888742656.000
364247462098331456.000
458575948121342336.000
362386576002969792.000
909423008827669632.000
1118650252150991488.000
1681807609691104768.000
1492296234932078592.000
1169355161237338112.000
680839026111380992.000
894708530034675072.000
1194185732565668864.000
634996978778630272.000
706698322801598848.000
815870515191857152.000
713922886897155840.000
1737939025351630080.000
2634408708623617024.000
1370600203991120128.000
2740165253681739264.000
1522837418965016576.000
1449203606890262528.000
856603057378740608.000
449354736485541376.000
377386004832226560.000
399220719617104832.000
207438287130666976.000
289399141454584384.000
156866327147876864.000
115959913116267456.000
250203252913456608.000
249386540977166592.000
251270711781691360.000
289761859980240512.000
282267852056419296.000
143902013099278992.000
142471844633710032.000
160705189608846720.000
89486241051898544.000
112404232112740016.000
283827696923836160.000
147128345439909024.000
81337351240436704.000
84765754486724864.000
121518841702452480.000
295676828962712448.000
159759545278618560.000
82683110979513696.000
43331515978278016.000
25451222651110576.000
14885081533121950.000
15133681011789734.000
11463171144049460.000
15529928180052802.000
24200805201963424.000
25886529620916144.000
13897749947997204.000
11868293840175894.000
13336968909637784.000
15492594373108652.000
10065947102353332.000
12231749081238462.000
18724669911966580.000
26506654070749632.000
26461848977793748.000
15507761728714508.000
14466711063375382.000
10640056821937296.000
5826244368396948.000
6809871164957696.000
7615326663514108.000
3936288228785949.000
4729215058521381.000
2410873378359835.500
1760955637065306.250
2580116201344792.000
2322324246212046.500
1880607731491440.250
1852512509234503.250
2547214014649339.500
2040571716312377.750
2476619815418663.500
2347197472206816.500
2272825546616068.500
2650024788709120.500
4093951808750756.500
3888996554521048.000
3399791954130229.500
3955813296642436.500
8232856432734762.000
8299611266989228.000
11410407333625988.000
5815246532401752.000
13839243279174748.000
6986015138905381.000
7833523214112633.000
11694008967858588.000
6193923306271864.000
6425553416754224.000
7395718217445700.000
14961856688128140.000
11149673620743544.000
6540693917208262.000
5782812037939680.000
3033985249055271.500
4611199327708534.000
4064651829792417.000
4619487917012702.000
3294658282349352.000
3420614439607058.000
1758689890723610.250
1093114910668542.500
1170184266156991.750
1245846311614968.500
982454607510958.125
1343079554393403.500
1190515929292025.500
686485529971643.375
692822979158162.000
568683865367470.750
1376036945326234.000
1369351453549546.500
1278930463711905.000
1265011326869674.250
974782713766684.750
1013584982602500.000
933070406456931.250
518256039916833.188
1284901011863251.750
703650309774902.125
564841116066914.875
1189611317619017.250
2362224510750033.500
1784746893985543.500
1915862517666208.500
4263534683193318.500
4189832411307519.000
2214153144831532.000
4715462128028316.000
3678714238106799.500
2261307269280890.000
