40.622
60.750
138.598
211.981
320.660
660.157
1368.710
2023.919
1882.375
1877.479
4709.311
6941.965
14486.976
15101.058
18769.276
38026.081
78913.082
84384.958
80870.506
163866.213
220648.333
532445.133
773378.011
1709619.506
2498224.025
5421040.552
8051052.693
8309255.578
7736810.151
15760508.617
16557992.480
25610312.319
28228076.360
28433717.338
27560143.586
26395909.772
24231829.274
56392626.087
73291998.939
174247972.405
169649293.667
343446286.379
497560104.649
513316263.703
529196340.479
552237969.178
557192598.018
537763629.367
539511801.588
538567143.229
758415782.854
848049904.471
1903189152.369
1980658093.078
2511237351.942
2703419721.118
2472805098.606
2614319222.563
5430452063.673
5836321308.013
6367208727.488
8285882145.092
8656385784.180
17856181827.715
16304305914.416
36070208146.834
36401320445.393
50681888753.584
103010851245.673
209373635039.844
206198781305.539
205957607577.792
276428409917.597
561049435425.149
1272128041255.249
1599617163958.353
3253567517780.039
7609382112606.462
7466013194385.493
10792828421305.037
11694798509847.838
17503883279165.852
37874103273933.266
53440587597743.227
128965253814909.594
119120540533073.062
128132015575342.672
184590311682075.375
189956359245099.125
418803027890099.438
382021039397866.938
387005915928562.750
601810705447611.250
606159633563974.875
1221506636314479.000
1785763668380367.500
1913206166807440.250
4299624787898817.000
4434980647496321.000
4391841457639947.500
6946621329349500.000
6114054022566081.000
3771405839678317.500
1999862524938549.750
1205784558423936.250
672411887046589.000
565757117328868.750
747439914213803.125
1125831157489347.125
2365299895707089.000
1369897948016752.250
804327142212261.500
625187955664120.500
585408936828961.875
351571277577461.312
445847681200197.125
379870812090385.938
828111150110340.625
844966013595053.125
586709783728704.750
311586071880024.188
172852998474213.625
207902476630679.375
184059079019165.500
102101858044644.969
58508994179029.070
76591343454342.719
80657248729684.703
114991094175955.031
144527480070889.531
135170595096253.141
119280730983300.375
119692044285161.719
176192368554747.750
183989565812780.062
196904873569068.500
193238206103286.094
117917871718664.344
141210720101139.281
80567514486730.266
78593703308427.594
41898937518856.812
22194194280718.848
31872417426784.398
68790553147210.758
136870255661473.656
139652709095613.625
197182634672389.469
206520252498409.125
329758967694109.688
406523749517755.812
563214244529811.625
644399416227761.625
576752697495926.375
307569782527198.312
739392302364634.250
753938157784926.125
1485672734652807.000
1082682873823444.625
2681211365445711.500
4131779993557585.500
2401171138033593.000
2441477953503733.000
1391315638741511.750
1485355760599348.250
1239839219155684.250
1196725932575829.750
1063163409289544.750
1250888047835287.000
702696432051358.375
1007993143239271.625
2236967361539138.750
2501372400184657.500
2068213530399402.750
2327958355553357.500
1862647674196856.000
2105011914474512.750
2552940355288003.000
3555627890533213.500
2188771599138333.750
2039068652138237.250
2309871688461448.500
2723230201130830.500
2355132810986569.000
2584873496558775.000
4041098540933857.000
4163862860922906.000
3284261526718635.500
3293320147462398.500
3872401352477465.000
8451246613897600.000
13628884405791756.000
8024569667934345.000
10932396059274622.000
6569850282954153.000
8155914072780573.000
8824790890096312.000
7385021454531763.000
11251482907082972.000
27096302891748096.000
23480198720546408.000
19900913556992492.000
47374057892652272.000
45594593080581720.000
48977736897357304.000
61319828157748608.000
36416016396592536.000
21490055822971352.000
24427082050623276.000
27328209285706796.000
38190669817679296.000
83187878630870528.000
63292051612750392.000
70276781385894128.000
68632450139606936.000
90071919734189152.000
48012783909365568.000
39344609815526680.000
87703294444811744.000
46253981798891176.000
44943553086323232.000
64555863186374200.000
36736133792902064.000
47887414038189960.000
46738117683243096.000
67757345507146008.000
39718819784093976.000
40217278994032088.000
51735546442382024.000
35765242891272460.000
77908272665393072.000
45154107657528880.000
47854812658589192.000
35188017705144748.000
78538611269626912.000
164498682293255808.000
267459803728737536.000
278365503740226240.000
229395281065102944.000
236778724825163872.000
244936893740953440.000
224650206141974400.000
248092436835288416.000
211604178689459040.000
275687236635133952.000
147066876545918592.000
145083591229308416.000
85436012903169392.000
80989895041594848.000
64337446673573328.000
77385374536843648.000
45761607192168064.000
25101626349792920.000
24470491313858940.000
25215905139250812.000
21956872238803096.000
21857079418653132.000
24850471472263392.000
13041643862623624.000
6881877410094658.000
5918890100338655.000
13391756310362440.000
21277514812198188.000
34041519444550588.000
80418932731344288.000
41715906389056752.000
91878768998261616.000
50649001781602848.000
41342970006328584.000
61381975062220968.000
87731766573429616.000
63732704464891504.000
88793438908465088.000
50493689291027024.000
28270076324270568.000
21356928755573100.000
26857399082056708.000
18864736541963108.000
27427902445428544.000
36020748269702124.000
75221395262483968.000
90283941202380080.000
64095454151640840.000
73872403377613264.000
38289661623417800.000
22636105250804608.000
47601350719163432.000
42855704360616000.000
61777099085606496.000
73608611352195760.000
44415261360589008.000
34504275313305088.000
38275798237518640.000
33752636080466032.000
71038690836567744.000
43180392260647576.000
44954401604626464.000
25958453657509944.000
19035021575086700.000
24074503721397436.000
20556513108704184.000
25917200662688384.000
15284515908137128.000
24895625834661072.000
34985317537474800.000
46680915888774600.000
63680470776586928.000
164144276765166592.000
120935463644567936.000
72641080807097872.000
89822301017235696.000
50655415753964064.000
45143405412392848.000
43416924574646096.000
40962085212363456.000
21320760427341212.000
43972482725790248.000
38215102459323416.000
48816525327885896.000
77150578850789984.000
157317833346680768.000
132919556538133248.000
126976155821148768.000
142573619123815888.000
197661106119936864.000
271503915911868448.000
255207382573026720.000
256311085940764800.000
145574304694617760.000
86379122491506960.000
75837675577926560.000
161275049207023008.000
231193503878608320.000
256431169936230272.000
293906086901199616.000
224691407090826528.000
280698045206977280.000
290072628263309888.000
162005012842378912.000
255658698144914144.000
248870281383900320.000
253445243397689376.000
408638817180569536.000
468072097312133440.000
514655171368383040.000
671456383665800064.000
654362130706823168.000
1427837161654902016.000
1393142706932889600.000
728260313410808960.000
409642311369784768.000
367220137169646976.000
809135238450566528.000
766986936212031488.000
1551317651674534144.000
842442140923349888.000
879043962130969728.000
748964168537983104.000
770223051765734016.000
753945217080134784.000
952403799335346048.000
784491733486106752.000
470295515684313984.000
277858956601227808.000
208558500109794624.000
230805828513131072.000
115553008561630432.000
236884169032694272.000
205287562723748672.000
244084891936847968.000
127443625402650240.000
63448866054954688.000
93254346418640256.000
123703892197429776.000
251115588061753568.000
143670310659575680.000
161186740500017376.000
113202720985494336.000
69994286678082384.000
93143960816029040.000
75303869451181824.000
91536206051768496.000
61731192429179936.000
70075918837613192.000
167303309202802016.000
159883552845937344.000
139007512703611408.000
73012906746947136.000
39001748570249696.000
51602698021085976.000
68972452754462184.000
82830435932371280.000
116970402504587008.000
148156814240400128.000
89039328580797952.000
85732329881491696.000
86574104846612128.000
80779766409341232.000
62411955326603296.000
78718217851697344.000
69287305330380080.000
90574803749775664.000
115255798215191344.000
67521016082947784.000
85996011274472848.000
78085043751613984.000
89039093201507760.000
65440987432684072.000
89034298390767840.000
122804115848761776.000
141815701209830720.000
221661712736984160.000
248729393070054048.000
500976993011818304.000
472022386784447808.000
688769620526149888.000
798698765005288448.000
713422165787141248.000
843970491025579136.000
744168599897686528.000
849526119477293824.000
958286042528441856.000
1398402201907442944.000
1574165784988983296.000
917733499495007360.000
489602012650007424.000
789421213041427200.000
834813055692616064.000
1278954482842625024.000
2696707754442145280.000
1579487372704410880.000
1275234599753267456.000
784529840791303680.000
436632225894207872.000
510503282751635264.000
438118923289769344.000
233399307992880864.000
257065532567345664.000
519408091450069440.000
425680522269828352.000
440420239369942528.000
464479042175718912.000
246469814282162976.000
285663986761671264.000
253022788734812512.000
141002016543454784.000
217314695127105568.000
302097935389880896.000
437892102655682944.000
412945223684722880.000
641492240714582144.000
1409716399035074304.000
762084462317545472.000
830424137901706112.000
693911720823109888.000
639437486132767232.000
1727101436792060416.000
1355007207951561984.000
1447647381918496000.000
2268760789632155904.000
1172765359643709696.000
1568368056060143872.000
2468557584149091840.000
5699545736242473984.000
3034767164274914816.000
4136523558728360960.000
9892936972264175616.000
5082297482148605952.000
2730134360862484992.000
1487111085271963648.000
1545771640955411456.000
3082319088962042368.000
2535595029517824000.000
1330895234631802112.000
1562841095637924096.000
1464939838287497472.000
1754597771261191680.000
936180259680750592.000
905802303603949440.000
483676983842747456.000
276731367514944480.000
149708411398564896.000
163444661124147360.000
144592905488309600.000
121927951512693744.000
123931701550903088.000
142841279451405952.000
144385890572182944.000
222820942854648576.000
255955291545401088.000
225456829797848608.000
265194680332425184.000
141654111979346384.000
162686747282655936.000
255077461526780416.000
537542979534880832.000
691370449237267456.000
1659536881795326720.000
868877991000395904.000
524818911694517376.000
296983694281373376.000
237010641952714656.000
138052231257194992.000
205376081092108000.000
109791801800048320.000
160845855704454912.000
139796122601385744.000
77369780428229584.000
44227503480310288.000
39387058021787232.000
50519710966781328.000
36209058296697128.000
51889155827009952.000
36904942234826824.000
80258109081686064.000
43501801371977088.000
51854940970360392.000
41970282875447824.000
37137363547272608.000
44337100779475600.000
26674468268731152.000
21160165926071684.000
28694640443814388.000
25089680626124236.000
38869335657381696.000
79392512424344848.000
67617895265330456.000
143496584630154256.000
130018784648780112.000
65407803233411768.000
149547026817828992.000
166448839870666208.000
208999897885394496.000
200613771206281280.000
231587087137185728.000
271448259901164064.000
537079878991227904.000
766653748720060544.000
460542726157120576.000
545645616990940480.000
780979805325560960.000
850280355799045376.000
1384967744396648448.000
791164739494230528.000
645956436769559552.000
644237373545440384.000
841385426851780224.000
504556016780757952.000
459296514313261120.000
736543391447080704.000
413529641003271488.000
208632857408091200.000
530278882522946496.000
637617521069100032.000
918624563257955456.000
891848258219998976.000
509920431277473728.000
403952230811164864.000
934780811664576000.000
655701450690368768.000
635970655453728768.000
356238651775831360.000
214172709376256768.000
115024223690113536.000
235152192470837024.000
132398878991147952.000
162485410440601728.000
226792686402984000.000
225797592288643648.000
537992572570706688.000
746781081819073280.000
870617596077609600.000
980507108588057344.000
1205920932650580480.000
707866692469230976.000
1482731838038774784.000
1692051846536099584.000
1686627386068519936.000
2084020060516418816.000
5640172518002367488.000
5432778878561701888.000
7579467756597348352.000
8813492464821723136.000
6723360375901730816.000
8911963405370244096.000
8550609447994170368.000
9669791074192693248.000
9128289375433958400.000
10047401766021384192.000
6677498896995329024.000
7624973260613576704.000
9618401260964933632.000
13055896514124816384.000
15210463510241978368.000
16978855395362650112.000
9445214406090405888.000
7866083518491413504.000
9373134483441823744.000
13992958137559111680.000
29767094521847115776.000
59915928664787312640.000
40475337047588306944.000
101664576884708655104.000
56440074139518017536.000
54037313995855667200.000
32124199355067809792.000
26736157257631719424.000
58607299723020345344.000
84884790808247009280.000
105276253138311610368.000
93065343318193160192.000
79079647609499582464.000
39140147136402415616.000
47818561759011266560.000
40223932637432037376.000
92649705952128466944.000
50124827339276689408.000
25991108601701576704.000
29016453844053233664.000
22455077368721784832.000
52551185917046300672.000
41421575873314062336.000
21643374963172642816.000
30821791092746579968.000
24334114681020170240.000
14178703142306981888.000
18502450400281645056.000
10093022326968440832.000
8447468250067236864.000
8725508811742093312.000
5091395623181871104.000
3746265486779074560.000
2207337527538701056.000
2231958861786157056.000
1350973220583261440.000
788162830505043840.000
399053534984208384.000
215794229781033120.000
206279566557464224.000
277216668870983936.000
166351960885944544.000
233171104511294112.000
257909917153215072.000
274916128309277120.000
225184509850289344.000
219880643109589792.000
135313296382405584.000
198020242147648544.000
230344729290610816.000
133088908139124080.000
203960074776012800.000
207653024734452288.000
288120764285492192.000
161347795038663456.000
124738912603028784.000
281177219397177632.000
360593864913481344.000
215232627753142688.000
116482560303977632.000
146462489927816768.000
149225030914133440.000
161669142740225856.000
158131050819918272.000
258125380711504416.000
152456798885982112.000
148557417548021856.000
75825375740907984.000
88289393833956528.000
109231009028372448.000
160079802039874560.000
136100614147898064.000
72458372111340048.000
85708297971048416.000
72290784730585056.000
69738519444917520.000
85995025432355248.000
69758290417155456.000
167983635651132960.000
140738693641558416.000
85396002457382944.000
121913824614593216.000
136088129830034304.000
159233996110398656.000
128824685106918592.000
70861795292209912.000
64139360017211904.000
72588155108777520.000
66150872880471680.000
87518656544561344.000
60466447526950720.000
34613668789668924.000
18741448742183488.000
23776292923622700.000
12356602034101720.000
7521943298799228.000
11964635383858242.000
6609507458912915.000
3914811726324140.000
2363175204860568.500
1374285755678280.250
772921963436760.500
612320953935302.000
686780139823586.625
718589173976197.250
1506149429337503.750
1458667448835139.000
1219502516859108.000
732144780446755.500
642760054988572.125
714579931296977.750
846921870245884.500
670146473595778.250
1035332609087688.125
1453983064569551.250
827116837367234.500
657094271945582.875
711502248964442.875
706891711400160.500
401207586644570.438
449353266482983.625
344232291019680.000
382694058854957.062
845817942033070.625
709322813177420.750
398014301259934.688
411703522615050.250
328881933419372.562
763407868188830.000
433286209070830.312
468479395637244.250
610514039883749.250
778067299359322.625
1140972360186197.500
2377104244650752.000
3559444364386121.500
3358934906888337.500
3323124941772564.500
7217444007490667.000
11425706822637384.000
13974881994726328.000
21659686833110172.000
28706346541993484.000
24111563675040632.000
25952898472739972.000
15418251045795462.000
14615035148219670.000
14300007668879898.000
12031229931147408.000
6106388112026311.000
15495965691977920.000
8514375388765177.000
11297023638388306.000
6479542355324338.000
14703334077599252.000
12576603835836012.000
15217934540182242.000
11451850427475714.000
12505037187779538.000
28295775944363176.000
25375408433937448.000
25833126083517672.000
41292337465777968.000
90378038959245488.000
72412665556087600.000
153872304326475392.000
205291515903783168.000
195889379573615392.000
298758416646422400.000
259198766616828448.000
216365240646631392.000
121056757812658256.000
113906169086884976.000
164794339487433184.000
146238606089710208.000
134089751274930576.000
71707710892419448.000
82398574308391648.000
43233498034489024.000
51014344817259112.000
63104439461967640.000
81533241481700976.000
71277784761936056.000
81803839574146848.000
45569255464485352.000
74088136753233664.000
80831175697143888.000
66149095588899192.000
146292056100700640.000
74319136270690544.000
85842784332961232.000
85404763086643904.000
128608730465662032.000
75237123968498688.000
150371614510274272.000
230274387967320608.000
131961821595393712.000
120130346047729744.000
245820623266340544.000
493297938100771904.000
671414717244769536.000
730319986045189632.000
910772704952562432.000
662447536457963904.000
1691988818326855168.000
928016618241229824.000
964095554318491008.000
862855087859096192.000
892074103492290816.000
727050554956962304.000
868515798320728192.000
971566980058774144.000
502732933396467072.000
301528694213972736.000
257716832987897280.000
371516464176970816.000
508088697516649792.000
683348857209019776.000
1612996694541298176.000
2187251923381033472.000
1213825852702880768.000
1362128843643972864.000
1699775263294884352.000
1510598500344537856.000
790710818457829376.000
1757305649459179520.000
2172800930269696512.000
2443671002034388992.000
1468813755916571904.000
3118511448518662144.000
2882438088232107008.000
2386047051105553408.000
2888190733127719424.000
2226743790509872896.000
2548343551698839552.000
1467064794005501696.000
3101589974803051520.000
2926875936862550016.000
1723597286397718784.000
1546046388781416960.000
785852825834916608.000
959593378077287296.000
866279764200941184.000
440265308898043456.000
971781034889975808.000
1601239792845736960.000
2143389106221384192.000
2326205219067269632.000
1209495738865145600.000
1330121636002807296.000
1753603235968740864.000
2398810997103489024.000
2748813179556089856.000
2538191900473285120.000
2255374933448145920.000
2725550199851432448.000
3017141169304244736.000
2390460204298665472.000
2378741144125072896.000
1346458108094509568.000
692501148285641984.000
1439019997394208000.000
868515601422818560.000
966887336711740928.000
765879553166924928.000
451440767201331904.000
517732992141051136.000
817594909395379200.000
685119214525588608.000
397465632886832896.000
230573875640774976.000
254053920684566208.000
231249569695934624.000
205734276445934688.000
273429287191346176.000
297004413536093760.000
430939059836776000.000
540656067115543680.000
728076418218754048.000
841510564283499008.000
683554546418479232.000
835042423100557184.000
455402959187138048.000
253083734171235136.000
361252042267105472.000
453160379245156224.000
491985442001339968.000
409454850688443776.000
214747217016279776.000
216153007591082464.000
129850957419762128.000
138817311401723280.000
156845344931769280.000
161332223021456288.000
145540418568008256.000
128501474344859216.000
140431438145039616.000
135864809661033888.000
70494662395334288.000
92775640510161936.000
48810498832605936.000
74585650684226496.000
42387477781071000.000
48724077710081080.000
27885027799879548.000
26561800555088520.000
37294228184039624.000
22496906770489624.000
36297724289500712.000
20594192964681208.000
28801249864243152.000
21289634401011676.000
43820126655094632.000
88605176709520640.000
72892853462294736.000
43491398090069288.000
26161112470262532.000
19083617582065956.000
11412683998427848.000
5769098126043081.000
6303033379150545.000
7838708602882886.000
6893796318387141.000
8047520780633108.000
11624660819917898.000
15046421013824834.000
8468879189794929.000
5884881203470416.000
15705198867713610.000
11426970794503218.000
22981654888711716.000
19700265042280132.000
22479587490960384.000
27725227639913920.000
22241386485605540.000
45184875696954944.000
26249576474071120.000
28190905764706896.000
26100441469735100.000
19531842849762684.000
49355840831738160.000
25665538846924852.000
18656476612703320.000
40237699250437896.000
48726174769471528.000
27637469047799652.000
24894700612242616.000
37736719090712272.000
35821090452982524.000
83146917300869424.000
47143926877216520.000
27064695996926772.000
23776484688545820.000
23981529466824660.000
12203240840468548.000
6494244720371294.000
3874189031338216.000
3317512373956969.500
7895451209076260.000
15522233950801586.000
15798415291756158.000
8138447443279320.000
10913686534071850.000
12533950327243878.000
14508202020074064.000
23120484587410524.000
26028160128205324.000
22521799119471596.000
19082591412664976.000
20999191426948860.000
19190150284582392.000
40677445646330752.000
91312735284205952.000
65106318625512984.000
80702250358551552.000
78009465291706464.000
46905600595107768.000
41114403068544336.000
23280990921175272.000
13514443804715124.000
12211660372395100.000
6537673671250120.000
6646494200079886.000
6353713941838829.000
3674731241468446.000
4445055378341561.000
4472071894074688.500
3680585713969574.500
8077221656286333.000
7688395186548390.000
15953077207241102.000
25463114921171092.000
22480327849227876.000
46890640835300304.000
51086109532606896.000
41512289418814120.000
92362476320294736.000
113380527540914304.000
252639298698503552.000
205304950634310176.000
538307081013353024.000
469212354078615808.000
659197718038915712.000
890189540720312960.000
1426134871960628992.000
1326299910123130368.000
1498470964659985920.000
2420510170002373632.000
3086973166051927552.000
4548401957623330816.000
5050270328972244992.000
2743585174838143488.000
1601196291263206912.000
1319528795188041216.000
757050725624808320.000
1161680369078917632.000
2402631691232715776.000
2812523805812400128.000
4223426484669888000.000
4370168856984683520.000
4055890740173394944.000
5436156589345280000.000
3128951936605282816.000
2751457312798948864.000
3168005418432550400.000
2866138726438437376.000
2665389171556587520.000
1385632546356208128.000
779220049321786880.000
967098774431379072.000
511895077745316288.000
359319513778357632.000
497848918524681536.000
416443926159449792.000
255086342277048800.000
225031776462835424.000
457231357852903552.000
708037231991671168.000
1565783606179509248.000
1214149990964263424.000
1425135063276011520.000
3133977113406206464.000
1617377331712005888.000
1239159497137674240.000
675439714355230720.000
695411311526619904.000
382558785176696512.000
209602367310455840.000
476530038750881088.000
537695899872291200.000
525026872434394048.000
782514628210070016.000
461054944115721728.000
963946864699029504.000
1557104740548353536.000
2355998779782183936.000
2120508757272045312.000
1162012451460207616.000
1651788665341433600.000
952537056695485568.000
876410026935132800.000
950499139244854784.000
734407886060090624.000
371195267048387264.000
471469083767333760.000
362152453362077760.000
490367802920875904.000
286565114912861280.000
147462495990721440.000
224185712593988064.000
500043466522435136.000
431352758046750720.000
241328104341902624.000
284367962976768928.000
204209014968334240.000
224080002126623392.000
488399611085267648.000
434274818358351616.000
863645997597923456.000
1194187889758601984.000
1408802240728101120.000
3006888623536473600.000
4628656834856889344.000
9276121910714552320.000
12246352574363604992.000
7150731092662022144.000
6999714626465121280.000
3824204266079929856.000
4485815274190936064.000
9419315387687116800.000
7286694398554984448.000
9599881844427919360.000
4979778557644131328.000
2670354328627980800.000
2171728202349672448.000
3131226459997934592.000
2231988975703173376.000
1231811206051574784.000
1413603103772569344.000
1162029167631239168.000
672861049331748096.000
377809415599596288.000
480277985674893696.000
289423860487342720.000
198272180096471840.000
520851730231517568.000
354136480564787328.000
196012229049629792.000
260158595163196224.000
150216206799730944.000
129703324202158720.000
129373728242174672.000
280374449513156416.000
233509370665307040.000
243089930874930016.000
198860444397545888.000
231520110858209440.000
126421250697020688.000
64262862137763872.000
65245594382944232.000
163714270796236192.000
113449704068080176.000
252272566276974400.000
147649813321031744.000
128218255582769056.000
160232460986660992.000
208306264874700768.000
218757412933140672.000
528909357846150528.000
456082720165940928.000
963644451330233856.000
517973929866550336.000
396874390588948608.000
220930453911104352.000
222538115486966944.000
129878585124495792.000
76970498273963104.000
45712049924305672.000
23110721275810408.000
19623272691776324.000
22969885634960296.000
20472627102413640.000
44447984989908016.000
25028024500445484.000
51948877391999216.000
74890803807269440.000
157831243252826592.000
152298767416295968.000
82171053581374080.000
61675342446809624.000
151897047122069056.000
118856154590563552.000
301269755669799744.000
155246163757009280.000
85834019897372208.000
62194938093075464.000
126873485141213392.000
138583299779037888.000
72497337739795072.000
116047093376143136.000
265001603734432160.000
260681700327753824.000
229784390373950240.000
511289976352937984.000
467253595746507840.000
273889484622341984.000
298189358316179328.000
294737176569193344.000
295818926758614912.000
252173040676387904.000
149311644868138368.000
134701808223371424.000
276763517125329024.000
151608803924700864.000
90588954795325536.000
109006751139686944.000
66319178629781192.000
84758691100876448.000
43285422383667896.000
50972443919897160.000
33623760929857468.000
51361853051627832.000
42243728305782416.000
36082290338029920.000
47629328487609840.000
45013358042374000.000
47547467866566944.000
72425252858131712.000
63961730865907744.000
38435157250754024.000
47897932314640056.000
26207432259755504.000
26516303476000116.000
25728766563923148.000
13127306571327170.000
10881992497683728.000
15607324191554418.000
15422228756517342.000
8632615717983904.000
6106350227342536.000
14733526712081462.000
19324824819641248.000
22749163445638232.000
24137198316870188.000
26990557518674256.000
19026318786792292.000
25257820521062348.000
37537455899280408.000
43330896067659368.000
70376156393219768.000
37624566279781744.000
39286452176945176.000
20844818361424044.000
11940700959623458.000
11754224572530386.000
13182805281748418.000
15857067516357208.000
18924451198003008.000
51635983742728448.000
74285638406140512.000
43798942948840432.000
34967635744546800.000
46130464557871640.000
66463710044007432.000
74160974370268208.000
60814055361882616.000
69269493931718016.000
166980058405615776.000
133389623138633488.000
155398394103556064.000
123863418059711520.000
275163386120320224.000
208900252380864128.000
199701475812394592.000
445953012232262144.000
465030408777707328.000
424529640760127232.000
683228118940968192.000
1545512016246938112.000
1277075006254019072.000
1649143167336432384.000
894071101184652416.000
501076388908671680.000
507119746496714432.000
460788193889953728.000
376574381086247872.000
426515263108333440.000
922130698409690368.000
1342284114060319488.000
1571221649915311616.000
1429691074868790528.000
1673638274553724928.000
1324248851987524352.000
2737647554095004160.000
2793575165810286080.000
1562856017007037696.000
804537485663953920.000
1182736377556415488.000
1188091535785292288.000
1358934841907676928.000
1715031009598297600.000
1638909751688527872.000
1434186783920198400.000
1625104737060131584.000
1406916114567915264.000
1273023878670703616.000
1721158374517938688.000
2202705623981871360.000
2167447020928326656.000
2651595678844567040.000
2607631754269883904.000
1470108535160285184.000
843585682214886912.000
1726640846429146624.000
1654236739722852096.000
1230221218074123264.000
2994991473590451712.000
2497937830539263488.000
5244900470835350528.000
4227183906476416000.000
5558732678284836864.000
4918805143948003328.000
2559593438503455744.000
1471898376931645952.000
1657184250594870528.000
2714707355684858368.000
2505552536280663040.000
2951044848963137536.000
2071865822007244032.000
4526157026900352000.000
2301413722814725632.000
5192392852669938688.000
5428122899592094720.000
5632408113673666560.000
5507862521806020608.000
4844099102375385088.000
3927440990461698048.000
8749243097215538176.000
9297886619814227968.000
5120666206599764992.000
3986768634860898816.000
5459843717977752576.000
4741371216384310272.000
9427946201022154752.000
6897264999378647040.000
9181573744043590656.000
4739340741106282496.000
5419676375318806528.000
4657372933234615296.000
4189963598772574208.000
9412406921560242176.000
14823432251746689024.000
13976707576809961472.000
13408106785074675712.000
14393406155322267648.000
7655211491038306304.000
8794741725470660608.000
7421355604424454144.000
9895790459367505920.000
8050008513359263744.000
16551139004775475200.000
12339026713270296576.000
14960465607648847872.000
7962045924769999872.000
9305075703448530944.000
8426370619353256960.000
6838166669238033408.000
3741353940742286336.000
2212369336462677504.000
1165456416666952192.000
1437270758550374144.000
832200850211632384.000
472822039580973056.000
730084959981358208.000
386737151259487424.000
418867206536784192.000
424074796764876096.000
239428185050999712.000
119872148409761872.000
163826694990696640.000
146208381223964992.000
147725357810680064.000
145179059449904704.000
134400094442085120.000
149279556841403296.000
79845606009108512.000
65192069248110200.000
40171884753344544.000
21461251665119504.000
10840295945389486.000
5815104249585950.000
3460909670298766.500
4017505069948385.500
2253583090275292.000
4897444561404734.000
6710308403546281.000
14663626409302552.000
13369642424780662.000
18759208788905084.000
21538060657145024.000
27648189369537108.000
25729584704495196.000
14538196314560550.000
8333955839075992.000
7292685954580877.000
11143690980854920.000
14709397589529122.000
11659579245679706.000
11801500443698502.000
6556123305939230.000
6198223048514941.000
12654308171323046.000
12474501331321506.000
15111224468085428.000
20538647304470144.000
11487137549475270.000
6302842945820049.000
3561930852174431.000
4341988125692122.500
4850063139001574.000
4311354179549928.000
3609353576383948.500
8785222864705453.000
8351930869005559.000
5771884489614285.000
6904294086223095.000
14592630928134826.000
12133608607037450.000
6876305547746054.000
7812422813394663.000
7219811607448575.000
4274587606576215.500
6155490822494972.000
13334514655853918.000
27822597759775952.000
24718712822970176.000
12984067454864360.000
7385232520931175.000
7638157671944595.000
7467275449826016.000
3880520416896908.000
2213062298532880.250
1300692154013102.250
1011106886935567.125
1212808197374174.750
1516871097740141.500
2378753416286099.000
1816602690869972.250
2230505470598322.750
1160721644136170.750
1496171007939069.250
784123711452926.625
1005306092335216.625
1052007538648854.125
1067888109610322.375
2628673960363109.000
2392049587942895.500
2086307947954310.500
2580731426952648.000
1888792346909797.500
2391243439173775.500
1225294512018682.000
1411687764000509.500
1448744385022286.750
804167519350597.500
721765755649731.875
371901688905771.750
761295742855680.875
770311616326362.500
800412642448762.625
417315081269851.500
390401945626299.312
791618859377431.625
406423916674136.688
411904718604803.812
422400389032437.812
388895216854023.938
398773045655088.000
362846657826992.125
453180798906320.375
393401702983488.938
379248457710458.062
750967978299893.375
1024323496645492.875
1276848930908191.500
1319942889280885.250
1064727789357295.375
1022236949098417.125
2381152601743584.000
2340788495816017.500
3776412630558156.000
3504160797858556.500
4072322726652766.500
3874587513400133.500
3374208623806320.000
3782743038768457.500
4628844184917606.000
3560743333273399.000
1781327947344287.000
2142099634264069.000
1080827322524414.375
2334280226228725.000
3308726536690635.000
8280875947885566.000
6372118209894073.000
7634241024865509.000
8831548024215199.000
8037475721740854.000
7435555792942540.000
11750059999230766.000
13006134704615322.000
6696401126221259.000
10758467215283368.000
13584590559103024.000
15123705850972970.000
20616491320755944.000
22642232172186636.000
21446734887836248.000
25776857595518076.000
23088100399295924.000
13180146734768684.000
6925754790238885.000
8456655295747773.000
8606671931980336.000
4612836865548989.000
3831267400310767.500
2248076741656090.500
1319865885975157.750
1880468153356380.000
2105435242749732.250
2241384410758430.250
2346267484369168.500
1307849509758327.250
1015428247204021.875
1310516396099700.250
719400881386784.000
1487788953177469.500
2297238521351155.500
3553205967561634.000
7974168813917026.000
8625216423517528.000
12437428230336288.000
12100457051234604.000
6814796011039762.000
3684549692837249.500
2075903027226666.000
2728910937024795.500
1947649987353244.250
2439199151296873.500
3931997763506322.000
2214122947914706.250
2345024413584000.500
2731350059328108.000
4356312193583715.000
8909520925986979.000
6909915209536556.000
4164028849655534.000
2287604365440041.000
1356247893325570.000
989335470282871.625
1216113307920015.750
1200319569845883.250
688096960972298.250
732250435945724.750
782098743487686.375
672875818676484.000
618942754647705.125
337863461094118.938
310551035865368.875
685349466784828.500
1108188705591275.000
1133449623843778.000
1306625628151558.500
2059067471462007.000
4924857040576616.000
7803633331841047.000
7719087933158071.000
7634640214279608.000
15208621298291336.000
10903859607076068.000
6001571714329959.000
16019384269073052.000
13123147708990948.000
7390902326143312.000
6288726341137997.000
6843459516764160.000
6078789160890017.000
6271101258546925.000
7150637623607867.000
14287035312545310.000
8302704550089397.000
12715181233874876.000
14489887933235658.000
22915280599516384.000
26082561492065716.000
23111610691614864.000
11968175069174566.000
6614023371125370.000
13904036956884330.000
7285605388045307.000
14902900478772000.000
8633112837480830.000
6751794433051183.000
5786295212863571.000
7333882787207021.000
3983916242915067.500
4753117168603235.000
2620058228019336.000
2569130436914173.500
1856807803965664.250
4518931256039581.000
6180231578782635.000
8665520105689164.000
7514742959585542.000
8636101650970686.000
5823500308230934.000
14745524332255126.000
19181230458613728.000
25147440775303780.000
14039968531619758.000
22273842771584264.000
22943102741073120.000
20536818369162032.000
18737639427151624.000
44044747674654144.000
36013972736745396.000
33964532146023576.000
92963393002359408.000
72110810007986736.000
83685879239297824.000
85978146633023824.000
129751900289502432.000
132260964837447344.000
80882831380270720.000
92049923265149808.000
88881673527355120.000
45317524809345488.000
23437192747014988.000
14137956035298410.000
11544552382746328.000
11857398716596072.000
6530760485743052.000
13472498312649760.000
21851196219727188.000
22018832525870196.000
46859449664791736.000
37261936152809928.000
43422082487092640.000
22426973996858068.000
18684257208781824.000
50332563059360160.000
67248178608776520.000
37444165755128840.000
18826555897440816.000
22139574549332640.000
28753414581297480.000
27812522126572612.000
38411345163525280.000
40629221889427120.000
48000964863438392.000
37807095749878088.000
39120912047331208.000
38791477999887312.000
40177367311974640.000
91277305487896528.000
75303716556567056.000
118263353920836304.000
296540056408942976.000
383602287193720960.000
436064077558507200.000
384674520367604352.000
973409696218848896.000
841070915780372608.000
655914808963294464.000
934927238769566720.000
517335590182150528.000
809361286286200064.000
1616442901112988672.000
883050786251444992.000
519319837678347200.000
780007999499730048.000
469514771207301760.000
280507960910243520.000
418581509240077376.000
229169231251822080.000
247616949925988384.000
125349293999399440.000
258290209884990176.000
209984747387995584.000
259638223275694016.000
260137862468188832.000
151566851565454688.000
134889277321640016.000
78329461371156752.000
39542891083513632.000
23146461003186292.000
48115775515297376.000
67557566766598216.000
37828003636685104.000
81627772210756208.000
45185533098687480.000
92309246472283616.000
77377139464704336.000
60456653004236248.000
83455316578979136.000
133229908392601344.000
158734826187715936.000
162470107841593888.000
222299340012349248.000
274125229138051904.000
245430570674510048.000
134227346693525600.000
70053825068440216.000
87446518656274176.000
47687139800438792.000
27308939600098064.000
19195932116784832.000
26621923060118168.000
22116126189698168.000
45699891672878624.000
41434995055648392.000
62274755459670064.000
86578963592607120.000
114556005091235504.000
62234269701332088.000
76147852751863328.000
155477593932274144.000
122986306534568128.000
145992589968084384.000
119062228075152176.000
290652139644735552.000
263162687625269504.000
543766104399853120.000
753997519266733312.000
654718444515460096.000
642482344804396160.000
1650271751338539264.000
1703877719357583104.000
2532947783254733312.000
2196500997224503808.000
5240454080535769088.000
5460084209172415488.000
3972406969224284672.000
2135312741975431168.000
4699830209066419200.000
5370234202908016640.000
2916654827727422464.000
1519295007070694400.000
2104645482919207168.000
2649725805839540736.000
1539579471584235008.000
933119290442430464.000
1262604689356369920.000
1375743953042786304.000
1636413297516179968.000
1411894511190058240.000
1386161016142856704.000
793675070014029184.000
753984972322108160.000
901769388941965440.000
464578310888086400.000
724638602381654272.000
1465843636105463552.000
2903799863674687488.000
1646906668176955648.000
868162021655965696.000
705461836813602048.000
901627711744552448.000
538406630461939072.000
290017859082368768.000
159515563507163200.000
124350401888236480.000
63497901181910304.000
33861256986423988.000
38274146161325008.000
76439037791808272.000
84016346391181840.000
47187576948661864.000
44103655195876528.000
42862156097645136.000
34688536456799060.000
80417261700181264.000
127349056865833184.000
164490457928520288.000
204227535323868384.000
493854355617543040.000
746010677201828352.000
899068973701101824.000
700926773091518720.000
916041042763578880.000
870597012042242304.000
1214498543230664960.000
667653130650617344.000
1536203726118361088.000
1412127761849832192.000
2198523153661544448.000
1362271289309558016.000
1746655078769035520.000
2640476315054675456.000
2903328190550739968.000
2867686416818158080.000
2244342112283481856.000
2707044772918537216.000
3160273550491541504.000
2762413898143518720.000
1651005656606253312.000
1278906890439586560.000
3150237213238858752.000
1714001218781292032.000
878248071299550208.000
454298270610392896.000
712957960268548736.000
668655066315922944.000
764993811424315648.000
1537864795840700672.000
1473584016306803968.000
763949328371000576.000
902114572028779136.000
463353362404589952.000
381744211664251712.000
220965355306085088.000
115093578754396832.000
68472732294191000.000
41958628182333760.000
39600665031700560.000
46238206572113928.000
37687540397596280.000
48729002203960816.000
39213178113570608.000
20122538643758448.000
22696263931233180.000
25864761074351636.000
13674024028041860.000
15935063945171866.000
10938796441991670.000
11864202776497704.000
15065313705396008.000
24159390772150916.000
26949608149500308.000
19061019908263112.000
26102751882018912.000
24785648488330848.000
14817628084762472.000
20086958063624524.000
27804512874227028.000
19777180870123372.000
40409010158210024.000
88263772752077456.000
67093873121973472.000
38347189136372000.000
38608634600473600.000
91603821587813616.000
79461360825635328.000
113859297118325104.000
68955092566273280.000
77881561976722208.000
74576086713891200.000
112669649635250688.000
125595191784993648.000
65544783211660296.000
132188496775700256.000
71244342271244000.000
43569309936267744.000
23055978097079180.000
36869189615943856.000
90325745774493408.000
49272232290584096.000
26622412150982256.000
43493581585207064.000
47578324202366216.000
77901200482827200.000
67121922203256328.000
74285036142189936.000
68871914298275664.000
41272067879893760.000
20668709396737776.000
10802152232955228.000
11694663010204968.000
28814394288268252.000
46816658028964352.000
25449583528132804.000
28058711341344104.000
19292261231087624.000
23489192793641712.000
27884283231249608.000
20806114135407484.000
27707176685371296.000
21367100325610888.000
12011360752867248.000
14452771684090706.000
15280515400123466.000
8700744539977296.000
12173692944279032.000
6653548642163652.000
14407125138368282.000
10992155122991848.000
27976363960645752.000
23205819551327156.000
11678718826645234.000
6040271565527966.000
12542900068490960.000
14754059130213920.000
11230198703664820.000
5832041767149134.000
8303402816650381.000
11988942476183754.000
15763303414674654.000
10634759462158284.000
22548433156565964.000
35665461853989648.000
36981923283332112.000
22542825622977880.000
24646933484810736.000
19165607920078380.000
23396167623250480.000
50016341462184480.000
81007292500002448.000
42304501521586264.000
45183244522880352.000
26879619566460356.000
37779591579997144.000
39467087869573432.000
78836751351996288.000
81185237603203824.000
80169182090298688.000
93449070848520608.000
73484801230035200.000
40282533534663824.000
21205721184972812.000
20239199356861752.000
10385317964731048.000
15564250725782956.000
14895005920690740.000
12618690806643778.000
14162766417865028.000
22041237083457496.000
25244907473794900.000
19312636593594696.000
23603928015010584.000
21064141915621600.000
11099170970508798.000
24709510655249984.000
49819275320806784.000
27144093510619224.000
21779491992483144.000
12232540711330746.000
7325622593835939.000
4369250241548728.500
2501451567897627.500
2633652118069098.500
2691719991402223.500
2161662391940500.000
2432345053954665.500
1947532821105864.000
4202592914386581.500
2492122630748930.500
3261194201818807.000
4358487521750127.500
4257222758855981.000
8473190048191894.000
7498091993677700.000
6940272769398532.000
15202018809523254.000
19496004012921352.000
10964438452834542.000
6210275414845521.000
6604862675412767.000
14611711430562536.000
13217482308831568.000
27660667066729680.000
22773834242623788.000
25237101767941940.000
38356615539680600.000
93215610554538192.000
138539848730718960.000
134949761637547168.000
213619669878151392.000
198639405109710880.000
117802471924750576.000
161004272756616192.000
218235759287959968.000
301538470329275264.000
157827383255202080.000
128248683154732800.000
66134275476128568.000
34002192477344544.000
46892021485439024.000
42649310761876776.000
61380404919193984.000
93011158937748272.000
110773752390560064.000
118265450841854768.000
152232031977583424.000
229649407224947584.000
291950108057509632.000
166210717934942400.000
112361523204534848.000
157682938870817504.000
149517360210571136.000
149016428806592352.000
84372800345339280.000
72758740263234960.000
87296142322572720.000
88953715015056944.000
60934725495139440.000
36618579566306328.000
49366585125221784.000
38922678630827864.000
21098643602669252.000
11524530013214548.000
12674149267423486.000
26211480006449992.000
28276465890468360.000
21475500345203272.000
27327859808325740.000
15962439067258754.000
14616810838611624.000
20287645218482336.000
19031991075254900.000
44427802381638528.000
48708099802641480.000
61837077963330936.000
35195416697200624.000
86289345536763056.000
92819639791136096.000
61902515384062320.000
37689890439379400.000
84745532130174608.000
84849897924966816.000
129043081571178896.000
197640874602394176.000
240820325452636896.000
369309107157498496.000
454945157546755008.000
522223478561248704.000
302024297782634752.000
211485440324889504.000
127648499833247936.000
66817375869291048.000
91044078837859744.000
125209467076787664.000
