38.807
40.589
37.035
37.861
57.697
125.775
135.463
269.895
329.031
811.339
811.299
841.181
1304.058
2690.028
2844.964
2675.223
4233.399
6842.762
7272.529
11680.888
27518.580
37846.324
91894.653
92624.391
145911.225
151588.276
215428.441
227314.720
558614.831
757921.351
1836222.890
2284376.134
5157059.967
10600349.714
10091906.637
9327583.415
9407490.149
13350472.414
30154631.411
62259804.382
83995763.002
85741171.289
81933533.982
173448304.885
177430736.535
250895441.938
567882548.424
884046489.585
1936527221.760
2666840597.914
6406982942.115
8135724800.025
21134649910.956
20866052419.365
27885749614.337
27223509633.269
57611919115.523
62747022439.152
128264834645.313
161742880570.756
156955440405.357
345124756308.798
745146285064.256
1043242722131.184
1071925212950.310
1158988209125.379
2319676426601.646
3005123411994.489
3290863804333.098
3374290904291.876
7548681326494.698
9489994243949.402
9686297794149.490
10170781455806.363
24576388679008.598
33680797410012.258
79354782248096.516
81543262314830.844
105211983650734.156
234895909412128.125
249694529051142.688
401709411760525.875
797730582980822.250
733847213980177.125
1032653040470856.750
2548482705318459.000
3446404294827446.000
8385847715231185.000
7705419326247912.000
6978530831068206.000
14956163280430340.000
16292550243664290.000
16270833851358780.000
23543546367151576.000
52755203269360704.000
74520312357006480.000
161759573154148704.000
168985576412337088.000
158369411266307904.000
202756846977282112.000
556142003508506112.000
790010388652301952.000
804969762055419776.000
733693060202356992.000
397986266694232384.000
215596892549740544.000
225565619633125408.000
139199933489861472.000
159450456746024320.000
131278671800425440.000
144329193910161248.000
135606242942559568.000
170856211590924480.000
91278546583960768.000
126592414183447232.000
282137455946323072.000
216653019123358784.000
112469986381802288.000
289000417252028992.000
149106609834920160.000
168794549031582880.000
121107791196712320.000
170430734305127904.000
256180441605475584.000
142012110022549008.000
299344578798254784.000
169196770510576864.000
274059815092758336.000
306017942371144192.000
169593593323941312.000
144348566297654112.000
166629971658567040.000
114506584043839840.000
140480460443327648.000
200740953882967168.000
477864752097695168.000
498843196272840640.000
282106957313599200.000
159012439711337248.000
89668000529780784.000
49004911621469328.000
49723560398366696.000
49682574871621088.000
35910596977054596.000
35980661930152488.000
46731115060172120.000
23716557748180824.000
13244051441676588.000
15367390511173250.000
13717960054406064.000
15793043002660352.000
10982736788730452.000
12984489678123144.000
12517522208155794.000
14366854436369768.000
23148332921754956.000
12084025320612888.000
13099458986473380.000
6949026221326921.000
7793138208572361.000
11393890922951706.000
5955537775524753.000
6739944303428194.000
4157385727373978.500
4375381914725914.000
6393876608351006.000
7487214317240124.000
3782791311838661.500
3717806700130623.500
4027244871520231.000
2357380010751637.000
1934775944570724.500
4318600574108753.000
6684789115634026.000
8211232139575921.000
4245951620384069.500
3556520697739103.500
8568534482531080.000
4740801869486475.000
2706396462953679.000
2729288929550257.000
1447827310732605.000
833554212335688.750
1299195790046547.000
706952226571186.500
833438904053259.250
571167221319879.125
690786878642012.125
647270282466196.625
1513547810145579.750
846858537585726.750
1240404909932328.000
1954253567294368.750
1184589766650284.750
606670234693643.750
682212558412334.125
820053954807143.250
839970123649753.125
1232371233587407.000
1398425896986578.500
1147553718167991.750
1466111850564286.500
2308859220908039.500
4633564103998012.000
6283408333802598.000
12799170500393184.000
14112121566855958.000
14723893724545274.000
10727553617645310.000
5819954724845034.000
15500905329271876.000
20818812577624796.000
11221989377055160.000
12074953727614412.000
6430654620874120.000
7361882755134257.000
4180434895260840.500
6461958356836008.000
8362529321777158.000
7954936322421331.000
4109242657813210.000
4913400954557226.000
4283045478721641.000
4935368184125881.000
7521370652608809.000
4113357793779674.000
8893188349102053.000
7466147610976050.000
8711207370701982.000
8011016134681549.000
6632301184786291.000
8750558682656890.000
7319334006819254.000
4345742912396465.000
2550712848176010.000
2140627817450060.250
3281197731749496.000
6721636305244439.000
7148219628027899.000
7760675919836488.000
10620195949326308.000
24750613731716336.000
24342928023772516.000
20760941048454716.000
51625258829704672.000
41669334641060552.000
42099650180161464.000
39845865599681448.000
49490260167668760.000
28551109964831228.000
15194417016170294.000
11601121964848488.000
7131853267876734.000
15797279704780762.000
8057257329013393.000
6492677197192044.000
6277247654414162.000
12955564884459518.000
28538787023722688.000
21100399675926716.000
23750300568180048.000
25455514513944460.000
13813164710882004.000
21509670588792240.000
22767948402646212.000
11378714013375936.000
13777894060582724.000
19523013441323756.000
19675265540141300.000
40792304677944360.000
44156346991975144.000
33575459030594712.000
49915347288249312.000
40821977396307864.000
22459759375806812.000
45381787712324176.000
25543887801934044.000
14397822185134844.000
19074729550200216.000
46171698919492080.000
91475390880048928.000
130343835197999904.000
127206445917673328.000
109137778104682688.000
121108096237484224.000
74991304291085952.000
93184601391095408.000
47503679971111024.000
49582849302437480.000
36527561224609336.000
76721217059121968.000
45194791125765728.000
49691582278294800.000
60503104583462904.000
165692235264583872.000
151051287821649312.000
81841239573311168.000
80610268070435552.000
67721323288846064.000
88240727630079072.000
50670732939359768.000
43318020743181944.000
24589074437073964.000
13580328293319304.000
7068179161186072.000
5805302303643473.000
12606817257275692.000
11898960413563936.000
7052775234924491.000
6412475958354530.000
8735280269563955.000
7257490150705703.000
10977504993075810.000
27236298102105192.000
43746003001281904.000
37897646652627456.000
93099536198690528.000
63692359585507632.000
79272959741023488.000
83903536887718640.000
166754591715924096.000
91061049078740784.000
77548304726668528.000
42248349782418856.000
22156671161139720.000
47875235953813016.000
34682037667623564.000
21679919137275964.000
19146480440150852.000
39659310911280656.000
44806494306522648.000
26087005067920796.000
21082137592981180.000
47676278851559664.000
71692301416256640.000
38163708781150336.000
22242308350680516.000
13551166688276460.000
14076361646409494.000
15054175881623958.000
8796430500986247.000
7886908151465063.000
8203719393848086.000
6442989125224347.000
7815853675006412.000
5874741601743192.000
12544475828222990.000
11732579298240376.000
7258474223210002.000
7213787911635332.000
7209803359479636.000
4116448062088325.000
5845418701157691.000
7741871903391690.000
11293138483604130.000
14238090847786768.000
15010385612494018.000
11493162080787570.000
14821164643673942.000
12317991871175724.000
14560979344017938.000
15152330058171864.000
15579959975525172.000
11490025375316138.000
27231207700091904.000
34484889961026736.000
21431019357939084.000
27314113561798140.000
41540185645124912.000
23291600096034704.000
25319281870560132.000
14828752424630746.000
13100969767653052.000
7922163533517168.000
8212127077821192.000
6048255298746280.000
15865328422106616.000
23480332107321012.000
20992430400552488.000
26977824534551936.000
15922261995123850.000
12353643840790484.000
27390151531668196.000
15855474084238992.000
21364466237485296.000
49703054963532088.000
27512227537464044.000
42644323907150760.000
68129105031829744.000
38408970236127960.000
50313985996198112.000
50855802404943336.000
25900308629035032.000
15464867560530324.000
11187356206343770.000
13366180061059662.000
27482509369120740.000
25973011953542076.000
19960562725397384.000
11649161046547830.000
12788826819980102.000
6875524144510845.000
14928042247027072.000
14933117114207312.000
23105658350012324.000
12851631111959922.000
7581524515173574.000
11580230538003842.000
25467384912007488.000
50423210745029760.000
42493476090156600.000
26038528194697236.000
19796834711068996.000
23730044939310624.000
12080883532859010.000
7298062620962248.000
8819665425353216.000
7518610028361512.000
6741377048989662.000
15719510957978732.000
14122606742740948.000
18813579907425460.000
25562655866352908.000
26363934261118056.000
25473683013958728.000
13242004534391330.000
10947218607419022.000
27419735679726772.000
14145937948764516.000
7836126391808033.000
7027352937203221.000
15795374687092106.000
11085229989302722.000
12835578592362322.000
11372737371783196.000
11966081815237098.000
27717878311977116.000
40313316243078640.000
85184171830720688.000
78891738372500592.000
73826355248026816.000
90289775869707984.000
87844839013477344.000
65741781793754896.000
40242898118185896.000
24200227324584888.000
14489638470751178.000
15620528909677346.000
20521768657903472.000
19327654410840636.000
50921195794158008.000
60696239605078608.000
34116540859917124.000
18886103447719348.000
11481628022807482.000
15870665644150990.000
19286797451146528.000
26592535940778736.000
14220171040442302.000
11894696692411250.000
6395298997420960.000
6767772466281304.000
6294045609902274.000
7544094155181060.000
4255313114458328.500
2479677625587728.000
2456046120942534.000
1831299548738704.500
2418837221670603.500
2498332689184414.500
2709608873039733.000
3277499663944338.000
4058872975988398.000
3883461189136265.500
5978902652649194.000
8437808348661525.000
4450772509286209.500
3578964957721032.000
4816764273677996.000
2673792131998476.000
3215560947058924.500
2018097009323873.000
1166982763198573.500
1067294177978709.625
1246250227951603.500
988218514894660.250
1085559038076575.500
1382595854784189.000
835014360261755.250
1344118636949882.000
1515403192576938.750
2116158525330669.500
1986105435799321.750
2173382494463719.000
2717207438478280.000
2089266781812474.750
2459373723285847.000
3911368675841989.500
1989881607650029.000
4597362112749328.000
6155242264955986.000
14159028959856548.000
8251570448055632.000
10723479003863708.000
14402017110979790.000
13309219897026954.000
19911134184511452.000
28107920438344880.000
19101950554492584.000
25818316677307932.000
22153720906688272.000
22912883326773420.000
27026198251795904.000
15325741845648316.000
15948344840936432.000
20857303924474208.000
24274997409088552.000
19897356356927884.000
22698983831171516.000
12007205263771098.000
6585325284635062.000
3295679261008372.500
4589088451240192.000
4609273514848873.000
7332686304885602.000
11673784177515578.000
14078849505699246.000
8346645568871010.000
11647469689710754.000
23721633647493196.000
13921905841099850.000
7201211696740268.000
3992238061785721.500
2399440955504710.000
1321332944783499.500
1782319331981765.750
2050540378406166.250
2705164297404898.000
2097543212498095.250
2125070138574537.750
4468666509730341.000
3960548610632858.000
8237918171709583.000
4227567360965382.500
4530805748555223.000
7155844910406578.000
7586018343878688.000
11001859055566444.000
12879509145413218.000
11774547802195796.000
15184797477275800.000
13215491053281944.000
26807476880510784.000
33821678019732292.000
82218030410813840.000
49279459557616224.000
26600037787818024.000
15198292305007286.000
15691064663798346.000
13538854554973798.000
27390892186815892.000
36816851455936104.000
79048648731674256.000
63965543459290088.000
66544199844728304.000
70549634352383584.000
69964486304554920.000
41578503062709792.000
50101990026575456.000
76126713667606480.000
77465626116542880.000
89597172735298320.000
45825228827438432.000
46308293667603656.000
51905378499686456.000
41427155761221584.000
40167997352417880.000
21756407111912688.000
13016819406318026.000
20666538943513904.000
23998969207533588.000
25810920107089200.000
24426162458797280.000
50684001615589200.000
37052076968189904.000
18891769847910240.000
41548541442212296.000
36514434754843040.000
36695640948448728.000
20050166929756676.000
10626720733413098.000
12916147439474130.000
19248184695816332.000
19211625216512392.000
25694136053079848.000
13032460065599052.000
7793119268960008.000
6658810037851965.000
13444902309252922.000
6836082661335255.000
3520893210974265.500
2188838417988483.000
2345932872985933.000
1296937131130952.750
1037909360178639.500
2352299411190842.000
2059243552231416.000
2670198998706022.500
2360728041545254.000
1804086753477119.000
1042940644540857.250
1032045148947653.375
1244201053626935.750
1311924574071498.250
1820460185987196.500
2712452296046061.000
1799524709844071.000
2430787322699677.000
1345865758202603.500
1358036269136585.250
2034497703527743.000
4230356485320439.500
2435886958379144.500
2223032257836745.250
1247844128822512.250
1411835420124553.500
800085931411879.875
1000813448109601.750
1279576711542469.250
1065609476580629.000
2433713984081527.500
2641428914646238.500
3799905566910902.000
8748157691978984.000
8277229516165009.000
4336618745190839.500
3754378248701679.500
4264992617873082.500
3239470267254707.500
3267227702919657.000
3785548280290678.000
4612486824267139.000
3572627380460934.000
8755236387085374.000
14279206016416468.000
8317598325262096.000
10800526086330942.000
12251226408775010.000
13948046763332928.000
22218839770014416.000
13199705439456130.000
10497787062828606.000
5793935145988932.000
3324537685150325.500
4067908735972956.500
8755012307708944.000
13658810213617842.000
19715309278872176.000
42156576345008952.000
25112701639599084.000
20692370143190508.000
10583971160800574.000
13827533767160164.000
10854986439431736.000
26743613460993300.000
39961941680725096.000
42633476538366608.000
90349806409866432.000
49465631714487592.000
42259980905244888.000
39255971983103672.000
47037766032648568.000
49488252738945968.000
49008126288600808.000
25921116168529692.000
28663900022190860.000
34228248817792644.000
78601621276419792.000
110384491857039536.000
69224167527644104.000
39456474394083136.000
90540381538806496.000
128648092364943248.000
69173193425386264.000
83709955154076048.000
114511624119409632.000
63377894511428384.000
92560358654326224.000
145080907085858144.000
146767658962380672.000
137758735490236736.000
70418775746573728.000
36176131851429400.000
33842178774264484.000
46996988200867496.000
74097885224627504.000
115151070094549040.000
134243082649368384.000
68397041964738760.000
63088829551933072.000
160606780232656544.000
166227644646595168.000
212236270343219840.000
479463732097052992.000
252518131143684416.000
212218992191398368.000
127848540920106064.000
78277494409433760.000
64522884494197144.000
78708002184189696.000
81165865152654656.000
117336839585213248.000
136460253776689440.000
132925698293208000.000
78344513262343120.000
44963112543134200.000
27038652252523592.000
20433676666401048.000
47169290857359568.000
43291056267046632.000
22720388520742968.000
11514249894001610.000
10393981880170040.000
28218652043760432.000
36151708261761640.000
50159308790083208.000
48822131025490528.000
37012753783392088.000
19441649659527996.000
10393107743947502.000
14055341765609784.000
15063195411266548.000
13165575783530576.000
6806583485926061.000
6579469347426681.000
5902295152193106.000
6935356668060240.000
3560320298363254.500
4909633713446223.000
6593183376715986.000
3707691569669014.500
4860895205040815.000
3988860719561663.500
3253870020281638.000
1949831105205773.000
2086334312249743.250
1076908149455236.625
652156279421316.375
782617483477860.375
455921005242600.688
578737037698446.750
714189257390335.250
1144212646795263.500
2532068386933799.000
1360198526107147.750
1088063714586425.375
1512243728735367.000
841745680449645.000
659452376971024.500
1492904727791649.750
792382123579465.375
1246977307553549.750
730717611837351.375
378491760441587.562
469904192889945.000
406462998075889.312
806548510130611.875
660500226971819.000
1460579050426969.000
1168215995476918.000
1064870128458978.750
618762025263865.125
1243791841150101.000
1199402802601289.250
1129628481205488.000
588152988817892.375
321956051308240.688
410887537714586.438
353233667490973.875
808580657567457.125
759003493789246.875
398712284274987.812
452953330103512.688
551562216413106.250
336242818610042.938
424377715521205.250
421366118393118.938
343786729913319.875
201893669106063.062
222646285886994.125
306587121238803.062
813635736562523.000
847998743610720.625
1124478111639521.250
1484250639241009.750
776947692832694.750
637942587739337.375
321586136348284.812
817391942693832.375
745667993550778.750
586554332064633.625
1238308527548364.500
621818168528800.875
772050790147171.375
716184060127153.000
380727308248016.250
405892847312420.938
811242098915514.375
470011063871779.125
321466876486428.750
823796793398628.000
652978403425974.125
346477526368230.938
359346969676868.562
349074010419591.625
333038931120679.875
369557227125260.312
219233557601046.469
256549406833086.094
394127949352792.312
356685134443592.438
326049262848249.750
307391382240533.688
376969762902633.312
197265293121234.969
108209563066298.312
239751488056690.594
215988426013706.094
326162520380136.500
739540407365173.500
571754590193455.625
570108237219851.250
837435395970077.000
811310654761459.500
832147258379533.875
1286746704077275.500
1054221809919787.875
1163715599435751.000
1297750825619781.750
716667793939355.625
770909332539289.875
594514751574670.875
715875891075976.875
805302059637842.000
1257906453917212.250
1169950940107146.750
2528765294018105.000
4012301752144734.000
2367620450020855.000
4900626153225966.000
4327044924885348.000
2622668274871358.500
2160222824140916.000
1124786024285832.250
2748791427972972.500
1472212766108565.250
1235753181213254.250
1242894854211790.250
706746958990341.375
427074915154689.375
551622871556812.812
792231182391800.250
794951824204513.250
738183533445609.500
848248867988703.625
461507740131084.562
319001090453729.250
366716479437314.812
225902669887496.781
128739081680039.922
124344288457080.000
194821942162296.500
218294452728508.250
233325222122688.094
358213292598974.312
352500611333344.562
353820105630007.438
406654894259268.312
349964598608615.062
307332070563312.562
678451633717966.250
748349215429649.375
448493070875716.625
259100805316731.938
413402252887014.375
469978660225687.500
438136802186006.375
345819312152944.688
322988775169383.312
845457396437916.750
615226795507191.750
819975134263475.375
835481633645557.875
445816503597832.438
386638751541918.938
399019837529058.000
466303071860852.562
683470354907082.875
836446394442580.875
1022181420044213.375
1276758059997151.000
715788477493561.875
1016648949272855.000
629703658646749.750
1324336439725217.500
2062574053993784.250
2290828616503624.000
1341795278276874.000
2060336777614056.000
1091756141723970.750
644495646993665.250
373432058752386.750
406358374721207.438
402045431254737.188
840938066022514.000
1141082279682901.250
2483412754239749.500
2699432171334071.000
1822831464590879.500
2590040009131359.500
2374222007696434.500
3625829273271966.000
7716435504029688.000
4654839870466576.000
4312355891331633.500
6622829505110166.000
7787551387085744.000
4566247412825298.000
2520434720606141.000
1471780462032310.000
1184191622402412.000
2625564611583934.500
2386258026499352.000
2179676074750516.000
2404818736505105.500
2688445853357516.500
1919346875407262.750
4381647865949511.000
3201822877439914.500
3328298856432049.500
7629437190378507.000
3915760108207164.500
2406598376970971.000
2034208660794880.000
1156785413288686.500
1151324030050152.500
1468105389964065.750
1335787048471529.250
2157669065885822.250
2399140362456745.500
1286677487685437.250
1290896025169670.500
669497125934632.000
1052209598649333.125
1362396542758149.250
1922263541964670.000
1187425504456710.250
1101805440574666.250
2433753203953130.000
2258876562169971.000
2719307781228029.000
2318697617769199.000
2264609741155312.000
2452914643308752.500
1986639322546174.250
4180980000668306.500
3596270954142364.500
1788118184163147.250
4315166395934257.000
4205926665903211.500
6628405502266872.000
8426290858339358.000
6440254170369738.000
6244885088694500.000
7136825147334690.000
11224063891706034.000
24696397620151748.000
21765910831002596.000
24337503584046876.000
20578358855435560.000
12279033659047618.000
12453998599832234.000
11801629297035732.000
12425672222758556.000
7471466616682983.000
3836820650183076.500
4026983876478720.500
2327682914918463.000
2376835178168300.500
1890018743595150.250
2196189477855890.500
2719599591860254.500
3402283347847418.000
7945540154944810.000
4175844815983951.000
8319303987631584.000
4657631789248018.000
3533362713855411.500
4895621706507476.000
4079851715105720.000
2254634117209636.000
2165877336642793.750
2721374201771062.500
3731337010756904.000
2289998696997187.500
2588069097310194.500
2683488648183658.500
3449439332552150.500
4712203826544320.000
4312906790376933.000
4686775704815379.000
6963840430912773.000
7361744562215568.000
11003931654908196.000
15521596929288098.000
11287871890444144.000
6011516294309472.000
14269910539337778.000
8006833136404337.000
7077392597985347.000
15691230023338964.000
8701636555171905.000
4777239748503150.000
6530943225949577.000
14414032658082960.000
11534958762901610.000
14631870198216972.000
13578613131390326.000
20752361892399236.000
19677805662277176.000
11030865676661076.000
6172576232839149.000
3424832395320521.500
3827871556654949.000
3480298551462930.500
4219613574060824.000
4936812666914525.000
4399254688107900.500
2395105618797512.500
2455390292962974.500
1424519991430775.250
1476744828338841.750
2203847385243673.000
1169999145563134.500
1186030944087203.250
2424321375595001.000
1282796698366088.250
716855703387298.000
412136632419702.438
240912220649567.625
337114530766543.938
681118116029642.000
697308389724052.000
565573232771152.750
779273581892834.500
554248565436980.375
582374517660975.500
618476525324896.000
372573060906494.062
345957681244353.500
202435050112595.938
113198441211697.125
240031622045489.406
357552725349842.688
195337410091421.188
248491273618532.125
139384074929334.219
214002721994979.969
112157874004929.516
122357096061870.578
72512749517131.844
41530106097592.836
24338292101577.406
37621708949014.961
44617580155875.047
30867916483966.316
36206464958240.469
42415815867737.508
21988519670414.801
18889516564563.004
19850487654946.699
43089038387884.320
64214244055153.102
70151237001556.922
64395323418239.891
100277587808677.266
248996478408202.250
229546578580529.094
233369983588772.812
122853597523408.062
71264231444038.203
52780764688773.305
62565432376953.500
53773503633356.859
136854987091295.938
105183342424691.812
105754080174238.609
139877994707272.922
80709879374751.297
67170189584709.734
72674618236172.031
115995350599451.109
62139105877168.055
75800383091331.734
111907126241340.078
130502206582937.328
134695648128810.547
110163342533229.375
139395829044878.391
138186688618580.062
172479133276020.812
104658010637840.234
249932098313921.156
220035933435597.562
119100697053770.656
100625955812862.562
257863647653995.844
195536702416376.844
177184897165402.156
262037795110014.094
201140998388310.500
321404059891207.562
346155079908621.438
213237201049053.625
174052494260773.750
205943340226947.594
175395760332339.812
356242257015218.125
205172774159695.906
198557901274777.281
400623899389913.438
610519503636584.500
1265977296033509.000
1267424224219572.250
1828516334399092.500
2179767830318555.000
1177282895135764.250
1326758279703777.750
1221957349150571.250
1292305217086216.750
1331259084947850.750
1422562277056600.250
1010469769324038.000
1123341927385320.250
2578444541967450.000
2038486338761471.500
4147723324133519.500
4235239499936649.500
4128567207227195.500
8490173588154369.000
7365938945986132.000
6427376918210284.000
15794343590766556.000
13412837342920566.000
6733079416189457.000
3794386945553602.500
8411494911371421.000
10635978589959610.000
27690887655008904.000
44993465066032712.000
42141007509787504.000
38969141978859440.000
50297524037800320.000
43279185081370152.000
66422801978973216.000
75018274694270736.000
157859473119912544.000
127133703737952528.000
284029410943638080.000
260313119559033536.000
240990329304244416.000
373633833729702400.000
759726829849191808.000
466869153310426624.000
373124374000970752.000
476023984229426752.000
275479817972930848.000
153735732470388288.000
142972449855734992.000
165225128571581632.000
264486273604315392.000
211948292530412768.000
112647809993494864.000
117021864377527872.000
117905842274532288.000
67179968961009816.000
39350697579165480.000
83820447007653200.000
90053558135420208.000
128507616449291520.000
133443240767060224.000
81616292594768368.000
41152286994444224.000
49086459490560720.000
42045043891133544.000
21620273084820732.000
21369378629490068.000
26140938789305544.000
41105661721200368.000
24186429321135380.000
35849191425729432.000
21300272085292744.000
22657543377703060.000
11999685798985212.000
7069479547391104.000
4280010352605582.500
3923633910224130.000
4802636741534088.000
2477452608197044.500
3555459725708043.500
4892861056150591.000
5969903145249661.000
6941537616452667.000
8391898761891837.000
12676575896844182.000
11279516999302506.000
5729722587251244.000
6507799091653099.000
6362714951191606.000
3321857999772185.000
1888762018569468.000
2508251363844244.000
2323049045419254.500
3354783748122029.000
3887774884243975.500
2212850934061051.500
1304335588599136.250
733009952652793.125
1048328947919762.375
1172903889085607.500
605344614776760.500
749566905439188.125
386562003952023.938
621387845463245.125
834343188429895.000
693752056475070.750
1412567996643966.000
1244619096526992.000
2619849511419140.000
3731134247627079.000
3766456957289283.500
8636317527842012.000
7188095700612141.000
11463411828158974.000
6395556936498400.000
3380907018561823.000
4849138727802776.000
7404937391684831.000
15749474032307040.000
10318191864651280.000
11991250323859370.000
13742934839727236.000
11215465857297228.000
6079974741159238.000
5873449686262680.000
12300468204607158.000
7348203271045164.000
5943087665253465.000
8213195712296504.000
4387813519810425.500
4660400959996576.000
6812136314714925.000
7817705915369994.000
8576351582692864.000
4631085521827231.000
3191159657520587.000
3948833283513350.000
4758004097754594.000
3429615097568712.000
7351976245770648.000
15355981641935316.000
8376333961830806.000
4811759753248169.000
7225079920078570.000
5726136672498475.000
7056694237008195.000
15703765805816746.000
25444546487412872.000
37840467316903592.000
21850459895383692.000
11581771605067176.000
13613331348030922.000
14930770336587186.000
18355083582764760.000
18298341434964660.000
45324776137527120.000
45551016520221656.000
50033370197006856.000
64889168479654320.000
80364936956247328.000
108928328274372768.000
239459001263469824.000
242834830672242720.000
192385971206673728.000
228026523989152704.000
203727436707367520.000
414153719402618048.000
520521616662340608.000
376745688819717696.000
784617492111452928.000
894953612266234496.000
831688754407187584.000
1222751374200447232.000
2591845513737944064.000
2362167454207072256.000
2145623445683478784.000
1999775596011135744.000
2933178384341838336.000
2979286452508532736.000
1652468431727284480.000
1148804444663393152.000
1337346951569464832.000
725104793612595200.000
899210431516093696.000
669991524121492096.000
838025287707563136.000
1103024323349888000.000
1412603945449689088.000
2111384851827389952.000
5405902669678919680.000
7244367142067958784.000
4145014514490957312.000
8352765869955033088.000
9471438280366942208.000
7846568259207799808.000
11900563269591746560.000
28447644858144493568.000
27567318156878184448.000
30957081743312207872.000
43054666820944896000.000
88616689725411606528.000
44727600686133272576.000
89800288762152796160.000
69621762690859491328.000
79501305081650806784.000
39345830675046490112.000
50600764438901481472.000
42200949106937487360.000
55487814028985319424.000
32398438960750948352.000
45912003095690600448.000
25904942150217433088.000
30119877138299846656.000
24611634264957427712.000
22109813036503121920.000
23945470529195917312.000
20957495238732926976.000
28256205461738266624.000
16600931699934169088.000
13162359397431214080.000
8099802541225067520.000
4324604542858694144.000
5499293315467898880.000
8501274987557563392.000
8854086560318385152.000
4499229281781280768.000
4242977380506903552.000
3722356728647809536.000
2208273455753971200.000
2098573044029555200.000
4946407993078359040.000
2892710694889471488.000
1611450107527603200.000
1239200490331043072.000
1159137335835312896.000
1489034674397759744.000
864657463705435776.000
654847365136484864.000
818554241890499328.000
939206384412314752.000
794904212257212544.000
841169751374614784.000
1079420752650313984.000
1470730141127088384.000
877893000885246592.000
524180457562360128.000
283790226758995296.000
239344008655442304.000
186950795936408128.000
198115003325243072.000
214943639547723328.000
121784603854963104.000
190338728837051872.000
284643519055087296.000
337564378104830272.000
461066692548114752.000
431045216586427136.000
244819439580538016.000
124657501840955984.000
141075202164116608.000
109198428861540976.000
129008566925315488.000
134117868512693376.000
73556953823303536.000
59345595196199608.000
136240275755437152.000
155851192959462752.000
119397843783101248.000
154354155422921728.000
128364293123372272.000
157655864504605440.000
152909968113803136.000
111781918517310448.000
152655134495481696.000
140914665019811616.000
193075498370711200.000
409500210802035072.000
522326102983694912.000
607150699399185920.000
1352926021174242560.000
721288808012951680.000
934177771692050304.000
1352197024225658880.000
707794905167301888.000
810671125366964736.000
418282851127811904.000
354473790989751232.000
513827842982200064.000
463876705918771520.000
374745350287752576.000
189945890393207808.000
188059489464343520.000
222140462716353568.000
249111554709990816.000
148304414210958880.000
88817791851938752.000
68162498904076736.000
137920729694776128.000
112440714554661072.000
159975534810131008.000
105146111022807632.000
229237767074213120.000
140466563806468352.000
79858665924612928.000
88261965674164352.000
113551273347814000.000
129191094083569776.000
164813047316729024.000
144079832772268336.000
157124019761550912.000
109080321854681296.000
264049341051723488.000
157641972543106272.000
126152325815823840.000
265250275034545664.000
246237254910613792.000
142232318731296320.000
119849774234649328.000
275144482408414528.000
139934576806661296.000
147171688995013760.000
215501023199070816.000
113560513192518816.000
140099782781372944.000
198276430777724768.000
503399432239318976.000
784744634025890688.000
890161384734319488.000
880814370099633664.000
1259780861989211904.000
1670570620359708416.000
1637860683045130752.000
1577853084498570240.000
1276016357758386432.000
2590187944404420096.000
1573185003113509120.000
1667336151120474880.000
966385272196702592.000
705302632635427968.000
873447853578387072.000
497399592291806080.000
641162578545885952.000
747773034007034624.000
871536151998688128.000
1738706516875532032.000
2264693397475014144.000
5646828968255906816.000
3742297861035025920.000
4860096428887378944.000
7535549464670118912.000
16249651809012553728.000
16065507692980078592.000
9573338162370889728.000
8284393249612887040.000
10212401494080090112.000
7966741594668057600.000
8428141207169920000.000
17186856315292463104.000
25626036591788265472.000
15737924728334473216.000
17904737302798082048.000
13113355259910971392.000
12293379817696116736.000
27933521350662545408.000
16776335708161556480.000
18696955755980075008.000
16052744541332334592.000
9171270545089895424.000
10073882359348547584.000
8369377053132065792.000
10440712600213186560.000
14935165025395769344.000
7575747438527973376.000
10087550399574241280.000
13305643704232335360.000
8073763025490874368.000
9395315312140988416.000
7470001669672216576.000
8863663142330101760.000
5112585220976015360.000
5102862428790067200.000
4125721908381030912.000
5109266205244058624.000
4704787288037561344.000
5254449627773611008.000
5175325138467216384.000
4180885633505979392.000
5150448129061506048.000
2824848230654119424.000
2357837250341104128.000
4772263045486810112.000
4891432467779884032.000
2735544200366373888.000
1516687128536329216.000
1430566852463823360.000
3108835186992673280.000
1675708096224255744.000
1331398482146619648.000
1720593086216892416.000
946997640426369024.000
488238121437532096.000
271754134637287104.000
266398749926380512.000
261950417088580992.000
232015619479712896.000
290792119061863040.000
154098031151914304.000
81117969413047152.000
45051458145189008.000
94575833931087248.000
74588803180133456.000
39369087645900808.000
41700111906801008.000
50670121680819136.000
45992198123902752.000
95409054027164832.000
150086410665935776.000
174235944406492832.000
151463954248102112.000
241286635585512192.000
556039852380582464.000
473108674722924672.000
496622802178562880.000
255465460729998944.000
309105682032238720.000
255387245991140896.000
283270103767483904.000
169675826790687264.000
271884239625626496.000
153269896809705408.000
175964924202795072.000
247637052879426688.000
393496933844549568.000
243433533737569728.000
137029778107897712.000
289915371523826816.000
276713119118948192.000
446475275142321152.000
394079714048812224.000
223105534993644608.000
217681580029627360.000
121461681315367616.000
135858185541670000.000
175982381756538016.000
98250854878034416.000
68609179423968336.000
41010543049628976.000
23151127883401248.000
12967885916046140.000
7723914655907452.000
8776387222933282.000
12136139243138774.000
11758463660238894.000
13870814064248424.000
15993792316694652.000
9004683096566014.000
14201883872567318.000
15935482889593366.000
12331612915697462.000
12940162810783938.000
16576740023608164.000
14476294941992332.000
28999072871448372.000
25696414677560220.000
53323096203662360.000
47929630224735304.000
26108197676040568.000
41910701443361592.000
55186984493888328.000
46934011841192968.000
25625759772155900.000
15065700989384496.000
30041779891013340.000
25761396542513260.000
23111638936430964.000
50927989684344504.000
45594288094521864.000
25959602318181020.000
21217022165942736.000
54966511692935776.000
84581161298922464.000
47490781780714552.000
26598504466778436.000
28958395796647908.000
21795580352202988.000
53791711958308960.000
30038527326168132.000
23422105162661524.000
53424705709668696.000
28681494048416408.000
23636091526334364.000
48367772990195232.000
45631378135637496.000
72105863958484384.000
170442247832436416.000
153047924180407456.000
248300732331221536.000
142036417011341696.000
78637016053017024.000
81864968493266880.000
174849194225181600.000
263528301689352512.000
276365064321131520.000
278087593028403232.000
245461937144741568.000
290756975201773312.000
410030743468800704.000
414930482846942272.000
860695476761542656.000
742159824078331776.000
955497736114560128.000
886774498558125312.000
830456496257970944.000
732557067439038464.000
975094513239199232.000
569517946396313472.000
413217844045478464.000
238886045328909888.000
271335595542029184.000
141427425867465376.000
176341989943575072.000
130763102836363600.000
125513516485800320.000
273749208343650912.000
147737218468531168.000
80551087324702800.000
98571728044482848.000
145217101967628256.000
176294670295367424.000
272450314620594944.000
315474329948889856.000
175609191251304896.000
96051980733384864.000
91831151714859696.000
85719553148287920.000
73589195959105888.000
167741617248859584.000
93570622052077056.000
53086268335949496.000
84498770480633872.000
177475802064561728.000
234046570634942976.000
280843653056537792.000
163946535849926304.000
155951669166533184.000
83429545651024160.000
85929172074993440.000
88699128450323600.000
176293408018156224.000
217085658775021376.000
296032187367608832.000
217142008800478048.000
450639602214372992.000
516117349262601408.000
405434538184433280.000
851830195245209344.000
509514187505460096.000
287066456401802592.000
153347625468914144.000
145499501923443744.000
120559412541080976.000
135759793779574528.000
79278257859479600.000
40987864511889152.000
22213013618482160.000
28641558055974624.000
43957820591107832.000
24798006269129356.000
27350082906756540.000
21327560667216540.000
46193195670748136.000
95526687751545728.000
51923925475110888.000
27207795605923572.000
23687018660625984.000
26429935166221108.000
22391913021299688.000
21294446548843456.000
12733696811120044.000
6759224765840226.000
3784539694437888.000
7908067462242580.000
16084422403801554.000
23329765314894712.000
11628768086481794.000
14813743909972292.000
20377086809716424.000
11116819782660850.000
14601956802937644.000
15027781622024108.000
8664747213833804.000
4634672835968852.000
9133864608753040.000
7983911323380783.000
4798065319059969.000
2751619608787924.500
2127436102349253.000
4414044584530631.000
6585538219010914.000
14123443398267126.000
8088077880072695.000
7033882044018603.000
6527092949616791.000
6118949759260206.000
6898131865462080.000
3989699008031561.500
4484639729489171.500
7062791996118780.000
8240941704507406.000
7249245944441721.000
8402560444511851.000
12519002793479088.000
12282324873590448.000
15262744459249778.000
12568910274248982.000
13760336874308684.000
10805532815061920.000
28714566843442004.000
24424370620355668.000
25408016625609880.000
14270774502371992.000
11370772416455788.000
27258855926826684.000
16031072118945310.000
21841390228641288.000
46426967697068144.000
39450927993291960.000
24077479927341304.000
14662707897617256.000
8536872914926312.000
6895322128542117.000
10957126037663274.000
27956401088415708.000
37602438705366952.000
77221915763324000.000
43824562681883352.000
36703324711719872.000
38859837375421976.000
93120235619924816.000
84594488691849856.000
63524051791563504.000
85581044602549104.000
62209790849122088.000
132290334388343696.000
273065420002492640.000
407311566331073728.000
939235859768218752.000
1287546483330721792.000
775394207868406912.000
892371921283659648.000
697185584860877312.000
945827719132069504.000
654607759422020736.000
832970491499189760.000
498625796809746688.000
438629631151313088.000
402854043348857344.000
811477526719544192.000
887304274820601728.000
952129315781622656.000
766692287102095872.000
885227716784229248.000
890442072832568832.000
813655957322530176.000
797147036841665536.000
976180869354511872.000
785176333970119168.000
755955283494161280.000
947336459501377280.000
855201723519435392.000
737047397438999296.000
835781041655728896.000
1247585640351690240.000
1320329605991476480.000
1766692394967472128.000
1457492259403960320.000
1707844541369153280.000
2094320031791050240.000
2340933820901762560.000
2344030674724432384.000
5537051315228588032.000
2927126855870043136.000
1680972398008795392.000
1326610197882330112.000
2700861575649426432.000
1588506111740966912.000
914805002034743424.000
1492912925603750912.000
1662890251610446080.000
1760886698345911808.000
1613934212707656960.000
1725225706957750272.000
1167167569593849344.000
712481565304428416.000
1515748334021256704.000
1460447806156992512.000
825890208561627392.000
650551797573742848.000
368624145979048000.000
429683148317565056.000
668526019912402176.000
777684314363111168.000
834922276784303872.000
1263391900394252288.000
635600510411186176.000
1585687899621071616.000
1336954641047073792.000
1627359825390681600.000
877071983453147136.000
643603716162407552.000
941791869014248448.000
500166147270789888.000
689630299946205824.000
401727973015360768.000
216469168051036160.000
462900244129172608.000
282144567041200864.000
229892045337885504.000
277448649641472896.000
258950613535446016.000
233864552536619168.000
140327958576692592.000
83822497723532688.000
126082161406740624.000
68291572740613808.000
88935223913900784.000
46192803416276616.000
93479172094681824.000
91497599172508608.000
134066946530064880.000
148622908925059232.000
121309077309568512.000
139946846539331904.000
112564104922750560.000
60489378939059648.000
151237991623766944.000
122508049770937824.000
246357388932101760.000
128372941131170624.000
145405118145080096.000
116005917094470144.000
65973861310367680.000
39507705501512136.000
21569252769179484.000
24924470324073720.000
18925975689133256.000
25863185985529692.000
21769475898920740.000
45571314794670008.000
22979140915319148.000
12939955642987436.000
7075923041219887.000
8718615620930704.000
6892262265541877.000
10545318063714140.000
15890164916398140.000
21961310395349548.000
12155586315916236.000
12245975362471096.000
19447793841243420.000
11154918082350462.000
14214429747015936.000
21708502682170516.000
44813484877780816.000
66251989834052360.000
36641786180700416.000
50880163985132736.000
81140639108792064.000
60914346544863696.000
80742021324618848.000
42812577642398048.000
48345002187992176.000
40429999377801216.000
90555686634504976.000
75210957103595856.000
84705321752671632.000
48878300080673376.000
40582514691305352.000
42821553447250224.000
85359078972576208.000
45507117362564568.000
90160515970704400.000
119169886168799920.000
155509745054521568.000
127090930274997152.000
120681960931229888.000
127405366159513680.000
145942488437536640.000
112508747057952096.000
110278797049313808.000
287446812647383712.000
301888780344889536.000
160912073753697536.000
161642773502150304.000
140315351658104592.000
205158723956584704.000
483573840328969024.000
279096884919696288.000
366459549357488512.000
214437339930006048.000
252067829212347648.000
130536044958351280.000
139651984356647296.000
156553437737426624.000
144645984694704768.000
72425681826089328.000
37851298924728096.000
18838247400721756.000
44423370060308112.000
26326636215442812.000
20550080856409980.000
42375560508595424.000
21252290304036992.000
47047484292274968.000
76285895810969824.000
42926399555443216.000
67334584600790912.000
75930448219814752.000
43189250480016568.000
39156672003851936.000
61570068387918160.000
147331211085993504.000
294867622982380928.000
266314186199004608.000
538758905265211648.000
462033647845361280.000
506460696617520960.000
266023664568931040.000
252334077508987264.000
135683073319659328.000
159615780671754016.000
136216762234165824.000
72956673158602160.000
92518573041651824.000
116199185753115136.000
146546987674486560.000
74029588305547504.000
37060590993717056.000
88511146290158560.000
49683085564768040.000
25373698433135120.000
33900085117041252.000
78052088264387632.000
81204284924476944.000
91254589998853088.000
66274050268903608.000
34978553663135356.000
51373859270513528.000
40343896286621256.000
63759924817855976.000
67466703634498616.000
72119170251184512.000
81204231528057232.000
47632398672018112.000
34927371363506064.000
21444032639434888.000
24879188195462316.000
38953239241237496.000
38798418211217184.000
48570573620454176.000
75775258310223552.000
91765128631975920.000
79894978341060064.000
88520725295413008.000
50139923926909296.000
49317221080319152.000
38911050064373632.000
21504517584241740.000
24459934246966512.000
27051854608253220.000
