32.776
76.439
77.682
97.834
216.365
233.414
348.643
714.565
1086.582
2501.418
4917.211
6975.842
10870.974
27056.840
26584.117
28234.223
28358.676
26444.379
26533.255
25580.676
23732.461
23833.247
51899.081
63990.650
67427.894
62132.949
156241.985
168435.777
242837.875
224997.800
523901.372
529199.980
825222.644
1633203.317
1731491.451
2347439.326
4923681.789
4557582.032
4157374.862
9665963.867
13294061.732
13095906.235
14452976.496
15408134.579
14600607.341
33093389.890
30411197.616
44259622.785
88648323.962
183633843.820
194943294.755
253596818.029
263737259.886
256661773.284
273552046.740
589095985.412
779834592.374
1753233917.716
1730427135.558
1659922173.008
1605235752.916
1473756826.474
3232075453.307
3145801083.876
5037378548.254
5181702746.714
11944196913.307
15004162497.495
31656000800.999
49573336022.660
46046763686.552
107364822968.046
99537873171.420
212421606684.600
282644918684.239
304020913268.943
656173808628.420
685432453726.340
653299930473.767
630561833729.714
621581913109.580
583230991649.630
549802609262.548
495929101410.897
1155989279837.779
2326613365648.552
2171864512030.094
2319224398078.881
3224222946635.439
7052911047810.193
6586960137462.938
9791283895033.418
9515339842833.195
19183319784308.988
19292662088321.852
38912812611494.039
56844420306468.438
61343701842244.922
139226952808521.375
139245542862842.422
227940727296135.969
178042438562997.219
450667712099612.125
400212018034142.438
323776012885557.750
658783144042205.375
362930721552663.000
183333448796894.094
234503917122239.938
257234057875239.188
169985002846409.125
97861628794842.281
126478005423361.891
101463588951556.312
106095890648937.328
258337802049104.031
247426921037497.812
360330512003918.938
327204443137663.500
671665835985184.750
626855922891204.250
581628082631066.875
733524487732271.250
614273459232286.375
1526476144894365.750
2013076428377613.000
2703757575968775.000
2682383950813161.500
1431968351774621.500
1462070637926362.250
754320281470120.500
726449211085231.125
418302557618271.312
467242174929717.375
756646042223982.625
620180471300742.500
815996403873859.125
1012868246280957.875
2187795036064207.500
2686182874055176.500
2146487527357449.250
2226449995259312.750
4798819181163174.000
4652924619140658.000
4333711969251401.500
3434390820314850.500
7382292199000358.000
6444201286237590.000
8071923312592787.000
5996101131369862.000
14755069192527402.000
8334945644660358.000
10502865543304130.000
11564050556081022.000
28038340141155628.000
18676490981788932.000
21603287143186952.000
12478811319036930.000
13026912331228952.000
18868846810466108.000
51756053692664872.000
68087307566214056.000
76786566736273440.000
115800525340841808.000
66306335271654656.000
157849836021047008.000
118349042947768288.000
157717248053759296.000
137022296168339136.000
155666494366141248.000
200532333018100192.000
237494245220683328.000
503334444882932160.000
269841082157773056.000
239966200220838240.000
240855552021409920.000
132539498581465648.000
141789906753401776.000
218788653516732864.000
521379932543191552.000
829947771533407104.000
1154458389892172544.000
1149153546630422784.000
1197504344876143616.000
1562588660620564992.000
854183930641969280.000
1218588601407627776.000
2516884933377304576.000
3038342506370071552.000
2198524961999860992.000
5182128868031757312.000
2840451316239912960.000
4594379456554950656.000
2613543693214377472.000
5388370061917342720.000
2978731647840801792.000
2428479234704115200.000
2622585754909140992.000
1437251202094596352.000
1399819712807604736.000
1689834817244495616.000
1405325424721752832.000
1762412064489975296.000
1389016360366397696.000
1606519278174902784.000
1754134725345622272.000
1642727196337615104.000
1505841140345858304.000
869507005342500352.000
491739465337256960.000
401169595289871808.000
885198135334454272.000
494021678908943232.000
393487431569359552.000
367475247670311424.000
540009264915778880.000
888381119621920384.000
726232527804486656.000
718422618625869056.000
393770339059275264.000
395479382214203968.000
410082842448636736.000
220162688702656416.000
254500740594389696.000
298849249221159296.000
265331636112442464.000
301329613646768640.000
426065427794325568.000
942714502304013440.000
1280395638287264000.000
1302110888380982784.000
2069260795928226816.000
4347553130932307456.000
5680960703626443776.000
4673955576919701504.000
2585220478092521472.000
2070298266971129088.000
3084544730664945664.000
2246451460223335936.000
1274616275921132288.000
674017907002957056.000
1549060986365758976.000
899750555361825920.000
841900018911413888.000
870198785236461056.000
455749759400565248.000
402038359728491392.000
462310817315544064.000
513960033536412928.000
432757737711140096.000
504155111072182464.000
536472199616388608.000
283974956977531008.000
415251167641512576.000
530320484277122496.000
275837034750171328.000
162435594139624384.000
241917605930423264.000
390566744150332992.000
497889486002992128.000
386689197114760256.000
452368687386846656.000
359630253777845632.000
470736016743618560.000
741987612782295168.000
881641193767388288.000
755206151057314944.000
396849725200834048.000
488457721643966272.000
257857885032223552.000
147757490329521792.000
164076751898932352.000
133671835826768304.000
296641351642867008.000
206414292638512000.000
220508649045779520.000
540330565551077952.000
745571618180902784.000
401647600780734144.000
354859907098534720.000
209387716975511296.000
251889937651460672.000
273644617514992128.000
266530370764853376.000
238962301240107936.000
254533544797128608.000
198619917995479200.000
222971231536136864.000
295812437162972096.000
269587943278004800.000
227582935826229856.000
362738743569191616.000
496532495853428352.000
531322362971694272.000
298897395133464192.000
414985670766006720.000
241641131919145504.000
238766811738293056.000
240246685780920832.000
530985330518802176.000
299130420677574912.000
162341935698856160.000
119702708665710000.000
146948151548069184.000
132498705519639792.000
150908174696361248.000
140032088764358512.000
300625055915396480.000
295823645984445888.000
474430711272297408.000
391135865001733568.000
226040972300280256.000
226632708000234560.000
198198208759193792.000
198260158944384576.000
262228723352355008.000
137430849189089728.000
163342138808196384.000
265030213967318240.000
377244915024545664.000
962079260918911488.000
977661840898009600.000
1250120734810506240.000
642900100028294656.000
961296591419020800.000
728522813935604736.000
903037495132784512.000
497748567906384640.000
282658184064847776.000
217622129857528704.000
476673929705591168.000
391352287498056128.000
534242970509358656.000
418830248012601408.000
514393819118687936.000
673373172238676224.000
930369288030044800.000
517332567177462336.000
365202250277281216.000
748326321420443008.000
713040445642989568.000
935682125993528448.000
1411110879492817920.000
1443574845702976000.000
2163724576050495744.000
2371622687355241472.000
2804123977322288128.000
1678442407709779200.000
1308383132303457280.000
1657150909191337472.000
914791788253703808.000
1364392520045629696.000
3104151995559568896.000
2682692151769545216.000
3124225056051653632.000
3984006712588596736.000
9774381913347186688.000
8847088851292976128.000
4890371408905016320.000
3883717206481073152.000
5015630102845365248.000
5616500828757024768.000
3787339577395224576.000
2318072503067354112.000
2775274709172645376.000
1424601291453673728.000
1674010674998692608.000
2433781886150761472.000
1259675467836451840.000
1311405875218255872.000
2808135190314083840.000
2519339855516036608.000
3132221244557986816.000
2102770493389948416.000
2651633600141489152.000
3711187921211636736.000
2079712789805236992.000
1204596239532365312.000
1217308920209435136.000
1692545198930343168.000
2777907933665800192.000
1576030164210340096.000
2325104794945409024.000
4958883529828869120.000
5526524494087909376.000
5091432194732996608.000
3737952594887291904.000
4610550424249059840.000
3934684046369336320.000
2068812908775562240.000
2339158975856479232.000
1245128377531508992.000
651043058442453120.000
1579155094633722880.000
2133230716762710272.000
3140922088703438336.000
2902218411565218816.000
3059698612156688896.000
4523218921719091712.000
5064519385231291392.000
7916869942827143168.000
17653317144620437504.000
12134481669136494592.000
6966245067825809408.000
4129376950401859584.000
2238211266033494528.000
2092952783790218240.000
2790013146249810944.000
2998196671154313728.000
2390759633235857920.000
1234172949425309952.000
2951676489926277120.000
3724091627905959936.000
2290209374584517120.000
2406676740484240384.000
2999887462049741312.000
2776895940940677632.000
2140058237913243648.000
2995074916619596288.000
2479868563614087680.000
1237448965943860224.000
2881022735210371072.000
1639711727554305280.000
2216487698703497472.000
2679554358660701696.000
1405292458661398016.000
1713318209478671360.000
2514802852553069568.000
5530600786140008448.000
3783229367701145600.000
5177631550881695744.000
3130224330771062784.000
1658030684143511552.000
1353191307169837312.000
1590835274423454208.000
1242369071286699008.000
1458462801591924992.000
1415814239446327040.000
751224257651354624.000
424719144649134720.000
650297379308704896.000
748824797386475008.000
641959759077737984.000
1471081360486386432.000
1148183319375037056.000
1285894299082539264.000
1511392602798159872.000
1420184815280938496.000
1582131867517330944.000
1312133167448042496.000
1414417932213326336.000
718589545895340032.000
369271926967139904.000
517562331898675328.000
417861617971507264.000
239300457839636928.000
269471649811791360.000
154336295594792544.000
240673742198089408.000
208725456484498592.000
275118918788851904.000
160231410853759872.000
83075010431155088.000
167670571810594688.000
140951844449974112.000
228832393274887488.000
266871498403276416.000
149776597242051232.000
139320478418348624.000
150974110802287808.000
113851762815645168.000
128681046127477088.000
113584513851405984.000
65880448640539576.000
84098153933320144.000
66790226655686016.000
73109525157989488.000
150640469072947200.000
212545135974361696.000
295528487556269760.000
160997577262287712.000
231218409391817696.000
199042653682855744.000
114420143854502016.000
129598056960715824.000
263318154078684160.000
149759593183018272.000
118647561943693888.000
147549601916220960.000
204440999395244352.000
231997381832042752.000
480081709833879552.000
763577234027066752.000
398580666896743424.000
244754524791363200.000
199211124163350720.000
417666112781217728.000
405181431871107968.000
210251744912220000.000
124361785453272144.000
155673822003866688.000
90007345036119696.000
74290141732211776.000
165869068964122560.000
213075964822632416.000
494886840069849792.000
795787618525888128.000
483950245744335552.000
495942817683932800.000
295955593160323520.000
427076607023837376.000
506546584416618304.000
425587036886843328.000
653990376163290752.000
1506638693342209280.000
1305063747626451200.000
2720973752057048064.000
2998162143756140032.000
1707393100748665344.000
1560124651419663360.000
2282786054862977536.000
1236249838064843008.000
1363077850236601856.000
1678770712275709440.000
933989435742476672.000
1238437742933400064.000
639492366958046976.000
777199515564475904.000
937727035846730240.000
746138488623780992.000
850493197951775616.000
1231267200083328768.000
2578495982295171072.000
1295833424350194688.000
723214698648501248.000
824359015001304960.000
479908147203397824.000
665609186738261888.000
692819981410617728.000
728768871726537472.000
871683402270053376.000
513752238309930624.000
466527834969694208.000
383208811849873024.000
527057507346164352.000
486331028515992576.000
388469070308910144.000
981007784882994688.000
651585436759839360.000
741689028339711744.000
1593389538246816512.000
2272030452142361344.000
5710594912652986368.000
3969198591963571200.000
2406510703721286144.000
3820370230675355136.000
2183768797343752448.000
2116051735492791296.000
2978589169892015616.000
2439335052587897856.000
2840609621434957824.000
2980750649886026752.000
4386206020975031808.000
2241878260219846144.000
1331694288343013888.000
1537954583845161216.000
808311803900989440.000
1223044865933948672.000
3114677387496451584.000
3045055526309747712.000
2448826205877898752.000
1386367401546906112.000
796523439708889344.000
719644548253936768.000
813917690390818176.000
470552499317820352.000
479889241673389120.000
398877532384344000.000
542779799130479040.000
384212710204644288.000
978717058114505472.000
713408757579939456.000
795772647403498752.000
1219115032117860864.000
1606641411191402752.000
908196788926266496.000
1467928130013088768.000
1647036525507141120.000
1419668265017321728.000
716000442674403584.000
403843685349816640.000
488416162191033472.000
290184450565797120.000
449322593822706624.000
895142774847864576.000
487154193353597760.000
292698422883389632.000
439543099925788928.000
646428605050795008.000
1458301819803597312.000
814099857399473792.000
1178022428203812352.000
732871728106651008.000
889736024210612224.000
758139324855131136.000
399215149147882304.000
230527495559863776.000
515373856360985344.000
491406938737634880.000
726693307650512256.000
855315746099267968.000
729042604967367680.000
422563674803327104.000
252445262669087552.000
206917365840585824.000
114599137104557232.000
144390123200031520.000
111108256206304000.000
114299244504996192.000
165844204622552736.000
125874423508931952.000
289015630426281984.000
418659804672638464.000
522700053039770688.000
674611784519739648.000
374897037167404800.000
409555903581446656.000
238615107401384928.000
136006926297558544.000
70849344825253672.000
35218059726278908.000
20464628884951704.000
10783832777106982.000
28191107418670640.000
41916315443345544.000
24128356713120816.000
51740850800580664.000
42379394762879856.000
66813820140515304.000
63563943339574240.000
77848240687985264.000
70519625250486624.000
87451965275255664.000
76497241386395936.000
90533827471448320.000
110778313486880256.000
147236026279638944.000
124770067899287024.000
66911013793145568.000
36969185409815664.000
42696230133551176.000
22771566499684912.000
27958972103372052.000
22111638457305516.000
45449059196788408.000
39721589047683040.000
40593326269656768.000
89860867710976512.000
77369787191873984.000
44126374449954136.000
49831783338547480.000
47103848902137024.000
27926223572642788.000
41442535816633288.000
89695448979423504.000
81515681248023600.000
74295080191234384.000
83575692482369568.000
70171951380658664.000
66726829155420632.000
37239482864371800.000
90024748850506656.000
122146900864743984.000
118215402295673760.000
148618317134251488.000
198440107199784544.000
475095302552999040.000
249790449316524416.000
218253197688119872.000
130621420762696288.000
70537199807546408.000
88510023801524720.000
46333512417291136.000
23482683286015276.000
28610242182350280.000
26779401106992024.000
23229158113391408.000
20675177130843892.000
10397656722561690.000
21783357021955032.000
22766368863590804.000
13876961882595184.000
13730454435438264.000
11104876001235558.000
15335378306691586.000
22893079502276304.000
21504869686266436.000
12639825799633092.000
14076611331865580.000
12685371783162564.000
11748240283995848.000
5970487594773740.000
15328190274836704.000
8008002248699555.000
4213169633569271.500
4038689304629452.000
3858606720719848.000
2217749914670278.000
3358773758848011.000
4826771134464581.000
3684361440780052.500
4839820928336295.000
6289088022193483.000
13477328611381622.000
12085639987324340.000
26533776913076580.000
15910321605537964.000
13673238613087098.000
14380158180715626.000
12968332192403438.000
14414900836445022.000
8650037647369867.000
7405090196249499.000
3907301697463665.000
3251187884784412.000
6744186796535695.000
6784214858847836.000
6638993702839436.000
10509566881135540.000
28223258657699524.000
41277104288743056.000
85069716060850912.000
166985537190069664.000
138980961348461536.000
79804630767236496.000
114080653056998544.000
133056270944252384.000
162334340118666880.000
122307205418745264.000
294432504374761600.000
246247764538906016.000
492759144280393984.000
447004127284355072.000
524421531175723776.000
370952606790650880.000
425516538339279808.000
242431459618529120.000
293197370302521088.000
434606598418053184.000
699809990907132416.000
949864718048496000.000
1406453412442559232.000
1186358913400771840.000
1500510215863539456.000
801145378462449792.000
407828971486852672.000
416715912148444864.000
225471976134545600.000
138151471910817312.000
290652836741521600.000
212952795246162240.000
470118817257614784.000
726351531011570304.000
859037426439650048.000
638649294973555200.000
820325439483592320.000
1660828932542357248.000
887744002677163648.000
460013833705352704.000
422299292918328512.000
955266147695229696.000
839197199469911296.000
711609125797471232.000
666220473007616640.000
395497220425188608.000
214588661778664224.000
241945029384708512.000
533689821940399616.000
300210764504407872.000
419104997839036352.000
884456311772180096.000
787932935737555072.000
720312084881833472.000
766744320235906048.000
431692837941634432.000
428454726680528704.000
497548569029519616.000
280290314288808640.000
267798646675427968.000
210957714351168928.000
223981347916562720.000
478025562292277056.000
766449996687877888.000
397673146184840256.000
233871343128469120.000
118613089017344880.000
297186708101346816.000
486463252583891136.000
285197386708426976.000
156672154859254016.000
153830253566084160.000
158800319756484736.000
110251926833121104.000
254126982864726240.000
248830906820816896.000
231802698205978688.000
467275959618737088.000
491383680644273792.000
362904586135157568.000
199738799903467104.000
116037101181563936.000
151486388007437792.000
82953070173646544.000
61058402847623456.000
78855304414962976.000
90096017056705824.000
122221873339683360.000
138201189414012832.000
294963258999744192.000
151247304430304928.000
166325253438776768.000
153667473769474112.000
135626589235869360.000
142837874806589232.000
86221741329466800.000
47315084287010616.000
43998775879726488.000
62651227752749232.000
35700612385533036.000
51000769729435944.000
27996228796503812.000
22986798844239392.000
28864219460718516.000
20294443060841884.000
47417190095933584.000
28232132136389096.000
24499397113018100.000
27537844519331840.000
14824679570491084.000
11384484628197910.000
6377961336708848.000
7874782534507324.000
8876393182547979.000
4717678336169605.000
4214837123413005.000
4688184001317025.000
6735712895352757.000
8571468789979517.000
4934557121592747.000
3875096146877787.000
3211204174218702.500
1816220766365815.750
1079309379051209.750
596000081282804.375
1275593451680583.750
1322869668702200.750
2735609207937235.500
4250977475656572.000
3966264293693021.000
2026610089287474.750
2376074272483957.500
1256890233917393.250
1398826534190505.750
1275371594626457.000
1398558736158046.500
811877380399616.250
436400321996971.688
715981208325443.000
658552772901403.000
1014791759066262.625
1366309499116718.750
782984493178921.000
562502045981812.375
1276739357118640.750
1271190929876884.750
1936080758242046.500
2308059620621848.000
2021732176881444.500
4261941525563090.000
2286137499170250.000
1268162910460448.500
1515751683856437.750
1424931181880463.250
1450408230285387.750
2343189922834786.500
2455301637244275.000
1477133957911263.750
1525845526869178.250
2218176167779780.250
1126957521695874.000
1083203435015808.500
1334432053140041.750
785035712041862.875
1003388264074558.875
1093380991436038.750
2733916331701365.500
2050470489844932.000
2523673193141193.500
3498001532631145.000
3254658079938675.000
6924437686011223.000
7357520594564650.000
4215243004548428.000
2303648328266401.000
3233811354011312.500
7233659213821350.000
8189045207618710.000
8369283294475368.000
4769338729454554.000
6126012612340787.000
12841424442288790.000
6818776033052851.000
7345222418988035.000
4201601465741171.500
4644042577181048.000
3665902837396044.500
1984666974163125.750
1153029183419656.500
577417177122871.375
614873929762623.250
766419135612400.875
1231598078936482.750
750455792109036.750
1211810250592063.500
1919067144382234.750
4207042660936814.000
3886334133033876.000
3333292059471964.500
3399882893229849.500
4184536790606526.000
4522220836585667.000
3749596715061935.500
2264131504058031.000
2041108500238566.000
2391053695876390.500
4751779570332461.000
3871852858586737.000
2018134078813852.750
3230772986577649.500
3994008334048742.000
8389743889367625.000
6440393980712890.000
3952561443828709.500
4214237031295042.500
2142534256120110.750
2447839789012777.500
1383850561977335.250
1127110172186398.250
1077622653640547.250
585364974723241.500
330594791445608.250
783217930068862.875
1048875031098534.000
2594113662979182.000
1938121734445841.000
2152958444930615.500
2554007288255074.000
1912899963508632.250
4097514305935102.500
5874689927874406.000
7258552508436396.000
11110523465993274.000
13668210826978514.000
8090356126818689.000
4452276377232566.000
4670787978062784.000
7539979054649735.000
6335081622991720.000
14023619228186432.000
8498332540777718.000
4465627863924477.000
4754476321301191.000
4024321759987821.500
2105071643865394.500
3238235201450217.500
4487394519960956.000
2555516321855112.000
1864083542673490.000
2576694961364099.500
2676868261318487.000
3666471307070204.500
4639152643203387.000
7201805875299303.000
14684679044323196.000
7809368373464855.000
11071280457237818.000
22467660330892128.000
23474922128997504.000
26871399014053956.000
44175168602028416.000
41036130688550984.000
36730401315613552.000
34169316195428792.000
51653684624094480.000
78295228683622800.000
60438450512664216.000
84186629849266624.000
65832656372909096.000
80774909080110432.000
115900204624878832.000
156803771025523328.000
155002012080589504.000
208846696797790176.000
454008071378565824.000
507844202846667648.000
384238816784027392.000
228273057470918656.000
238942312484419360.000
226729771677812928.000
120402146016671248.000
156156900125816064.000
207592753849403104.000
504111875986104000.000
500003143581939968.000
300152027914668224.000
253133341052135648.000
517833743515079744.000
853117742057819648.000
842774080283347968.000
1724754769460373504.000
1415556084035631872.000
1200055982538054656.000
1186104103696067840.000
1442147253294702080.000
1249914519698138624.000
1643229422590423296.000
2645307749503796736.000
1587989756008306176.000
3177483517788004864.000
2310494519394591744.000
5435760412607204352.000
3006699507335822848.000
4319074252616607232.000
2396897473256773120.000
2821248711534821376.000
1437568648956529152.000
1687991512054149120.000
2276012917342406400.000
3068537898808373760.000
2062533307239721984.000
2518916509146192896.000
3013447915683105280.000
3023680281566424576.000
4361359541096034304.000
10201072175251470336.000
7115285222352155648.000
15021261448559910912.000
12297245040178612224.000
30948942443299545088.000
47634273428621279232.000
99484272549777063936.000
54139643807853510656.000
47364927870189322240.000
38992487278770708480.000
52605302929766465536.000
71964345441790107648.000
40753903726877122560.000
45594053192526618624.000
52284052485269839872.000
43873077993315270656.000
21915748493827104768.000
25842629779023605760.000
21624806048111636480.000
57611059241911320576.000
92843539232545275904.000
185735551380820492288.000
137611878266074120192.000
192766809631336333312.000
141418225895769489408.000
328881498628108582912.000
461217115004639838208.000
1081134835422599315456.000
981333613438519345152.000
1427155152514831613952.000
1893955098547776651264.000
1601830392315225047040.000
1686865634687226216448.000
920660082258848120832.000
1055374133685560147968.000
1437067762335676891136.000
884769837689169641472.000
1074031823645180559360.000
741453597808997433344.000
1114519779687257473024.000
1025214722378093953024.000
798922274032163749888.000
454652154903653908480.000
971880313248517718016.000
557383041393239719936.000
442560471752456536064.000
482319012908625297408.000
601828755387848851456.000
814015725458355781632.000
414305878469330206720.000
241385138255852830720.000
320690201854787190784.000
281686014388576845824.000
163214083359859015680.000
193994498827168710656.000
106182633653837709312.000
72613428658246287360.000
77853109546153197568.000
97773174169797672960.000
56758483584617766912.000
48218978392328200192.000
38956568624852533248.000
42991977723776540672.000
90593986320405118976.000
135356677619580731392.000
140645799181808893952.000
79506066230178349056.000
108106836988591144960.000
75858722926426161152.000
83860608381077110784.000
87225479928279793664.000
102476975501952073728.000
59245810737771462656.000
48128460588438233088.000
48014689632162766848.000
27823455474036314112.000
25103606007867908096.000
32344143889138913280.000
29679530677217251328.000
16605859345447784448.000
9985561946886537216.000
5403525940917597184.000
3050881254824463872.000
3024618585315256320.000
1570994205933006080.000
1200346015590887936.000
686430253922156928.000
1545900610848366336.000
1380753808049652224.000
2999228635898492928.000
2510897836661393408.000
3773462222793009664.000
5175001369346205696.000
4679092353893841920.000
2394641928760936960.000
3153985114364195840.000
1662166054118190336.000
1243184620198310144.000
2961242561366128640.000
2174640825749256448.000
2701964449399177216.000
2286725154332640000.000
1238937491758822656.000
1631451778771841024.000
1214026715474024448.000
744193602936928768.000
944141837295282688.000
917991702772140288.000
655502091631281920.000
385464744559999936.000
507694322902660288.000
279204223414049504.000
453088103325604096.000
518316521474229504.000
269839878532579360.000
198395226444610368.000
433915087669807232.000
265246278258859552.000
139450024963163728.000
158454808143735904.000
83232569560465728.000
71797877759620712.000
38149893329178568.000
19522652200317808.000
23969836586728292.000
14520043614475566.000
7529941429037846.000
8478043352773348.000
4922069296938108.000
4248686866751512.500
3578559654090427.500
4750714743669798.000
6009075040472053.000
13387701664057190.000
10824319745177772.000
13912054881636936.000
21039632646981948.000
28516941627176460.000
23935667464538500.000
20770114734368144.000
41948278780655872.000
25422183458232956.000
36863671078968576.000
45537004769597400.000
72499619996708880.000
42633261145438488.000
63915257958295088.000
38523167987136632.000
49537179588768592.000
61007069129583288.000
155141793893994720.000
92579782773025632.000
47819626771758704.000
65719117046619488.000
84388440233681360.000
113989339071078016.000
133031035295657312.000
201342196230039840.000
265662964903733280.000
250175170462538624.000
140640957499449808.000
118947860102065728.000
245218447129823264.000
211074155212839456.000
278359748078636640.000
386932954737348992.000
788312577147106816.000
438394764803389888.000
220950585504299008.000
483226173958678592.000
686964682511560320.000
420390127479578752.000
673727587608932992.000
849849689048265216.000
927944020351134976.000
1523447508180360448.000
1170713608297472512.000
1682535523060443648.000
2662654605382980096.000
2591598651925598208.000
2374632713644046848.000
5387346860852140032.000
7661264810150443008.000
16258206600842436608.000
16971065810355431424.000
8825367257980257280.000
12122070397980934144.000
15750115276856014848.000
9446162957316425728.000
8433993166350195712.000
4839585535589399552.000
2695626021018575360.000
2421587374113070080.000
1429303568573297152.000
1339897538656407296.000
707004768471732736.000
1642155408315842560.000
873964794088978304.000
506739975624903936.000
381119037248853312.000
207476026170376576.000
243844980722061728.000
388851931522644160.000
441668790290127552.000
515818576153329216.000
711060621180698752.000
406489166095637184.000
363000377569826304.000
456377848137785408.000
940651475629725184.000
533615206547052288.000
766221169951571840.000
431874922077086976.000
504713479410058688.000
510405616794474688.000
273803105425182336.000
155680851551639616.000
251236992011645664.000
354226577687087040.000
524144542546440256.000
800972408191923200.000
688737380768794880.000
1585817753037051904.000
2349540179447332864.000
2952766370831184384.000
4761875160238921728.000
5018118964705629184.000
2902918554773345280.000
4569632167241708544.000
5592794903823387648.000
3123837687702765056.000
2656654310180553728.000
1565040935425999360.000
1156857465563545344.000
1743678797855437824.000
1397471773617555712.000
815851377394595328.000
447582351345250496.000
378767891307724800.000
537692222249014592.000
298010621268101056.000
454128674220061184.000
231002977629332192.000
197492728938956992.000
258254396651182816.000
405449022357354496.000
513231763452453888.000
720174039222325632.000
870310274354898304.000
778899178361394560.000
858602505833263488.000
838159542071622784.000
1736867242818037248.000
919673774945677696.000
707300029309214336.000
867558513421206912.000
663965999591691392.000
386154146392380544.000
461715945264941696.000
457464476146773248.000
427296002170824064.000
248250236200622272.000
135532761795432000.000
82615788745127520.000
91096757292263152.000
64131296193260200.000
37295973368598504.000
84568518172272816.000
79194538563646704.000
68815691998251640.000
85039645330338752.000
134817343630021680.000
79271342346187456.000
91809271582180640.000
135887639287570944.000
114991513788890144.000
150203090424809696.000
90374864262066016.000
78558505530622960.000
111365775942957088.000
233084759791212160.000
133051563618245200.000
75253162865599616.000
61382584737170888.000
147316810570135392.000
230378690022459168.000
133420294504322352.000
151533587682598240.000
209781313464718272.000
283377695801657760.000
289217119702968384.000
373915177591180096.000
529871979802100096.000
786312577408677888.000
1219032047294395136.000
2824312773101684736.000
3099186364263657472.000
3039564430112856064.000
4170141694395429888.000
2084157991525032960.000
5236775230944261120.000
2963426750371510784.000
2705233854336436736.000
1384902993179540480.000
1673215390603654144.000
877138240203683456.000
944721609717521280.000
901154374847649664.000
481386024448503872.000
420144706578439168.000
377428925024247552.000
464482488317449600.000
635897085144756096.000
355113061062458112.000
733742725944864000.000
703782868907247360.000
1691166690605530368.000
920770648489017600.000
745500887937480576.000
962420622013914496.000
781802207194150656.000
436032882746091648.000
234813019811693376.000
264815493458373440.000
302071909069052736.000
251199331528352864.000
237149327984158144.000
252720498642829984.000
292638035429916160.000
255016858026968416.000
375788142934089152.000
429405192216947968.000
412720859819267328.000
229868745008739776.000
119254266232875280.000
155090135380854144.000
224918438733894656.000
487474440094746688.000
535586032131101376.000
281977576448001056.000
414536331466875264.000
243932528605381824.000
257895939727948224.000
140473732570792336.000
158425321440683072.000
122945368702492752.000
64256338399643088.000
75206685504511616.000
64887664793714352.000
38611705720055176.000
22980075239241736.000
51335506167119704.000
44959993859890072.000
46115523563604960.000
23634915163431756.000
20441888082845792.000
11943804540648002.000
19181421787206808.000
25915000833092344.000
24497852101201988.000
50092777020566288.000
69128401526641776.000
74744500111672848.000
70076583327374112.000
79725889772478928.000
90979762380901472.000
133586083206567680.000
68891082999461024.000
152032501802593152.000
137509490033073968.000
157517870742047392.000
81664349433968208.000
77742959606331104.000
42969041520820960.000
34638077974948912.000
40313721842727960.000
23888799716001080.000
25732415603197952.000
21388890090637892.000
11059859261888742.000
6611069252543917.000
10513277339286598.000
28475668099233960.000
15163339746937274.000
8237045917536883.000
6471533433432673.000
15248003214898488.000
12456940129189950.000
6253608642571326.000
3318419923644957.500
8487308972299731.000
7229047629009839.000
4005321354449125.500
2258519943041848.500
2628428496650736.500
1965171511776496.000
2386234248002126.500
2172929489238250.000
1151052625135428.750
2503908030317502.500
2253312911961667.500
2239004874352252.000
1868945900196065.500
2082041652138155.500
1838413127368851.750
1842839760939149.000
3757087511322698.000
3793483922323320.500
4034273203726623.000
2083875588022144.000
2091276981607544.250
1082594140116217.625
1309725595810639.500
1348395538663882.500
712463301700417.875
1150161781210140.750
598895005408173.500
563254211838583.000
331095307075439.500
389172162143895.438
329903114924772.938
811192559618789.250
1060934948389729.125
1278836305414723.250
667208718898335.375
564960798422327.625
619828122602737.375
665272304908968.125
335836337122399.938
181250045059306.344
103115876443244.922
118127419226938.672
116104185253417.953
173299055358876.969
425468399335846.750
316589932309240.625
182975816220992.375
252061362234304.125
175171851842343.000
458852565962442.812
357942752273795.562
367970927046838.125
381035819001951.375
349532745484109.562
430766479312776.000
391097450268632.750
615723932994770.500
364744247509810.625
183685119217506.688
405487857692465.250
425226856426978.375
361439858094579.625
433219567260634.750
582653310899798.125
1514181104410550.500
1000398400715404.625
1052169290770665.625
1418124597405451.250
723124551999733.500
746476235442360.250
561367177693754.500
334049478660088.000
819111270729872.000
1213014099580973.500
683816325207423.125
369811059613542.000
449864602300773.250
721085387247392.375
614425108121323.375
808250650725625.000
594755619206537.125
1468004816733678.250
1423036836021615.500
1508386583717773.750
1307167511451900.750
1161093897832960.500
2485663935841725.000
3446641096563973.000
2030488274185441.250
4107814491683811.500
8155757265723835.000
4803837683808848.000
3862439509221050.000
8022250744164259.000
11776181372761188.000
14503273883036732.000
13016481712386482.000
15140063263910312.000
15536317127230380.000
23719230400379212.000
20097147654966712.000
11227877312512546.000
10666682611960836.000
25077565770821920.000
21243112220018684.000
23875680128895264.000
20907919413538944.000
18731089347588832.000
19413608122919680.000
23326292196482912.000
12750503390417742.000
13568018126417522.000
7263918620286445.000
15678873306767544.000
12597090366284750.000
19196377554059280.000
28156398326915420.000
33705093959131752.000
35261000871595804.000
91394992243854416.000
121920697032421680.000
135097849338480432.000
119718270438487360.000
247676579148869536.000
247638465225037088.000
275910317627237760.000
429061957174152384.000
408894770326937344.000
975802966945724416.000
663774547344939520.000
807784794009264000.000
964744811457806080.000
532899042086989248.000
409211959783506688.000
940682648380283136.000
856416781508565120.000
1338840499992985600.000
2940726455286220288.000
3988973423336650752.000
4298277368212105728.000
8971038898222115840.000
10049041351631581184.000
15707093381025206272.000
8533064689278522368.000
6756663359531297792.000
7605922397609145344.000
18013063240314527744.000
15450841770606041088.000
13702662266721374208.000
8090054166972027904.000
9915738153428905984.000
9566242012969476096.000
9985776199880325120.000
14310060741909571584.000
7558944335564944384.000
4432955032654907904.000
5184603646389373952.000
10246620708217659392.000
15916309864871553024.000
9030187998206670848.000
12256857297446064128.000
7380938480076250112.000
9898901613738041344.000
8868383207815827456.000
10027733523271055360.000
5161393767802769408.000
6660318392452843520.000
9052456316867977216.000
8716994193643109376.000
12100105589738436608.000
13809363771992948736.000
31102695353179377664.000
25410906964181524480.000
15150306315063033856.000
16165293782133770240.000
17623552685640435712.000
10219494677971511296.000
6736071393574893568.000
10209820171568769024.000
7978115396583979008.000
4519588565746240000.000
2655210637913193984.000
2459982940294694912.000
2518537672979203072.000
2978425000797002240.000
1598273445864979968.000
1407125608155601408.000
1665918490534412032.000
2720661379855675392.000
2144547587541014784.000
3108470555373505024.000
2991494053710154752.000
1534848557035563776.000
1153831126836903936.000
1405771388742839552.000
854728965554992512.000
942542977500183552.000
673070494326805248.000
1461142705436128000.000
854853462498120064.000
695199159142333824.000
1723178098294945280.000
1637976156274697728.000
843064929102093184.000
670264568032529664.000
857531956146628480.000
762799092154883328.000
1578997871080938240.000
1551451053817219840.000
792093829809729664.000
1681501048239687168.000
1701299823858878976.000
2796937485024251904.000
3133228206861981696.000
2610676697270583808.000
1564054774711578112.000
1165741402410420736.000
1336841759460180480.000
1271921648060552192.000
1635657631656487680.000
980739733870633216.000
1508351986581345792.000
815164541274539392.000
650380694459213952.000
1635331949447366400.000
937023214298837120.000
690690348746821248.000
672771834020822912.000
814082057809335168.000
493692338926606848.000
354014118953739200.000
495025559356125120.000
505668201761497024.000
280360095622498144.000
253274330937949824.000
300040460155324352.000
256823263205970016.000
281718112699327104.000
199965512295827104.000
483824503393446656.000
280680223152888288.000
162960764217934880.000
86444104070386032.000
89921802414730736.000
66942933269186536.000
37265701547833776.000
19406426321207708.000
11721677341505662.000
14101958930234004.000
28588214116492832.000
14620741661038634.000
23118834566046172.000
36444808042130256.000
19889609274989664.000
45823659309571200.000
44720821717848728.000
23772616370769864.000
13675279908514096.000
14964741149903420.000
15580753742031076.000
12028880674074230.000
24853537551243764.000
12735390066051360.000
14755965430184850.000
11134354643084938.000
23980717253793228.000
12657772611192676.000
15056014329385626.000
19883273549793136.000
26005828222237640.000
15536028240917918.000
12112449695809662.000
6083717719098501.000
6156646736402266.000
15388571706822628.000
23237429046156932.000
35228774975846956.000
21809597967866100.000
12597368257577578.000
14269886181111148.000
18908484717798452.000
39889132357597344.000
40929100521995272.000
37017578870103008.000
21346636814194964.000
33659385675965052.000
46186221490678688.000
40345041889889344.000
34576098640312204.000
39773749738465696.000
23197788306378152.000
36256764542845872.000
34210028210797140.000
48746649195060896.000
25763265349932776.000
35966710110276808.000
22200903384322472.000
13207002278091082.000
7781702170134632.000
7525910455811693.000
4495292228815994.000
2444086751582791.500
2366356492414953.500
2496024086935022.500
2744830884477536.500
2051924232241171.500
2593570882927204.000
1460251394242384.250
2254821039912831.500
4547224564292964.000
3445814747322466.000
8500789531072555.000
4690295637188351.000
2517456294955729.000
2165155187128819.250
2361669521578143.000
1302576875351216.250
714067186914718.125
1437413125156249.000
796757697543479.750
1305831458529039.000
1519273224209908.750
1935335843700467.250
2717344897186207.000
2063362947733397.750
2168007097711828.500
1314034376394164.000
2727919830924386.500
2194636363624855.750
2020098908536613.750
1790025964012600.750
1079949730385360.500
2502048675081746.000
2662594864280571.000
2362334744330090.500
2124544484894329.500
1082111966268764.375
1417719115955504.000
767035483999798.875
838139398546584.250
1049875386449781.375
1160537631339872.000
1859760845413726.000
4306041985637400.500
3579804797359269.000
3666308069973612.500
8301008722202637.000
10406446496025556.000
12371512181847724.000
6564331039999261.000
14748214261978918.000
11352422067265362.000
15279133548127060.000
23560960414104252.000
12584142411887852.000
13863673470681156.000
27745154063630224.000
43098289434841024.000
21816035444286480.000
24017736397842556.000
12552878698240422.000
7166577166351353.000
7429467570996291.000
4478836870155727.000
3766332151731337.500
3204632234976951.500
8270537618652306.000
6806479298305177.000
8879967125377731.000
6617258922322373.000
7006763094871908.000
3515271742015640.500
7970761654273111.000
7688774105417332.000
6347785364713472.000
8144409327503721.000
6040058281263222.000
14729805160604872.000
23642564367736992.000
14199996550974590.000
11004580190589890.000
6708670465396976.000
6820831175866890.000
7141706194370748.000
7069806919375700.000
4234708924765184.000
3583567307997752.500
2073508414664045.500
2471834009286441.000
1423094284375898.500
1485502024498581.500
1042837599279265.250
1125312586305667.875
650419013621458.750
626869255418175.125
703232192410349.625
665417797638784.375
717944798382893.875
652503593591088.375
1016662789682612.375
2429966897507292.000
2385103123611395.000
4924194372752837.000
6524910960697787.000
3774375208866398.500
2170995536860412.500
1200890522146644.500
1148594691505056.000
596210146734839.375
324198593396185.625
190254202433513.906
105314428682826.547
214156607346951.875
329666225473219.688
184933418874889.906
176917895820469.969
195671685241761.594
412801256076813.500
226038587732748.969
362029579842588.062
196701321892249.688
119633408404022.766
145093050701456.750
116268992209755.062
59382917427177.438
130786286568362.250
205111105221533.531
252180611364096.344
223494198545145.062
231645584746725.062
175838306777820.500
362271270426823.750
405292094851302.875
417380357217535.500
227811872000540.750
124891595060754.938
121913391525559.125
72746133550812.891
73440199113758.578
62416337864695.031
78262930213723.219
80261723976650.922
64689485305475.508
54960747922106.297
79298781232440.719
98703792085396.188
119703001815178.828
68671586950852.266
41715363268366.508
42082656056300.703
29385119990943.688
16302862575788.400
21420704428694.008
18156397208481.910
18074965948877.531
38713114777175.758
22202133428642.613
16908552450172.322
18027204566311.402
19200450506735.832
39653478059135.008
62925935295495.617
58067366693289.742
63959009631735.039
34406434101087.957
44168785352081.789
31950511304833.844
43775046258645.039
24368013382675.664
13177603893038.693
18899118081968.895
42146348463120.672
23356531163934.336
31382309371512.328
16865798549600.570
9445308768772.016
5389256092440.081
7398205102473.237
3975300322418.952
6019329963133.446
6972862456243.942
7418101442298.402
10159991736438.109
24680578474663.055
22730786504998.582
34590587743178.777
39742185276660.781
80772565746646.391
73352235694480.016
70252791749350.594
106647946225299.781
54172231866047.367
139184448010411.219
170014551557107.031
438649290219510.688
312519743114534.062
673450651064125.625
725096757607567.875
1522096841781982.750
1016594123728756.500
1370839831612292.250
1376213122829474.250
820004058650515.875
565618799264079.875
1309254056880667.500
1234885103913475.000
1244334079568640.500
1308196331634497.250
2709562767214525.500
4169646630471379.500
5875982246410883.000
15896323839455092.000
13818531078480758.000
8236739590938241.000
11089874926600468.000
22741950250775004.000
47752876862141240.000
26639600610012716.000
39810532656273888.000
22298347782696188.000
33667272894319444.000
37098711455463072.000
51887820948379792.000
46541356892758328.000
61275312961105912.000
83910391605600288.000
48846144254033000.000
26754401475847576.000
15195304701110178.000
23511709664626544.000
28310873518983380.000
21783431387459024.000
25728148244426208.000
25812573393810500.000
40617134009099536.000
64117749169896480.000
160882433358847520.000
213203473736967104.000
494257952385608640.000
447348043730539776.000
499937637525737792.000
531441345906482816.000
455548865444962688.000
234719955413180768.000
132773601408253696.000
75999590333884032.000
63811949283241304.000
132109378708725568.000
196603787392687968.000
422844066521529856.000
226857438792243680.000
217394944461731936.000
108994024311750656.000
63000233331528184.000
69535782984570680.000
84056101826368992.000
109171078525324032.000
145012201162061856.000
236624733713044800.000
515809465565413504.000
449941596598959424.000
353547203243168640.000
963865374786003200.000
1252056173132250112.000
2991619115582057472.000
1534903927319884288.000
