32.189
34.127
75.938
75.076
80.702
115.218
124.320
260.900
385.628
788.277
729.419
1583.938
1509.330
1466.391
2337.641
4735.355
6831.805
6423.109
6825.946
6494.025
6238.327
13489.507
20885.482
47750.159
72156.181
78020.273
174072.784
256457.210
509340.032
752091.803
1797984.707
1663747.852
1605564.654
1659668.516
2323239.549
5007302.079
4816591.442
7427891.322
18930886.698
27332692.453
28529972.845
29575716.036
27779151.231
26647066.900
24396527.822
26224992.273
54695945.662
51147858.794
53980443.339
84722382.480
91908262.571
187066582.131
260571640.785
522292203.644
536018984.591
550404671.758
587086776.247
1157908481.200
1509824035.068
3035361827.494
6837333628.674
11201924864.835
16540076779.144
39378161674.609
39254466952.180
54705094906.914
127118298980.838
162706192238.579
367825384351.144
570215327748.382
561559058777.019
610524725208.922
949925208916.098
976651738408.415
997706487754.478
979509920347.822
1040560759790.081
2342421170067.488
3821954666021.715
8013269983919.594
7879788637065.701
10287239624164.141
9912793238620.848
9905298509552.490
22736108797526.648
46864940555685.023
75576328606092.234
112403760671479.953
120380772495884.625
131278223822635.781
138054710507589.594
144085759128264.562
151710225403072.094
184140255947880.875
380113340660199.250
353503695570059.500
845760763240468.750
1364737729840461.000
1293664922612921.500
2609044142216783.500
2498657398198685.500
3497132258344881.000
4521765921881066.000
6357497074799328.000
15155452550418560.000
12354384845781566.000
11789861851888364.000
16608197867873880.000
11158079857146638.000
14977658970464474.000
14792565318890690.000
7528263035240024.000
7736527705411825.000
15945995982927080.000
13330120226269932.000
16109030335266816.000
9055969621262346.000
8592064620456244.000
13300925074868646.000
12338601842645060.000
29320258405410916.000
21985153450622208.000
27533043108280188.000
14449504200958416.000
7499190984149578.000
16550800286550384.000
13452909038230714.000
16491128466838044.000
12926070641588534.000
7365564767907535.000
3872944495529042.500
8364257247271981.000
9106715898332888.000
11827853259426088.000
6402013030923068.000
9150633893283096.000
11598954574916664.000
16635869212378482.000
9258382993857880.000
7859116995577458.000
7527655410895695.000
6982981834786917.000
7270974642248839.000
15994526713804390.000
25268147251273684.000
25590482866450216.000
14391537504093100.000
14414338120071818.000
15638830751599770.000
8499883365928640.000
8416306023414358.000
4364960202502909.500
2448295381798004.500
2679418438994836.500
4401605646571608.000
4063937333079298.500
3932158691098318.000
4813858263660000.000
4288437318730975.500
2192979005857399.000
2856906405599325.500
2406046616579400.000
1350055612754000.750
1582571086979047.750
2485802870342324.500
1501666922316980.500
797301059000277.500
723229083479425.875
440766068996499.562
375173336880165.188
409508226543948.812
416342308444521.875
476463676495927.062
453076236569423.750
733958030376784.500
1121894485746474.875
1166569246559780.750
598579799380067.250
338046079519123.688
405983804337291.125
851989310323731.250
692562163155149.250
1456533104588638.750
1950896819499414.250
2707189321401136.000
1548663873244966.500
1097208064426190.000
1523383746643234.250
1545094106689266.500
2349580581557305.500
3461397259851473.000
7499762790742886.000
16646997391775914.000
8804010744187017.000
4999008790219467.000
6177886357824074.000
7832689322112825.000
4114693859128747.500
6589908132305271.000
8200841745039297.000
7539086205480642.000
6294538908043463.000
3639209948212048.500
1985348415139914.000
2300310127930339.000
1952850098326775.500
4269951149009818.500
2404509956694728.500
2642822248422345.000
2344796511614684.500
3424864607155550.000
7840062927617091.000
7775454506062573.000
7014857159993750.000
4196860985579666.500
2200662351738892.750
4832856455556703.000
4650595079019483.000
3427596942663169.500
7351192641322949.000
6251722501922725.000
7055185545825223.000
7849471465297239.000
11356004597218644.000
24196079877592320.000
27148850211054716.000
23280499154907684.000
12280325835032274.000
6759185609615478.000
6666214175085990.000
6630617042994883.000
9260419126025208.000
11319045639373334.000
14396394356953424.000
13222372498771376.000
16111096442663136.000
14279631542505406.000
12117482531094042.000
26182668853431516.000
22258243364528752.000
24317351866448172.000
22379231883657004.000
53516738368304768.000
37424136800833896.000
21761103008784336.000
21973830946662336.000
24336713062799040.000
36273611536140464.000
83113830684371552.000
78873457501356736.000
84604581411937152.000
79914605411513312.000
87281694608438704.000
73603388351424336.000
44988098538253608.000
41860195096696168.000
92149245180407104.000
70911404748769680.000
97239795399527264.000
140246435618133232.000
72787278019943472.000
36130975991259736.000
89563035124455328.000
79413626507746848.000
94443476883172768.000
143411642972018752.000
138847742577755456.000
82825140193663760.000
122811372783952000.000
72239001073825056.000
69802004890229144.000
170384202871829536.000
92383783003495568.000
145291407701862944.000
87462481261411856.000
48698976166430600.000
44823980338990584.000
91425637521064272.000
96629598164932240.000
80795218782939424.000
44355196850552776.000
53415653007780464.000
45586085626487112.000
39346899352458648.000
45573805164466216.000
49901871336721328.000
29575564488720796.000
27156237741504288.000
35907613369407348.000
41413896314857064.000
36850945983094720.000
44771992273231392.000
24368145357827076.000
25175737846718568.000
51341776335266888.000
45110109801295912.000
51615472409644424.000
48072499419120960.000
37681663257806592.000
50600581820250416.000
53673227190971152.000
37575095926966560.000
37706447876487768.000
81766724168746224.000
45574548025052584.000
37322621601356744.000
43436669528142184.000
92956659413211616.000
67840092651196096.000
83148410997802048.000
42049673392160312.000
21841126503348864.000
49050708500199256.000
26946694003923444.000
41820287575321752.000
66162157557693032.000
40675415167196096.000
43736323318132552.000
22754969750563020.000
20143638652719068.000
11855340273495812.000
13503355405188258.000
15368076297372462.000
11124108319449122.000
16533051176042396.000
11809397035644222.000
6295399308196551.000
14606966198896228.000
13466349148095548.000
29194187130525332.000
29008333806155004.000
15814073564685852.000
11569601020243046.000
6902584611292459.000
7477458438205122.000
6364572036330152.000
8174957841029324.000
6799605238374797.000
3572409270201087.000
4303209320376195.500
6172691385434688.000
12967983841850198.000
11068780931455240.000
6711345162688103.000
15614218557414768.000
20656187851242240.000
47253370885438448.000
41533412392502328.000
49215314322370752.000
71252177340244552.000
161238335176193600.000
170914092184690240.000
163496212226378720.000
92444835224500128.000
131636199715124800.000
264712227092740448.000
302960005354983936.000
222410808592361312.000
310171009780059456.000
281073340639170080.000
262662857114379168.000
400620216993482112.000
474541145388924992.000
275376568961230336.000
242067851616772608.000
147257895471795968.000
153820821616559328.000
215375254781442656.000
122227297433626960.000
287587923616171712.000
470834196119263296.000
280982708484588640.000
564353738749870656.000
430577554774448576.000
459779963011332672.000
434912025991054208.000
472523531038282240.000
424393368976998400.000
388549299694696512.000
444826641181640384.000
431425808974851776.000
237395567381196416.000
139060217217790288.000
84932242210761280.000
95734335778480080.000
120072027339871840.000
122483944602071360.000
150425249980477856.000
79727488554796064.000
66114147882468528.000
76655633862839296.000
42759666591189472.000
85981788068082992.000
81882994851919856.000
72250705273862944.000
84261703384143024.000
50299510765909896.000
53493801330468040.000
45568103434197224.000
51455213791328568.000
73145847644204352.000
38508893101401952.000
86997853650607008.000
44896245179364024.000
48488014578500104.000
37537119042027080.000
53906940461778416.000
28123544316992192.000
14310094059195036.000
8030095689320903.000
12726495131769048.000
13289551835006838.000
11262879506367778.000
29485311314547620.000
23374754833495304.000
11932970203418360.000
25007640919874356.000
52610145827241512.000
51206956330464312.000
26583536963387944.000
25245164512587264.000
21141907502727760.000
12621988564242252.000
14122302906690828.000
11767805022095450.000
6497546730400478.000
6772413654133010.000
3847773343742316.500
4045448654379816.000
5040580326622283.000
6182549197738902.000
14190151215355390.000
7957489531041654.000
11355392529961140.000
24513734779267988.000
13950252068150686.000
7757950522445931.000
6295188813212695.000
13398396455541574.000
16505970262735418.000
11132249035210884.000
15001948423497324.000
8166886064062467.000
7548042852539397.000
9051169106732346.000
7153523610431541.000
6390560258049921.000
3856180673503097.000
5108523308090889.000
4461210622042240.500
3535594325218490.500
7156026910028290.000
7876695100257380.000
7241271332653670.000
9169504048112252.000
8120406560295409.000
4622785655774968.000
2352935482297360.000
2110498530154943.000
2415211126295581.000
5062240091667965.000
3575854959451761.000
1926428159897259.750
1919878286546910.000
2685177738958267.000
3817951920202369.000
7872240680358852.000
4538894654825591.000
4594721234977447.000
2483004291880531.000
2040351553181523.250
2166029616009346.750
1310216039666721.500
740068470093115.000
1483094459957685.000
1533284722179996.750
2076031161643408.250
2746654175258758.500
4192366592544635.000
5132318235757960.000
7121253934700510.000
16521492961418234.000
21651805010904400.000
44440342947022168.000
25552724484665300.000
20358193343666464.000
50774999922170568.000
29265865539874464.000
46583388318784328.000
53420294377655168.000
28886545684766292.000
41177111396482088.000
25213139125658192.000
24881205676868408.000
29573736667099368.000
26309401399244760.000
39065581552690960.000
87379104922172240.000
64538980295598336.000
79608071923770096.000
46305974487375496.000
47573052063838120.000
26803851115724916.000
27159205525715784.000
39813654161069928.000
48466549123478096.000
38163486159967192.000
36760445005933224.000
40215592016644440.000
80410587333123008.000
43517358174400632.000
91421211502979200.000
70748282850928488.000
37676828509984672.000
51525024590685000.000
66338376200568448.000
83535980533159136.000
68111360440850568.000
151721618325182336.000
156941666909422688.000
156015379477505280.000
94216745778215136.000
126344317071818048.000
71113510145342896.000
84939095712196496.000
79783039421700000.000
163255407977342848.000
170646741086548512.000
167014812257537312.000
91231660123264704.000
76964518347233184.000
40633741317643704.000
85665479002088640.000
76933520119177664.000
91214568456880832.000
90961727687726528.000
146691496848650016.000
119934907500252752.000
164332727681403648.000
121368419024058272.000
136994545270131664.000
83183744179580144.000
90685778586567408.000
89189841190026864.000
76043854128744432.000
84925168838166608.000
69610646797087896.000
171833143126590912.000
130521869191948000.000
173118973562431296.000
96326898431601904.000
80244358476933312.000
126832626404968656.000
123429065924526992.000
159556332354960064.000
121351962955721920.000
297597995978065280.000
315921856612173440.000
210352424049271808.000
125079418965078192.000
149546214145596160.000
85023239403745248.000
119379481936036048.000
116521876348858960.000
169707595790821760.000
145308276030703584.000
130957246264080560.000
134011683031141792.000
125387257340451664.000
268358862838689504.000
140711073254921120.000
133406317601933072.000
285695872181196320.000
273298674119729888.000
216984674764226080.000
511641938630487936.000
402242273662048256.000
544918380748099776.000
467414652391499712.000
532950182173028608.000
456885168685894848.000
233561987927986464.000
270864207623234240.000
315616470982685248.000
493886778133439808.000
447408723242671104.000
253318265594283584.000
256314472826395680.000
142747924836370752.000
119356864932129344.000
314391390745608960.000
288666865460547776.000
471388332619065216.000
471923147386139392.000
534762846706515072.000
463091168152775680.000
537108023042423232.000
433770859678777600.000
539005827678868032.000
302234386621557760.000
487843253651565632.000
472922326030392192.000
741112255691212800.000
1602100372669034240.000
1434076465871654144.000
1643208007190934016.000
933272299924200832.000
1521906826738813952.000
1590387380374924800.000
945573977035946368.000
1235724524829265408.000
1743365013752956928.000
1568737979142460672.000
2281522963624065280.000
1232069329637916672.000
1556827115018717184.000
856210030721217280.000
468844339659206208.000
277702374159392096.000
550157776740584512.000
810465512743564032.000
830242206172237952.000
954798187605934848.000
1426211663153306624.000
1705533519646520832.000
2348618849595028480.000
1351199779105753344.000
3254135912211306496.000
4071968512902471168.000
10122303183575623680.000
8425768326095759360.000
8466646091415546880.000
9626787078215208960.000
5653012335556105216.000
3068368524005554176.000
4650865283410467840.000
4137856852700244480.000
2420966511336380928.000
1272728013597298432.000
702303387967667840.000
814297119124606592.000
1662729517367236864.000
1749105061436616192.000
2208243433131775744.000
1282412080950002432.000
1787967147877465344.000
1023729492206142208.000
530104718238133056.000
403656316172857344.000
455322926801988800.000
707115857465233024.000
432521934469519936.000
264728495748319968.000
379796208572489216.000
223720406688378336.000
263577437653677120.000
220253502850567552.000
458685487665796096.000
532877720331834816.000
699615489447548288.000
381921277836126272.000
805761063797392512.000
1009389332885202048.000
1351642014626603776.000
1820355798060358400.000
1614099129716178688.000
1416120511121724672.000
3184715019902084096.000
3309718755005852160.000
3031149376486291456.000
3122488570537911808.000
3174918270107755520.000
1815655492013859328.000
1796754888890830336.000
1324629462120383232.000
680899273840264960.000
386688160200972992.000
542465041023362880.000
389498730084002688.000
210546463047231136.000
118866247119412112.000
282913039890063136.000
315657096384167296.000
245648564314179360.000
128027821889024496.000
146718456260156736.000
132990791963638752.000
309028975611127296.000
430827961788186048.000
543599281588446144.000
481303251551424256.000
550604803603522752.000
285611628737085056.000
297854428413204992.000
168183891070949728.000
92142832159399856.000
52351460598532120.000
27068084384970576.000
14209330585500874.000
14254732651636524.000
8143769633723143.000
8212404611209880.000
9168552058318258.000
7077600461320046.000
8242903951682881.000
4389569676933783.500
9234970983126630.000
6436884918942798.000
13133438181919928.000
28089219344606372.000
24219517601088848.000
13605842762494908.000
15435312910755976.000
8798658703594148.000
8908130360372782.000
7367316488780152.000
7655715198693365.000
7399323935557566.000
15031098003158794.000
7907714166758043.000
4682545036893101.000
6706848123625858.000
3731195658212320.000
4462668834502854.500
3947438030783448.000
3491653900621403.000
8889888851659325.000
6509156362348946.000
3787991206592411.000
4564257384740272.000
2491450882728947.500
2316321113539874.000
1343321134993785.500
1351350298813166.250
2170905463223140.500
2779768822095643.500
2343052251272622.000
2564687703947313.000
3804231983936913.000
8370136565253695.000
6196472740902128.000
7362358475943821.000
7276462616461237.000
3691237430051918.500
3566931100226079.000
5125968087430252.000
7555524168920152.000
11587729777853526.000
6531880437219903.000
8546035113349924.000
7360871891416934.000
7435561406322616.000
11492001493424948.000
6804601192445615.000
16458499451044206.000
12404144987407176.000
6163974159201798.000
7371811142555497.000
6499771120046146.000
8589381982332491.000
8991500573669749.000
7581182634375151.000
4500097513042508.000
2349654009109382.500
2068360922525577.250
2793792289651402.500
1977968285075159.250
2849080016420260.500
2682961836994388.500
2047315095364222.750
1923294437565042.750
2024612338244483.500
5072352971447103.000
7330130873636208.000
3780080223012426.000
9118185355687818.000
14190072215356518.000
12401470610313790.000
7070683033908244.000
7738021814334765.000
11350322892873476.000
15298851731336852.000
8501075117499858.000
4769810078753947.000
6988954434660865.000
7858453618086759.000
11151029656719470.000
15545762532431116.000
13508774191507374.000
7098644177868442.000
4283636936733489.000
4954937588292711.000
7500273570582720.000
16550702367623292.000
21472844689669436.000
49330575866765648.000
75515452955660448.000
153138146810830048.000
241378341448301760.000
554660933075332096.000
743546846735051776.000
1506768857690611200.000
859906373318473472.000
478871401544749824.000
536546441475423936.000
536064359886603520.000
488019684109885440.000
265277044432287488.000
135695961529672432.000
120626179095923312.000
69845291278892712.000
77403607137146736.000
46448951042267376.000
67240173701965952.000
74990091243917712.000
95087444303805120.000
93538027032625024.000
128370484070525792.000
75830158858179856.000
74690621057409472.000
68408474042236408.000
41803214317923792.000
67170267829890000.000
38682687546805032.000
22663219895506812.000
12227168777071258.000
6234874692689444.000
7925025958486894.000
16636688564204228.000
11612258178047656.000
30094287022954216.000
29944667332986792.000
38830663977828488.000
95581788596743184.000
77133549801082608.000
95124632956511920.000
52408318769598304.000
53472419861119832.000
37077450103070944.000
49503178809283216.000
27442345544381760.000
15066321505942016.000
14015761452150204.000
22318536724673204.000
24390072423538220.000
14455990905597092.000
11129717933897348.000
16689678732703134.000
23525832566826084.000
21072889045282104.000
27073503865756628.000
26850009213964968.000
23922761875297968.000
53740254168500872.000
44996820829489232.000
23484685609981384.000
53681429914170056.000
46868339310200640.000
40088881308433296.000
22994018112960096.000
21970946978368172.000
28857043594882724.000
45360448624283880.000
41471575246663976.000
36531312296025624.000
44969886089211264.000
24976052953501392.000
27974029560738512.000
27375118662478560.000
24360864002931880.000
48426969425965368.000
44443526517617376.000
26391757557609192.000
13491837722236872.000
14598425396558822.000
11200555656367478.000
13495604024346846.000
16400070243799528.000
23951755360300380.000
50880483328025656.000
43868902217714896.000
36709197095438152.000
97247123072410128.000
129775940207763296.000
160271416117842464.000
130968180439362688.000
67962778378334512.000
88161788500764608.000
66724270006642216.000
171448280361344864.000
172603151078398208.000
130604684274858064.000
66128650411518336.000
75975079832645264.000
41774625973333800.000
47367553998323136.000
41263300712799440.000
50789325630457992.000
44117478940773288.000
23760353763042980.000
13313877129385638.000
16562993489411268.000
16205026912877244.000
21294602943376696.000
26441016154473284.000
25476028535161368.000
28038623985979148.000
41122870380264576.000
85665634465549056.000
68646687439660032.000
150644651552174176.000
140997818826510112.000
302704230916381952.000
173643524088732448.000
236975297819289088.000
136599108586308208.000
315695331653551808.000
222011849472945472.000
515576281020543104.000
680686498101197440.000
1493476973055676160.000
3117718582451805184.000
1680924483806934016.000
2552724625999949312.000
2341925245389142016.000
5627662071058951168.000
7260667801667831808.000
10254554222851567616.000
9351451650392700928.000
5270403848185583616.000
5792274892820697088.000
7620758346309125120.000
8566933269240273920.000
4551189547555871744.000
5620715631188243456.000
4270668022442869760.000
4011400325223358464.000
8315246106228521984.000
10475234915382439936.000
5758795202619849728.000
7167508222569468928.000
18710766062853320704.000
26047900087558983680.000
15494054372756695040.000
32922554160662695936.000
31880301735011287040.000
18849138052790108160.000
16957431104253788160.000
10077542811589722112.000
5374982149557866496.000
3025946124361947136.000
4245332678529545216.000
5474212947578394624.000
2825430760719903232.000
1502729128545786368.000
2272558875591941376.000
2557805165386675712.000
2942560038718032384.000
2419225420940728320.000
4876475585545254912.000
5114419308157422592.000
3090414895846978048.000
2214056612235275776.000
2212913815777137664.000
2967937032010649600.000
2342157495224580608.000
4937288991116370944.000
2696234943477019136.000
2930427534246425088.000
2483760071396593152.000
3192761181908341248.000
3127810920076974080.000
3299153386259148800.000
4812577753109356544.000
4475457362677986304.000
2683342596092700160.000
3238791732591859712.000
2775139274182433792.000
1478608122484430080.000
1800952017567876096.000
979406002384356352.000
866904957744338304.000
479033445028917440.000
266000887092117952.000
224229741294301728.000
304132492578617280.000
494280478846576256.000
414569909815499776.000
227563281560771872.000
275536122597557696.000
268356636643879872.000
294039512090034560.000
481794648028950272.000
263098179812722880.000
520678151190982208.000
302761210941658816.000
235340901579300672.000
122295866814129712.000
166509222251209344.000
258963204587222912.000
406098730381462336.000
226260047956924256.000
232481841747073248.000
142942967536098208.000
81110304177990384.000
166352659949078688.000
136703577614533168.000
175603590396974144.000
90201632036494688.000
66519521670422624.000
77630251627583680.000
174938214186975360.000
150015163971974688.000
148364402516330528.000
162542156133204896.000
160032924852000384.000
121566617762165712.000
72913313350258720.000
40992339013673784.000
50479108973611472.000
44110010402944016.000
53007883645365808.000
76186701271146688.000
42799728498315976.000
91202142843494160.000
53176668330819760.000
28274238083613060.000
16131987483179216.000
12484806145501638.000
12550506403218366.000
7046293163999403.000
3995339642312477.000
4689165897888387.000
7250865616350605.000
6405054632507634.000
9055560555483404.000
9170220647103196.000
4901482784486022.000
3704862760194278.500
4015076436703403.500
2022240068608610.750
2415446272582124.500
1417671745189241.500
2134065317638141.000
1896971636293191.500
4203519089941124.000
6695574154432614.000
8934353745036208.000
12037277274551206.000
27271915890743720.000
38006436612106400.000
50257104515378976.000
26210427972740000.000
38911849091008776.000
92010450967591760.000
69983341150537368.000
37523035878162184.000
22313381965255392.000
12962658298763374.000
7699140089403936.000
11812551399607026.000
27246941398563684.000
24271729290138316.000
35906839865286004.000
41332276249711632.000
48808573999994712.000
42528866035434312.000
46203728280870120.000
44138993159030760.000
39547366886271744.000
24356832919996960.000
26531265489318712.000
41852180305778456.000
46625738475374944.000
49861036691883040.000
48491861023907808.000
28720561223273148.000
16581321343536776.000
23650889776785064.000
26800080639084720.000
52783136852617168.000
27082426245986580.000
36717653847345328.000
94229635712040816.000
50129838952058736.000
25836985090845776.000
15486290962419918.000
8658589669061690.000
8260895924034201.000
4385726311079841.500
8687721288091160.000
4973863700084729.000
2599766658662130.000
3744529630443049.000
2270085580219613.500
4719108624181745.000
2759844638833095.000
3880441638172294.500
1981110251023957.000
1087318060615596.125
1414261293782237.250
1500708582490462.750
2043426008042553.250
4920982574391321.000
4836503932843553.000
2833422774168724.500
1519437106326163.000
885150503881170.250
1464535265664332.250
877791088050235.500
460420929184827.750
334811065015146.938
470563234622252.562
482711172459746.438
271780894929411.688
257496923047315.438
234591123470313.719
364925460740465.312
331973897119258.250
481884477572611.875
361765685113006.062
405132473511626.812
243459170880333.875
357830352146475.062
452344899107968.125
441907268861643.125
451697739302590.688
626367299603385.125
798677443343548.000
784992014913639.000
1227111704429184.500
1978414299348214.250
2432379180899937.000
2699002710199262.000
1587381157969070.250
1261663404757809.750
2825891339693947.500
4193628586532793.000
2324294914767793.000
3557955699851647.500
3776808477708966.500
4412186020088976.500
4076181683170511.500
3468523294521258.000
4383983752059179.000
3861230280733256.000
3414795420240945.500
4524746711730532.000
2684172916094003.000
1586522879040405.250
1286185869052934.000
667468185500628.125
609123638686623.375
704215046017684.750
605406158531850.000
695611749518753.375
1417833564775296.000
1359612635998180.000
2803988350166990.500
4215573158331597.500
2114779377705937.250
2667288389990989.500
1540801094225698.750
785835560800140.875
677094057972350.000
383635199543625.688
213360752709003.250
423995962201916.812
431475944390837.312
352211488208058.188
371830503658750.062
365110646160627.812
201782119398599.625
106945766201139.938
243644296082824.875
388833416870033.562
834910672871074.625
1059578085139442.750
1423916756356998.000
854298115467295.250
724113596409355.500
1121741799083728.500
1316867733366189.750
1471564112431976.250
1534932013246481.000
2131952977019472.000
2352312280689852.000
2417172928688734.500
4903268799447212.000
7479015255673024.000
4376474909839711.000
4179037240626312.500
3813635674209222.500
1939280221034779.750
2061687527913145.500
2581048885318280.500
3776611613745506.000
5142981791570993.000
8380625334431958.000
8294318037978196.000
9068397620065836.000
12827067385166804.000
7557819554406536.000
6423497178280822.000
16057966329244828.000
16119842258311664.000
20363174262863532.000
20428531344301500.000
25992902978688320.000
41483854555974216.000
40826777708559320.000
20736958710590052.000
12528555773420378.000
26114975511258516.000
39406534199717232.000
87372229510937168.000
72422746191218464.000
90756417839131392.000
92466951064054928.000
84521398166884256.000
68853516418164128.000
84714415870747936.000
78710514978181488.000
45795172058953504.000
38886900330304272.000
38660579336108920.000
83583828260630608.000
91432889872194496.000
48744803167970016.000
48783013996834512.000
28825819067269952.000
21927640825171484.000
11281852012732660.000
13717101921463718.000
21172361245537236.000
26435174706921312.000
28901539455978816.000
25744256200790568.000
36747721063835240.000
54093996133989256.000
80666089921258592.000
48116515725908208.000
95223336492088992.000
66079742085667152.000
90428148350758464.000
53974458273908152.000
36214393890104064.000
50995736753090800.000
48092045693127424.000
66503601192939672.000
93537082805034704.000
94776665009253504.000
90468519020652720.000
51999906463705488.000
38928547318835152.000
53876594042703056.000
29615305024249492.000
28419339255913504.000
22328317410270812.000
27040019714020792.000
53785390795053880.000
46561584616913672.000
96172419788509824.000
156614936110717280.000
134474018229016080.000
136785328518946384.000
135049643456720832.000
154106348727534336.000
166375290922482112.000
122408606846855184.000
123344258978182272.000
136701834081932448.000
146968793255307392.000
152594937762277760.000
135342097483297744.000
79465895827818592.000
45629853736780240.000
51786377107380968.000
44093861098750576.000
70704438313059520.000
90652304309833536.000
50698351318799112.000
28221906196526824.000
15573614578392922.000
25148960031471344.000
13543529768311818.000
30066941730292584.000
42248501404303552.000
21727695834818296.000
26527521414074772.000
41713702135341032.000
38566417125380432.000
83635949934256416.000
77324004872282912.000
69703462218743096.000
94584005226285488.000
66475016136809872.000
82468850526240544.000
46405621851760312.000
71766444256770272.000
41324739695618736.000
22943990987003888.000
49549761339164808.000
28785651155197672.000
26273019546004236.000
40743872020915808.000
23125475472669512.000
49189424657630392.000
38587777692190904.000
23143837327983724.000
51430836743003600.000
53916503499407960.000
87018583941292544.000
47186790236514840.000
52341065992956008.000
26959764704711800.000
14627552273840296.000
7694688846037190.000
15970418044830178.000
8568423187778155.000
6870074071323546.000
7761990833176908.000
12084503030979598.000
12219099936372898.000
13763015299264054.000
27244150244087572.000
22119420846164644.000
26110471114440420.000
38558544849244656.000
39008692555486824.000
91204627306310864.000
64773300075995352.000
165931832143504064.000
84563283895959456.000
70685360078695448.000
38563527369522848.000
48269807807613352.000
28746529612682696.000
20721672701767912.000
23781652143227884.000
12487267466653350.000
25893556581365988.000
28380435599391288.000
23527258230447184.000
29784388483640560.000
38246511916450136.000
52678748557002264.000
26962692058520932.000
29346034517567620.000
24766406688329628.000
29416695572199716.000
39959342420460600.000
42839926060398312.000
39417405673386192.000
24197102734948268.000
12700254989027720.000
12377711322816388.000
11766277979505032.000
14165528352596360.000
12162008282657202.000
14012863537729458.000
12454643150862482.000
15988801300273358.000
8750480622921400.000
7642284882298340.000
7612096300021342.000
11314420399364010.000
6434314788333383.000
15109731834168864.000
13375861702736078.000
20287171902959984.000
46013503295747624.000
69564668806728264.000
65998302954926376.000
39169140828981984.000
36136172015215752.000
38669774084200856.000
45837117092331336.000
53819370683431296.000
48668241525762216.000
36077324141574816.000
81280321457874096.000
127948753732463792.000
138459423509939040.000
120149226409618928.000
119575191760817104.000
157987020443915136.000
91495885795414096.000
88883309254683872.000
52073504015136088.000
40291240693903144.000
41961654338183184.000
22341094049903484.000
51433266497110728.000
53202560999388080.000
40090719635867272.000
24316344567137796.000
28538839640612796.000
37712742169103608.000
43477039203886072.000
96869399997229360.000
148977756342346912.000
171713565691243392.000
242162335823462816.000
284667226016707936.000
164717192722383200.000
211706368343800896.000
293912085733572480.000
221129963076781152.000
240405339569980480.000
313005929753180480.000
300792850840644672.000
260868725978168864.000
419701743284506880.000
217863447117432672.000
553690111692114880.000
885408873959924736.000
1252302360147117824.000
1555563875356424960.000
1587503974649377792.000
849616373733377280.000
752666274929993216.000
879368490425957760.000
1429019184422929152.000
1267175480802738432.000
1753534404830725632.000
1262138882676257280.000
678134437106033664.000
888066819152454272.000
843301489530333312.000
440352742871772928.000
233262796506654496.000
121979650337926128.000
312459626662442176.000
285546809722911904.000
285416773870364576.000
232580683869287584.000
495713583856799744.000
435470448816108672.000
225577703676278752.000
213858627361328096.000
239862375746504800.000
290800956121704576.000
157478409979059200.000
117347952177887360.000
158678211624847232.000
140050560618623488.000
153373389223371936.000
249828175678051040.000
136935589737095168.000
156150512056757088.000
87753135368246816.000
128019138390667408.000
274973055083879040.000
437094109418051840.000
891269176309197696.000
1752840149139665152.000
2748076970618884608.000
3145845575557009920.000
2266488215788781824.000
1281648833546392064.000
1557045244622404864.000
873219613547867520.000
881426023065954688.000
707309364752874752.000
1690983703862081792.000
1503456103458567168.000
1618410393160939776.000
1385417348333225728.000
783349487356578560.000
693475448983478400.000
934594995206676992.000
477634624989143872.000
512253180025503424.000
513759990296071104.000
842391834926082176.000
1248478396272544512.000
1621756395859873024.000
1276932153329374976.000
1726623072458889984.000
896248740175755904.000
996340253686704512.000
777496750507170048.000
714312742401833728.000
380142777351097344.000
384615331124265920.000
443036160401658112.000
974854465742737920.000
988498424209532416.000
1545768885376640256.000
826395315986137728.000
1228823235357464832.000
2666540337408680448.000
1567872722975804672.000
1703599187345205760.000
1301965421108964608.000
3208144247227292672.000
1804732785969377792.000
1218683604389754368.000
707910053865150976.000
428137624477976768.000
261513910754692640.000
298172271996589248.000
260580392854301440.000
235105719071243712.000
232624852339245888.000
132523750216864976.000
116183440652805232.000
158112164292998272.000
310412528130123520.000
233036735445784704.000
241948362524380992.000
131943913424916736.000
148820691356041472.000
137975744802727392.000
69429336920701200.000
92146274886994944.000
72945552776498848.000
38805716291332984.000
39540221200549336.000
97596120879132816.000
74696602830919728.000
37502499958428576.000
21789289318835428.000
12110297782283712.000
16117543916753484.000
13914329525074858.000
13248019272516922.000
14704744205200588.000
21448977705962744.000
21172318521051876.000
48086375990568688.000
75759091313305040.000
65120545176782744.000
77175414285483504.000
162572809936583328.000
142497342344601856.000
118102594096926160.000
136903169370094768.000
276693919031659616.000
447409352236478848.000
553023227018582080.000
400759271370248000.000
410757539540914048.000
562897807650421632.000
302921740986166016.000
269072744539579616.000
384960795780597312.000
236625529897097280.000
564803257103029824.000
389053399270164160.000
816015801169481088.000
478847132825646400.000
567385788109917696.000
472805411501360256.000
378603774302426624.000
465802997869352832.000
269762018617322720.000
225454874382578048.000
281032581800949888.000
296736977034949120.000
157274167418483936.000
245648613259447968.000
536509967370726912.000
301834994426178560.000
166224184814034752.000
118195328205945264.000
252816298156376416.000
297653059786792320.000
377458117189304384.000
549280604196208320.000
379964073227822592.000
771380751043268352.000
1775178790871394816.000
2733493659849914880.000
1544091387642931200.000
824514670821878784.000
423937430369428608.000
569288988899639808.000
292881137219157504.000
434087073568298304.000
253136004040451680.000
152099529722083104.000
312103816514687616.000
383903727345813696.000
798264333152550528.000
456581075983557312.000
504085469911413248.000
711129652519776256.000
440088376865038080.000
446587350993745984.000
395731688381101568.000
467816645987350272.000
452608027909062592.000
411992784765906368.000
513482222797887296.000
310326863182739264.000
439547421668637568.000
222676096499340352.000
498879609425092544.000
762838553905233408.000
1704798741151491328.000
1473819721135348736.000
767351793359742208.000
1007065484833969280.000
1500931494477664512.000
1641111641223681792.000
1451276280127226368.000
1831548922987073280.000
1391733177456733440.000
1717540510781334528.000
2328201301631403008.000
5615466766659696640.000
4941130358300151808.000
5176710739957390336.000
4720457695743223808.000
2542640473341341184.000
1544727289535927808.000
1640573779339644160.000
2417991885108575232.000
1234165817171493632.000
1820911834358760192.000
2319348953716861440.000
5276410321043852288.000
8633687586750191616.000
7207667737369723904.000
4090508833637725184.000
4497993437746946560.000
5094347844777477120.000
2717325782962372608.000
5725099388491036672.000
5136271927309271040.000
3010363861944638464.000
1635977405908536576.000
1415354176645974272.000
807984241512003968.000
409424138821647168.000
516114111032777536.000
306852754051358016.000
228340235487456672.000
272207539735857280.000
152445163248812832.000
120767390535239104.000
243453806157861312.000
278927715782446464.000
396966384298415040.000
240993848577519296.000
301088085619478208.000
313170564539768128.000
231023727603955712.000
120576026071888624.000
135072818402532448.000
271908927433656928.000
314656105294737920.000
270393482437554432.000
296540951837817152.000
251227283289623232.000
233662543881217024.000
295136253429876928.000
260847317342982464.000
525143491880484352.000
753447016707503488.000
953375016322845824.000
486155611170429696.000
761186942886800256.000
803630758421876736.000
403951638859612800.000
509976955437692224.000
558050620607316672.000
443964850370684544.000
254155252649130048.000
309897468072395840.000
247631775615366112.000
141703923879562720.000
168845933958867584.000
228353956825788768.000
247042880057645696.000
391365457831906432.000
549477423148413312.000
854856428709586816.000
472726824778816256.000
469432313988493632.000
998642309136991104.000
739756078660637056.000
906873449804246400.000
992167150514722688.000
977937613655739392.000
500714002701622528.000
285771350507709376.000
423422295835524992.000
964747382621471360.000
560145792591485120.000
385797877805476032.000
933267781419950208.000
1383755957111899904.000
1750151289830770944.000
2222750649231945216.000
1335296922987437056.000
3181785576053017088.000
2303450012703427840.000
1311787231991180544.000
1741013891332218368.000
1278161314044378112.000
2668685683909324288.000
2373193201907464704.000
1257741222600659200.000
1301618851987076096.000
703897585522437120.000
879291082047861120.000
709969147663062272.000
965235319173215616.000
841789133267726720.000
1001043934294120320.000
734740428386482048.000
708062437854366976.000
780670417447311104.000
1554088457603770368.000
2348878286222310912.000
4787092871290125312.000
5736018755480244224.000
5482563215466685440.000
4400214741643731968.000
2312058174687764992.000
1430744440083908352.000
727969583479976704.000
850332320400159616.000
870051931094540928.000
1797223838379299840.000
1523688958181075456.000
1640324383656098304.000
965244572996742784.000
865543701308794752.000
1331643901479463424.000
1389012009624872960.000
756792819101218176.000
822817421441235072.000
1791110803479838720.000
1596280043977836288.000
2502790459578326016.000
2822711026002345984.000
1695675313985191680.000
2628160915931782144.000
2266000729695487232.000
3239425309719270912.000
1832747775316925696.000
1598415359299570944.000
1550279540211379712.000
1698745529847320576.000
1592438908484979712.000
1751855336572487936.000
2607396800926548480.000
1358929802354392320.000
1684016480628176640.000
1232712825694718208.000
736273793459954048.000
387728740211943552.000
517124776794533632.000
526636449284847552.000
314722592780308608.000
168072095873971232.000
142221882922407648.000
168739223087191200.000
124996002191162512.000
296292828477498368.000
210994044412582688.000
499948822000369344.000
476990491959043328.000
251374931414981280.000
140570336900142176.000
122864279561973888.000
301511439482238080.000
162318306680742432.000
124459328437965360.000
134224186892594400.000
161568119502764992.000
130864388890790544.000
307092359827677440.000
220853476747805344.000
309563439927573376.000
257464347745564448.000
281281286048823072.000
554546487626149120.000
501268148207912576.000
297315352484910784.000
224628132923562752.000
123805313918420896.000
117570001734304976.000
310365545287208192.000
315936105458000384.000
217686249231453600.000
251032445529691136.000
529839143389095360.000
451369713870802688.000
405355727295079424.000
508827817662277248.000
385095954770444992.000
236691059805680160.000
214313114228496608.000
116410019371807376.000
138159072651814048.000
216536223281814464.000
246209676542509888.000
208180464341668800.000
272749360020129920.000
221605752488969408.000
216104159097387520.000
527574681081421504.000
766644541660435712.000
972887738602218624.000
534085094067320256.000
421289342619363136.000
506195105298803712.000
259632000300596320.000
214384315212314976.000
210578525086778976.000
540867652337653504.000
415757305662403968.000
222088301136270112.000
131075826292610128.000
67505569701055648.000
66487982277488600.000
81898419073772432.000
79171424443447664.000
167115519483652224.000
267268803615813664.000
240728314279863328.000
479423100024438400.000
289772022540390272.000
162505270694531424.000
260671267641636768.000
529529970086214208.000
463684841921024448.000
269568490284875456.000
265323712181682592.000
353280519064665728.000
398802568688218432.000
212782089182046336.000
112088173266260080.000
136448806868264912.000
75753547411677216.000
158957976605124992.000
87904079386539952.000
71262862388080040.000
84230350992179808.000
110665252295378864.000
64515257920257216.000
131747707384150816.000
71700179232564000.000
114877400307101216.000
68929773678751016.000
85957512284950800.000
91284556610307648.000
69365954865832256.000
85179807942712352.000
81001784850333280.000
80929676305876880.000
93153722092611104.000
108758182856643808.000
222925130229663616.000
544364280943732224.000
301150578659356736.000
159465605383898368.000
136769586872924704.000
76120698782106816.000
86169095622194592.000
63325453616230056.000
133649883338366992.000
205889762063783424.000
214449242957250816.000
112585177820499488.000
68200336884624672.000
60783939076782432.000
80851869535949088.000
77896463463586304.000
63943153110434328.000
84895358053462560.000
51236376571529840.000
26944783685674100.000
14767042314349748.000
12658381518175950.000
13955958025728764.000
8208678804785707.000
5784247421431419.000
6449284345357921.000
7317560021569231.000
15713753399010754.000
20639389450107824.000
27731687987367472.000
42555139105270368.000
33608753355766608.000
47861681386287264.000
36891210847606008.000
50703355365317480.000
28290591878153456.000
21435448844252920.000
27583090748711844.000
40581185915850128.000
37004301540607736.000
75581503671763968.000
41195144603915328.000
47858801088664704.000
27599425490589496.000
21381585784537380.000
11241044472872670.000
15651932030993862.000
15669275518619844.000
11537500238773506.000
6662204286077496.000
7688910785357949.000
7480599841191286.000
4483287949143969.000
2372235581176002.500
3256814250621304.500
2036490515539131.250
4622592757281831.000
3963243283018511.500
2372924541026636.500
2403312136372236.500
3745878929490392.500
8772867602610898.000
8367886259287197.000
4538523638125090.000
4437464955222839.500
3261999923119649.000
3779971815533389.500
4802694780336816.000
3995026141467486.500
8388436605667330.000
8641179584160666.000
4715717244080973.000
2519746411148604.000
1422652234336047.750
2093068749246843.750
2243436224500970.250
1237847206507011.750
2637702618788596.500
3203922972911334.000
7635125484797398.000
6125508321976482.000
15617750060031952.000
13426205639717284.000
28467373304509344.000
14930278064715058.000
11617644390667918.000
14529901063929108.000
23091472913204812.000
11820730783811318.000
11574104780423808.000
6787113575746648.000
6166946602541947.000
3804920537284575.000
3789409953980871.500
1952564963138591.000
2722039618268007.000
3535889970375558.000
3279298679876513.000
4876242692666529.000
3951059932096074.500
1980863490963246.250
1119865664845288.625
1147198143524569.000
1238276985287496.000
1513426314277816.250
1461235949317000.000
1024121638542098.250
1348268596659755.500
1155354474314227.750
1387493558360122.750
1416094462833733.500
1495583781862548.500
2389131519495793.500
2246774135906252.250
1322367652098395.000
1782711140466516.250
2725030209682294.000
1502125095373684.000
2257546459680067.500
2362065927959597.000
2557542627749073.500
1347542961447925.750
1262506836231255.500
2714723505454953.000
2320181226849057.500
2310553852141871.000
1176516308568542.500
1018935250160924.250
1508937491471239.750
1331268696355906.750
721100167799178.000
848356791936397.375
593194914803921.875
706609101150088.500
626269643637667.625
654744607619544.625
557786092056705.250
344037320402355.688
452292382158442.688
469573636022525.500
261243299172731.125
382869252776842.562
