29.274
72.415
117.812
115.439
172.459
404.382
378.149
798.442
1096.058
2700.643
3918.702
7818.891
10508.324
25512.761
39353.834
79717.734
82570.796
123070.549
264827.819
269658.647
357980.048
820023.982
1701930.051
1624751.162
1739746.313
2508775.842
3768686.497
7993169.087
7904396.056
8312073.618
12868947.767
12425565.641
30176741.573
29442473.256
29580925.062
58188116.195
84401011.379
173971645.235
170549463.621
243262007.195
256507698.028
557226676.893
753106865.139
1608293172.719
3624668815.472
3646267662.582
4328571254.650
8795918042.354
20492510831.343
19917327507.324
29598426092.758
64531465831.093
91074553659.808
200435157884.176
304488034022.957
322081588935.447
332894366470.325
336551439307.004
343592171645.093
363598423192.084
367175519426.950
487979402915.931
1255861541542.688
1722049095482.088
3837647586531.661
5991968033440.886
12829210819283.203
12665505559394.137
12096086283976.670
11477543919403.916
16772677359227.801
42877525347924.727
63416701875074.117
60797351013405.516
133305144162352.625
208866032010478.656
442471450239505.500
716543180745944.875
675062874563147.750
1513930341021698.500
1778320474449006.750
3688284743564742.000
3752935226292536.500
3533649526990793.000
7896513538070851.000
12089701582066480.000
11218022721034928.000
24224041164766728.000
26447633279764248.000
27415776905693124.000
43694461954641776.000
43009243856951160.000
39700639092090392.000
87621664608689024.000
120990425879722416.000
256180117143093440.000
515019240144995328.000
833498597631610880.000
1167533193246282240.000
2604751920456296960.000
2641492784686989824.000
1418412474144718592.000
1256820063947430144.000
2763648252239994368.000
1597834134303618048.000
1427213956871237376.000
3051028585989349888.000
2205945826679902976.000
2462720355476276736.000
1301940865609460736.000
760378810181755520.000
918188066854879616.000
829207143381713664.000
443887519314010048.000
525422809507700992.000
439525669423278912.000
451236836302351552.000
353941949088908160.000
197784415467865280.000
449953449623637504.000
527586638683766208.000
435464824180070528.000
542017732056256064.000
510863767553387520.000
499776574179395712.000
455536806429568896.000
540122342198564544.000
280191319406951392.000
300553620209750720.000
471969041886825088.000
531573862470527936.000
795747107117964160.000
901874030138750208.000
865364993443177984.000
1736781937623335424.000
1286564155339746304.000
662270106380608896.000
399943168882650304.000
397677023654932288.000
243159709503545472.000
520511289854016640.000
395403077909481216.000
234165616716839456.000
259904340636892064.000
224746848153104448.000
221897534853880288.000
292539182910389376.000
247313442412977408.000
221258317556856320.000
506061003426386560.000
420531327211501632.000
214550035209842976.000
292558521310886656.000
155030711472634304.000
88678416748092496.000
126488083068891120.000
261502793826056128.000
398016670562668736.000
359320280359426176.000
368540298561065280.000
927977440976074880.000
518357621751639232.000
383893979613409856.000
528218199452605120.000
440049559940996032.000
520526852421576192.000
280482616211628512.000
401723624641221312.000
871811367761721216.000
1217472836677917440.000
1424994106765237760.000
1258818739889467136.000
1642203318918074368.000
2596879449647256576.000
1310296591683849728.000
1620480706113680384.000
843426621228506112.000
650261572293483392.000
679744971538117248.000
804887269460988800.000
693984007410729728.000
812541504394739712.000
834729414824805376.000
804294564751376512.000
472154268178397760.000
279904525890499488.000
381253969037893632.000
209005735356626720.000
517038454719856640.000
703612515363408768.000
366902633489017536.000
392988684609930752.000
414414535263213376.000
249760514918396512.000
215944120689601728.000
260556619898686816.000
230729083776295968.000
199162223579507232.000
114463401134771040.000
136162205687846688.000
144129668403730784.000
291133492944697280.000
153533646473920800.000
108960902088647648.000
113533654633034320.000
70314409713475512.000
90364277382119808.000
67494238537456688.000
40431606858384728.000
83021883080441680.000
90253655778155040.000
61122822181405128.000
78117663004270720.000
80261682817929648.000
71837288536858032.000
61984173348657848.000
164914844765614752.000
110089100986712752.000
265525593597218784.000
298905000595092672.000
223840594970754272.000
251871331691739424.000
287092186536559104.000
360804313564831104.000
383800961026037824.000
205091970687080992.000
264844148835372608.000
262525443780537856.000
414504510622441280.000
460039900166710592.000
247548072492017376.000
276678861339724768.000
228140089942938432.000
523460989271497408.000
290309096849999040.000
196093391761604352.000
409330642611644160.000
643608774439172736.000
1602940546423147264.000
2360728659796065280.000
1220455739618618624.000
1725292172248646400.000
2604666368332056064.000
1418406323875179776.000
1680893068545777408.000
1664966917604740864.000
1470686079229372672.000
1276011691659328768.000
1612925358673687552.000
1173748194058841856.000
1570984058608386560.000
2242119086600557056.000
2788799777059187712.000
4132403263702988288.000
9418183067848658944.000
10278043597289656320.000
7827256553567802368.000
4446612506905375232.000
8859299917582978048.000
9222644192907020288.000
4740961376854828032.000
9906280678663854080.000
8998283949298584576.000
8083925763292710912.000
7021818603456525312.000
3764786682723779584.000
8293929694908300288.000
9641829658838294528.000
6893420997102302208.000
4189046918063122944.000
4942818779097356288.000
5483278144919021568.000
3011820048954129920.000
1691930220823558400.000
2075212881434339328.000
2717575867749541888.000
2666032874127413248.000
2250560395932246784.000
2479410506260163072.000
2215815015758349824.000
1346454170295718656.000
1537508114115162112.000
1420937502766795264.000
1306623617210840320.000
2915176153674547200.000
2673965746035318272.000
2269120635473539328.000
5099511750909788160.000
3010440332627103744.000
1641636473984380672.000
2610609700679371776.000
2841730471120424960.000
4325558134431183872.000
9974820751283918848.000
7762199334808179712.000
4202064369236948992.000
2102887973610666240.000
3118119595874967040.000
4070909203247643648.000
5270724576673474560.000
8555720577062273024.000
7467720024396849152.000
7971861372029251584.000
8843736855473035264.000
9472653577381027840.000
13772279351741804544.000
7421670259183076352.000
4347297853182403072.000
4580721180859791872.000
3798947790774388736.000
8545990243963205632.000
7679253072723098624.000
9684520146210041856.000
14272985901657262080.000
12554142251257053184.000
15982513463379578880.000
18210917891987996672.000
12991505385237143552.000
16139010951745904640.000
9524951025868150784.000
7094268573852186624.000
9148451970837731328.000
5216154368341831680.000
2861463383843851776.000
4566866494816245760.000
10015759413589540864.000
5184081999103725568.000
10204909726238547968.000
7704617701327092736.000
10152926757860270080.000
16510542501773027328.000
12657516503563462656.000
7287533579020898304.000
3851330648887673344.000
8873147885031048192.000
10299954991727986688.000
8131153822236650496.000
10255673311207864320.000
7646183582301977600.000
9601153103837184000.000
9915214219363135488.000
8566204498536082432.000
4820486721381293056.000
10229794516686772224.000
7181188756015865856.000
16737167328252782592.000
18326561876787986432.000
9968114632029534208.000
8171938018842129408.000
4596770875497298432.000
5338688561676063744.000
4103975783120614400.000
5176572310941815808.000
2923967717658599936.000
2608938484189003776.000
1355632120614669568.000
827896359120248960.000
1207618352115256320.000
1438639443736586240.000
1562198985802947840.000
1444997226969242624.000
828427079842592640.000
468224682618786304.000
278705089389868832.000
156258932500615200.000
164434132068020448.000
87708388292529216.000
65826824293423272.000
75900263273305008.000
122340577069049776.000
65367836560888432.000
76699733751290608.000
158227956929137792.000
159268749848740608.000
126203480762242624.000
150317776101545056.000
201353000362196544.000
266539704718838464.000
429143499473695552.000
254754785957279744.000
368132839054532928.000
471916951229753280.000
943550608473182208.000
1177692782811140608.000
1503067524615664896.000
3166460582248446976.000
2811166568537047552.000
2426862035749646848.000
5650936034023172096.000
7717442761587335168.000
4496660497146575360.000
4318108658322958848.000
3790912582926253568.000
5409343699960018944.000
3083366009780274176.000
3800809675374523904.000
9280581057022785536.000
7198796754379078656.000
3799504985120205824.000
2146118387641989120.000
2542333099725283840.000
2806342371430649344.000
3737910032803260416.000
4957279145686026240.000
7234167132487251968.000
9822963796463734784.000
9333991221910640640.000
15069106885700456448.000
31411662886675329024.000
26909005598372376576.000
23060506569879130112.000
13540129852892999680.000
7401956307595101184.000
8466151995985558528.000
9636365764715157504.000
7942471396655199232.000
10227876950902679552.000
9323615819424253952.000
5293321071194707968.000
7098594467384997888.000
9072883302486368256.000
4582988689470049280.000
4818639390246791168.000
7614205318188493824.000
8719594244034761728.000
7703715594434061312.000
7776401059580468224.000
3926039138584851968.000
4397152707301801984.000
2480747234772117504.000
1289033130286860800.000
1430978813357433856.000
1511152752241433344.000
1423670531360438016.000
753005107615514880.000
867395489477025408.000
762994001986842112.000
673705617065694336.000
386778053721475392.000
209774283087132512.000
432754990027021824.000
224489722458071904.000
488648797084895424.000
260600112956492256.000
136889908105819072.000
73680562298398576.000
60005581498042032.000
62189999300140544.000
34156875344087024.000
70373265376534016.000
61745655796766848.000
34499622317012360.000
46174506674221560.000
49589255455734792.000
41924598799532520.000
61486610955889832.000
129441767468302512.000
156575557483500096.000
83965043978238416.000
123269823162296080.000
111283576880138640.000
112137622721886208.000
117963614540662944.000
294162172182439552.000
357047492230611008.000
920539164252201472.000
1402564214929362176.000
1130274478551206272.000
1628246791330492416.000
1294604153768597504.000
2021418790288672768.000
2756535248460188672.000
2028304400853087744.000
4752644569307913216.000
2852632052493299712.000
1578540175723059968.000
914354903244184832.000
658455146567256448.000
738199838281609984.000
689521016254759168.000
885567281967566720.000
495829563916955840.000
256393802294628224.000
146453627575631712.000
107371578392331504.000
59689693700857360.000
35267070311181088.000
19814652667992300.000
12148523500880110.000
6282616111822999.000
15119777439448378.000
19323599665873156.000
10100219149600678.000
12928299184539692.000
13239137288793556.000
15096294153248322.000
7748532824534321.000
6822988865799478.000
6973280786963705.000
14221400965879508.000
10043081494697370.000
11851335260646674.000
14965463228651412.000
11995214363516834.000
14813231455043056.000
8554829120683301.000
12471840486437000.000
6979159697212158.000
8529864034012616.000
4463833482577497.500
3998327317162409.500
8614540627481513.000
13052607532982262.000
11715149994975620.000
13013338027938626.000
10343385230553912.000
13481483886630912.000
10518591809879844.000
26500669730612672.000
21220492394607740.000
12196737088184490.000
26861781572911492.000
32979712854466500.000
46837129491317696.000
26361786674592276.000
19670513710369244.000
19748797571434464.000
17984103209799744.000
25489842500282736.000
24042454163382664.000
24611885081023948.000
20282244228436312.000
44326159908229784.000
41295068994189640.000
41804137361573360.000
32775874773423316.000
38373984405537600.000
20667863746161272.000
46199390610890568.000
45503509608835744.000
49941742674091848.000
46822202760751896.000
37300500666212968.000
76142835573684192.000
71164953176542688.000
64138694206250336.000
86474325521812576.000
82244415059819152.000
126108938261950560.000
107348611033918832.000
133974091840753504.000
209931369382198400.000
103488723309617648.000
108678105985611344.000
146676147757978432.000
106099789971440416.000
142478747423103920.000
161490161993055520.000
224565561936872960.000
257995228836563328.000
276451911580087360.000
391279586532731456.000
605113254366387712.000
924040114283945472.000
816998260817390080.000
416435184142741952.000
367983791070904576.000
459767357972133952.000
259160570214314656.000
209503413802894080.000
250671172919037120.000
139795532535321968.000
70849338422494048.000
89099450744681312.000
120592912300913440.000
184369114812067392.000
418128718337878720.000
496307811523429184.000
274262624517188512.000
406306680350183232.000
216165199730692128.000
207133509173249088.000
203629638043651392.000
202411424261770592.000
103141679065426192.000
288782411789541632.000
270053784360323840.000
426002833184663552.000
917845024314346880.000
1196250282198119424.000
613379121423409920.000
860147793175112320.000
1231344474848558592.000
718385400035905280.000
643045489763077120.000
886837433451347712.000
1110014305265887104.000
1565075728933030912.000
1438136312070698240.000
1660865957886076160.000
1305876042546471680.000
1160973785140072704.000
1541015647713245184.000
838697379469402880.000
429639446053579264.000
655775160121965568.000
344531221810922560.000
751512512667690368.000
605374689402417024.000
656667818050719744.000
375575974694403648.000
442402412157568960.000
395835021071102528.000
466752741950107072.000
411219079483891968.000
485975003566894208.000
328675721848200960.000
186202067197367552.000
259348598126472832.000
154338457045089920.000
158115928971351328.000
109836253252581920.000
144548445441694272.000
126327100736922784.000
130635005467944064.000
154222947829211040.000
224456691639084864.000
241455109347981056.000
131131813780589248.000
118811835928332784.000
114122338099492992.000
155465398507713248.000
106356172808147024.000
108798647762230224.000
266618347586209280.000
222356536876714464.000
119243457307917408.000
127747272220885536.000
145398862691820384.000
208820794539917216.000
285348106357270752.000
441407560229294656.000
246498083094596096.000
219308965601153792.000
236407261661533728.000
494159548951444480.000
433419450869861696.000
635463794755216000.000
357362511653423616.000
200477285203668320.000
272003600134072800.000
139694711045952064.000
213334830095516352.000
456496132642224256.000
402794842771261504.000
477384446027713920.000
261483251639677184.000
195892173278726816.000
104512646613255856.000
128187358531660464.000
121323633281292096.000
140599486913748720.000
103652983901081264.000
146475620911530976.000
77414582092648992.000
83099047426406480.000
44204983679020944.000
25229151457984224.000
26317184462838760.000
18213348293381728.000
21271853106294280.000
46620208072735408.000
45494033078718416.000
35941042405922544.000
21221501259880456.000
12845330407865400.000
6733932819806348.000
7825364516611685.000
11840901699620264.000
7165095145006657.000
9880097570730980.000
23218080151098932.000
46818389004043064.000
47148218317537432.000
74606673021197968.000
39719173638933384.000
39364882008075048.000
43558796736079528.000
49701043327495840.000
40217562134998352.000
58822914011771064.000
35218400035148612.000
40314606202241200.000
88491437010380416.000
133773081602279280.000
119343735813006032.000
155595550590683424.000
115412392905151024.000
242754578034226176.000
137754294610015152.000
158495882850287232.000
127453672441517392.000
153270023880869600.000
228429051620961088.000
212661767611553536.000
251663172583169088.000
258911620005103104.000
226303749298935872.000
112446143449773408.000
102049525590206384.000
218695447525711296.000
285220398592473536.000
220873391998993696.000
257475401812351424.000
142939789627108064.000
107568425538673536.000
60171075184316184.000
141652157050819680.000
123082580386192576.000
110736356880862832.000
231528009708239936.000
122328963629400224.000
102976628563653408.000
58883332565796640.000
57206652825654064.000
89216426077957072.000
76634649106413072.000
70879274286495352.000
156658988337847392.000
235825658293219104.000
473696255429082752.000
520403976718405312.000
419172781389858240.000
591871961812515072.000
343409608305657024.000
511331110883091136.000
490464395505457536.000
722877937259908992.000
360766294016244544.000
191597048694200128.000
226218460860993472.000
190288635521321504.000
187956123274866976.000
107268164853640512.000
105812286980591488.000
62100594394222688.000
72916571017097264.000
37635969492679944.000
79855706798898768.000
83010534478848032.000
72637972570873776.000
65547236345333472.000
39253909767807744.000
20322586585919352.000
12436868853203418.000
6217333739838788.000
6203547787507821.000
3812007294275069.500
6000334962373020.000
8054347837106718.000
13114792659715106.000
11762538150672654.000
6350872339887891.000
3736782361166090.500
3355661572763040.000
8245260692201720.000
9714509869767690.000
10950662593591138.000
9905977121056030.000
5541603094878537.000
8014083781927026.000
4701017696348922.000
4698867496790548.000
2583064162976671.500
3920757442249680.000
6216752279060226.000
6422489539950778.000
5537429128939457.000
6984571113846460.000
15207330913647518.000
13727016440985444.000
7413917402168850.000
8358665898752833.000
8169820960027000.000
6105774003153218.000
5495069767521505.000
12367059172283830.000
7086414980414590.000
8084394507898424.000
4585577346945087.000
3266768256728995.000
7077678328983809.000
5401667583537317.000
6958632416083115.000
3983697404911697.500
3218096185860506.500
3967327527683038.500
3317623737534255.000
1705316821818979.750
3991980181930447.500
3474865952896426.500
1995039022539888.250
1211940860260024.000
962274214044960.500
2308489253683289.500
1815460125725564.750
3795639337745972.000
2197538201971441.750
2140708159770429.250
4254931483255397.000
2409529345976813.500
1338744691758491.250
754121664563587.625
450258794300067.125
562282922668285.125
693930465282623.250
721051780936843.000
411397760323140.875
335517422636552.000
328317469504964.688
178102532815093.594
162153828988814.625
246675318132479.531
304276536585515.625
329064200092415.062
437363147566762.938
375097758541412.438
365820986178434.188
299531065165460.375
340379558310038.750
415009046264804.250
297398700561105.062
185244380978642.500
112094790771509.781
120610869121683.781
103828824812110.828
222490049468227.312
134879291492612.312
183156234817492.062
197472278784601.031
220300223380923.844
174251632701083.188
380569124852749.625
407488978128894.688
395035392684957.250
630173579947734.000
712983972402601.000
1413495237706945.250
1001629924018847.625
1034139452449923.500
1305123212484533.500
2091060438039969.000
2255090467078215.000
4609222841526585.000
4496952327124828.500
4162626189037837.000
8592510453312607.000
14091514538601346.000
11743635308977768.000
7180486286096782.000
3920490837965183.500
2312474817188560.500
2322412726964367.000
2265233483957086.000
3229507029794504.500
1751376615208946.000
2667793490668464.000
2551922580434092.000
3831501098575165.500
8003591822796640.000
5976657815848845.000
6438104594088060.000
15072951560154628.000
20691129155269984.000
23518206133779768.000
14123209482177648.000
19477033702799588.000
22398775847600964.000
13675671937110432.000
12259376867875084.000
13623725344283600.000
21525940719432700.000
24362858674431976.000
23062553013900524.000
26172835348895856.000
32317661559999392.000
39559787842397680.000
81602092290203232.000
45210031149977184.000
45868674337537104.000
33957109438068408.000
18664466418615412.000
21035879275877780.000
10750295143833770.000
22548533768284092.000
11560280544971686.000
6714025452827934.000
4121548669298199.500
5992046442192929.000
7723150901955930.000
6196370119014632.000
5636090193247374.000
15281301615865738.000
8474792912621503.000
7015905950539146.000
8169442120156234.000
4648595137492677.000
4771608942383808.000
6358642416550075.000
3577455412139882.500
3447184953411936.000
7296740527298588.000
6840627044702233.000
6877937134487598.000
5916864497269965.000
7971644955307416.000
10887201733081308.000
21967519895686932.000
12619988259794850.000
11683858548253342.000
11033555200895604.000
25383651263953256.000
13345933400985644.000
14875750061230902.000
15585777845941250.000
8435530088047829.000
5936589153772561.000
13114295459052982.000
11661549367917194.000
14369203370464392.000
11218613786017590.000
5718972132219579.000
5903102416581760.000
5797706532422877.000
6050617041393562.000
8011752604175465.000
4544050635058760.000
4474202936753834.000
2641937109794827.500
4337678235776055.500
2369394294156293.000
1347741985076875.750
1197404667289365.500
1898568201841766.250
4351019023403562.000
2246240620571460.000
1807598470488825.500
2355130877246920.000
1315116484574964.000
1423665741576349.250
1296744883894112.250
730279263441138.375
785885150606337.875
461953670264595.688
704216399396601.250
1010000766799610.500
1400537031580264.000
1220180386854576.250
1352353846271936.500
1293916979543771.750
2550487093608896.500
3198529203908488.500
3335196607230628.500
8542015651725268.000
5769957285704730.000
6107602992910869.000
7097347705344589.000
15044200591683832.000
8296051665563518.000
4513156057379398.000
2604407685190450.000
3546051995947129.500
3976670496766892.500
2075043457917278.500
1256378504866438.250
1278953784907702.000
1423342651342042.500
992979063643489.500
1111894029458769.000
632721318702335.500
359221308109309.812
196018593948773.625
220728688122433.406
211626415941532.219
125945579016170.250
138546545525952.531
75827306390573.266
41844909397810.047
57953973449970.641
138986973563397.469
114156914324559.453
183681006361225.156
104326622710256.016
258916678901306.938
137605545696668.297
183739483517125.125
448953418694713.750
642568174051008.125
334943519175253.500
418833078165023.562
246625062958406.188
389248267335106.812
311601364043625.812
333322915072855.688
169171755392910.312
224280931067355.062
313556086214459.938
709927531622416.000
601775624482688.250
1246168213934657.500
1961327803769725.500
2293574748605423.000
3393693215927480.000
3608951357152713.000
4232429869265203.500
4682522400195456.000
2401153370081141.500
2156910432707432.250
4566277968787419.000
4895057730260350.000
7488370688477023.000
4076422807120776.000
4255411511197239.500
3348412182396808.500
8420890563879415.000
13550517899586264.000
11796487754018304.000
14483447675735676.000
12601648060669996.000
14039553736474652.000
8001021877828691.000
11849883260151758.000
11148403651675482.000
27344803342672228.000
40831663033538968.000
48944879070478160.000
49922105464956144.000
64637286339021240.000
161716994083198560.000
132962254192788304.000
199394613162524480.000
509059097548970880.000
397524948052272064.000
221705148339877152.000
252197578597631456.000
375534751990815744.000
465252704119336192.000
366834733153029440.000
347974641392500288.000
950678601851080960.000
820000834192805376.000
890729691105764992.000
1281658302602177792.000
1284809233585092864.000
664347887224829056.000
782414286140519424.000
703153168835652864.000
361330353804735168.000
419475775937353408.000
891812797080182400.000
522291621984998528.000
414399986634848704.000
666239583876261888.000
787407065283755776.000
465145360298444480.000
472193748181482176.000
389623639959734272.000
212794994269472000.000
485642619272538112.000
516482891948736704.000
529632509087769280.000
464348150227277760.000
521501820711130496.000
675748080438692224.000
1696121610140738048.000
1604350350792343040.000
830702414371520640.000
909763499991212544.000
834452884960826880.000
874256882355181696.000
1135080939524147456.000
1228532196538159104.000
645069491487671424.000
1457099804098781952.000
1389384268477783296.000
696655121329777920.000
700415197412909440.000
1516948734405280256.000
872510291700287616.000
501748471349945152.000
282222435256650432.000
246068266266081152.000
228613976499779552.000
296549093095010240.000
431588307255382272.000
357154795885556544.000
205532367885016128.000
114045691660819744.000
106286157419634656.000
136475172451157296.000
148338518895893056.000
87322941833688896.000
45711929274224936.000
72242656466832960.000
75200885589047968.000
88809348427894464.000
66283311516318648.000
75137865154370464.000
42950578220581888.000
24904114770439032.000
20878619834527824.000
10627928149639422.000
12782750686696884.000
26853131222957928.000
15483527767702480.000
12660498893818596.000
18859430052823028.000
25080030912396836.000
15011986950833772.000
21780463770919260.000
11525280103442574.000
11721547541550624.000
11075407856780394.000
5530618299184780.000
8455273248109144.000
4439710042579247.500
2340794925096768.000
1971553623168081.750
1725798475275143.250
2029107957697376.250
2038127399422854.250
1194185558404656.000
1192734521299901.750
1377016018086055.000
801113520986085.750
634089400186640.750
667365869852386.250
368861990226974.125
300450754484699.375
168645257668110.688
246438275603339.562
165886321919190.375
249141133518799.156
350451658845458.062
299116940515451.375
175111333049755.156
98701219448840.547
57847276233229.461
55961496938263.352
77746663501917.016
69545746169489.703
74154668794521.359
64576607031525.180
91640848288157.641
235208053483960.688
122755826862745.672
63999483917966.047
63558187843866.961
32668861469868.430
19762740834878.949
43209073169450.930
33600821286595.141
37841088162560.555
30020278727140.750
67838404549829.867
106692319111401.656
133901800927974.109
140170215368625.703
76975034294198.906
116431079162379.094
119025235543177.031
66870701141431.359
52075202386786.078
68982092322459.312
51637051814293.031
57447258503832.680
89731739926827.500
54359634843382.656
121190226242837.281
183259528768041.562
91838327435283.188
235398309474167.750
240680319654264.750
181481775816481.250
177764304817292.219
175123210842130.469
383658277253374.938
325099128603525.750
755352931383213.750
1084938312630239.750
1700313422648734.500
968174982888531.375
934082003128525.375
1320891780695392.000
933731637694935.250
1362587065434123.000
1859843578861044.750
3873314663449463.000
8087519956079803.000
4499794553784164.000
6052304673541026.000
6297603921521674.000
12979011351736036.000
7658972902295934.000
10051323062076286.000
5518377452837172.000
6443132413750125.000
3610906756983122.500
7761446929568549.000
10577007683541920.000
15078430712861142.000
17660180536857990.000
24465519323713428.000
18263251029846488.000
45987655152306008.000
37109754896163496.000
32578859332114496.000
17740233563606526.000
19659608108940912.000
11417567408570570.000
12490983249164830.000
19660037142476812.000
45120160154203856.000
68515081311781008.000
41043026344454224.000
86789478535963152.000
89253414193049168.000
79991905755463584.000
45968328613758320.000
40739585239774720.000
88563727110407712.000
84762985035786576.000
86273370686160144.000
44357064461770184.000
47194328843239656.000
39987322957621288.000
61750136119414384.000
159387814244290080.000
130510626086835248.000
291977357706027392.000
189604173080875040.000
251041150514033792.000
137664400072744688.000
110540018430148560.000
58182964377098384.000
63591898270805584.000
66811798051743096.000
65279481432516752.000
69530201677671896.000
58391746409949704.000
87358337664882688.000
120942719685127104.000
138841860592657696.000
123215452964973312.000
158126394154672832.000
221845477186717728.000
504900092165948416.000
795423314526067584.000
1267065840786617088.000
1180245344009811712.000
1620712288869227008.000
1225176156587467776.000
668933832319303040.000
338500575728768384.000
449633306518282688.000
244334204093929632.000
141770302537740944.000
200441422270935040.000
209604934020751680.000
285294537436282272.000
445409857645003968.000
472283553954613632.000
282867816893791328.000
212166641396160288.000
258365017335663712.000
382924087772621120.000
231228931284340480.000
342564031863466112.000
478576723558307648.000
523208102851797376.000
778770150745983232.000
412136381852449024.000
614144427271104256.000
722708442944970496.000
1508392958202686720.000
2135288865426569216.000
1147784467235118336.000
1637836429246697984.000
926044748687843968.000
767847056821765376.000
406952956510492672.000
642718905878103808.000
1472347496594895872.000
1181830637717910528.000
1323229880637080320.000
695000362903754880.000
838551755311971968.000
468596833063382592.000
383551434747252928.000
387998803732747904.000
448690824811478656.000
711405313464132480.000
817017364109419264.000
1170259756166367744.000
1662966183200941824.000
1609171101865915392.000
1347167597194360320.000
1331624206145029632.000
679107715518188416.000
894911595677954048.000
487048511962929408.000
401260114488232960.000
494078238198949952.000
272725769446982112.000
218588209267264352.000
256249723954340160.000
204935864368385184.000
227400688967422496.000
250291341362752608.000
508284252190006464.000
496941563882553216.000
389325621114416128.000
528150244926360384.000
480170383120407744.000
730719768752056704.000
874973661400981632.000
845436421383508352.000
677837951910147072.000
654460665779676800.000
888168586881979648.000
728312999245399808.000
1592062554376812288.000
2419099763174907904.000
2604315612670580736.000
2799358548477039616.000
2066363808459114496.000
2988210804068177920.000
1672373222199599872.000
878418486009913728.000
957010279753445888.000
849570537776277504.000
738455609979099776.000
1170166013369356544.000
1592479706985457664.000
2494627120019142144.000
5469241765666486272.000
7230099534013381632.000
6806143143745743872.000
14796742809184260096.000
8726662590138150912.000
7378593480047652864.000
9459809967441569792.000
8148836254956993536.000
4935931972289369088.000
2720430978943033344.000
3118637228161467392.000
2162994457720204032.000
2741105790431141376.000
2067629256983287040.000
4950034812798495744.000
5647980939356824576.000
4038290614065840640.000
9817609456375209984.000
9502651563080826880.000
5075911462864932864.000
8176947807058404352.000
17156748761917917184.000
9971118920350674944.000
14546402836207384576.000
7712756986987020288.000
9058797948145095680.000
12670768200693069824.000
13048627485583392768.000
18339496081915056128.000
9758554617041684480.000
7086581378263927808.000
14432579531658231808.000
18396658338940076032.000
14518194403919312896.000
12689086104283406336.000
17899540124218757120.000
21626417586159124480.000
31476892404400508928.000
28343441533730168832.000
31929725300850413568.000
18375837334632892416.000
27909359905928355840.000
32383031419300614144.000
46349562365024051200.000
59512368262375071744.000
59444852443277877248.000
41900911466446422016.000
47371738957473374208.000
28070750419787644928.000
17054759727575603200.000
23131074931966656512.000
13713684925543692288.000
28709293802502807552.000
15119218740831705088.000
15292169221262764032.000
13687096875245438976.000
15404490358301718528.000
13280619502050816000.000
17090521489259075584.000
15283433293274173440.000
16220012930805057536.000
12815289656982198272.000
29677135392377905152.000
46520292409822625792.000
23941050291627962368.000
55346143859246194688.000
45353470722283732992.000
23891004080551075840.000
53541249942612615168.000
42923156722127790080.000
54010135510796550144.000
29868926600931090432.000
29814371997414113280.000
58781246448595132416.000
29991514957709357056.000
28028475640983060480.000
16476118283488163840.000
8774717109401285632.000
4636937056612838400.000
4082346216581036032.000
4699638664434468864.000
9926485702588121088.000
8914910487532051456.000
9524362055956088832.000
5181533887667660800.000
4277976127088525312.000
4889004617636796416.000
4281873983004301824.000
9179672212487522304.000
14788107724647995392.000
7563295705642192896.000
8903700406273401856.000
8764552155931241472.000
9482903792079056896.000
7616672248795501568.000
4679726482783360000.000
2646344040057131520.000
3177525627463628288.000
1750688479618511360.000
1204495164213094400.000
1699976793887576832.000
871261937971172096.000
1345699479365346048.000
725738248974272896.000
751528460839208832.000
956603586982617728.000
644046273633523200.000
910782962425546880.000
1441658918190589952.000
1578921766607748352.000
1385680222442039808.000
1149371633818754816.000
1756899968864819456.000
1358102861850392064.000
682264363274524288.000
924800866799192320.000
667867852008448640.000
865347413399645184.000
1151253828546491520.000
3105501501715352064.000
2242988550501529344.000
3000842315932624384.000
3131616141930171904.000
2464193047996747776.000
5533118410291025920.000
4311566018865763328.000
3805041662251800576.000
8684791596208076800.000
7015876179285719040.000
15732717300024989696.000
8570052742510351360.000
6839282658509014016.000
4218568767420473856.000
5275227799139051520.000
2932250173989638144.000
2286434231798593024.000
3181458861199477248.000
2730408213499150336.000
3094199406103443456.000
2459184659097785856.000
2518741588419424768.000
1425224187470084352.000
774811752024524544.000
408031102575034816.000
229971890653989216.000
362275126491012480.000
526945997567225216.000
360823260788490112.000
353694797534193472.000
804562719099074432.000
641906915361879808.000
1405145962604947200.000
853543078391479168.000
870149634379515904.000
799978410119934208.000
460551922174398528.000
412346007676285248.000
473520174838939968.000
393872602749574080.000
242222432545468672.000
371378517138805504.000
417527393201793152.000
461907511005683648.000
513542541833617088.000
696987654766636416.000
825649816345136640.000
928841529311052032.000
863792819437835264.000
733205114896990976.000
937697082131578368.000
645615230960051840.000
1395116010364864768.000
1260119588690156032.000
1473004288898557952.000
2998362252364092416.000
4542350411875456512.000
4358540036631386624.000
9520478372969086976.000
9354903892659908608.000
8114955754540187648.000
4778212692181198848.000
2430695859092327936.000
2059934399194719488.000
4201020631131959808.000
4484642777466632192.000
2583930887681379328.000
2208761503656117504.000
3006740655297807872.000
2341585334303994368.000
1342759505386612992.000
2109378936685246208.000
2723108724937459200.000
4144078787253371904.000
10136671922965334016.000
8797390084218345472.000
9086016236595895296.000
8302829514085165056.000
4417498824986716160.000
10211627169557796864.000
5658699628305816576.000
4055483950029991936.000
4171952055073368576.000
2184149881242073600.000
4656060285399767040.000
9258307413865566208.000
4918632814815897600.000
4124087807228283904.000
2510812928331310080.000
2244953446479795456.000
2168480978542710016.000
2487029376985957888.000
2135149209836680704.000
2633667695784643072.000
3176912842000342016.000
4781918414483421184.000
2641840009069224448.000
2105553133121996544.000
2869055099644306944.000
2544285449587325952.000
3059103768332537856.000
2800134481319611392.000
2388625014865394688.000
5536097804483694592.000
3071059945840292352.000
2242425125742661376.000
2653419134094260736.000
2323257116790167040.000
1255042721114895104.000
1484177845686440448.000
1228784824634090496.000
2901721076842404864.000
2164433534325210880.000
5693360833824522240.000
3050020054053387776.000
4695536456047364096.000
3765927306741548544.000
5651554189186606080.000
4727747795424254976.000
4239101712442894848.000
2241652314006080000.000
5172033208198069248.000
5390906310287613952.000
8864286652162160640.000
8810793340334932992.000
12165328772803207168.000
7456267002541595648.000
9726589502394896384.000
5025602425457659904.000
10203077226993637376.000
5269747800513242112.000
2732949211919692800.000
1548813876580781568.000
2087964938038668544.000
5193091851073177600.000
7664129753515938816.000
7728605088916845568.000
4725072593071855616.000
3762895843874869760.000
4488629722679244800.000
6800470982134551552.000
10058366287529144320.000
5719639366874005504.000
3912259727681656320.000
4822071333647993856.000
2798211597157010432.000
3165861013965194752.000
1642818688194333440.000
2132882426900572416.000
2871912605936525312.000
2456184484912967168.000
2801186988725725696.000
2262567610966439168.000
5048684941555369984.000
2822072489737569792.000
2488903902834378240.000
1254484525519967232.000
1236212479348761856.000
686498027833923968.000
720542094360651904.000
433328652801243328.000
868215393737961984.000
877755332851689472.000
452128050363309248.000
261046358322106176.000
351789641153703680.000
748480106118436736.000
640489782865608448.000
959709898606786816.000
701379469473988224.000
1451917586780981248.000
879699022152597120.000
692743450292069504.000
953666302495987456.000
750994312728804992.000
959471385333946752.000
1197259851210635520.000
2817892466988071424.000
3849379405866757632.000
2353341506680828416.000
2585153788849595904.000
2303668254296254464.000
2069069733226481152.000
4851196755404708864.000
2610485630822897664.000
2908470209255320576.000
4701020509058777088.000
5384569681009254400.000
8024180658829383680.000
9191071342239857664.000
9330644925836337152.000
6976119172649936896.000
8806676274296005632.000
7912359266874096640.000
9623973412852854784.000
5229730679551190016.000
5611488536087204864.000
3017043060280460800.000
2416787894800983040.000
2094170144002153216.000
2631575945199398912.000
1364343957324734464.000
1174263124362159872.000
1449921095493778176.000
2295130425974846720.000
2628880293648356352.000
2307155395185847808.000
2040053638363803904.000
5286951709553401856.000
4100729476522799616.000
4816247136733814784.000
4181305864704513024.000
5258930190993679360.000
3682619097988156416.000
8699482607083202560.000
4512832942107111424.000
2628997074211019264.000
2953880033133733888.000
2274324515632666368.000
1370470553445714432.000
2108505199206702592.000
2720993528325796864.000
4164157089578523648.000
5358144225599295488.000
7638644720621442048.000
9809799147576160256.000
15999680170385008640.000
9656800876315250688.000
9023628136348797952.000
6561770453322380288.000
14437267696367323136.000
15472818018290395136.000
14128648394279876608.000
15839871272036241408.000
8822899004572544000.000
7086575522179952640.000
6854197282320902144.000
6638561438461927424.000
7884412745662532608.000
8995796476506912768.000
5095610906070020096.000
2874858024307821568.000
4288734610359208448.000
2276675590523685632.000
2555772526094766592.000
5289317275602540544.000
2736013598113739264.000
3652219886345508864.000
4602969592291796992.000
4074637725506327040.000
2115416729322517760.000
2683315104737788416.000
2385914037841086976.000
1420032863125463296.000
1547262034038744576.000
909950169568032256.000
884916557594560128.000
905558132687966976.000
904334170983262080.000
1469683287861017088.000
2925027935503121920.000
1593399215601146624.000
1669441321129393664.000
2315260185036470784.000
5095003904869363712.000
2872267487855451136.000
2197460803801341184.000
1263086227380006400.000
718546566904806912.000
899255654292314112.000
476742437057767872.000
637218574082265984.000
748253818565209984.000
440545416960649216.000
522447865547373504.000
372855681541506176.000
486788309839682624.000
271366720143352352.000
191212635448311904.000
198160606408512960.000
528454971770525120.000
367505805474194688.000
867636044670249984.000
503115406990635264.000
793307971709954432.000
451911556163818752.000
256882188601203936.000
200666135773265280.000
260208908991066144.000
144694334396416256.000
234316936563040992.000
277166023578025920.000
190123451352110400.000
258078880966744224.000
154169620463001888.000
228880205780678496.000
229632400074919136.000
513872563676111680.000
290623551484664256.000
161194761626621664.000
114665615649313680.000
235926270360432704.000
194723777361952352.000
249790112434510016.000
140298891311175072.000
155835000575116512.000
135132454091945088.000
81674313719823600.000
43703273167055728.000
23366092871220400.000
19882568702133440.000
27097778759375224.000
21344657790323652.000
12741996221108352.000
10023202249112070.000
22177984311562316.000
44375391518640840.000
23390322393966872.000
17995183614425632.000
42550518282028336.000
49057305528332968.000
44662730457141992.000
36850150853927184.000
49254723911793136.000
37247377609921664.000
22109575518538376.000
12022518795461870.000
17766699104404472.000
48406679551804584.000
42567000632683976.000
23758315168426340.000
24349903041333372.000
32326299934691648.000
48923964859845040.000
63659062195321728.000
74588145578774448.000
67300975283180432.000
70348524721146360.000
58038675937136656.000
70905488379392160.000
73607906807201904.000
73451670457656208.000
85525089189889712.000
138059241165682912.000
82337112532619696.000
43453919922615616.000
68761150768135296.000
36631668914371656.000
43141738806877480.000
26020877719751880.000
24201615608394072.000
20202058214776804.000
22597161047639152.000
22293259039078752.000
21918686486899680.000
24039210501048820.000
38157396787957984.000
76607237514962672.000
119241508923555664.000
105702931014337584.000
161251419200233760.000
215036058256606752.000
452633967465663040.000
263872989135691264.000
148853640426374016.000
145767603643534208.000
120808966152280464.000
255803715090366432.000
372147917006199168.000
462295526531452352.000
669103365969624832.000
804768717433310976.000
698099558328345600.000
722618945968203136.000
924026981272997632.000
493231341475898432.000
403141679576664448.000
390626098999310272.000
509637028994911296.000
707835618542236288.000
375821892859050240.000
467533495759143360.000
379556842562311360.000
370486441427742528.000
523885657828995456.000
762936362116164224.000
1207286817035718656.000
668491481543665536.000
336615621977832320.000
351440625937814592.000
215907276496824672.000
266964412570863840.000
155453373986927968.000
82867622842263008.000
80412001390068400.000
45728340252054320.000
48191427563657656.000
35225605890463372.000
89479728299769360.000
139755884602799440.000
77232097771815712.000
59599313807612640.000
77621856597715344.000
63938631950628424.000
160592174294042208.000
85063990467596752.000
73043487614945232.000
74904777803107968.000
75279567540672672.000
69769250018786088.000
40467043881514576.000
35040091537440396.000
49151852077683312.000
46191590667025360.000
26513318174961856.000
21312745812645760.000
12436759867573886.000
12504583397298454.000
6338723607926988.000
3910527402136515.500
4573810578468429.000
3439897189141029.000
4074164051864402.000
2353417047786133.000
1189780409644205.750
2651476080075181.500
3266400177045408.000
4350628459445559.500
4819166229854805.000
2522599800368644.500
3977701949397564.000
6173725272313041.000
3357411991384589.500
4280823916437718.000
2586195585312087.000
1810182065056151.000
4294592802478412.000
4479836033310524.000
3305121960168835.000
4260358120789491.500
6705591842848866.000
6911992171298479.000
4015060331423318.500
2095890863349047.500
4474204596574728.500
5860005852052354.000
3381071214131593.500
7209428890422390.000
6004281167528145.000
5907418370782881.000
13687138760819898.000
11495283557849922.000
15263289579974380.000
15493685167707402.000
23433091438237904.000
47859501531562464.000
34770269289403312.000
46231598072121792.000
27483233608118028.000
15468936937888730.000
12625148083009230.000
14116691510986688.000
8311194495573104.000
11110851286608148.000
25105432295603352.000
39623405445027816.000
50836950740703552.000
45578553708311192.000
26509215274510520.000
23399510130781452.000
14011481859088996.000
7849631829725118.000
6689125774563619.000
14865384201602966.000
12293319921991464.000
27612989550033176.000
22293214625435052.000
50270052613036416.000
45247864919647248.000
49449003177616336.000
65448963991990944.000
79848732824836992.000
67536172969219168.000
146152243136007008.000
74017781753145072.000
42073746615366496.000
21701612049099360.000
23235847136297276.000
46966992165101272.000
64678545201253624.000
155680727143656096.000
89457912786894384.000
117699607206187264.000
109575376870308656.000
113255201422723376.000
265742689432642272.000
373295050509260352.000
449426625893000448.000
509426277920992320.000
407617715607034112.000
828670210453248384.000
465882465482859584.000
412006940998302528.000
353464503904641408.000
218234392685978624.000
238771860155547808.000
213409163616467168.000
235902761326190976.000
509884159207038848.000
790446288966794624.000
1281093198437179136.000
1499683571073135360.000
1324577128946456064.000
2733787715204589568.000
2595334300618519040.000
3000462035457463296.000
2939846302663979520.000
4077224130014934016.000
8759574167720710144.000
9374855592066306048.000
5469056962253950976.000
4743530438936295424.000
2430785802283598336.000
3717842343212730368.000
9496524759625795584.000
5119683858345673728.000
3966544750002835456.000
4573901617056829440.000
5318184002933875712.000
7186328474737103872.000
8441153791429570560.000
4448416748123200512.000
4719064456901160960.000
2571362789491300352.000
2566373433642356736.000
1563336353890226688.000
