31.253
69.741
151.467
185.645
194.131
392.445
811.317
738.247
1485.338
1513.003
1996.349
5092.121
7639.901
11675.409
12416.174
12804.529
13543.564
21306.088
23558.641
50208.419
78702.953
167767.604
245883.444
512919.857
795194.384
840143.553
1310165.466
3295388.236
4287631.966
10174800.693
13993707.626
14377985.917
28904252.538
27314252.671
62747194.147
79246057.166
201330885.985
330410709.837
474534121.903
1102275282.947
1115159535.895
1171286185.445
1643665328.792
2618542789.637
5762699367.085
12268331277.712
17186898134.928
26839061595.947
62740771944.713
57839433067.999
122997118509.714
173155155822.125
347955201020.997
357962964523.539
575316671916.219
564544626515.505
536639373605.243
1154645524658.560
1263243570295.401
2026753656736.155
1821793622723.108
3951067928616.048
5427415484877.917
5561739103667.572
12399321714407.250
17461267830442.102
37832130002800.328
33993323485506.746
76774769986085.891
118844972256671.375
190300025299669.562
469428202625872.750
453782045092639.688
613353104048279.125
659512863168957.125
590525924096195.125
659232746358417.000
626348923341021.125
1401746227516344.000
1308370412753063.000
1279932613955640.000
2801929249086943.000
3776237191181995.500
4115396966805159.500
8437407193329221.000
8492148243267781.000
12105577851926850.000
27042579100871912.000
37635455913018936.000
81018092005603680.000
116354190702032864.000
117350075142343424.000
116988779857732448.000
305268266757888448.000
490788835134145344.000
451234675366430784.000
912804656595535616.000
988215330977532800.000
1232049101299422464.000
2772217090260509696.000
4242417590809901568.000
2576796741902553600.000
1437887863121322240.000
1693255908737759232.000
1561457534919241216.000
870021512226036480.000
996104591001921024.000
1326361024388499200.000
686204174665077376.000
1789154075810526720.000
1271007387589280000.000
784802546160853120.000
950605623213217664.000
527314475571260992.000
548120829928972288.000
766173880217239040.000
1766556225234295296.000
897299783335907712.000
1785310939756741888.000
958660462672305664.000
554311243412074944.000
467322210026412224.000
543270724470743296.000
283380889091000160.000
143819252160362208.000
156782294011857536.000
116383380019661520.000
156340537953248064.000
119724059826924512.000
173661085557630976.000
150635582682267616.000
149193087670386784.000
118881043740374688.000
286050727285212384.000
231025301211647968.000
140503680978734016.000
70069140911862392.000
41216312428524232.000
20871487375680736.000
24019086930992388.000
52168118811240680.000
70269745053272936.000
38625649799645200.000
47296385188154056.000
23746534770282044.000
20038275098647132.000
25603982592465696.000
22084191536740260.000
29515584266114708.000
40554854760107048.000
53572289594836144.000
30029200289270912.000
21297763017484652.000
49714877326072824.000
39362143037650112.000
36062161244558304.000
75365639454726176.000
45257260314807176.000
91614637898642352.000
48381475821506808.000
67580972779894344.000
39867844675731016.000
45564965258467704.000
94640003741417888.000
53954725852182952.000
44370632255860360.000
39556410813885448.000
36739059813516552.000
20924826022099500.000
12704617618857460.000
15838202938039660.000
12306796236541800.000
25689134071133880.000
28619394032955468.000
46578173303919664.000
71433725492489272.000
76687884378655744.000
82329781031294928.000
45996933506946584.000
44985588252801248.000
93526608208350256.000
49564770337938552.000
44744683615406056.000
96257426245540496.000
81575044892978272.000
118159673170620240.000
168657026935605632.000
152674390331985216.000
169130601975027008.000
143135879336116160.000
159835052790047424.000
165656278809524096.000
164178676680708384.000
89698670640281296.000
70198327123052200.000
151076916634077024.000
116969447069073312.000
130210696490474736.000
64575335882044216.000
39471239551413576.000
21022435600472452.000
22975818350060668.000
52102240569525328.000
28481852248805968.000
37774699294641240.000
92142307291325104.000
65551113364916720.000
88112621320933504.000
134530041480352448.000
81154792287552832.000
45651564546295664.000
71829315091677456.000
80384795903843984.000
83580240974567264.000
135116570488007808.000
163414338727335872.000
136480763667302096.000
217408979663742752.000
254665910677558432.000
545102197187357056.000
680005528337531520.000
883248338709054848.000
782481604854657792.000
1619741801519400192.000
1718874758127819264.000
2590972356745136640.000
3192652674538258944.000
1719831400477606400.000
1231591767344961792.000
681032830800468224.000
969617643399268736.000
1007001987298192896.000
777523273827706368.000
677461807546710528.000
417132918874585152.000
435466647202677952.000
894439323387885568.000
1241727515010544384.000
2541895124355259904.000
1497723686681728000.000
826485526220679552.000
419345506217479616.000
421931718701506752.000
215842569583712608.000
539176311459053952.000
421648588373837056.000
520531073681324352.000
284625348132930560.000
312629677256606016.000
245079572666738784.000
136120249815768240.000
282428230784704704.000
147222155983351264.000
127833434926118208.000
74359706520454624.000
72776145533682624.000
35927837053473088.000
92272537737648304.000
53696823488549664.000
53471281733476704.000
42810360465641032.000
65338761405118232.000
38433766971420984.000
21819786759021644.000
48249240615343120.000
43466340623197544.000
51454720141697120.000
49553296600023352.000
53302329959812176.000
51440122882310400.000
26940901881887556.000
22332981809130080.000
13435490696132750.000
6877731094721117.000
3492869404051951.500
4179602731527783.000
3936131618592498.500
3808073694009662.500
9025208351085824.000
14816379544545070.000
11142737984920096.000
24508286250080216.000
28848624143791408.000
23961017356104856.000
12654498181906658.000
7203787560961448.000
8177353433212020.000
4787059516343565.000
3910694861809187.500
2046423576567379.000
1132450374831681.250
1141941608868048.000
1096385666368941.000
1219707941234745.750
716190429170481.875
364831246243965.375
409776273887835.938
632804060581118.625
598476456625056.125
1284580538883738.000
1188000698359114.500
1253125917491768.250
1513277744666244.000
2253603155155972.000
2833967000936644.500
1457683554975885.250
792412018829814.250
428698484484887.312
332298765858270.312
675167311762833.125
743736382951299.625
421245895987205.062
489960225847111.062
484561106265474.562
257255189034459.938
183753022091468.969
212625352803799.250
265465558232278.375
232106946077168.812
131132351554029.312
147250689382100.031
112531245352734.047
58645883354426.961
67116077662380.289
69633442440831.992
35671452516891.586
21041597611759.207
20740207951925.270
23031707215385.762
21681092475970.805
11177447752288.750
23090844977326.465
12004535325863.812
9791291737590.848
9739864434654.412
24717625154108.664
12704549903947.238
7525359620766.296
6289320420336.242
6632830229091.291
14200033728111.352
13716847173179.090
17643564627837.996
19137286364979.688
10593212461302.916
13078343249557.723
7751607274569.511
11830900328809.922
6028710569338.899
3540556239808.686
3292367741855.750
1781792535791.702
1919027910144.469
969582678856.704
953678654681.121
2456325546195.457
2326591205834.419
1310553601583.470
1367503723883.255
1901319189919.517
2225109460836.167
1217007283042.733
1730167702011.204
4367107703823.653
3935435587929.278
2243614276904.657
1734138508282.234
4398264461402.268
6797811776973.757
10731321860766.906
10915023809281.438
14342755261206.084
19331909381285.250
17726407617242.289
43924796150679.633
25407613689357.824
23454324077355.098
21607255334625.566
12811273141578.756
7208086504475.553
4063138094592.570
2366686649930.517
1366559441816.550
960448638224.828
2372804305347.035
3374736645196.122
2991350062079.520
2995674166024.473
3502761949151.271
7689088094603.283
11093786425662.291
24011103797694.945
33861601326840.477
34784075648646.562
72407447691039.094
71799756118375.875
40494632781755.492
34169326236515.273
75575388362528.578
38938424200017.141
39712973782762.555
58152867977902.133
33084907176067.336
18149697466575.145
23734387444143.988
32380789451973.004
74517640842202.828
74336006696082.938
61281838545472.672
36975333741942.781
78963308854768.969
112868349108793.188
146385761621766.781
145967735367167.219
207625471746062.062
250748026434750.281
181540741076562.656
241331152228612.938
123018100491860.969
259516613406850.031
212372389831601.156
130111834139514.906
128730405409628.516
103330259962927.609
223964623324811.719
470426934739016.312
620463900704278.500
1584693523072002.250
857713102839123.875
1144979141600911.250
1224078214655148.250
684297055567818.000
1459209963646715.250
1182062825014508.750
2650272973781497.500
1529173287207356.750
2395247434392517.500
2636721157949731.500
1551997038814723.500
2166580219588848.500
1072769372910914.375
1169983698524887.000
662903867305681.125
1422126808730590.250
1384630574676630.000
1138414466370189.750
1153569432492781.500
1591010216607160.750
2510938652648246.000
2744711349428865.500
4487445678381209.000
4240173935757141.000
8492299047422790.000
8267177961062151.000
11811048184103432.000
14434886491491498.000
15129169302916104.000
15806257405105040.000
23604631413517336.000
12642855457288998.000
7729086891286229.000
7665408090373803.000
3865614710228944.500
2051621322765765.000
1113728730615234.750
2254630621658193.000
1205702776009157.000
1592070004789051.250
1254714806786109.750
1438734567787372.500
1322169289936840.750
674372678712938.375
367598469142056.812
355320058097807.562
457236320534902.812
705896926672802.625
716366191607261.250
1064643288126397.625
2291134497876463.000
2152057568345275.000
5140220806048776.000
6412255840654681.000
16287202205033430.000
9176402310855278.000
6404597148280992.000
7820732180383106.000
4450442099865576.500
6819487861326843.000
3549114495205063.500
4923695342316975.000
2567866878066523.000
1400869342598298.500
1175117765386223.000
2564599272586759.500
2141305641344010.250
4855280947227871.000
6358085420860050.000
3824998901645027.000
4778066291015962.000
7281662855827141.000
8031058140644339.000
4039853435342582.500
4146830646799977.000
8466347774984964.000
7485103986194413.000
9141712389625844.000
7068156826929226.000
14526481704636944.000
8105669167789279.000
11330829474114728.000
6374455802340211.000
8405420512586332.000
6894694198959356.000
14513355076407942.000
12897460282374314.000
6932903282805602.000
9064227499128498.000
6803336656497372.000
13962596327174352.000
7600829918532538.000
6636158945695962.000
16389527070891478.000
15972716488338306.000
13745007425294408.000
11517552333454404.000
14147233955571788.000
8116983636900511.000
4809683895606051.000
7070726892379478.000
9275020794599718.000
15221411521990098.000
15941063966424146.000
11468917486154838.000
16620885843602754.000
8988524050421025.000
12411883261610486.000
15779344300269000.000
15232196358770542.000
19937840602538304.000
26544489478324204.000
42202715794001656.000
95125557907288592.000
155879711051163648.000
81439941854261152.000
125425900236971280.000
66672540902436352.000
155414734067826624.000
137828363329951920.000
175514982735764448.000
244430139466620384.000
149879201990887776.000
217999184149571040.000
135586437606679920.000
212419572220764480.000
276020672039314912.000
314276618717863744.000
433630285462929472.000
891486227147646720.000
498981499660094144.000
782984097176620800.000
725093256194710400.000
1676457034491384832.000
2709392049955510784.000
4067379814406496768.000
9377668536135116800.000
8196882895871525888.000
7513592090296556544.000
9237585544769742848.000
10188266033694478336.000
8611074876548153344.000
18335659844151717888.000
18190951004311814144.000
28953674923351437312.000
28795931309233803264.000
14790325912864346112.000
9012847138835855360.000
8517083604719815680.000
4281796262572507136.000
5953240614368134144.000
8603297848009034752.000
10357929477425141760.000
5344276825910684672.000
3225589429609713664.000
4277568260535910400.000
2359032032323651072.000
1250705947028732928.000
1378323439599395328.000
1826977628640726528.000
1700219805243958784.000
958720999452357120.000
882664113020833152.000
1388118332494751232.000
800175755553603072.000
708148881855661056.000
428030293523762304.000
235223402549593728.000
295988452381316096.000
424249192727487616.000
232989937200127872.000
289543699196261760.000
444735085037645568.000
710167313813500288.000
1776575856970890240.000
922471745424792960.000
716520942882212352.000
1016858291403241344.000
864711695333675776.000
1022367379021504384.000
1531706944521248000.000
1697786924847775232.000
2262016719353061376.000
2780085665105605632.000
1637008886550825728.000
979220644456620288.000
524705056945553344.000
816542900204296832.000
712926863214371200.000
418959982715726848.000
478146424205371200.000
963731368685378176.000
778344925435255936.000
884046269964512768.000
845398385478715648.000
511816492056194560.000
275925814891786016.000
154908237504639168.000
153457043203562656.000
163463660039815936.000
135207199760181648.000
174351582560586048.000
92190256520678384.000
88669025210283488.000
50670365221789856.000
26288432473577980.000
23807748519306536.000
29702606762655464.000
26642374591533804.000
24755133572577360.000
29856067940267848.000
22248625727483476.000
12299844530767868.000
15115886413341742.000
12134519071548708.000
27359363555613624.000
15135264019580036.000
20348209105716492.000
23336880857175320.000
29844181132697652.000
22879947548601472.000
29351306357812040.000
47958422875355752.000
26567739348387536.000
41489705578131920.000
24792094683698992.000
13907594261593442.000
7295039059129479.000
6232301436106649.000
8047501713016714.000
12116521285010758.000
6576576061162236.000
15632895456332636.000
12031736137010486.000
16275999563962322.000
12591674958980940.000
7149659060430314.000
8749260537646032.000
12758501505869678.000
11301892681533654.000
6441933090474394.000
4002834004391720.500
2056743154044972.500
5058809159406680.000
2753001795171590.500
3597637460252276.000
3666938183356669.500
3921564582679588.500
4088476606079339.000
8332101345568365.000
4780897334480828.000
2421184933205686.500
1320234862099570.250
2687595609412009.500
2548698642903771.500
1441880916026550.250
1564455050648521.500
2502694879172810.500
3675665128791551.500
2173425244367151.250
2096428026233455.250
2291052471378109.000
2411364601240005.000
1369157485775412.250
1331133072604925.500
1548094751913561.000
2449404314452519.500
3878731680042404.000
1977802625484779.250
2803163055069832.500
4519092166483407.000
2298533984574438.000
1153526154427449.000
1411854996052738.500
1108264120060246.000
2488716149381974.000
1371808119814508.750
1184036450353468.500
654223768551331.000
397880856673246.875
209623230028734.031
104535302088809.516
64740875280731.328
35008929994003.762
78337386382834.922
101211465538547.266
109809800314436.719
65093089579521.398
34232668238532.543
74876952285241.516
39364157004163.531
46733926099814.070
35669683427741.695
46167697823324.656
75557306177768.469
71662435646500.750
67382755684705.266
72115803532558.594
72646371658207.203
104594351141734.922
59212268117931.305
71209164184344.047
70435852036748.469
69466173600943.461
144868177388760.438
196666329849539.688
487147949770187.750
259541802015251.000
213690483634285.156
214519034130293.906
121464637145419.344
145490445998462.781
220312022623786.156
118774361603775.453
64575713592153.562
73025250999978.781
150421172169566.844
80901269027123.984
72663635271696.266
82015521885002.281
71176582719020.906
79397260397845.469
71275962796218.656
114513855866652.641
60460088770189.414
57191830057318.305
148148226877734.844
186516336568025.719
220096828248177.000
186376642569083.719
236017936282140.125
251841022979362.531
186354570659965.219
103515139855315.781
150943777669481.094
116640682985686.516
128913137521370.125
105653192647825.422
59640508685018.531
35683647921745.586
35179161529023.809
31871834751214.887
33014977356238.363
41339562584203.500
43266256669770.859
25560532830099.668
37442803368052.711
77106137358064.984
106015401971665.922
61503952255352.180
67600809254195.719
134748391771606.984
132368932429144.141
78525492373138.453
116331108144123.656
236625086164423.375
214511345750582.000
250283755486918.062
148525337002396.938
213953891275585.750
427038405757772.312
678113530864605.750
752374783337705.000
767715021159619.250
744435097039489.750
620069062917212.750
842779921975737.625
706447400034898.500
1549981563205905.250
1393356510913443.000
721046576478680.750
1088744789573546.875
1167806871689639.250
681700322490881.875
835107353323594.875
655651872418630.875
1526171484909306.500
1348858500610156.750
2820728677932271.500
3633113123613915.000
3461506188864436.500
7391782709764923.000
7939167251895800.000
8073722930277430.000
4615858996431456.000
3797762749311708.500
3987609557565022.500
4120993468594150.500
4366692708100325.000
4966680626923745.000
7216934822546927.000
3734029998485348.500
5064117280400688.000
3446618258408454.000
4017904895635298.500
3926037861464951.500
8722059083268073.000
12999223290597282.000
12684813304755800.000
7425478863064520.000
6843898070857350.000
3560667952078621.000
3658894223097285.000
7764448417368272.000
9049990649357204.000
4956036164984918.000
2542449494849197.500
3677058990547243.500
4542588044716902.000
4962486182899596.000
4694514014279772.000
2707929894057193.500
1904905904533434.250
4401210200527366.500
4605166609209384.000
2452798634171848.500
1247099255720465.000
2806096496268717.000
2219289972007007.750
2737080508927457.500
1424297862311539.500
1056675039271794.250
1198011834294923.750
1567054948394564.250
2002925493504173.500
4619565720296461.000
2548410741104505.000
1345143480143430.500
1490414077951938.250
1120071223289454.750
628564580446827.125
621943933554108.000
326027799835006.750
767641982826406.500
849454874247352.375
664371632718264.000
1431371197070612.750
844433105123969.625
1342932470667771.250
2826831811429837.000
3948732209229270.500
3770463723672821.000
7897900953511242.000
4277314513195138.000
4247962980128841.000
8870234073372139.000
4631815460840219.000
2813164067951473.000
2158277945413149.000
2300125102395174.500
2477780256381758.000
1443044594174268.750
2248369269501545.250
2429406812094804.000
2004284424008033.250
2434314641703171.500
2454916668073192.000
2058350751066374.500
2227441454015680.750
2842952965064809.500
1446366716559414.250
807462299706536.500
823390911808238.125
1096523618428907.125
2230374513133414.750
2596656117425062.500
1408517927708770.500
853541237896998.625
471678809666139.188
376191112899779.625
857353906386351.250
627472747814092.125
1565474476328019.500
2211021891542576.750
1301284297131342.000
755699572758926.375
616143435699897.125
361433007152765.500
190352829277975.375
270749407748311.062
272138664229338.594
240611326143716.969
370840933029598.812
365156586668644.188
834291363138508.500
614230064988061.500
1546331771530648.250
2057130205540366.000
4254267506007835.000
4946780192721396.000
4220720498104505.000
8436381717644250.000
4417900977813145.500
2422463667576811.500
1293782541003500.500
1208206317329092.500
669656973429990.875
846205544970132.875
845429400780897.625
1283766755788032.250
1356460235780038.000
2193558837964255.500
2333363027905799.000
1362538228711320.500
1091398885421089.500
2782045233248026.000
4518264949294004.000
3476885022283278.000
2011827730839111.500
2134293224219845.250
2131557291315308.750
2033557634320956.500
2401450210363463.500
1248185204819942.750
2704535200913774.000
4007717793927775.500
3955074486151575.000
4720424998660387.000
2793795504445444.500
1430518565952534.250
2329310822570819.500
2703724070834194.500
1444113412133798.750
1228047428543534.750
650522313709605.750
853819357994662.875
1328970589084152.250
2750623352037634.500
1915912421988858.750
2414424689515308.000
4989855830967919.000
7784828876936012.000
11659343396794734.000
6753083223095673.000
3636271359609982.500
2146977384084123.250
2457316083316800.000
3962324213764503.500
2301281371908422.000
1317166567894891.500
1075362413120105.250
1185942376854534.500
684924199942860.625
750464396802058.500
1212021625371381.500
673161096410674.500
1413191516479177.500
2856221542698320.000
2262340781353468.000
3503619255408609.500
7230304672371341.000
7705316931271836.000
6668093003105113.000
16051184933274154.000
13100849091726798.000
7238138707647571.000
7365510580955573.000
8552328294054773.000
13712574950066644.000
7403544156543262.000
7597291030667844.000
7742228718631325.000
16280094737237048.000
12449773966365632.000
16069161117626906.000
8757496759697327.000
13138974141039094.000
27300696118759988.000
38332346756632248.000
52263514848826512.000
29688494025718416.000
20765118268518724.000
11499939259903464.000
14092595476875900.000
20427473579766404.000
19975600774705664.000
23001702041607292.000
46042966496128696.000
95687032467174560.000
66753304578874848.000
147004445699621888.000
80475202974956496.000
41888608089685184.000
90497732978469200.000
78334710636344208.000
89997623650676528.000
53621340282466624.000
37549856136621584.000
53730413760118576.000
27474133141254392.000
21183496396650312.000
12608775226576344.000
13690322738963112.000
29669565825937024.000
43684204959422024.000
94189257004652048.000
88923695840448192.000
65766060455650968.000
134419045014761424.000
79438199970246624.000
159739002305700768.000
80681052818860432.000
164252928702769728.000
263759606426838816.000
297820849019163648.000
241162226288246624.000
127229992110690288.000
167843057010948096.000
272476721848063008.000
264934020060833248.000
406965167681657280.000
396604247482352192.000
523297585148560832.000
490980542683010240.000
428471497628283520.000
563093988729807168.000
886241609877707648.000
747227904270617472.000
1687381615191230464.000
1611647351156740352.000
1393373953265019648.000
703276371007047168.000
722314251732686080.000
937553475802732672.000
1322036556287241984.000
810667732480047104.000
925460931799540864.000
540697380939248128.000
424894434041598912.000
544868993696061696.000
376838531267443008.000
451206997564313088.000
500731746553553664.000
1014090330397803136.000
1369646932565462016.000
1223666798185505024.000
1618486307583355904.000
902975993603826304.000
887181987746296960.000
844691333044367872.000
677574787328964352.000
1749952132202102016.000
1645128022782404864.000
1755698069226708480.000
1511853574402927616.000
3317036481052096000.000
2617025596454207488.000
1435785529565845760.000
1748638842642408448.000
1507433182704238080.000
813267632960513152.000
882134438831620480.000
1019413006983615360.000
742307459710162816.000
935710310808127872.000
948026310417501184.000
1250713190827734528.000
1636338804478186496.000
878242566613205120.000
908354372011014272.000
1328093553018640128.000
3110641533476220416.000
2271785720945169408.000
3101447863473296896.000
1651234498256967936.000
1574616030682314752.000
889972752711864704.000
985837470522435200.000
561761269109982016.000
418066949836697280.000
405014305425738880.000
561128723130835968.000
541757761613547136.000
294092865299154688.000
247861022006400864.000
257949032717633824.000
137578089169250736.000
79778116650086144.000
47603680257835136.000
27711653685652224.000
19936716539367976.000
52279850844956208.000
51521645311642712.000
27896157609647272.000
15303725360238494.000
12549978154550622.000
11190595297422250.000
12860620781392374.000
15975067337537456.000
23973268506446344.000
20252299946386712.000
48727511518794872.000
65400717981470328.000
89259564613207392.000
49434972094968232.000
54078166535806992.000
89043451830942304.000
97393234711370656.000
49620640502596128.000
49564971589270192.000
39795605820371432.000
37390498565700136.000
42457654654569576.000
37240352223123600.000
52512795301160544.000
43821267014663808.000
68454811691220256.000
88199538255254432.000
45119406896738688.000
65291692539959512.000
78632983219191056.000
160711282380554016.000
139205108668871088.000
134726045204185520.000
67246058535270888.000
97283715789942512.000
84876691283125168.000
51667934368235192.000
28353288774046500.000
41013943807201640.000
46203825776422064.000
91501395370612608.000
97232075801686480.000
82705107502399408.000
96098571962150304.000
92022341415174672.000
46672632533057760.000
44016044136165840.000
24084442711580404.000
14124660934746828.000
8290348093260364.000
4736024767202028.000
3430094351161112.500
4721769704588048.000
3711144001871779.500
3437636662587780.500
4761634556191474.000
6495389073181631.000
16031394538379904.000
20774967459987192.000
12474979258756648.000
6893710216460511.000
16077001974409630.000
15053813118640866.000
11093664846633898.000
14059851550804570.000
7398593647742525.000
8123389499180866.000
4461119011380769.500
3852533052367642.000
8463665919346362.000
12390489233417210.000
14247430557979740.000
8592808325953191.000
6469042052090262.000
7057241096345638.000
8014234312214050.000
4478506666773231.000
8943241663710951.000
14251937149158392.000
12235397517507440.000
6669247387834744.000
3939781719766910.500
2263189308690449.500
4629199875337891.000
6618180814433295.000
16233911670948386.000
14333017181772676.000
13111190618119712.000
11227161634217162.000
12542841689814078.000
16449445445185526.000
16615497416814432.000
25456337573487480.000
14442515005167090.000
21730753192310360.000
20949088602061544.000
47775603095765072.000
94894075062784496.000
117752260927403200.000
146047257205642048.000
81530802589136272.000
80708123516257136.000
170127802947678112.000
175679856734632928.000
157578279871157888.000
161897783679928768.000
139385358709507984.000
123410031254734336.000
151029978217442080.000
117106855074309696.000
71904223559068544.000
39201493070568528.000
54200633372397336.000
65787740465241072.000
80945296031103024.000
93766815657450496.000
49264249514750400.000
65235448242780168.000
70348498421037168.000
39970503331112448.000
38257221006928544.000
43242572934200752.000
53981719017448432.000
28699816451980644.000
24421669233417104.000
12636815993832392.000
14836536799447210.000
14929323684265308.000
7725149324502742.000
4130157641804521.500
2462890963790026.500
2706741549022412.500
3625846437757737.000
3770051446326091.500
4873853738190619.000
2582685193040359.500
4177611521957520.000
3766808292328967.500
4607017774273081.000
2475055157589401.500
1344275998606504.500
1368426880504577.750
1186401511136839.250
1568918815955261.250
1452119091022095.000
1488410092537740.500
1485762728040701.000
1444489744670506.500
2173070828124588.250
2044419672959153.250
4726065046496298.000
4027051972986115.000
2076223587302188.500
1188943953240412.500
2473172085418952.000
1470432361112546.500
753580005830329.750
645913269887878.625
746509580998311.000
698242141462942.250
656764875277778.125
336888052443593.312
346643774833709.250
401948902873061.062
491777051699163.312
480186653641561.500
741238352832641.250
725506211153194.500
364158905168872.688
185847925156688.062
114765959837613.891
63482722286167.109
67489556739616.000
34749219970736.289
79235358286486.000
68104904380565.180
63847557626584.852
35675321155345.344
31215879865207.473
38921966280205.812
36375768942148.719
81449385676133.797
79288455789246.750
63409273732885.273
80641245810460.234
63495716860869.219
78331732963820.219
116223345762712.750
149118340894979.062
151724679687822.844
116337092144670.766
180697092541775.844
227967230149763.594
237081437741026.312
122705364834437.609
127423795801949.672
106027187011064.219
63284004164083.914
83574038976141.703
63489398671572.031
60193431379059.570
134216872265648.906
76722265435043.250
80127553397802.562
68653047827593.141
74887054183463.719
63237409263935.203
34005724897256.234
17937168326217.391
9613561418215.424
9961589555438.615
24040763530094.957
20374015500616.199
24544467514839.734
12469194745427.525
6677509962709.409
10743933964079.098
5842105949420.994
13752312219315.977
13228155228745.689
14436577635433.078
7365149586130.563
5646195821420.145
13163766799153.248
6988880545736.043
14461363094609.934
7598103346316.201
7846221623597.338
7454767272255.918
11441017239469.410
18294624854395.793
25123396591698.219
20795401311627.379
21982984782363.801
11523900363669.021
17968709102118.961
21182616801978.141
23246093799262.875
20659703541039.336
43883606581726.414
63707452856986.203
130850426729664.000
71557481584637.812
41454433319277.414
45243576717516.328
46329002750029.055
46390535690668.852
58777291773232.148
33914113819746.012
83782294036693.859
42673454653611.219
22072678146918.340
22340263051561.520
21702955665333.781
19002490210486.207
19604731752780.141
20014690025135.961
12206951189269.826
14182155942535.158
17303065764054.201
40482126046702.531
61884491523124.078
63121454137982.547
82663279353576.672
67500520984734.344
66999992169394.242
34831592770836.129
69855510340638.141
144197174086231.500
148430614693080.500
138676172526978.609
149605412117268.344
240961398447865.594
262395814211821.406
229456567479637.875
120404556108256.656
124746162418022.953
117490783685651.250
145227828033627.156
79074290447109.219
124198767515739.547
72367778634006.938
108520349325047.000
122516906743335.172
109585982460824.516
139376803657426.562
118008417257293.500
68614568797926.633
38909857580614.414
35085410069616.270
21082858608591.242
18094627233151.578
11095704411688.586
12237121603727.400
17871978885672.078
18725689235869.949
11566326999833.979
10844785967100.104
14444686133515.451
7574647828351.924
11002256039988.645
5914061687755.975
14011324129085.293
17777927775102.109
24720697813660.574
36336943226046.906
21398040518740.688
23311849081293.398
34158987591920.746
78835832973363.047
77958367747245.734
46136659531250.062
40212610926101.047
21851290545464.836
22462587762748.812
46572262634024.062
23775535667643.703
35170827972114.348
21345907668861.922
32572700484062.090
81288325182313.016
109820580700648.312
65018903323732.648
74121569923202.953
76447491027533.219
61907434886242.539
56188705346159.031
118467831915425.203
108623839846098.188
58740293862575.625
33235908696923.957
19941226381946.391
11507727203375.043
18280325228976.656
38802944874919.906
43787140448886.547
37066916435544.438
37367091539406.375
20236015228269.582
11155607249849.549
6843414696443.174
3992532031459.098
6427093492728.536
13308482604305.508
20362141510529.082
20452893760189.902
22105344859624.598
11323217151173.332
24090013287173.859
18361577013723.203
43440703537762.695
44177054264276.773
45119982469506.516
69270557317841.719
36949449213267.945
38614521166054.328
37762618945046.945
38902881041985.242
23387965295774.965
11819660722520.279
14077009139688.982
9878608904791.725
22580655263208.324
20026553308336.340
23229140659005.379
34978675423984.680
83439114195933.953
59231169443940.719
73316141906397.328
151277948688890.531
236581520296546.969
236617691528289.500
120066489556957.188
249179899013450.719
132138924464607.500
128799632799416.594
125976654455788.094
265077460310969.875
233063161597945.312
334756145909699.438
200876439707191.719
457032158174107.500
341929569410558.812
416006526239436.188
333341652131214.875
398148352191182.062
199706623084850.344
217703710538190.781
216377172429741.062
346187131574533.750
344743298868378.500
415592292418976.000
442422036856754.688
690415765400550.750
798232077943219.500
1265572011639217.500
1224344110538730.000
1287480052257615.500
1102568812004847.375
1136433516665211.750
1272971633950449.750
2035755738778466.250
2572077841876199.500
2309253083534870.500
1407108148254310.000
1170363975326655.000
2780606194637893.500
2780844246018372.500
1923456727867791.000
2355922562333288.500
2153145657698158.000
2016208551338446.250
1190636761529452.250
2716722112021941.500
3639293034718121.000
4969255716984844.000
7702230484015206.000
4402610495210499.500
4182742929389413.500
4644778961804638.000
2630820736995997.500
2202087490749500.000
5117675143835961.000
4026598070931085.500
8106344392458843.000
6582552587365418.000
13989479310451442.000
15778792162826798.000
22343598424946104.000
20437622145223180.000
20907602097796036.000
51771371494839960.000
75608177596259088.000
66804685542068144.000
88063863854130704.000
47046360315574200.000
26978961025846880.000
40483767564616808.000
41395880703918144.000
38092335849971088.000
89919788095920624.000
118747517169905264.000
134155458818126640.000
168856826343078432.000
90361534812572080.000
127604779104696032.000
266500298693544384.000
290668509737806848.000
172058424813727744.000
127482631485834736.000
78471401171652656.000
125187276471604624.000
136507573531766512.000
161823697224390336.000
155567487120172608.000
316274827257819328.000
478448197991057152.000
486357072326500416.000
965019923903154688.000
1439636259381688320.000
1700353402542135040.000
925559377429174144.000
697887190763368192.000
980175753302831232.000
849371606916635392.000
446567538407480576.000
523961590949724800.000
472168443398068800.000
273648436780349280.000
221909064983909760.000
124864196750982256.000
271535520211460864.000
267360515103608352.000
145265331729531712.000
299676182922108544.000
487548575582106880.000
713102388309275520.000
403648647220865472.000
472964401281360960.000
533375215293639616.000
544438467370140288.000
307263540715110976.000
244769201335540736.000
294647717584884608.000
233213462117353120.000
282917449050832736.000
286758581976599104.000
264037674106559936.000
557358475437351360.000
498460915573102016.000
495581750835918144.000
290231380499517888.000
587045459169937792.000
472391129623735936.000
602197369820584448.000
320526174051022976.000
422454104258119296.000
972282400183726336.000
814517940291503744.000
1798278165345656576.000
925046668323034496.000
801232471930345600.000
425065381011031488.000
586863541268969984.000
802989435828468864.000
472168458141496256.000
258816839468850400.000
574318897378177088.000
321964346429835584.000
167367741037590464.000
333442866713239872.000
312966097198758336.000
325190706454832896.000
250535762951647680.000
135187859221789200.000
152942299892832000.000
170313616469860416.000
252237672261739776.000
248197328124909024.000
130681452397802976.000
330005995366676736.000
299447049634981696.000
180932133095300032.000
102295712259947440.000
74932255189374000.000
40214282219192320.000
54540546775930632.000
43788619893294512.000
48813030186429000.000
47436030400362376.000
49788380505483144.000
25662091603052304.000
23048456726550092.000
26187646897004044.000
14387192673125936.000
29935651123993904.000
31448209844591512.000
26175505067765680.000
24368406208203896.000
51482737741374792.000
46098658835393064.000
39503181244201584.000
53134444709774560.000
48170274812279216.000
46913276597348696.000
24068419800883248.000
12773834038342766.000
30806802030250104.000
48783141705489912.000
27970571286648768.000
43339709790356904.000
56070293746142728.000
89972610649410432.000
45856700380355488.000
46542951167227136.000
52907055025873144.000
39323726734040928.000
39094075863261208.000
44571240150516264.000
49170774807172024.000
28420512356723012.000
28329962315855756.000
16297638024073530.000
8361586274443290.000
9524797378374348.000
14368271835325030.000
7510033660680697.000
6679667952754698.000
6948629718996102.000
8764207899252495.000
13556846236528782.000
15008481462280970.000
24091466810939392.000
25990813694816136.000
13086137252851208.000
8046490191225863.000
6986321114477729.000
14097685229369638.000
7881910002986532.000
6549098746889519.000
6599379093007767.000
7109060915691549.000
4104557967130462.000
5151329668022494.000
3808282603774349.000
4554506125603436.000
4239790465058144.000
8781486276948909.000
4868923839764895.000
3697378584150633.000
8986143364067164.000
12978018434108514.000
15163079584837196.000
13134661216602222.000
11596346772380542.000
24821205966838028.000
14080313033886592.000
11648556856428712.000
6545394905509400.000
8022005477991202.000
7764368074888000.000
6845156548807327.000
7103087141195791.000
4137200844367705.500
5143666991510994.000
6469028777787302.000
15031879095174010.000
12621180406672452.000
27587400030570436.000
25986654196098144.000
15117849827468604.000
20974079980229600.000
48075654365027760.000
26415294420093548.000
27970813032327960.000
23910189602863364.000
28337233946536736.000
15616628137262704.000
16705744225697246.000
20910019551183012.000
11410583254840332.000
13524083758001786.000
29760745842865756.000
45084326648598840.000
37885003762344360.000
82849676708101360.000
68442315828989448.000
38555500962487592.000
45125161357997232.000
47636804460040136.000
64484840816383696.000
66166343040667608.000
38468455537032656.000
23473194238707452.000
22123957384886148.000
12255549912759712.000
26378291595297136.000
14672273268117814.000
21725682245422640.000
11266302057599164.000
14551485858866942.000
8353413790796346.000
4719870911283285.000
3646259001440194.500
8669062285068593.000
13370040284984342.000
13201416343166782.000
7733458241286501.000
8977035375601764.000
12095428296730788.000
15180177389612710.000
7835538315246619.000
8997545898471971.000
11811012205111576.000
27060623062925988.000
22345925614788244.000
12654705843241478.000
13323158925884162.000
6778008647462287.000
3565740269187282.000
3742383423026329.500
3748317097214630.000
8776339113180314.000
11911769188964646.000
15005316466794704.000
8689167725035738.000
14197399062180044.000
8518013126489931.000
10988344526230882.000
14668372479141822.000
8321072269075954.000
6552541383860085.000
7358737981240250.000
11355064435740504.000
27946465136682800.000
28441922400629712.000
21123538306366468.000
10660925036739116.000
26778602877676920.000
21866185682625552.000
45028823501530448.000
69694422754959696.000
64310227657302536.000
38277344156870256.000
19106428822654344.000
26049617547936232.000
38954765826292448.000
49334467542956088.000
60730909602459960.000
89711561915392240.000
48059637047170416.000
27345312860861944.000
15094053003149704.000
11336339053547132.000
14804144894344404.000
8357912500738581.000
7794632435339943.000
6564814141904132.000
6201390621098443.000
8508063873657537.000
13669099931657114.000
8292461110204243.000
7659202988776945.000
10865397360107336.000
15894400227773154.000
10626488032465308.000
6179631825518889.000
8687098541846779.000
6229772437356471.000
14213839912121490.000
21690387673900924.000
26022824709196912.000
23070802042701076.000
23713696180090680.000
24524732883255184.000
21920697546778340.000
24696346355349148.000
33622360588761220.000
69610455149926496.000
36436587355196040.000
74849372614392576.000
38503088014742184.000
45580992042863256.000
27857921675675244.000
14869247089452982.000
12667835527285430.000
11004833144815306.000
26449279794938272.000
23290522925441864.000
35168067408725988.000
51607530449160464.000
62349455411227344.000
166770330581095040.000
233216411577950400.000
531067479245015488.000
528760100401962752.000
275724137733213248.000
353160496605737600.000
426276807666805248.000
426119699860857216.000
227453747352458816.000
218993179518412992.000
211077435856366912.000
264999586610293760.000
153617148852488864.000
83236137262967360.000
127072503602239296.000
138805136727300832.000
76000413478749808.000
44161402476686872.000
24627811012543392.000
26189840462844100.000
20309076072087032.000
11860877315135480.000
15014168288640066.000
11201947986347310.000
27594571814761956.000
34348280756008272.000
34238569728804336.000
93400857531511968.000
127994890069629136.000
129327937559554128.000
164130828486048480.000
114714582398436976.000
164828228736568512.000
243007774388471744.000
144983035841378816.000
140370857736556528.000
75649928130949968.000
63464818690097944.000
141873546720285856.000
164497397223626432.000
91456687381491168.000
78506346143982064.000
64198084494713304.000
60671611486077744.000
34221690281765196.000
81430435876765184.000
41092809971328728.000
34009916637170952.000
19285588066425284.000
23491852119687348.000
37111554437219880.000
75577581312473792.000
117239340885136432.000
141711484789993248.000
78276762096322800.000
63333255843870536.000
35636894580068352.000
19327132907631732.000
20688484071735284.000
20015005407836072.000
21536390872576396.000
12358840046939266.000
6961268219517153.000
7434886511418171.000
6824607425385486.000
3959808849783912.000
4218853682350146.500
2152421062178968.500
2504323661830255.000
2663180394494428.000
3554814323642693.500
4058012257205691.500
4859184132852040.000
2503363296610919.500
3603340395083446.500
4719814269743439.000
2379876846934199.000
1400740599140756.000
1025432846793850.125
1333277302442108.500
674434279384095.625
1361149010397613.250
2076805997778734.500
1207620278209377.000
1501889593030901.250
1253310949721479.250
1000982264147625.000
2456821601861307.500
1866356151187199.750
4331381793855363.000
2214342156933127.750
2451956853711529.000
3732536879369926.500
2034768561547772.250
1142080294043889.500
1323571656096569.500
749178925477578.125
421732754090351.312
238028324702931.188
174726178424808.688
243794354162918.375
211778916990022.344
187419492334215.750
411080539907309.750
370976804743126.625
450582135329786.125
237025518976540.844
330142009113153.688
321495519479938.312
757751974469056.250
1116497436511466.750
615368426377095.625
1485956714808309.250
1984783911914778.000
2317437522657372.000
3570117496514925.500
8429187626923592.000
12443754406697874.000
27252855695585776.000
37526229191712672.000
20947546224115544.000
43202407102597424.000
23912089122805324.000
14410383833924936.000
10710568459335038.000
12131863889924682.000
25161098327648460.000
20183036881484340.000
28283749533750048.000
44908363285608488.000
25621582631490392.000
15038881266203592.000
7737359539512642.000
4191224704044874.500
6217998127546828.000
6047049729067267.000
15235191503919292.000
13655779534371846.000
6973842615090703.000
8111670911923232.000
8241476466475973.000
6612140996747584.000
8585103054555074.000
13035728461291350.000
12751160390037396.000
7102394303893904.000
15053647948649698.000
10393730649173700.000
10942979990608272.000
6217132121722856.000
7327838891785189.000
4459457915350895.000
2487136500584896.000
1289675566819456.000
1400886985946171.250
797652956344527.750
1018659715492232.000
2594269244075266.000
3974718881331571.000
