34.210
75.715
107.996
116.927
106.521
215.896
209.072
324.076
773.951
824.907
1171.536
1132.514
2704.802
2523.597
3614.870
8197.788
8608.614
8357.442
7729.150
8387.081
8447.273
12447.749
13601.269
12324.950
25868.737
52173.462
51583.115
51778.675
51722.766
51002.885
64940.379
62595.607
136315.873
139686.000
216648.473
441268.480
466114.230
445024.656
945099.846
1278151.257
2605943.458
4099524.698
8594024.346
8237542.999
18402648.033
18008305.950
28778226.556
27019107.257
29493158.801
26649350.710
29233585.588
29526745.009
41847777.616
103752940.057
140778802.072
307269835.129
324009909.302
518149516.366
509542262.735
1059706423.672
1122531902.166
1362760716.036
2850778093.214
5970417999.362
5504094686.251
8837277245.019
13976324065.916
15200619005.150
36308721283.018
47274072866.897
104345329209.678
104623740849.874
157190810367.657
361168188661.418
533132168862.558
1190814049800.493
1779312094572.339
1970566462867.948
2041050170170.437
4070574801466.324
5186048954212.864
13508766997966.172
20364368650559.945
44076645708659.750
40660440627678.219
58805648033285.227
143457419723052.969
137583800722848.484
133341329354039.156
125222708064444.359
127014874998912.953
196632359852448.188
419540165714005.188
584014367869631.750
655971683194202.875
1518258108829696.500
1444740374585974.500
1487661567168121.500
2367373314758917.000
4863019095335610.000
7845032703635486.000
4490550372926076.500
4933698212594317.000
6195487036070040.000
15144477700512482.000
11261440678668810.000
11180424640531828.000
13470750732426482.000
15327139727647998.000
15702141722826664.000
11597010437673276.000
25557711533213472.000
20719123897480652.000
46184312882693296.000
26615812137405900.000
20596368273170320.000
42085990627585616.000
38459451302824848.000
39666816113843856.000
35338029743148792.000
35415152678483540.000
47524100657771224.000
44674097537112048.000
47975272814263264.000
25462151324500380.000
15116104416932790.000
15952029089043908.000
22379503895520936.000
49457743578396616.000
46943796460982152.000
51752166595383056.000
76022723134356208.000
85544712374638480.000
133559589256249344.000
163847889170221248.000
90523268297273328.000
119934318017493200.000
275498385335787808.000
163685566322036192.000
83785637327229984.000
50805151220792080.000
28628261371359312.000
15157420852312200.000
14783142521669072.000
12550756261669328.000
27001316629712832.000
24450039744470736.000
37269891945177912.000
78954788187322816.000
160601676689712864.000
217309823743135968.000
203698028443830240.000
297937118844756416.000
165405744204308480.000
137351651330915312.000
121133288671307728.000
249931445215828352.000
302469103350804288.000
293705990687509312.000
197839554416132768.000
539509954182860736.000
365326670113380672.000
212351127006855840.000
119729027972335216.000
258618843419149792.000
221588334713931456.000
252256760394634784.000
234749286473898048.000
262106274502562464.000
145823778942915712.000
115179816192217632.000
240557587120481888.000
140392314930395488.000
76432972271902416.000
41629444669847904.000
21078401084741064.000
11383470192730040.000
10951266001268212.000
10805310537222744.000
14426000242616810.000
11666387525624040.000
7074364323965376.000
6299223322911134.000
7664129509482876.000
15601277029333584.000
8339784342556711.000
4348201035702376.000
6661095107117843.000
13564118856787664.000
20178060344589244.000
46711915592484200.000
28425020754280340.000
14899888750289060.000
10462561550586704.000
28589463417497396.000
23061925856001352.000
23625737362463876.000
34613781504457920.000
42286756714671808.000
21629347329733288.000
24779889953262708.000
51274118727553792.000
38824055086302128.000
34094652958400020.000
21272242728386224.000
11531447881064882.000
10628183312101128.000
12024778222230720.000
6903976021565643.000
7250811330545983.000
3972433288436467.500
4939862306077914.000
3314118628322757.500
4041203692602901.500
8424753533775699.000
6532483291805994.000
7563232565908179.000
7684413305231407.000
8245169368647055.000
12677098639096828.000
11530824408767276.000
6392710545506416.000
6770966328535708.000
13644844031191380.000
27291778465570940.000
26148696034156476.000
35769785299021160.000
41025283884559232.000
24558860490065008.000
51438564341932584.000
43849205228519976.000
22898580747573048.000
13369460808901330.000
10710597117101918.000
12645450033089890.000
26589124637924116.000
23627881892711416.000
19484456434425100.000
50934158881128632.000
83286296500262224.000
121441688275971040.000
112723076165272080.000
238407630654171968.000
248946751383637440.000
275019817305388224.000
165153742882980064.000
89126718497811648.000
72003801107387448.000
86651306798919680.000
63087021536412856.000
35621952822746080.000
77697411230071664.000
39274115447055720.000
81142870845703984.000
48291432355097776.000
27338319456962048.000
21409525558209936.000
24527902632641824.000
26953282034352164.000
13814854616629308.000
11978960593951226.000
14033095352418348.000
21246958867647764.000
21643943324953768.000
13262068165116168.000
7194259752813697.000
8248746749802721.000
8761669334152719.000
6536059607151242.000
13396901578568378.000
11779644158528814.000
13307811998968818.000
13234349055285118.000
28149652248367048.000
27543615826013504.000
36902695285645728.000
92808209242339008.000
151277072273736032.000
200270964879995648.000
271056831659435072.000
153292112440837600.000
150106710945554080.000
78252042443672816.000
61050482975890856.000
87043295501820416.000
119529510860032656.000
250202916723687680.000
142612728946485296.000
165053088645588960.000
134966179806484288.000
80342674602787264.000
73984609847969888.000
112351128791342640.000
61116324964371784.000
36707405142861880.000
19147068286522956.000
43369939636523048.000
23076403456179732.000
18809378623148920.000
43861690342451320.000
23906136762129392.000
28617698347559120.000
25419777913416052.000
14177237857068422.000
19470683811044952.000
51427341277883448.000
64479081877044568.000
79851087496039104.000
85980714402013504.000
88794995241170688.000
144436591674923936.000
114141414949167472.000
160864529165881536.000
82219331229836864.000
71527663129339256.000
42337754736956872.000
25048028069464356.000
35125097101652664.000
38685772536395032.000
19414948433352380.000
48704408918443288.000
71424312110623560.000
71463670429042056.000
37974789036772744.000
50551693814445680.000
80539802401634448.000
92289758362174336.000
82617419623736608.000
75082655279419776.000
40622212160029992.000
23514117610468432.000
51451254223461152.000
80833992879102624.000
46906783849008200.000
26319062742860784.000
15253174610924840.000
8668391498501002.000
6330442187124569.000
3337666628768716.500
4844079200070465.000
2599470897028802.500
3916233937899152.000
2120874020981286.000
4946742276656619.000
2588535621460402.500
2600829823356070.500
3199092351182808.500
4283620711969554.000
2312392568790355.000
1225883911261971.000
1342427274976804.250
728619765821432.375
1034636903207856.250
632129710213321.750
1001262387263816.000
990567672480790.000
1200403288162109.000
635648002086557.250
1468591188592247.250
1436595078255021.500
841545348755176.000
664548688778345.125
810692251137978.375
773543926563564.750
1055461026176435.750
2245834387427967.500
1846822523497464.750
3842936401738952.000
2342290218062425.500
1997586100177872.250
2409862875715806.500
1429095157812869.250
1385866945440420.250
1085207399898553.375
1122244634573774.375
636609457058462.000
842877330288646.000
448706613703833.062
318310441281438.625
414320765766091.938
548969146819454.250
1151027397309847.500
2635378235150590.500
2208237781023408.250
1257098184558104.750
1027970834003522.125
1463811611922611.000
1335420490669330.000
1048325488809785.125
605768471951815.500
1382041373057524.500
1872219151746558.500
2170793463240478.500
2389838979395918.500
4730986025148814.000
4466424229703929.000
2276271528204603.000
3413262139283965.000
4604448108509918.000
2361674572408725.000
4699347229160241.000
2561398111954294.500
1422030519644534.250
1898166187588268.750
2579760560558541.500
2171665080552735.000
1116759579652571.875
1383909333451611.000
2146525730091660.750
1974106239803100.750
1036965985150022.625
1310799450323355.000
1444973366182989.000
1389054550591725.750
702923335588669.375
743296557311908.500
1038118739736018.375
1410153537856517.250
1359907089134944.250
1290119158067649.500
759911830394372.000
390691166047788.000
409139462394107.750
840374269437636.000
619484767956298.750
347319217277766.875
454084834753653.500
360811095846703.125
344571419970903.125
719905636151264.875
1144325094008597.750
563216294175571.875
664263914782228.000
669692023106099.875
1393656791544924.500
2053104912562261.000
2042315514834883.750
1246773677484374.250
2658353844777534.000
1418660907891339.750
1481472803716219.500
1095331712440668.125
2364896508730032.000
2736213235878092.500
4009953796531748.500
8504037096210324.000
4457790572608240.500
2568597245128941.500
3315064085159444.500
7455823797131325.000
7075927945614328.000
15266964233668814.000
12961206583397718.000
25838881194888380.000
20323149139441176.000
52271701547661872.000
26657818481226944.000
27000088778705932.000
15106916050953420.000
20940676798009200.000
45546133464671888.000
23629226001617960.000
13370676869251570.000
12199989986201602.000
7001442498126840.000
8512812195103626.000
6127946240297249.000
3293270470705641.000
8550166112169529.000
4455601058865652.500
3694630037642464.500
8292116357423896.000
7628117123914796.000
4606983750534248.000
6458672355694498.000
15291822622749196.000
8130392130142294.000
11537753941154744.000
6410315948476623.000
8012955551594424.000
4340825301684451.500
3577123351481667.500
4636444095219648.000
2753882194627499.500
2675254116006018.000
1521076665986437.250
793790134661560.250
722893428219037.750
588473624753743.125
659150512685683.875
396424133148616.188
473789858569899.250
372930575140103.750
762371924162545.875
432860495065637.500
599491584583335.250
1401008760604349.250
1230019495987055.250
1024757294274819.875
2781244549830430.500
2372057711188623.000
2386554883227086.000
3670526208235606.500
1914441558844017.000
1042700523981963.375
635207755995986.750
1520122732793142.000
1103100746720079.875
1398454056542882.000
2243806988427037.000
2299011768080754.000
2566310122470941.000
1966762209494840.500
1948025106083649.000
4564660196437110.000
9008106829556934.000
6202893817981788.000
3751957165563835.500
8862662613884267.000
13869222859113360.000
28926475274170368.000
44365081188796840.000
44090828325529968.000
24285641229961644.000
14740773442202304.000
21643782163792864.000
12899388200047640.000
16125130888920234.000
26541765205747392.000
20187256861039044.000
11884120201371176.000
29081507773555824.000
20608356092365644.000
22307539629538180.000
29022753164853724.000
23223742243320712.000
52871104241692568.000
49281521453422080.000
40111743835708000.000
37579963796779112.000
84582238629701232.000
66088807903363408.000
36455149974400888.000
20760849386045412.000
11236626668298520.000
13630037648142080.000
20304237448713444.000
44471802661230832.000
50394206456759600.000
43144294065414704.000
46036370254794488.000
24637148071176096.000
13998484495294996.000
7092804752318451.000
8235562965853221.000
4602763805855767.000
6464708410760046.000
6136346366380914.000
14382826361478604.000
7794126974457033.000
6365980855655830.000
6254360784177711.000
6778308754149987.000
7095596541999023.000
6574587247123234.000
8919442201785835.000
6276839627829813.000
6684269618437827.000
9057338373806140.000
8596546228528342.000
7178642874077153.000
4317549875222420.000
6467011591019846.000
13505139883794176.000
11597473855428692.000
15315772417419936.000
15581589395510720.000
13900731559090266.000
14865187060346258.000
8320370323571930.000
8493285070886791.000
4534290169502936.000
2506819035537594.500
5062312533332627.000
5055534878776813.000
4818825378285553.000
7308786481312977.000
6876715357610207.000
3712241297727075.000
3742664362115871.000
3952947328318371.000
2177252159152328.500
2817105218372659.500
2013142540960046.750
2248131577419238.000
1240840639654681.750
1493281055091377.000
1212160720240052.250
1491982143566417.750
839443447313637.000
702073996896247.500
668362072509392.000
742249810966169.000
1110209123818049.375
1147574509263284.750
1274421195001900.500
1492244847677601.750
842078359933815.500
625212179445462.375
773129853609088.750
1258475067099660.250
1100941527866876.625
1548248069301190.500
2275870544625882.000
2643637287256749.000
2169259721782555.000
1161854934260832.250
2850444238160778.000
2226009677283269.250
2489753158025353.500
1350356686335626.500
1096729769283741.500
2812467955717404.000
3757387827010133.000
7698839935079269.000
6929480469443243.000
14617947197645942.000
7925899466832135.000
4465044013267319.500
3762015862707840.500
8713812677825450.000
7540353495905644.000
4341149657790229.000
6433342379885075.000
8688837783611572.000
4453961346612246.000
3792796455247563.500
8820191824281432.000
6440560413630191.000
16206572775316882.000
11395959683582244.000
15313859465227122.000
15883163383001354.000
20826764092200948.000
21487796095330076.000
12516584191671054.000
14076839864509878.000
8012370398326080.000
7067781268626888.000
4097044015789256.000
9088211845401826.000
11878715453105632.000
12642279951457964.000
13777931401616186.000
7822994568639533.000
8482662562329169.000
4699373170948488.000
6326918041674384.000
7116932131142187.000
7067632020311127.000
3569659521421202.500
3958187573360289.500
3720854155958458.500
8972360050767387.000
8463997246096680.000
6244048252524854.000
7068998716205125.000
14742178337828230.000
12546445782669834.000
25110531069407332.000
28582840246405412.000
43771343146879296.000
22432214651042600.000
26007324379187612.000
20152531536772308.000
28653601873741340.000
37412577893790160.000
41884028188582920.000
90777476145599472.000
89976056936304848.000
135741008858875872.000
209807530855104256.000
424976389377128832.000
535840423241900992.000
701223937754087680.000
1455686977415552768.000
874658147430117120.000
1394708611030649856.000
1502264104928434944.000
1593060280870338560.000
1602374187000636672.000
1478258540772380672.000
841102470917571840.000
466129969675360384.000
425195223501716288.000
668117410511561472.000
384056579644655488.000
214067261540648224.000
264466797903099872.000
409903455910093568.000
246668485643539136.000
554824961827554624.000
297082256228391552.000
255501305812954336.000
522885699157552000.000
478559120004379392.000
429015065977611904.000
445487638195420608.000
384231584532127680.000
235106430452913696.000
203973969888654464.000
263548154530340480.000
292429888453788928.000
157373649884749280.000
127078117361410512.000
170084391920084192.000
167917440983328832.000
126929867656613568.000
145832113629014912.000
87097868374884032.000
138984408197848256.000
76109344653071952.000
65446244460950744.000
80559279334133248.000
62872691760902008.000
36522293809541056.000
46636984357226712.000
66288915921741872.000
145294076665586272.000
128145156624376720.000
154879257187332768.000
92307378457019584.000
84642253125830304.000
75803582783953392.000
43761048036955528.000
48018479627280296.000
36033088668926016.000
20887105787867076.000
28159518676160080.000
14482321156433904.000
12239767825271328.000
7053271264222435.000
10588318969659182.000
12553647631722486.000
26977638264177268.000
35368711054581256.000
51266786288266496.000
47130170279206440.000
27653978875723008.000
43891045278259512.000
51373251770455896.000
28360242899288872.000
46509517729323760.000
94446846056403232.000
151920795490311744.000
241895828900975424.000
262811098683835680.000
234804192657452224.000
295214343729727488.000
427957140202789056.000
465556578763108800.000
502751562011246336.000
716345474817279232.000
891258622889535872.000
903343018416386688.000
546463336346436928.000
474154561763835264.000
256322435777445088.000
141544426199277088.000
73539670016324880.000
89871325589861536.000
65022589328989232.000
140629828680432816.000
158004463894284320.000
118483756803132912.000
150545744118726944.000
82647878038564416.000
72350530839865104.000
89333991158461328.000
144799145530376480.000
82026019560039792.000
64257871930500792.000
92391989004899888.000
66925590902889800.000
37711986241536264.000
51989282119360928.000
74335068795591952.000
63947365462937448.000
167438714017698560.000
155996909330853024.000
205244413419985344.000
537766900084552320.000
787978360619227776.000
1645728442581030400.000
2351280051959379456.000
1443079058116832256.000
3095322823947317760.000
4971086633195570176.000
5583930907173106688.000
4978632806345507840.000
5207004201166021632.000
4434924547138120704.000
9112258338323822592.000
5133153984434891776.000
5688750408474667008.000
5688984727473390592.000
4965874588991385600.000
7926053125731156992.000
4724912831837161472.000
4364864978002677248.000
2166588732063799808.000
2924442010602528768.000
2081676209568872192.000
4326413754895262208.000
5116263485436930048.000
2818036968211135488.000
3931903802684776960.000
4438580074755915776.000
5068900067162394624.000
4843099358022384640.000
4044312897892026880.000
4258930991859145728.000
4797975961161384960.000
5725344744009646080.000
4201934470829230080.000
4314233708073413120.000
2458067591834964480.000
1333053546757861632.000
673680712238753408.000
911165001225206016.000
473868405826109568.000
682599836101136640.000
1681064945236432128.000
890317625174769152.000
812205366771028352.000
804259891211369344.000
942492963160240896.000
1223342772451590656.000
1682336324447874048.000
1598744744029836032.000
1378672443702666240.000
2808925741377982976.000
1469646460958719488.000
1144472980110751488.000
1583769457792641024.000
1365043313250326528.000
1608005962645884672.000
2515269843700566528.000
2674795773734638080.000
3070611990692348928.000
2382154067048028672.000
4850081019022699520.000
3739938292336143360.000
4578440883138432000.000
3698876333498524672.000
5151171615170264064.000
4707484384794745856.000
5551286446958068736.000
4560009301422014976.000
5467592601594739712.000
8905352036233059328.000
13727941938101047296.000
8270299546733663232.000
7124307613546835968.000
17360289127082016768.000
16671904486836027392.000
18435461143743676416.000
26579416189396692992.000
26305215055600955392.000
53911514083492265984.000
31116282678624399360.000
17090417374599720960.000
8612210816473738240.000
7059395156122729472.000
4299486155589358080.000
5416171205887528960.000
7482699997391929344.000
4228496821145607680.000
2323874749060855808.000
1384312330978632448.000
2955347881666571776.000
2159005075239665664.000
3168369696518131712.000
2084969977317165312.000
5457405749809197056.000
2846233517465098240.000
2470864072020582912.000
2902209943511069184.000
2214875941846661888.000
5402579465157083136.000
2737112306218564608.000
1417308546585443840.000
817970329712790528.000
423820662023493504.000
255675471607191776.000
384494343746507008.000
526841005412826304.000
268816872445843808.000
140188696114960864.000
165998863236733248.000
224102965859894016.000
293790478568445952.000
163526429242162336.000
158774246197099840.000
123613480925247568.000
295648903307982720.000
218972952143949728.000
271861012673346656.000
268653601779950656.000
399394961448271296.000
396587859098916480.000
516721572333512000.000
466985965041965184.000
371147365995585472.000
469652036601780736.000
944745796755797760.000
485614224187693184.000
434205791494910336.000
255426138911519904.000
266729515680476960.000
300799693392273216.000
391537560092071680.000
536511590237878400.000
458123224695169472.000
363265822807058176.000
892441289876480768.000
1299756282437824512.000
3160184349846495232.000
3160379193829630464.000
2073672586052332800.000
2200157526234440960.000
1288621761419363072.000
708536754541693056.000
734387511287920000.000
1626888772612806144.000
1540257271783761408.000
1377699182202556160.000
784230238805023488.000
427378472816424128.000
431688970073975104.000
261267295845317248.000
210635459534408800.000
540353349951447552.000
420720232456915904.000
487555375165503104.000
537280736778516480.000
397611676539937024.000
487146894233232576.000
460105533480500928.000
252952904080372928.000
144774464252712352.000
115911089468420256.000
150172636133496416.000
77022713312592624.000
42184982234618576.000
36337360427252768.000
81549707398695152.000
61663921482161920.000
88883435025961280.000
46712775951012512.000
34184616073147304.000
45356326441317064.000
90960759155391456.000
61446143269694480.000
88439704128089504.000
93126518254284304.000
49339810226203840.000
33893394179672356.000
70575416064987728.000
92326477990416752.000
109558573543037328.000
261536651678674208.000
419238205815480576.000
494925588517934080.000
634963031603538176.000
966446890950452736.000
799781776387480448.000
870878480912744064.000
845005706827697920.000
1749157715561472768.000
1290190563165607680.000
1664243023949101056.000
894861460196971520.000
731683767012300928.000
393145366066732032.000
426468205269104384.000
237782451531109152.000
123309594801445488.000
76274489919668768.000
63417214926840264.000
166693106234991072.000
157206492199484768.000
143469607681162512.000
155973757246586496.000
195752447005597056.000
299938170188954304.000
200727714422935488.000
479205392277183936.000
760863318777975168.000
651727687096024832.000
356132959008279296.000
491417780248025856.000
467746647124936320.000
433559636232636352.000
522659342294396736.000
292817199357452928.000
245124591943684256.000
138033387785124688.000
202436673022133600.000
298779938595195840.000
390239964469952704.000
210553369028784640.000
281571543648355680.000
203285157293023264.000
124219707081218736.000
68571048200133168.000
68242902279241464.000
81568461732432288.000
168339722869242144.000
257316986101739200.000
209229199416533184.000
110885825077787760.000
62111167364715464.000
37114560540972264.000
45665241727535568.000
35313563261530368.000
47440164198055512.000
42910879814050656.000
45703639709623952.000
33619010166408624.000
85716472144322976.000
131107171286502688.000
127563324621470672.000
122638632847682336.000
159305365066093376.000
237327835275863392.000
199431137848724864.000
541888460172220608.000
528632072209644480.000
677575489610593024.000
735866969308745728.000
369721261654291328.000
467430573105992896.000
399204173018749696.000
209751051447092512.000
128442154292935584.000
154614509118046528.000
78436291450899552.000
156826141823231616.000
247858522905412000.000
259348465915717664.000
152772438613652768.000
136148420363015440.000
203385016125562912.000
453887879997269888.000
365976690513799680.000
413989272480798400.000
516113612267682496.000
370495027863449408.000
376487419860629760.000
492197855071990336.000
371007607397030080.000
453740792251651840.000
250012773552531232.000
137153120503090720.000
215984126442731680.000
226901176825217344.000
124708081358637440.000
149733275518884576.000
133559590523279008.000
113306744507546944.000
62494890980702808.000
36698394625135152.000
44863075131446376.000
26831245737232312.000
23505187294669452.000
14256023501159524.000
20841967237148952.000
49171704379864624.000
36436295433278160.000
44583406405251536.000
34841696565821544.000
89304106635702384.000
49578807723217800.000
51668478194698432.000
62487849106110560.000
150489571358009184.000
207392519830608960.000
501672670161344192.000
256895002524054272.000
157002148511000896.000
160973288284411168.000
203280792236282272.000
487261100292032832.000
292868948623441024.000
220210968575475712.000
284129509318302176.000
205338321893945888.000
110335554742453040.000
149540764437952000.000
198532186672979808.000
118501339538808672.000
111735741810207792.000
290473450903841344.000
155991983869873792.000
253155514395764416.000
295786346910794432.000
467279017438525824.000
399292153282033600.000
238087093591804512.000
126821858841493520.000
119603252453767616.000
71644100752835616.000
84807182608324528.000
134962853191291248.000
148812585143778368.000
203696976695203040.000
116192201116978464.000
133573644053193280.000
156137405078014848.000
135119775378251008.000
121929369496437280.000
134993284592400960.000
212505923219214592.000
125734596341558576.000
109549176066288560.000
124195455243164672.000
61267170117100224.000
62116496130052288.000
92220427240606400.000
51458251671139800.000
38599511276464512.000
60648191827290824.000
139809655802420272.000
77583263955817344.000
38665050119140888.000
45218560195076640.000
35241781306374352.000
83340580506052096.000
42277889170560560.000
61419420619646480.000
143286011632518432.000
80358210288505536.000
47137910574959488.000
50362737707338928.000
63023049521297216.000
75346480366514880.000
73368697537444912.000
86592282944758208.000
75619599855541504.000
71415170183442096.000
74434756336026528.000
43704250593354352.000
22046521604941900.000
27851880042026200.000
15822408197165282.000
12684182783175538.000
7303576176930237.000
4249046473719616.000
8484275430404878.000
6521001509142282.000
3919471623997266.500
4601741463287919.000
4557196167008290.000
4930795169461480.000
2603346400042666.000
2396943188608455.000
3354822274407367.500
2066675273815962.750
1204472459491597.000
643659714764123.375
589566736140549.000
1405527494635476.500
1232703608034451.500
1952845954824886.250
2407010523521445.500
3249746090315272.000
4322791658650230.000
4837929304986979.000
4387005776978187.500
2539048580254953.000
2225466458995510.000
1800557393098145.750
4630848683076547.000
7325185909491222.000
8323777518072356.000
6813357451380507.000
7854351003070899.000
4029167147457291.500
6274824035587644.000
15668316631707282.000
24100305693820648.000
18834663695866892.000
24321722630353256.000
33685568477367740.000
44337249060721688.000
22684363323077572.000
28843399092546588.000
36036652823366816.000
48504484135265856.000
34188608847082752.000
35097244953830424.000
33757914408276904.000
50317407966142992.000
67976541559883640.000
40190698859637944.000
46697949489330160.000
41716636651997584.000
23479436718717184.000
25720660170440520.000
37842477023187264.000
40728692182599912.000
45005920976618560.000
25729102797080064.000
20584772729109744.000
43770236663317256.000
51801408330282960.000
74912865056578560.000
44281394296480760.000
23945027740789936.000
19647508239022852.000
50297226800693504.000
61256929321490432.000
79144089208726256.000
74836581168309456.000
42049822010500920.000
33695832391729444.000
90654850478226624.000
135388442822971360.000
113122964072394928.000
259990152314052096.000
147691525406299584.000
132632007972626048.000
76203992483858608.000
121404601325715648.000
297477003572577920.000
154838212883754336.000
91568712684753680.000
49087438186740832.000
51435323375276984.000
34984716553707004.000
21425706168995124.000
34061264197273764.000
80171206481948592.000
110906656582707712.000
132760747723551088.000
74839807124744192.000
76062721922903952.000
85823478632848368.000
67081174222220192.000
155744756048751264.000
150820101307627200.000
229164298879488640.000
513136983965172032.000
279514884748905856.000
356199321902779200.000
455950431487741824.000
659233145568190080.000
1755563721311241472.000
1249750094160136448.000
775062760617799168.000
846468654093688320.000
980475170663264896.000
938032864806937344.000
1240460439415701504.000
3092646195251063296.000
4176364285995033600.000
5311835049921534976.000
7862416918543729664.000
8292635534430059520.000
12105737621749022720.000
32020340947173916672.000
28194396341414387712.000
32465920150046162944.000
23352052680151203840.000
13331022238153490432.000
17109171119396487168.000
9146188891903762432.000
7269425070299639808.000
4487331830703514112.000
10287616036661618688.000
5350429216611701760.000
4287393464595944960.000
5376023939034753024.000
4813696949587142656.000
4156243582263207424.000
2343115081201022464.000
3174409235327396864.000
3145625240515230720.000
1648229398473125120.000
877772511270749568.000
490208165332297600.000
279833221426256416.000
156658422514373856.000
88621554368257264.000
50828508799760976.000
50703581131004768.000
42111054460589984.000
47013174653899016.000
28430947576244852.000
23447656967514084.000
48729722078556216.000
68982232731928736.000
60517261221706712.000
86116029225336368.000
119833658997786624.000
67259219195797016.000
39956378974085552.000
87832370076231936.000
85471961591430080.000
70837084709515488.000
76184878990146480.000
109693667634730368.000
280889110840717088.000
208831434389100576.000
293532266366914368.000
248474621427221248.000
138625556010978928.000
152341646486295264.000
143677664008910928.000
117609771857034656.000
162657441107327424.000
116148048061523136.000
145284868696810208.000
287600681846766144.000
284285078781902112.000
224332979932926944.000
135118742697058272.000
109568263930314752.000
140618169277797632.000
122676351657978896.000
114283389406008416.000
155045483926539168.000
214492358309287264.000
115619507062407920.000
60862899273361232.000
142073622743291824.000
285671844424281792.000
357961715114006848.000
766772274124415104.000
965868802856290560.000
968401307709193088.000
642327938691770624.000
840956742446811392.000
708612385978865024.000
359226950964718400.000
809101530717348608.000
776179837934217984.000
930685975098672640.000
744529879925984896.000
963711952701432704.000
1197458957499774976.000
1470527134270458880.000
864947775177985152.000
1718324595034090240.000
1442454444875070976.000
758633922694285056.000
436753125934511040.000
246150919659349664.000
150792753324266624.000
208296707463394048.000
532318179096193408.000
276002474470245728.000
298918516651166976.000
155724351009494816.000
112475820199346544.000
150258974047598496.000
168267230305350016.000
118894685342878912.000
113854406571942336.000
131544484887790320.000
155812228326405696.000
92700982393570560.000
75262069663243296.000
46190591699974632.000
69351636782945552.000
40728256387705768.000
84209468564657488.000
74229601742987712.000
78896338901394000.000
90589682244220016.000
131084309178739328.000
145751234883044032.000
79742196823894656.000
48366410097093528.000
38668707199907296.000
93010014529308464.000
48309833382566320.000
49361857451479832.000
65062866482443928.000
69776024022609912.000
153138344147966816.000
154965565106904512.000
244538682028081504.000
235827487917255008.000
211941811965650912.000
211072766776561312.000
268509992271651872.000
198708157933108000.000
490820241801562432.000
289297461736027200.000
167207150769391008.000
98977160008390464.000
89900780746975760.000
45982985000145456.000
41197837915458456.000
41698491805202856.000
38311045001662512.000
21243549439253756.000
51464776202235192.000
37985761008099120.000
89463359887978512.000
100361892409932144.000
87192137787058880.000
52030835478440064.000
43558417033774408.000
25079097691007296.000
23298474259917724.000
52393605235553456.000
53055803271891480.000
46786472413899792.000
51759610820256848.000
47075689346645336.000
27647746445934048.000
30181647003891688.000
37963925246369640.000
53512396812565120.000
77031841509445136.000
38463433260595008.000
23745497202605660.000
29081127052530168.000
26872753596425124.000
14139617035708718.000
7236199646817823.000
15110537097490722.000
23143323257093680.000
30349019379472520.000
16309061719224952.000
14005171692436958.000
8112995570572841.000
8912457720522767.000
9041032151757862.000
5271765981858943.000
3651333190594977.000
5059391317744879.000
5274584931784391.000
2915086346463371.000
4008421589032329.000
5092637109954252.000
2656084884023001.000
1564077355249383.250
1240960086616798.000
731523461052718.250
686343561239951.875
400656044635246.875
481650855996443.250
456717671257932.938
719011218460737.500
1158027027524046.750
2666578695157605.000
2097497693164672.000
2688417332692599.500
4267828168785346.500
9278364972357702.000
14059782337650496.000
7770500929512137.000
6605909786487266.000
8742412087170540.000
5093562861884756.000
4904610830372425.000
3571809912646351.500
5049121037389498.000
8047247876281105.000
6515138870958786.000
13487257917692328.000
11779648992767694.000
25068130254028448.000
13756387688966122.000
7058757054284754.000
7040585519174593.000
9335354488611850.000
8317629388025174.000
4362150011624759.000
8839940061876271.000
8949142858837538.000
7599288586862658.000
4131550125838031.500
3903132291364887.000
3549618464854813.000
1936900856048771.250
4670245288599206.000
2441176338205283.000
2305434883506552.500
1903042834508197.500
3906241068516783.500
8030589690388329.000
16278250326716488.000
11421097172340940.000
6761260536210186.000
3830748624349507.000
9026208987965870.000
11286406904490452.000
27325094959060832.000
14528926723366340.000
14093649717761568.000
11375584562613090.000
24738476561408604.000
26393460593551872.000
37657186790100984.000
19838283954801220.000
25817055584779152.000
29652449990312148.000
26777846115921876.000
15712105654520804.000
22171052109456204.000
12092089059653176.000
13212240252860680.000
27812651227099880.000
16438391335476518.000
25542347694148200.000
14766369889483984.000
8832895236796484.000
5023091975957413.000
4874934614859941.000
4331627500787619.500
4794744811728864.000
3629989703059773.500
2139845168528489.250
2117840971457665.750
4679406682436693.000
3421776090261330.000
8038292885169037.000
11874596145466610.000
28515339341018224.000
15505235858589962.000
12343710481039616.000
7373418306881865.000
7659286077274485.000
6098422452175819.000
13857349579711652.000
15611391219800362.000
20729511042264744.000
21517322718344072.000
11502676145676010.000
6278641351849860.000
14278247480640592.000
21614597132915904.000
12419430049680282.000
6226889952178762.000
14811072504354698.000
14681635966269662.000
8586531591511326.000
8635421464067718.000
12550369868072490.000
26929194643994568.000
19834969388569384.000
43507048670934656.000
48984086272039104.000
29170750225134864.000
15135890368875164.000
8375123423949657.000
4890008894853617.000
4277787887463362.000
2157214340279478.250
1265451718818986.250
1242423755393286.000
1442945410564263.500
841478767277947.500
1110403769206020.375
1097996723641912.750
654778505915186.375
386476880379156.188
325411805744216.625
175369233634541.094
213349414975351.094
174598746474644.094
198496296683889.875
180786038792179.812
409782670747282.625
577783811560157.000
854730746523699.000
596137863700617.125
651097999587869.875
338783533499595.750
761365668947245.000
431796880003743.562
395055963858467.375
592900488070313.125
1211349571668880.500
1289132900916129.000
1471987544621437.250
1528111033286253.250
1911688994946502.250
1033409011743022.125
1466971402315109.500
1245525307795094.750
656787467665515.500
399883073837746.812
812358725267056.125
1071699330886859.000
664679887629075.875
556203217714593.750
827843123473558.250
1143786350778355.250
2569111614617743.500
2087612594640236.750
1116124443902687.875
1137480106156306.500
634304776657176.750
1334137955416127.500
1143495939173267.250
586160628826558.250
828104150005910.125
1118852850491410.500
1503541049432751.500
2305377690260055.000
2305727316459916.000
2668065965636352.500
4064319517491110.000
3406732033244727.500
8041546964333984.000
7847386830975227.000
12591539931302072.000
26415959453065052.000
21483746275874580.000
11595904373972310.000
14993649924477330.000
22191056280223012.000
45156584777096448.000
37921164255853440.000
21740924946587804.000
26968535371771620.000
14770120404931360.000
11835139410460578.000
28573740928876816.000
15781047363630502.000
15564900895747952.000
14914736400898706.000
8787646326614560.000
6827628609822650.000
3754533612166590.500
4513794622337776.000
4616130006034270.000
7451373701646088.000
7330765317924763.000
4442524020154645.500
2340794068466052.000
3407015317770934.500
8086518645542650.000
6939919634592376.000
6949610296617499.000
6965077896154027.000
7660044467713842.000
6725446908352951.000
3742261796147367.500
4790791432833214.000
2473213471875502.500
1480149869028142.750
1486851849807451.750
1489594592747297.250
1389159209735681.750
1863171777970439.000
1124946040464102.125
2647399165504030.000
3884006711180512.000
8389085294965219.000
6667212470157483.000
7180764721532897.000
6396537653138798.000
15105688186707964.000
23222610790527820.000
25165262813148628.000
20393498194908992.000
19583905879228680.000
25519504959365400.000
18874053745051408.000
21881157477116316.000
49490373222689448.000
39400883163620296.000
46547163385258744.000
26865387954818780.000
15008655460109024.000
19784004846176748.000
18263107360030476.000
22928101536335412.000
22806904932470536.000
20840405135597824.000
24384739875254512.000
14679794402092738.000
21119631164614180.000
25779371986943468.000
41628622062074976.000
24004264980227040.000
33450725117034124.000
50252578301678096.000
40084167912639216.000
89159494104810128.000
89495513685415088.000
72309224497729712.000
81475663399642928.000
79653511303198144.000
40554307547020368.000
32532361032433176.000
19440046190794188.000
10308631646658450.000
6009282478149337.000
14037230496990238.000
20366693569685864.000
19750442944976864.000
10099922285068196.000
13736655161185928.000
27525377257607328.000
23109552783913236.000
13975008235910298.000
8354116776689277.000
6275027627332090.000
13871788026743248.000
7964761193719484.000
4359190276615074.500
3484601509895763.000
4069389291779699.000
4102228850506524.000
3439365439121734.500
4509780266920803.000
3671687739349020.000
3574925872306036.500
1982298253702524.250
1075341784436966.000
1209866706634839.500
690784641471545.750
1039565949366759.750
1405472891836895.250
1995860767500320.500
2290017565317931.500
2664074503073093.500
3729236061046444.000
8168077727815272.000
10737396823779932.000
10212486127907622.000
14291511680947620.000
19926761703635188.000
12067515969600254.000
17918350937231016.000
10503233417837846.000
10547371833013600.000
11321283311626798.000
11434857281918422.000
6021683164234284.000
7622782094252994.000
8609529615379729.000
12613549998041908.000
18990406988155428.000
45125984109237312.000
27213813553264404.000
38754092699101752.000
22412130091340396.000
22491159285900148.000
48908582400657008.000
45436601873224272.000
43363940654528160.000
67100399456967272.000
40643046617006728.000
59213296304732536.000
78071232953591424.000
63519203354140448.000
78367551972661760.000
67531637732930120.000
70347347585532144.000
78770361704372928.000
66444553373270808.000
34415466709494824.000
84942337712223408.000
47189609983263440.000
43005823509672368.000
35821635054764136.000
45562684363683344.000
25596577004225928.000
20758089683706552.000
10785313736444166.000
14180370400154288.000
13288232511089574.000
17779805128098368.000
25095771401124160.000
40396801194106544.000
20399618256907392.000
43453494739145968.000
66389352443298432.000
82818268493727440.000
106237750875167264.000
126143225735013344.000
64761484755550624.000
33767166855572164.000
78504137209596672.000
65158592392435104.000
38729907793560704.000
22735020951240396.000
20164656371585072.000
41266255030299072.000
47825961631428792.000
38644605601964376.000
41353541309980352.000
66299852673191016.000
84566563214780960.000
84554167485387120.000
88637107481838544.000
83955127838372752.000
71368352818989456.000
38121389180719184.000
81820517644880592.000
113579349577847792.000
140555407376063952.000
76488135787445952.000
41142712801219368.000
64729375374393136.000
59690962486685496.000
33742844494981084.000
45878989969395080.000
67432219139620208.000
147129418250435712.000
129355720411416976.000
155604741188641728.000
219987327022780224.000
250121141905649600.000
135380646829377392.000
112988435200781280.000
278079474898675808.000
363126826109411392.000
815367248725220992.000
489288370457725824.000
708604579546661888.000
618214230243112448.000
802713405559952640.000
400951035048810176.000
348217720497219008.000
402456103303617728.000
336947905265499840.000
200248347859061888.000
290885876725402496.000
469006941673058752.000
338558850710737728.000
512526691783719936.000
667321381792276608.000
845209120822513536.000
1306979430220165632.000
1271836665841309440.000
2907458922149840896.000
2842475673762341376.000
2859619186032421376.000
2585192444418722304.000
1441944007242567168.000
733323926271921920.000
414049551631272640.000
221749410669614688.000
234084092759228640.000
290477053657209088.000
369275433994532736.000
338067643055805952.000
419742976792564288.000
937498009375213312.000
854817981316298752.000
499637873643564672.000
655896847094963456.000
358960703293925632.000
463283176729674112.000
360029751704289408.000
467764568082852864.000
282025839381051072.000
344524257831659840.000
196688081765649856.000
231124819278515136.000
342755066699365632.000
521136162363053632.000
509197922816683776.000
506306879850940544.000
290254626534316096.000
226902239850052128.000
235336506890182112.000
270607430646096096.000
250180721883969888.000
190749607772918656.000
484972680481227968.000
354781387353307968.000
491111364172464512.000
352506909019773888.000
786626890515799168.000
421055617081180352.000
362656883720428544.000
443583767911440832.000
382051722258713024.000
517483198806597440.000
497264367321257024.000
632291122716113920.000
936090008248813440.000
635882970897879424.000
701979816198024576.000
1425420118525137152.000
796243602178574976.000
404394787124063872.000
208767302013967168.000
119202411054813312.000
289183742407962432.000
189765527632296736.000
274708183806428480.000
281309439788463392.000
348592518098749312.000
779004856829011584.000
614764916205151488.000
1533627387074801664.000
843684032490627328.000
646589784241037440.000
746503536635705984.000
745939470616983040.000
1182716899391514880.000
1649070283152299776.000
1587122374672290304.000
1707573898599471360.000
1137336670183388800.000
687457135915731712.000
922468585585061504.000
478304895765179648.000
405750298248350464.000
346310220256699392.000
442351812947047488.000
453595697538396864.000
398790659346575936.000
230752307608886208.000
200483544432155136.000
271490528502747840.000
283529855624126176.000
154495060881917664.000
90902357308737568.000
68533453847824072.000
151259713621135968.000
113541444792490704.000
131869001743919168.000
67424010319832384.000
152592874081040704.000
109993664576496400.000
164761196249062912.000
127545905274454032.000
76126245612194816.000
90475762955290128.000
59739410783720152.000
80474831002069584.000
122707082193571216.000
71166928283498712.000
108473669950562752.000
298416044079531072.000
262564033384768256.000
246903696303597824.000
243771239064089376.000
229494425046356864.000
245271234917749216.000
221673001598336768.000
287891316944595264.000
259027912391208256.000
242254350998664000.000
276056438347019648.000
158771632900972000.000
242526585202218752.000
243738076956937344.000
135781688756242752.000
131900509531630464.000
112426897918038880.000
147531064917703424.000
165206912789212480.000
164668017329559456.000
110683050996024384.000
233853016132955136.000
121678730299124176.000
73756933431971456.000
64575949547476312.000
135595335158471616.000
130009419844405312.000
298569645016350784.000
167382123850071616.000
211080532618074880.000
116648378708442832.000
126213280107569696.000
147449090596740256.000
113135024454496224.000
68137497479984576.000
38648922622222576.000
46708457156414560.000
39267293439174680.000
88374029382602992.000
51555743815041176.000
27059376995798300.000
23563971463572724.000
19380919918598308.000
20319057826696332.000
27944934402677788.000
14688788987683550.000
10826016834330408.000
24665362639887276.000
13798230189451926.000
13589436275620752.000
21027931377682540.000
48865017732101744.000
71049199828529592.000
