33.805
86.952
118.440
122.587
120.324
260.038
268.860
277.306
402.698
626.754
1324.773
2904.726
3672.688
8824.969
14266.892
31145.056
29807.711
30240.884
47641.216
97315.189
154028.651
227558.617
490445.471
999089.536
926880.214
928077.099
1474067.437
1490973.021
2327749.035
2346627.904
2483086.890
5846985.151
8351151.413
18991415.946
27502618.054
25801746.010
24460034.288
56603674.658
55912909.809
114141253.306
160925244.976
335596172.159
673333292.783
1061908703.009
1143700452.824
1056345822.793
1127756142.380
1502685419.397
3298355724.586
3612438094.536
3487857408.409
5173956467.730
12419396494.042
12310660075.805
19887248920.194
20373687522.668
41168907780.247
57167953075.525
58201501003.043
52384321785.356
58153585759.381
56566946224.005
126061297327.049
203696022224.475
406320459351.524
633088773513.457
646582010868.678
1350129062713.747
1301433817811.231
1770867846977.822
3709988450557.035
3430274282179.859
7118685605659.597
6653169079733.344
6994158686673.786
7618228554811.242
11922783040666.584
18543412659640.949
38502078933055.109
36208236828254.320
39221299365882.305
58999933794720.562
143077121208270.000
233779841728054.219
243133441726591.812
335000943016123.750
729594651930164.625
1105210271040203.750
1100881316913879.125
2660136243301650.000
2733576475208699.500
2642754946148392.000
2545415726691765.000
3779150149806143.500
8794313865819902.000
11947941632813074.000
11229613101671286.000
11894946959722638.000
12340020049694286.000
28621583187564316.000
36036317911098264.000
42625821055517768.000
49835710935717456.000
51926868470994328.000
78845143867310736.000
64811701565451936.000
69289267885243464.000
65270235426371928.000
39893595274161456.000
20624187774385052.000
24249192705312068.000
21313041306629640.000
27694157639885232.000
15435545871422042.000
13013590657899832.000
15964088707166160.000
26202318805698556.000
27682712996065656.000
22806817004997748.000
12655571383301146.000
6769204559307196.000
9153289421201628.000
7067674192156901.000
7941598016386543.000
16332060027426078.000
23258099693771080.000
26330023789672804.000
35503533637468956.000
51732453142492888.000
65766874212030200.000
68135426752343184.000
86399162565516816.000
65113884091393232.000
89046010985342912.000
76588807568963984.000
153994726515521856.000
160143871568284320.000
83268424498694640.000
115185575652778320.000
141236890618192512.000
80655370991022928.000
91204622671407840.000
53079229383209560.000
39050234222566952.000
39072366966114408.000
39627847223004152.000
87227127139982416.000
48852696882050976.000
27572510152414964.000
26320540557818592.000
24485332295461060.000
21728939202828936.000
10938060314767098.000
12178809187372792.000
7139476694991741.000
11270363137739596.000
13663088697060508.000
11390181513113618.000
10996294692291912.000
27216298567794300.000
27910349314833836.000
44554318242067520.000
24129885784334736.000
12746730953697474.000
7377871755041838.000
6334608585152052.000
14937888150196540.000
8667773954096922.000
10654434478887528.000
15417423881269336.000
10843728179351490.000
22860936353592140.000
26732518033970024.000
37717202512403968.000
87639610628036544.000
120398149497555312.000
67863550091141712.000
41204279810294576.000
23299735490281472.000
22731211419875540.000
36199420238096120.000
48219648360276104.000
24502052216742128.000
27040744412401660.000
38768021072449528.000
51862770502193144.000
43327656790399168.000
22896879780890708.000
47562480476626864.000
28763455969357172.000
28450581525193236.000
44463317222611416.000
68395041467355936.000
41037705978188456.000
49448800324857560.000
37016246300549072.000
77202683234511408.000
69639203477084736.000
74059493159654160.000
83115778543547360.000
71517312547583520.000
37757563640913760.000
20893116778363680.000
48388300853751960.000
35206408256740028.000
18999241424412540.000
18761662284819072.000
43360317534608248.000
92071605143167456.000
85523224164022080.000
49676572334790288.000
39782113052135208.000
47464278731392440.000
51274696445672072.000
26321354574395804.000
13803210416041128.000
11262844439231392.000
25850988939283820.000
13799871844795574.000
19251845769102600.000
51038196749730608.000
37416312018747584.000
21040625676844676.000
13064835660177432.000
7912571906192956.000
4816026643931283.000
2660920878231888.500
1773116936475515.250
2260992464040877.500
2559559521915844.500
3896276655167197.500
1984035386986546.500
2345932077393041.000
1325104257239918.750
1148835462031281.750
1312125662300217.250
1182070204582098.250
2519957947945408.500
1760971304216845.750
2600918921169126.500
2612826345136705.000
1929917028525001.000
4701908199894001.000
3578599574965216.000
8549155489635954.000
13354585796249574.000
6945636734983784.000
10835941898569012.000
22903623856146384.000
51049685158275360.000
70265390986814432.000
41262061632276912.000
39557737643367688.000
42358287843774520.000
66725731329534480.000
37565782559596288.000
21122465427651824.000
11168406819633886.000
27872277512535368.000
15627316466131788.000
14509039752885300.000
11342018457842124.000
11642335656041924.000
11091318616714854.000
11276727957369562.000
15126111439997788.000
11364403518332346.000
26097309389469548.000
18599642020293836.000
25569232936927308.000
12961458480397046.000
7410443188117848.000
4175605890101271.500
2351921409949563.500
1254254597976405.750
711590867578266.000
1142670083816544.500
2641177814595173.000
3774520796609547.500
3799608331387287.500
2063190369324201.000
1020867240688306.625
2600690085192096.000
1429748446192109.250
1007529855978980.625
1271644052832731.250
646126422328654.625
716735690697383.750
429010127036944.625
443731152650836.062
459412378697277.375
377214472637312.000
332729583465424.938
331098631349805.688
386224924465126.375
229923814146620.969
203811633277840.219
225452374147557.812
348395913803126.875
419860738827147.625
333110062442410.500
305308082418870.188
653829199971327.125
734028319581822.750
399090917751115.312
815389729817731.750
955395596252686.125
1369425025763707.750
1184089868894641.000
2490530117299598.500
2654213190312932.000
1853971227395790.250
1024725310449889.250
2409439647624461.500
2393610586842092.500
3342169669629385.000
4182551034823922.500
2516254320418211.000
3489439344482041.500
4578187548412762.000
2620669590386588.000
2322649805540480.500
3661506630330861.000
3264216184413242.000
3247653920365086.500
7387793295130515.000
7544574828634822.000
3791987751646391.500
3094165812951621.500
3820144817817376.000
2087472316916636.250
4780821984743363.000
2670437314109009.500
3192465367248555.000
1932729083120766.750
2187233733138958.500
2383236528520511.000
1709062094083427.250
2655130120040047.000
1384750128529009.500
1837384922974674.750
1037447904743353.625
611262114922237.125
818070489882020.500
431438657687387.688
305627188394183.625
799324756015871.500
529137449645654.812
608353208667730.250
342672626911919.062
404102282108124.688
392773586649126.625
420914554644357.312
440588136493154.875
300917494554371.438
322949090230611.312
809872770739354.625
1070300147744466.875
1406405393302068.750
1347665707582105.500
2121730055460670.500
1235301171066732.000
1896712242052833.750
2075883879888805.500
3045491238354282.000
3906303068175449.000
4616813521637197.000
3959891877570037.500
4569310729702239.000
2471851436396157.000
2473842090938270.500
3553416460111016.000
3428947554412318.000
8145374768469646.000
11680358526106638.000
10595533280832282.000
14350165537476064.000
7243988147813548.000
3820559336664920.500
3816630968864896.000
8431455102593440.000
10344449877160148.000
13323897268203674.000
12410674684266338.000
7254072705504146.000
4102861332692392.500
4509003357980670.000
6031725847569670.000
6364413551870790.000
14989894194737424.000
13635275200880810.000
11107887064565488.000
6840231022556116.000
10114654882069416.000
13269288643234856.000
13904887163254346.000
10008598765574370.000
21656134316547620.000
24310997645216120.000
14819553199673882.000
11036030610712116.000
23446711818305268.000
19231917144558872.000
10168199545830346.000
24697357151581288.000
20736717580583080.000
10472205969744788.000
13334877033357812.000
7300577418117477.000
8213649809602342.000
10820549182700568.000
13119946744271450.000
13454240880529778.000
14857249851248474.000
13998225638861390.000
7406171604240577.000
3870238045226290.500
6195525239334249.000
7157792454513369.000
3899871152739869.000
6034017527223230.000
3198207464907874.500
4306467925380775.500
6101168468204976.000
14638520773401100.000
12340319571888618.000
26294096308286336.000
25870000622694332.000
19187986346006784.000
22427111466255704.000
45785391123644616.000
35021616938322288.000
36449296505348248.000
41609082154362600.000
86392331271381760.000
62782012359936608.000
62391668358570952.000
79235600766368800.000
88405236376374864.000
116440587695290064.000
161644754776223104.000
190230241415850112.000
192909512451207296.000
219699075205306112.000
235441980552760064.000
201081021836889344.000
108056211835217696.000
158232433893298176.000
120222559888421600.000
242737144476659168.000
122688895774989088.000
279235769610240768.000
267100986704374432.000
279602927570811104.000
187375160352965952.000
406811097544625664.000
509156707479633472.000
448970155747512768.000
362987638018108480.000
349840785410898496.000
444334745486654144.000
421300834183843904.000
490001314872919104.000
471440969995641600.000
356538866359697600.000
188347938049915424.000
109904070302223648.000
65859093485634240.000
40864814795240928.000
89172311289266160.000
88991137081162944.000
79261202660941536.000
110786475098076704.000
136872563532438560.000
108315325224771616.000
267438819418195296.000
199326814587891392.000
416219149271771072.000
434231219915730176.000
426950312964551232.000
236839978082468448.000
277585631238174912.000
157761471644887744.000
161562145528431712.000
205853427012360448.000
459692759365193472.000
495009798106668160.000
253439469547305888.000
511721683958728704.000
342079023213712896.000
798036077237608064.000
662346893184383104.000
705730985043016192.000
354857238032358976.000
216129329877964704.000
224075930068856608.000
269493162054746048.000
202743585631938336.000
114341912280833232.000
241916896394857472.000
279103780395326816.000
203799266240762496.000
112064829710717200.000
265782284099328672.000
206227890346266560.000
121628751812181120.000
133607824383590704.000
153739075362652384.000
158596026854934464.000
80787399490965424.000
67461905616776096.000
90345675712832592.000
122822610616759872.000
70521428604355648.000
74854442938289744.000
66884373547139624.000
150093590458219296.000
86820857912369760.000
49044668153385528.000
63592441221486088.000
39491758748045624.000
36509815840632864.000
22472574269380012.000
25106369933850056.000
21792701058526272.000
18921355885592508.000
11476987053887590.000
12772001347909968.000
7467397237915793.000
3974310760374190.500
2157265664921606.000
2675000650910714.000
3846564105344955.500
4878615912910942.000
3422987949695039.500
4394198897993308.500
5787781822431458.000
7264848573607077.000
4121945064485864.000
2201149074421257.750
1945151387825743.750
2203339933713742.250
1980853776568856.750
1032067656154648.375
1031740215714917.750
637461808676458.125
624097980425139.125
355186518468041.500
454249661604869.188
354314568776532.000
742773825657183.625
404512773038562.750
435575846175600.188
646466210367485.625
360131549371380.750
445479717391885.375
244584350593303.812
126706344074455.453
113146978612362.781
108020163133235.750
62327212175704.031
136327973394086.969
103955418172700.031
223911167088874.844
259853420330974.594
373386067346672.688
356760430198245.312
555579564198869.375
569846344477301.000
751764222216901.250
1095534872928276.500
653522300916173.250
778080777009748.250
626162552241615.125
330537259765882.625
441901645386352.562
236383610017680.219
195129420163663.969
429092044213058.500
452998571806317.375
544593035324906.000
713113998321970.750
655788038197748.000
602121277106870.875
312397351761595.312
448958940774219.125
467823129280739.000
768789846307719.875
456526446620523.000
236649637354928.875
259950107833896.031
133325260451309.562
188899930484343.688
169231262219995.625
362219623665795.938
329857142525938.500
382485420745453.500
313113855878759.875
316157428839544.312
177697433848218.125
231709695920173.875
180674348337493.344
468213281455754.812
427090540111010.812
255250163459675.719
246163254078526.500
224404564572117.000
260373872514402.281
249515656008608.594
377308982730432.375
210903345125064.906
179018747097896.562
247581454476603.562
305850289023998.125
845500761843483.000
1326159787540587.000
795494240713368.625
1229648723153001.750
1325499660664695.500
1031537001962148.750
1034296461011671.875
2645581917609172.500
4268404630679666.500
4872767492497056.000
3746758233706759.000
2099453962128185.250
4767524145680635.000
6776292130678455.000
10390618033827646.000
27759491039063896.000
26382787680611220.000
23858902536262764.000
12778474369714666.000
14917292254075710.000
7931406271683245.000
4647053602628205.000
3763190172283460.000
1985243374299162.500
4932954582007961.000
5794557543563098.000
6895206805476916.000
3817797100181961.500
6029501878724640.000
14779724553454128.000
21813432655070884.000
24029132368662984.000
22160220535598532.000
22695659457082944.000
28087175212249892.000
19483718991859756.000
12011784905962272.000
10710398692191060.000
23055028482083280.000
13139151178230868.000
13843882346914056.000
11511887265839370.000
24500250787355428.000
25821909504344928.000
21925756741925780.000
50142325167089040.000
76361261197002608.000
84511520420810480.000
43364044157783592.000
48555694023252080.000
27966775550908240.000
22079925575777664.000
21982261195972316.000
11096734258012058.000
10395025364004760.000
12736629483915594.000
7301908711906443.000
7597047118267340.000
4305905756324422.500
3542730408188716.000
8118319283856798.000
4829298028357367.000
5907029166996595.000
7073920824140302.000
4266267356308843.000
5902043731858725.000
8155829124226719.000
6206308403867329.000
15496925759313342.000
18715410477038356.000
49182581318785384.000
26905468115247936.000
35112491951231348.000
21438766441037816.000
21276184205081656.000
44779756627813120.000
35022405681423844.000
85214764432156432.000
49985276925785088.000
71188034289889160.000
85496120747528000.000
123918450968643536.000
61631782592823560.000
73341040944593040.000
80612990654754880.000
82069275423377568.000
73815782319073808.000
45055869862855440.000
26661945998815632.000
19066467390052112.000
48761503016587584.000
68307567848758672.000
165301993448056896.000
125019538437139376.000
281559085533610400.000
216650709297179616.000
484220238833558400.000
263330507349885888.000
228745092147209856.000
124708444230468800.000
67574266782432928.000
84574900843450944.000
91064336402163696.000
49481126736251936.000
48403913231141664.000
41650447797307776.000
41554913570953752.000
24730288262501668.000
13525665219446586.000
11138321042035692.000
6025903611434412.000
6238477775050656.000
8088740123325610.000
6538648513545696.000
7585200142714245.000
3850952899284503.000
8438804380482460.000
4659860415094713.000
4889985336741982.000
4031230699734449.000
4420907041198286.000
6020695555665178.000
7126972961030159.000
10390678147150912.000
5818331161108204.000
6734865910310480.000
7549991743832971.000
7177438508290796.000
3888996040313094.500
4749859975430958.000
3397745893164864.500
7536525005466929.000
7012790768585131.000
15177451875761058.000
8754916858329606.000
5860046805021126.000
6067909210999845.000
12535455543833300.000
10633194622671102.000
11053809686515432.000
10846254542259310.000
6288819346683304.000
3253792999578961.000
7624083888925825.000
4354545277519955.000
2507478324556819.000
2184023967957889.750
2637856852823310.500
2720929088728888.500
1859741940950416.000
2071643024800414.750
2732027345148576.000
3969253781994643.000
8383366136569223.000
8525478014360358.000
4892191107593171.000
7136625733900138.000
15837267029735382.000
22912284390899064.000
13256432028290274.000
10549367822120632.000
10840028649555382.000
5892333602333054.000
7831493850059223.000
7986234074399942.000
4139784266754673.000
2256028801684985.500
2573532122780752.500
1852181679866687.000
1065211584677337.375
592816304770350.125
579773990906184.500
351803917826128.688
347223452241508.062
737114072872651.000
432262990735096.125
377864364050317.562
455953761734114.625
554957367392671.688
680618991442804.875
810187221883929.125
446689543055689.125
709934759281888.000
389631750273596.625
398904514782282.312
438037909740401.625
351714572997035.500
352665597944911.688
363553591914458.875
218004660146227.531
174403424661384.281
248553858006276.656
141423897503442.406
113884535695605.016
60048864548307.797
29959662072673.797
36309701697012.641
39206801114439.172
23787502078356.523
22304041110059.766
32772397082886.809
40007632932064.898
39734536122360.523
41865068347112.273
41172245254508.609
22180866845426.066
21285239427042.969
21898375231620.297
20908331662591.070
10940132095709.672
23365407891702.504
33156375321993.371
16560136096290.152
22455676943613.395
12430139167267.826
24568149423001.160
13050826728462.578
20855037529548.023
19821089094954.309
22674159758057.805
34481715996682.863
38406894824664.836
20192755900238.828
17779510346878.086
19401274813970.309
23907058522502.863
19303617820319.441
40004903023530.016
59887037278035.367
36023784951899.406
21407618391224.562
17970369742532.340
38631133586771.023
30830319716892.883
29532476074886.379
42336820257599.602
39728898418532.742
31497049895580.848
17882425289287.023
17827838312997.129
16765856071698.621
35641532898468.117
75727723444355.703
58306263471883.102
141472406014009.656
189466363667047.188
104876383308240.453
65150668705708.461
142781812780785.469
75124921853943.828
75030367983884.078
41571251286797.789
21885307283477.668
17246012134005.250
39210212021480.211
39397748978558.516
20417049102493.941
11825882815759.717
9719682492999.768
22855579783144.934
17459067301099.795
16448937201261.584
16722585978546.150
19413174961434.105
29959809359762.754
75969250799299.375
118584793814676.375
62750357022911.016
70241390353527.625
65299671021514.125
137162933517254.094
208593192578099.094
187994443123034.656
468653290809607.750
415632022419309.250
423686359640398.188
214672408785162.031
174718800822019.406
230542200861354.469
206542080980158.625
238068168684216.500
360032888899407.062
200428427341403.375
314700085724813.812
697921903649715.625
755180510052429.750
564554445511359.875
1359575734253041.750
2170512590252804.250
3335389106247762.500
4749121417648843.000
4214585838021419.000
6593637404597619.000
3790929004071731.500
7808227585257327.000
10399957780780488.000
6167539860556065.000
15214666915979058.000
22301509193288664.000
33578910817362604.000
42246999710362200.000
21819927193319144.000
44774345763027440.000
61997834522226832.000
65289590323208960.000
60640492979748952.000
126213664403747072.000
295028573460352384.000
459952396401579328.000
913322890447478656.000
666870083800441600.000
851091946173058816.000
887988005080016256.000
675440855075408000.000
1513640840621043712.000
1760851394313253888.000
2341402129166914048.000
3085450863845099520.000
4744250286053351424.000
2635945503161628160.000
2178433738764253952.000
2633647837814386688.000
5305666079029157888.000
2757665056826109440.000
2732304879834775040.000
1631715759204135424.000
1227724212923486976.000
1678137835936290560.000
1144451067691562240.000
2885581078369313792.000
4411765350899112960.000
3719151958894098432.000
2289372227238192640.000
2871042296134915584.000
4623619408723884032.000
3925053787552384512.000
3928216252075918336.000
5265119375043635200.000
6848419977387701248.000
14668256260674306048.000
29952676354210111488.000
24482281575788781568.000
32821699668488679424.000
17351530969682214912.000
9918345616231452672.000
8871822125050482688.000
8196211022439576576.000
16472139297711464448.000
9161283690857122816.000
9747106440851564544.000
15525763592508778496.000
16289404498201790464.000
22414643216833343488.000
13565287834239266816.000
6912100166182652928.000
15429681357593700352.000
16501863937475182592.000
24208693482668052480.000
12877564874447767552.000
17656075331627534336.000
14447468810075656192.000
31581470110986928128.000
46243475075899416576.000
59074927560430968832.000
51173663506842697728.000
45826649182213718016.000
51257246725933096960.000
51160132386628567040.000
42302705565440245760.000
104163907362200223744.000
77721831685821972480.000
95912384357911150592.000
147254085075009716224.000
89175280110120599552.000
79270739648768770048.000
174821262792976826368.000
168562382483848134656.000
127477775590795821056.000
71915142268523945984.000
41373488973467992064.000
22219787153499131904.000
33128568296843141120.000
41014551459557097472.000
54509160757049286656.000
31529671133410615296.000
30615424009971769344.000
16428243554554236928.000
14547979074250205184.000
8903582672119220224.000
10289154007903733760.000
8433842811357364224.000
7241422265312916480.000
4100302283869082112.000
9767468106412345344.000
5573775702870012928.000
2981818303112339968.000
4116255363845525504.000
5234288932389504000.000
3135878972509013504.000
2107381669515659520.000
2392037780894565888.000
5171494726523208704.000
2862228853740625408.000
2194873809392412160.000
2329036444323583488.000
5007339710512389120.000
2970410071670406656.000
2218699635015396096.000
1356230186209623552.000
725746522930189184.000
428169377582179584.000
377997569146311616.000
790525423975133568.000
886402959340655616.000
653259716479197568.000
404124959225606144.000
498981246605392064.000
286601211730303040.000
211809804833101984.000
224302988029600384.000
135678662350204064.000
155626791177156704.000
120660489129819936.000
257755569344180256.000
263379165619638752.000
409954376414074560.000
204148026955093920.000
252447391926085344.000
293108979905503296.000
166569727927089664.000
137073826107115776.000
75621654739452464.000
78158726181602480.000
47512584096636152.000
40301686653984288.000
34481227738522212.000
34176489866372628.000
42719613495412224.000
23926376642679860.000
12818801992609974.000
14259833277470940.000
7888194733810204.000
4408117481777137.500
6943350352673454.000
15720919689752318.000
14009468441693286.000
15342212631612990.000
13623580519713782.000
14706722546712584.000
15776175639489088.000
13603169331310136.000
28316250199858816.000
25089682024465024.000
26650965643143188.000
24362671629995936.000
21398096500724388.000
22856710170540504.000
12174536073647290.000
26725547300252448.000
18804465451576456.000
24140238034850756.000
14336706678880032.000
10450883087573574.000
14457933077239974.000
15862510936905122.000
14095985770077296.000
12089418768345832.000
25015028289219612.000
27869884862796096.000
18996190714539744.000
11624181458793664.000
6741800423731285.000
8431004361554959.000
10565523313489236.000
13918553616746068.000
8389618438102918.000
13247844790100296.000
10624148235076376.000
28094607419969168.000
36784530754032152.000
76070756449582064.000
39740918127436640.000
23959631721255612.000
18954607407189352.000
42760415397784032.000
64126260777861448.000
142285962911017424.000
80213758685412080.000
75838962247559184.000
84529594764356480.000
50477139671472696.000
38613638292449600.000
41733382486475712.000
36887186649701944.000
40187919917806808.000
37276935648617416.000
19202436504422932.000
22191546976402308.000
23062290290875028.000
20036568275144400.000
28155290057081108.000
14347016870237682.000
19953886873860172.000
12193988984787090.000
12147009678642020.000
7047528198004102.000
7798225651035972.000
8614301578449621.000
13384055073940770.000
13462009391613056.000
14084863359561646.000
12301357332308112.000
14421574008440582.000
7593231661920122.000
6332056451396024.000
7059639546628946.000
3812751165878503.000
8312318234095309.000
5810673919252320.000
6371765834644777.000
13339248423498834.000
7183916295375419.000
5985552359378097.000
3504386436913071.000
3411450305302448.500
4534333195699384.000
7106013828050645.000
8111182863033576.000
7010722742203412.000
10364899278468546.000
14553059007856842.000
13577824042517490.000
14306233310680036.000
15252005008865700.000
10937403662334030.000
6463631310836406.000
13311443021931410.000
7213135289460204.000
10456822781813136.000
26487951706391600.000
13641739351426460.000
20337338674594908.000
50509105541581736.000
27714419152485948.000
21618209551024716.000
24299630531611432.000
51556988156046112.000
43578174380663568.000
40245819418373088.000
38126391561430464.000
50300916008245408.000
26487344178808904.000
20432724049505232.000
43383068193904688.000
40409960486043576.000
47095955446461104.000
73840894373081984.000
116811234046813824.000
146669616655429888.000
109065555227448688.000
157794563466253824.000
230363668086033760.000
273212351600305888.000
153710113436263232.000
84024917973604688.000
68131582973962632.000
93333553078437792.000
61618075105567288.000
92268280384309248.000
82944616188307632.000
167597731516675328.000
252458932268878304.000
147487771045539008.000
80557214391316784.000
45857895892388504.000
93555992744187648.000
71806821940191920.000
40275131554480296.000
48731884219784352.000
28030461204097304.000
23110659624587876.000
23648957069326436.000
48478018966182392.000
36494545194529680.000
20693249797625012.000
24971846275752340.000
13556179742563616.000
27862010221459800.000
25802448168841404.000
14623263441973514.000
15096727140515172.000
10584997880387776.000
26980798447292296.000
21080405365601596.000
22238383324147584.000
21296107441870368.000
21438301085282904.000
11040324097949890.000
28623169242225196.000
21222745935338372.000
18706449360158744.000
21051830640890364.000
25917250989172948.000
40198693899639024.000
35912702805082740.000
87276671391013984.000
126129031849842416.000
146492097845110336.000
127032011707421968.000
278238599817920992.000
379430866609526336.000
461243719783337088.000
383784521548284480.000
428628155279374976.000
254023588774740928.000
240479374861783968.000
221401293882291296.000
134755886714150768.000
168234898978529216.000
256394768272592960.000
149487929887659808.000
236312377818196032.000
297314193795470784.000
363031771250326080.000
936419983162977280.000
495363700931480768.000
286159838849837984.000
240272604398452320.000
266605851888546816.000
157603968227762048.000
89987445019260720.000
135723033499820752.000
125979266341577712.000
137387241739351728.000
164967517366999680.000
235697193253771680.000
145106147833387968.000
141449428328772208.000
83041396772888688.000
43160722820101688.000
66783496623995104.000
37370267374940672.000
21000972363171220.000
23138467961704688.000
12018424031924646.000
14695083636939966.000
12831885900618024.000
7713638197970931.000
7591274675648438.000
11772891783039218.000
7083000169194248.000
6520357326694977.000
3983407367991281.000
3430302519312985.500
3677285712759440.000
1871842231757657.250
2245204232999934.250
1378020630332969.250
824254846570908.750
438811635212558.688
251864320094032.125
228049055699334.188
120503270990871.688
173382726720571.500
176247670794496.594
215042332108414.250
116598566194524.266
68202347675136.586
39940526238899.039
20486864849736.562
23313378639380.590
11900817480235.631
18163525346980.434
38254294592474.000
39080916694242.117
30598906742905.258
42511291822100.789
42234477477318.914
30946740883147.711
30097465765101.094
38970341043970.289
53409353237193.523
77012980876250.141
42704797110962.906
53542174442197.617
69685852396197.266
137939152714145.406
69696560552138.789
104129345230843.484
245925675169242.375
253295469140286.688
185140601028107.875
104898970692430.078
131758153311750.469
138624538959220.922
140595960589589.906
224420960877200.719
231807874260078.062
205945492863126.312
107665141743110.484
65648011526787.055
67921533840550.922
58619474721425.156
69448775052906.688
138577893440454.953
121710763269642.688
62310746176735.883
71226333203661.969
63644230613141.367
37131242521001.656
29964759677156.371
16453643910002.768
24938075476838.168
35057048346425.449
71233377742454.359
69796975300463.859
107688623104277.953
115576279463048.719
61145336879451.641
36136616064681.648
78907936142484.156
58597078632209.406
35955245102236.172
29695323613963.258
36578170687828.969
33308998679459.730
32343021526586.711
19640714144797.207
11230076436128.756
22455071585817.281
23966558763561.453
16840568649507.293
18761053165849.629
18546118684617.379
9323269710426.727
5101882249220.278
11837101318211.498
17736080297550.160
16798870531896.961
36523406324048.133
29014993879961.578
72470342265166.375
102235348321108.844
236130469787079.219
374223349236892.500
207381847227249.688
238387141175512.281
325171692723132.750
803857116168808.000
681975313941771.375
746676862010141.125
782982396201656.000
754130050542340.250
665966178846168.875
621991491452501.125
1465211715961661.750
788617001229271.250
744521080234101.625
788694395822175.250
1151211875827598.250
1176696970185734.250
725588740343746.875
696999611141829.500
414600625288351.438
636924295278798.875
805054341692933.125
759956112248130.750
1110252452047169.375
1199832227065227.000
1897004702088827.250
1144673585208522.000
1131910107467516.500
670024553064125.125
333876741742326.750
364331749043705.938
204839112563507.094
116475526227620.469
118677141040661.969
68668761710741.078
72606671330351.922
79973349714414.688
69259952386490.398
38923666174382.602
60634176381686.438
53001129186190.172
79740417200225.641
70825038696846.172
114009828655983.641
96662056180192.469
127898100414686.812
169977229394053.812
95352960376628.953
241502692788332.438
189451575411654.969
202078927712465.656
465767826364125.812
259851694318092.750
246957340812079.500
219138783383901.062
309852214133832.625
713140486345559.750
770168172890763.375
456045711331238.312
406096805038238.625
247728469841267.719
217421189952384.875
306934647818149.188
181628164690116.719
111147056839193.906
101711590505599.969
58424296793928.336
59774151490234.602
33420101240392.129
19077575920216.934
11664006629811.131
12623116150361.715
10640543517357.973
24405134704976.469
35623057306238.477
53151980118500.852
63266764682671.445
54433351494666.180
128029442731927.406
107207412205684.875
53827255548864.453
138824719320617.500
202709555808443.625
210116938025289.000
461727082364783.875
387866332525737.312
383431904078942.312
448326664322047.500
726179326131479.750
719078650738947.375
1438831925245703.250
1915722089897039.750
2630832079283413.500
2157825209006679.000
2254356545340860.000
1216670983766457.000
1350041807371514.250
777103482937858.500
445961129328116.812
367850704343092.250
208640134878510.781
230590392547094.406
137661218223886.016
78478519438120.312
61107909794069.391
53767972605475.555
56466890845417.398
127254273841315.359
129642661699408.797
74998420446404.125
68973008666048.633
58760783443959.672
58565046669161.195
134058425766754.562
181523624215209.656
213961606554422.469
461487996212957.000
586585966952449.750
1268296535489504.500
2570450705632577.500
1348020205037993.500
728294509169914.125
1014842185746636.125
1355594115760060.750
1443011682593419.250
761508977206556.375
723109626350457.125
1523786162132517.000
1847293869794555.000
4744296730286713.000
6702362526653434.000
7305624345807483.000
15411511345536120.000
14855073187588608.000
19078779948020160.000
19960698464070504.000
10406318670144132.000
15101199822481048.000
21509214930442460.000
18979622887121804.000
27296415173570460.000
14899902046618880.000
10704394820817182.000
12233077381929830.000
15102814096530022.000
8044996431682087.000
5822516261629513.000
13244430682132382.000
6682527420552105.000
7518741331854587.000
7242807231460366.000
4287757300352377.500
4160222696095632.000
8844012011797116.000
4816022621129203.000
3756387594547793.500
4901087348161613.000
7373632139256667.000
14820927915275436.000
11946063243631768.000
12036064971789058.000
10373347649885656.000
14641800906244920.000
22812517544673728.000
51255784972371048.000
68980782349847072.000
139455419526631680.000
280058668321868192.000
265534681024969568.000
266819126151515520.000
420634885390490048.000
459943580246378944.000
246138616054610624.000
301727494612570368.000
269512849304476992.000
300255140094475520.000
235191923258258688.000
287192718780514176.000
253196576243365504.000
288084457391693248.000
276998165727275072.000
246816770249688320.000
211541738770060608.000
512504724048871232.000
276364315937815264.000
218964723614507296.000
202068157826723808.000
242708078640723168.000
209480146130865792.000
534630298622669440.000
272727346706804736.000
237116780585969088.000
274823459915080896.000
164226194679914144.000
200575650849148384.000
488623272765583040.000
360815601131984576.000
951595483079160192.000
1312925755115503104.000
725182564958702464.000
770663246592478464.000
1185330946134418944.000
1288275050041089280.000
3016208390781122048.000
1735299620557549056.000
1273447440543086848.000
1286454564480303616.000
709436211527293952.000
1551189736017662720.000
2363373510416342016.000
2308804968498621440.000
2800987182581488128.000
3964938096986430464.000
5358231947475741696.000
4858103172549433344.000
2914310452262140928.000
2465339138967718400.000
1418326418348359168.000
1175493620406161152.000
1514456016741666816.000
2239898647987094784.000
5342351314162077696.000
4669894238815569920.000
5569044542028168192.000
7669439434991827968.000
8242079506282799104.000
8136478821018082304.000
7039469047643476992.000
8197316699672146944.000
4125275004976998912.000
2160907066838885120.000
4603989666646660608.000
5541731968101826560.000
5146032506918729728.000
4012841988593882112.000
9522951268198146048.000
14028718744275642368.000
7686785820271238144.000
4033633293458256896.000
4897880611612720128.000
2684993702687818752.000
5367193012943240192.000
3100810153539817984.000
2454025009322459136.000
3025570904612157440.000
3925551994222411264.000
2122196269663439360.000
2568966123612045824.000
2505564807524775936.000
2229554961651481856.000
5219248006770385920.000
7190439273096889344.000
6869340202949658624.000
9138717309937615872.000
8439129869841364992.000
9525626801506865152.000
7318094342006566912.000
8226288680215734272.000
6891557172148416512.000
9996862668111697920.000
13253624761115107328.000
6744040090035537920.000
8539952201003708416.000
4850579300814618624.000
2682828880916062720.000
2961200092667893248.000
2437668061573527552.000
3097756182833951232.000
4101303354192880640.000
9903107887095035904.000
8892696102634930176.000
9478554897018730496.000
15053317731593549824.000
8896789422669056000.000
5319967777450579968.000
3781667416548399104.000
5632506307690842112.000
2930747339457074176.000
2065512206300688384.000
2591375367097669632.000
2822969219731340800.000
1708090748079945472.000
1189383471827951616.000
704205888946172032.000
1707161952021715456.000
1406570190544412160.000
1523459977224382464.000
1734171527451943168.000
910192207322135424.000
494935470897315968.000
664586731630312192.000
837143757453513984.000
970237112988594944.000
978213302636725632.000
527730610937179776.000
463804093697115584.000
386788727218090112.000
199621271720550464.000
281299159829324512.000
262991306503789632.000
379823701950492288.000
198052910088283776.000
434688705519157312.000
354183686467068608.000
863494529166040576.000
695209596130973312.000
1619034618628022784.000
1587133808766402304.000
964295938036797568.000
790907666241996544.000
1169421448861306624.000
662034663499361408.000
358549836247375296.000
486271704105829504.000
430953271013427648.000
956243325708224000.000
508032780231066432.000
743886900703315200.000
434003146748530816.000
369077416702747712.000
523702155192867200.000
281548691329905632.000
209695444614687776.000
279986432327182208.000
249583629493073504.000
367609841477049600.000
368162274843219200.000
538224084773821888.000
482883241683196672.000
509193921225761024.000
689357676644881536.000
372072594221260480.000
470545294742391808.000
762095918029112704.000
456733055776643200.000
239741740414678336.000
143311306496107360.000
285327111902484160.000
382535578038359680.000
212741103462594176.000
201982576097445312.000
123059361364523920.000
111976294066403024.000
157138308694903872.000
136860770899383904.000
151954873138666272.000
208713741333871104.000
115373763453794048.000
128007216310879920.000
112921328133533616.000
155075924011513728.000
124349288504560224.000
123276018210638368.000
63150445804052488.000
143639938579797456.000
77218809682517152.000
39617751407603080.000
44647547617289984.000
27042421977916036.000
21639424631015164.000
18913303082161756.000
20720533211657812.000
11106330433550972.000
25204185199006300.000
25576240692351396.000
15463713388466968.000
7977624191420825.000
4625684048135348.000
2442336662884217.500
1375199169684152.000
714130199404325.375
1054321938384532.500
1493608594600134.750
1921373859293272.000
4895927947647816.000
2621870584129091.000
2055010288518158.000
4799417332998900.000
3914664561912383.000
2360457215704161.500
3732309296561525.500
7595421279781594.000
3833124722117812.000
3561267132853819.500
1848603742571345.750
2697844814806123.500
3339582387842265.500
4381247413025898.500
4616209619307332.000
4902276693297903.000
2608455683077859.000
1331330328938251.500
707159731848315.250
693953569491332.625
1456727014241548.250
796252726902661.000
414268316747160.375
446551659872894.250
225889851652760.031
451877400929916.938
311927535519242.688
310817144697629.438
173109553915702.594
221593372593844.562
183093840063865.125
113643929401339.781
61537506286216.695
143111665689810.781
136225334585676.656
121559165068091.688
106830399226099.156
107548619632048.750
96102145980606.000
111823262074170.938
143379071346806.406
122920747496274.938
193714259432259.938
115914545002894.312
251285414144011.438
143730075987064.938
127482282992091.719
255783380472859.219
141752807485520.781
112864731536267.109
61870715470568.906
32988440352952.176
30978196666988.211
17565028311443.990
22691282319638.648
32699353605636.016
42325703616746.477
56528763723801.336
32990088076716.199
40888146028795.930
54482771946897.703
111218691808510.266
101045210712483.891
57450439665130.945
32559371321433.918
75283682864681.297
117978361177477.312
130088281214708.125
187995246844028.750
100875349655309.797
137228137623988.000
95825620362855.000
145229086139669.312
217718834557676.719
240145028182640.250
129615108995517.422
107978471406866.547
61426261116147.125
124440056594647.828
115998951413588.984
137052770096105.500
182829666178726.031
440202408889586.500
322334253165346.688
317174279227844.375
369680011749654.938
446054508022519.188
410093336138879.875
604785097971643.500
314709228838031.750
324123458388322.312
806173612585203.875
1235753274658158.500
1322853123340989.500
2048431390112686.000
1948229460359281.250
1852177588973517.750
1090066415165430.500
1278185186664594.000
1119351890077596.000
640491879745304.125
1521671632995228.250
781238198964209.125
457376463931997.750
385792764997681.438
359733097197095.500
400990350441494.062
240966857952101.844
374661844386536.688
343793602651420.625
830488378373931.625
749589345948976.250
631271320243662.125
760550881766351.875
766880786386695.250
996824415664706.750
2086694562557554.250
4289666363992302.500
6286869797174646.000
6109192143100713.000
7111662884614268.000
6960397740181812.000
14130734298296804.000
13920830852836842.000
13786657593934260.000
11348291640771348.000
5837158981586346.000
15433688732380610.000
22865567054479464.000
11593346989348540.000
15123210767809752.000
19730297121847148.000
42914412442430208.000
37331486350160904.000
82603323635716608.000
46889938178384000.000
41473288743372568.000
61620715516684824.000
129980258902459392.000
73678908358130864.000
37762767316418624.000
20416291908957504.000
27196198296829244.000
43952348348376448.000
26113102667990812.000
27075211614762756.000
19802375926446984.000
24453456262315432.000
23066469769000716.000
27634071380079696.000
27819772347629724.000
45507042133693328.000
62508348754536632.000
61389831618391872.000
83537100907739760.000
73029075024740944.000
40357645765673712.000
48907195515335112.000
51116959689066704.000
45624948069184560.000
38230060439851464.000
20973120288958880.000
19318989876073972.000
49887976123590456.000
68138585960528088.000
36206080369123080.000
50155931651573896.000
79160646745451344.000
39916298826686384.000
41201436235525624.000
22515307465501464.000
11842016433106898.000
13626228761050048.000
15015728553658626.000
18812088909228288.000
20298557993813916.000
12137351759883478.000
28333825149068884.000
24223412385334300.000
35807395746705848.000
50548473202568712.000
34004211293252140.000
50037803731298568.000
35113893889789168.000
78821531129206960.000
47138266021139336.000
37617813419423240.000
36409105641972336.000
44670584589412072.000
65602011149057608.000
158951635755598560.000
139475763759089120.000
72817002339979856.000
71361974792286592.000
39022156197121336.000
42905417688256336.000
60468411823161744.000
151797462727048320.000
123672444527834112.000
140344663989339072.000
202602450953490592.000
113445515126927840.000
109877473095668080.000
262463340623735712.000
230122187281228768.000
231296392442262528.000
292731533986227136.000
273751509478962080.000
205964680444222848.000
453930443149676224.000
369798621802269632.000
469421410189888192.000
380570313900480576.000
228159653971606112.000
214700549435653824.000
266679748090780832.000
144385909899621120.000
121453368786737744.000
141383502512203536.000
146204161635216000.000
88631030711825392.000
109274356098342528.000
158878075051458944.000
161572648865998080.000
158462866114951872.000
85516432948910928.000
133184466628507360.000
166446900680790272.000
87915239856159072.000
114782016140282192.000
156916952915220672.000
82834412914760352.000
46179755777455704.000
51505052129727240.000
27235568988001800.000
42946666107173760.000
37203909718675880.000
18807119786100720.000
27113256395365740.000
26109764484214744.000
25224223028667124.000
50221300883704176.000
25920093544753192.000
13511639632762834.000
19821159313233948.000
50867663298829672.000
36916355307921960.000
47078060395375512.000
74409083772221392.000
40786130792446272.000
44833816670119856.000
39036094178098176.000
19497400495734640.000
48964060401509824.000
35052422402281948.000
49725125396876536.000
50852881460923800.000
46147142703888504.000
50455397308237744.000
25727395467003624.000
22862367571655840.000
49803691561462192.000
74149221527418864.000
88052252240248848.000
78577279657462096.000
83113740082562016.000
46233964899714704.000
36207842853131680.000
