33.052
34.526
36.418
53.915
124.875
194.178
441.437
441.604
643.704
607.428
1241.126
1219.600
1219.093
1301.990
1781.701
4152.753
5835.829
12526.873
27048.408
33008.943
89364.659
119111.881
108041.783
267049.029
257242.290
390623.025
422696.058
862082.743
1091424.443
2591532.866
5290406.131
4923077.878
4534971.209
9280368.239
13155685.153
14389310.760
22355423.720
51665083.287
81476641.884
88750896.376
176432381.211
275611683.359
579688254.544
763934997.528
1887917895.949
2500993398.366
2728011479.681
2873147357.568
6256778572.644
9471358980.401
18841201586.281
18448063111.484
28513097726.771
61830239174.582
78141741608.830
201079512519.826
206330430177.532
260033091829.451
529740137615.918
540784611779.487
547073241015.010
597336684857.348
582699617190.175
524275788530.716
1145960300954.983
1627223416377.569
1700402541163.843
1536490303856.268
3666757306959.056
3894514680647.312
5934362649690.003
5911571857253.285
6301989192628.188
8764974581747.465
8980087005663.717
22404039961078.992
32462833027210.102
31270206366608.457
27862453119230.766
69840888972804.508
64585871453738.336
94520660242679.375
215919539728680.875
212096601872445.250
295056604660551.812
687029964861103.375
1364409662108885.750
1319360765824758.500
1973934739959396.000
1898366360465991.750
4188718142925546.000
8460838371707091.000
11350486963081270.000
25866405957306156.000
35464752586910800.000
88502561533403888.000
137183995338947744.000
291005148562935872.000
437076544170340608.000
400604200372516032.000
410543103973507392.000
930218039362914432.000
1233623140320871424.000
1555440579150961152.000
1195004841919854848.000
1356421455481839360.000
1720850217651854848.000
2254434939923778304.000
1311606726468604416.000
1171201489382142976.000
708301633485461888.000
1512202447249449984.000
1475197835709204480.000
2174721757668282624.000
1122316212771429888.000
1365494014814317056.000
1174160770353554688.000
1442650493592555520.000
778157532148760320.000
438598753034811648.000
370623872428311808.000
488737184613436800.000
649472180560219392.000
886232191457434496.000
1279743696244912128.000
654086504053955840.000
1406770295327342080.000
1212212800147711232.000
732077428615060224.000
415689805812279616.000
459362105060040448.000
647144090512707584.000
1647902252140070656.000
1312553223610800128.000
651253841247192448.000
682677060962997632.000
872058836089446656.000
755433679297977600.000
426810419841372032.000
623090824121897856.000
357384485273186176.000
487944182078422976.000
383257547237808960.000
518105188818436416.000
378570103461654528.000
454500581403003648.000
415256302136936640.000
839346333380453248.000
450275254691000896.000
261459056006212736.000
211314344167944160.000
523442107329237504.000
287391988440725184.000
256223740403388160.000
155447389235725632.000
113434155383774928.000
246901549432033120.000
138002530421866928.000
122541834792720752.000
134245779810326384.000
144301648508787680.000
225773449239985664.000
360315374750706496.000
358705301751678208.000
411534874017422016.000
246034531826172224.000
497110937011460736.000
709617135839694592.000
875838495188685312.000
1298619431490716416.000
772172036947227520.000
696155617753673088.000
741463307471753856.000
930901693582157568.000
1372573579867664640.000
722566333759410944.000
365350730712537088.000
744565195241035264.000
776599026117057920.000
429711689581241536.000
465512281323447232.000
350266387048248384.000
421304051507988032.000
846843107788113024.000
462453763378383808.000
399625085758296320.000
351828069161220416.000
373668862220674944.000
535585954632756352.000
738623983560283008.000
953086106400954752.000
850010751656318464.000
764368161117079552.000
876618656832616448.000
455747797774160832.000
520002321142499520.000
445883052630979840.000
496912858834516544.000
259573550789711584.000
514665917739588800.000
779083755613541632.000
977996937690663680.000
501396093787964288.000
284932084662436544.000
208372209119020000.000
284321361174373856.000
202021100993673952.000
249513827241901792.000
529182965650852224.000
518994369929099072.000
505375130322393600.000
417509008241888640.000
638756298299607168.000
376432857995824320.000
836523282991737600.000
465483559612873344.000
383606705146654464.000
526749807953468288.000
733351759071620864.000
1469453309843850496.000
1171783524858007040.000
1463824049380832256.000
1646098764060812032.000
1489511431186523392.000
1345029171977472256.000
2892507664191303168.000
2560739690448919040.000
2856144647984891904.000
3728856826980319232.000
8276050653267443712.000
4910677303778637824.000
3976852041119208960.000
4824746128693432320.000
5338912407862617088.000
5392922445611166720.000
8069825078500317184.000
4280651164865012736.000
3763801392897355776.000
8164118654739502080.000
4954822058216554496.000
4736423055764172800.000
2488871761027846656.000
2890950854041012224.000
2130511343601225472.000
2672499212015667200.000
1517800321872502528.000
3115482833516019712.000
1718741616532682496.000
2591391575896292864.000
4023069682350162432.000
5263678126819115008.000
2782536099974937088.000
4173297371178175488.000
2548978377978706432.000
5519561761572897792.000
4807955699808621568.000
4050150121184437760.000
4450800366716446208.000
5423670136162251776.000
5311446510569843712.000
6980942069646076928.000
8882226073720914944.000
4819492644916088832.000
7442289104126574592.000
10009739304039198720.000
12468320919504736256.000
7230557315051476992.000
3817865379224308224.000
2154767891921740800.000
1168299318358643712.000
3091671627572637184.000
3125114143689694720.000
4691876526226741248.000
2355022152223047680.000
1236360291117721600.000
1348751496991077120.000
2865509038694779392.000
1564396931615190784.000
2398914178887219712.000
2618102274946562048.000
2662708631255652864.000
3120347514873073152.000
2602761747664654336.000
1402431718622893824.000
2851512776259085312.000
1573172612654480128.000
1427197469150978560.000
1411596751244446464.000
765127554940899328.000
418339443134943616.000
482923607182076352.000
425323279827689984.000
219985428802141696.000
124541420181585152.000
126891331430081696.000
163195184171216832.000
109749642940856560.000
149128961678051808.000
297779083391031872.000
216978184152634080.000
122555497818158064.000
139136515368753744.000
281762019572483808.000
357619467215907840.000
491648022509916672.000
357927496708702144.000
218927465158919552.000
301441393850253632.000
255836377842763200.000
388177982274491456.000
860912847161902848.000
721366100688574848.000
411579318932669376.000
969939977587732992.000
524531549147854336.000
642153341473405568.000
948947590178099072.000
812603223136530304.000
419660421583992000.000
353518118609173568.000
505831079550391488.000
446898382462994624.000
243319629220145472.000
296540872133577728.000
239080487052120384.000
199535536357394656.000
275269023062983008.000
223408493505348800.000
116429289993923568.000
66147134123984688.000
138362657449136720.000
73888232949064576.000
85322712023236048.000
45340361547858832.000
69197815168241992.000
37380927883227248.000
40011062838469608.000
47567631992315608.000
26549627189562024.000
28715888318736696.000
36775353299395040.000
38484885392501192.000
22094825128055084.000
25463483509099920.000
21410113313162564.000
22001075397649368.000
24793552715243508.000
36906894822738136.000
43645429373705680.000
50262267994432576.000
35602732866526828.000
38082699151770200.000
20699929175869128.000
19248194297051556.000
23253886522806684.000
26776368522816432.000
14021540172842626.000
19301576911699340.000
26653723438857756.000
26749622413376580.000
22245254005889536.000
24950632201091724.000
34629086465405180.000
50398896223699888.000
44509873271941776.000
26843064679128400.000
25055243410405092.000
51816722352027208.000
75167633404434368.000
165321110377752160.000
112270415694349312.000
230804176060759936.000
261307074747122560.000
426014001333706688.000
426861526980311488.000
401851210565368512.000
226431882877489216.000
538329967926231040.000
390981032870562880.000
848967851474153856.000
1208631257485063424.000
1766176982540450304.000
1244951286457623808.000
1155004178200803328.000
662137744059585920.000
1612471117146982656.000
850826668221445248.000
1372740110947268864.000
3175046804201683456.000
3096473852611408384.000
1630133587417320448.000
865701494307671424.000
823978621834550144.000
1635341081819764992.000
2636742670945839616.000
2964274431808762880.000
2345511166800291840.000
2705428333676706816.000
2985486975071589888.000
1668036256046183936.000
2170773912179908864.000
1311843199670400768.000
711529285303060352.000
408899821302695424.000
520266583440814848.000
293408755535431872.000
379173437429173120.000
211727131922930048.000
268139441736766208.000
223565042771021088.000
113807318470140912.000
60622008413973168.000
166798111199201824.000
117818572896721104.000
111934675127463328.000
158308336709284192.000
84493660926650208.000
70836183256913224.000
158074612434019744.000
124380227934777504.000
64129056267809736.000
37085241350362400.000
82786572079019504.000
44485672536042448.000
23108285466194012.000
12091546867579342.000
15921079770794024.000
8732796835489780.000
11787246004103192.000
11318457733909840.000
13341504301412726.000
14413549368760490.000
10838350347243484.000
26240455133064996.000
14516979297951152.000
13807596812474806.000
12581203447566264.000
6464170237089814.000
15107969898196612.000
15517200692568850.000
11387442586918844.000
26524568590914996.000
28259989065546396.000
15780047021367590.000
8414361217144960.000
8565801881384320.000
4734428309232356.000
2684058139071974.000
2425165037251691.500
1434828095408029.250
1170821813956685.250
1262750195197218.500
1338328131863869.750
1372580570070651.750
1232661851779501.750
714087859023783.625
1101957371629304.250
584981355892321.125
658440244206699.875
1400753645349548.000
1234073387904283.250
739022012817437.250
807192501581085.875
724912178941834.250
632251342034775.875
1326033008289102.750
1798314670174192.750
2650726922350616.000
2006380864381884.750
2356750594328071.000
1206668706487905.250
704063209842278.250
635852659207851.000
808204496354555.250
793008675350903.000
1047788117644962.375
2377826181690875.500
1422653915046858.500
736575574709263.000
652102738665011.500
351549131652765.562
187651393055784.656
102402403982477.047
249218385918604.531
241935136204379.906
176314060047104.906
183422922573130.156
107672338560993.734
141352145065196.156
218825539202061.594
470441446687718.750
746629106747659.250
750198077512160.875
820647653345209.125
638520178069058.125
736909234773493.875
406121563214888.812
307799120311276.875
397216358624395.250
623914900534607.125
805749624269355.125
1219549659673551.000
1336070295117028.250
2000516326326903.500
1032429988744439.875
2438179143173991.000
1341835441978348.500
1280222847200628.500
680448001994521.750
843806026340652.500
1364216870221851.750
1443404873556778.750
738888308058830.250
650415903571259.625
1402489716694086.750
1173981917403360.750
2452323584317088.500
2684257028297521.000
2445981124749705.500
1261224719820903.750
2608481825444021.000
2644009572050411.000
2370212886134126.000
2281880552940029.500
3595997861814892.500
3804043909165290.500
4648239252501022.000
4470831534712533.500
4907567819312443.000
4660033576352646.000
4263122016010330.500
6801282981478855.000
8424917821334733.000
4543892572542720.000
6440808253001906.000
6288189175898277.000
6849412421722185.000
11024040619712884.000
13806319321083672.000
27327903076023100.000
14736532525363388.000
7941130648839873.000
8576879544983499.000
14057742130774674.000
19038554879078492.000
39264016635187128.000
83845758647543136.000
166187250212805568.000
92827418095034384.000
86843216494166928.000
70530838972148232.000
154697098506400992.000
144694258222672928.000
298328750092638400.000
220855968753095200.000
506589170218471296.000
267671699578414208.000
367783843411773824.000
227739133549535200.000
277539704551315200.000
147218816835838560.000
159262488221393984.000
125002473939541536.000
143924455949112240.000
108971327160964496.000
131879321975876032.000
163988806424205856.000
111622998970307056.000
134835141011440992.000
81666521459445520.000
80751616963138608.000
125369614336853056.000
76847763723317360.000
46696049983197304.000
72909526309440672.000
90076827546221024.000
75992251376130608.000
80223553176758848.000
116739511562620896.000
67418388705318624.000
71594730036802384.000
109946715129386208.000
115405860791463488.000
150681796296194848.000
140239708740848480.000
72327502838912912.000
67284427766506664.000
148704180122553280.000
120341579544839568.000
167887496965431968.000
141647411289011936.000
155579628703633056.000
150593930925087648.000
90685660189882896.000
48366825194399472.000
34790949246067624.000
34647766733379948.000
19550218176299420.000
27255330727378168.000
21860446602235116.000
24201730602376608.000
14362591668784526.000
15116133978509996.000
13595931680706406.000
27022237633884552.000
21290310709518432.000
48720857772166184.000
68660510325029256.000
163868537328285280.000
114336431821214080.000
167456973931468928.000
159281626017233888.000
218419443416942528.000
114140690242894544.000
136694823956447152.000
118821331026882416.000
144661617988264960.000
160188083465415200.000
88820258783319312.000
93544886254643424.000
68761067752877832.000
155137023969098240.000
127556993823714992.000
202333169176434560.000
241189146359193824.000
363685004532984768.000
220919830560570112.000
465985306021214464.000
270483317502725216.000
530611747824755904.000
366442414222196672.000
198570367556321472.000
274781006879446080.000
261122705989713504.000
136558434102814864.000
198282168303253664.000
484270616505327104.000
543112519293298368.000
422621780369203392.000
541149132032566272.000
730170885341642752.000
1542257412338104576.000
1516822954067009536.000
764792266730536064.000
905371902266620800.000
499329229040990016.000
431831484885670144.000
511104270078608832.000
817293150115771008.000
1184793623102624000.000
1512625042228142336.000
1166710947829452544.000
3030404153098097152.000
2058743034241575680.000
2350897201426494464.000
2940794796609258496.000
4136703754565362688.000
2549174174395285504.000
2389400453114238976.000
1373899192135264512.000
1485592150065907456.000
1422767631516896512.000
854261356895022592.000
732944405084473856.000
860788966326013184.000
766963427228088064.000
648212977645102464.000
754255230772229376.000
977442961913708800.000
1331771376507768064.000
1238142735614200576.000
1514650194898069248.000
1499783190164908032.000
2405935142645525504.000
2960569406790955520.000
2688313382276690432.000
2179452787957396224.000
2205697110807575296.000
2715963046396254720.000
5602166762126156800.000
7982863964922470400.000
4691644242456698880.000
4725154129780674560.000
3745135695877108736.000
9811818866469347328.000
9829110858638000128.000
14321761106290597888.000
16722802853653196800.000
9559983560265613312.000
7645544093962127360.000
8866410773158803456.000
5264188261947901952.000
5722065881516802048.000
5402948282029307904.000
8727254214046359552.000
9996271553094150144.000
14999729400181831680.000
24026048670178893824.000
29929387509838159872.000
24905047847973576704.000
30445202865028759552.000
48604142969480937472.000
102529159088129966080.000
59915345567781625856.000
32667889617341546496.000
27669157144197582848.000
31400340963068555264.000
28060684100768083968.000
31959336646949965824.000
24424457668249645056.000
14061171180594620416.000
13924199683656890368.000
7080271501128531968.000
17990181732396869632.000
15837179624852430848.000
8117098365611953152.000
9261975543601995776.000
10281034229974806528.000
16714202655941787648.000
17495435480788162560.000
13766304660207806464.000
8146934781390139392.000
4947477775863296000.000
4225156258892598272.000
2382659258070163456.000
1362660069691887104.000
1345187397734287872.000
1716225139620411648.000
2550384060234902016.000
1476571785733330432.000
1258381785518348800.000
3030551897693663232.000
1681354527189236736.000
1664204152498416128.000
2124283974829806592.000
2450376979674198528.000
1262819179058076416.000
764441045339169408.000
869606762056385792.000
465423858797636736.000
527515213281109632.000
364326375658973056.000
900548101059021568.000
1235869602902316288.000
688651359356621568.000
1747296122487630336.000
901921312912916096.000
532724255364734016.000
303134499237934976.000
166290871961240512.000
120324204254209632.000
163974908861215872.000
113276706492713472.000
69454927096190168.000
35056471232794392.000
20419617442774820.000
28154813014717548.000
35223114099985152.000
75310922500457680.000
74032203336041776.000
77971442964613280.000
115639507465351696.000
257644792613880000.000
205510922852169504.000
286364974555049600.000
253515046403436064.000
298412807445416832.000
199857826431238208.000
117096386446544064.000
72193812574189584.000
111263332480749744.000
141512507860544096.000
133719777455805456.000
67541773900824560.000
79078739092266032.000
88774489719020272.000
77641690854800256.000
113596726135297616.000
128189705777026096.000
64870409815570368.000
38966388383570000.000
87397479205879088.000
88374655701921344.000
70270831232721088.000
92035027983993504.000
135807087486674336.000
121651297910397232.000
146315067685810976.000
140913269655382512.000
125977606318015984.000
163820832358773024.000
198960935285172672.000
420960210798804608.000
671901175039436544.000
907335636470328320.000
656271853749738624.000
377010161762001792.000
227188156764192096.000
281178567859874912.000
152775956519820640.000
92307530825635520.000
47239587910072536.000
36193532035382240.000
85229345692957264.000
88592815053104928.000
51537555223527136.000
28085287642709824.000
22220574696660676.000
24859100438084532.000
28581390172234848.000
38709141425613528.000
42189761513656872.000
44956703281046608.000
26291621871476836.000
13493665192015412.000
14030574601916408.000
15378694539937186.000
13965911497108722.000
8240474459089523.000
13115278297474970.000
6755839944497796.000
7366075395885473.000
6922251759774304.000
6066512019461175.000
5968570821875002.000
13486754175641364.000
26960723071258168.000
22199967249822640.000
11308987551632546.000
26162773400286748.000
20913763455856468.000
25488374834504792.000
24998471389198956.000
35472895465395228.000
43670899415944112.000
34392803875847900.000
80944441627315200.000
124214546012655264.000
155962912343299456.000
150601722921020000.000
81452472559776464.000
48915898584093840.000
40472040546489312.000
35403874427695796.000
36351993083439912.000
20205836376196084.000
42002538748117896.000
61646390157125424.000
61954397113829968.000
148475539009596736.000
133456364096471488.000
115170479563718256.000
130558984692332720.000
207180944888541472.000
490552983216878400.000
650993038443374976.000
403126684337682752.000
211285176471729376.000
269844979471762976.000
406003285363958848.000
371082173596321216.000
469559149143256000.000
264707149506194208.000
141103335654710416.000
164526476896916544.000
113315620635586064.000
162751495665866976.000
130282937042452736.000
126221313637198480.000
262158604433941888.000
288228937749529184.000
198270343330266944.000
523736280713335552.000
691828242370993280.000
781338684793354624.000
888042875037188736.000
488988130991945280.000
290239380249358720.000
198032092950352128.000
211339765182900096.000
540266995649243968.000
454085308231031168.000
668394471202767360.000
968490686867336448.000
783625486925168640.000
453442345584931520.000
517252704517705344.000
459109260458778688.000
672408563362045056.000
757563578184388608.000
449724870127706688.000
400302317208236608.000
243259045386875072.000
271527017614242048.000
228167780776197152.000
127145629900072752.000
259148363085099328.000
252081968004843808.000
143421468352095712.000
199850689796811808.000
426906326428984192.000
401764350546453952.000
355907954052235904.000
535076488694930496.000
653446825899810816.000
1544415074458863360.000
3176596132308978688.000
2472920545948176896.000
1336652894031168256.000
682302495076129920.000
838857756101530112.000
798797569191295104.000
873151295381010048.000
948784336758857856.000
892119502459691904.000
917128846690544256.000
746476098118215040.000
372859205559038016.000
353320262054456832.000
544388623203456960.000
849952902398397056.000
1743343909828995328.000
2261341159087864832.000
1359687220415791104.000
1337091348283828992.000
1701955161037051904.000
956811887137937920.000
755206003548067328.000
1177390620174637824.000
1408490265923665408.000
1588210298987421952.000
1765064709462617600.000
2725406990577249280.000
1463455569802587392.000
739800200718344064.000
430016244868839232.000
352799032816063872.000
459413142059142848.000
411808458942339968.000
953382986037796224.000
1401416329575671296.000
1328314682946608384.000
1704133632916199424.000
1240911998880534272.000
3146558801049560064.000
4985304539677559808.000
2852063548432058880.000
1669127120940860928.000
2282931832872514560.000
3107821364315780096.000
2298317010015138048.000
1358148624727241984.000
1681829283992278272.000
895708460287904640.000
779880617400137216.000
638357469496969984.000
662440170081385344.000
1367796428788592128.000
1213426169864856576.000
1577845944778023168.000
2354105012468223488.000
3112114679554590720.000
4954331163253304320.000
10191086988338538496.000
9327909956938555392.000
7184761498940967936.000
9850422592224415744.000
7268013235949995008.000
15809961383978536960.000
13350153284093540352.000
17048911351460837376.000
10266811183227125760.000
5380587572850613248.000
4401662886509777408.000
2635998979961187840.000
1522961007154354688.000
2293227375458729984.000
4855025246535532544.000
2815556000047238656.000
3934034601644762112.000
2425699318510400512.000
1278101084983156224.000
1749513823774194688.000
1448376041077971968.000
1680230145266137600.000
2522196544270435328.000
1418400720534810112.000
1625707749290068480.000
1334407986367320832.000
788770513302544768.000
1750297915328836352.000
1185388615943036928.000
1304248682223096064.000
778351743661203456.000
980342027519434880.000
1449944682581670400.000
1767734994428665088.000
2176325512074898432.000
5047284118032394240.000
2914144158872248832.000
1716932726499002112.000
1753629879056591360.000
1313330442997869312.000
665018811241340160.000
378993352687177792.000
217337046962554176.000
111561598596191472.000
68950727436550728.000
69224235540804608.000
110865132523363440.000
65241270442543448.000
140871876175268672.000
143627553198692928.000
284365495843364576.000
419536695586189312.000
970239259509240192.000
657466560569466496.000
1583715998567309568.000
2518107554726382592.000
1287978418417884928.000
1470167558999794944.000
1679619467558277376.000
1389877161669956608.000
1382973176039938048.000
2116209213333828096.000
2722224629124510720.000
4295698209812244992.000
4760434228871965696.000
5716642345863239680.000
2938119306292419072.000
1692205985043880448.000
1172167260541047040.000
1485835454215157248.000
1549800623671954944.000
3100907790692710400.000
3871785664726619648.000
5096812210117590016.000
4030166276704254976.000
5329296081480864768.000
3043812774977572864.000
2237857376911150848.000
4654009374096458752.000
5309086368082975744.000
4160903497004434944.000
4717580440567218176.000
5488237455883431936.000
8409204968487102464.000
8063035749667572736.000
7232166801597350912.000
8320347446318419968.000
9440712645348255744.000
15091297628036306944.000
12114263257604462592.000
12877234463603474432.000
15015023083045771264.000
12997499412524998656.000
12927259387498471424.000
6979664824435958784.000
9410278289990656000.000
8386281689145772032.000
4339018792447105536.000
5457829232475270144.000
3966376220451484672.000
4980154613580401664.000
2922267006629885440.000
2565681190266552832.000
2245609149109524224.000
2902948951656082944.000
1729990236130179840.000
892511546225960448.000
530781631930086208.000
733452217466590848.000
739164013951113344.000
826661019375024000.000
1164579657741058816.000
3048182407319153152.000
1602896247063725056.000
1332295340679897344.000
1446046770997152768.000
1608365910187812352.000
1693867921032364800.000
2219526524088126720.000
1355801016726644736.000
784976688505886464.000
464067214133095488.000
529307009749720640.000
536956981754885952.000
361107402429605120.000
521564699734025472.000
858018894001058304.000
448376990962630720.000
228413820967682592.000
480247791416028032.000
773211585755685760.000
969227603317494912.000
749613533156271360.000
423158012768895616.000
359085464318621568.000
218204207459627424.000
452013404282228672.000
450582055851316736.000
930371437334744320.000
741705393022317696.000
1636144260675523584.000
2119066528876018944.000
5106235306340349952.000
7281164665864206336.000
18542909352604528640.000
17405458997202716672.000
15865518077352927232.000
24766526532924268544.000
28368116173558722560.000
43251833676470009856.000
55845599524903895040.000
42591667905693384704.000
56298324913603534848.000
32594877096407564288.000
29530733063461511168.000
15876435480559030272.000
33329606348805218304.000
18092345915271051264.000
13057377580993912832.000
14588224462967861248.000
32218205832503898112.000
17558860474571239424.000
13885258930725588992.000
17950869914494058496.000
10259458607650736128.000
7148687100895450112.000
7139577029466654720.000
15436823842627063808.000
8752104927105073152.000
9643477528856104960.000
12467538907245072384.000
16677053994623500288.000
14192500808730632192.000
16908802119576045568.000
14272693571088736256.000
8334847039560179712.000
9080946861780614144.000
4855723257110240256.000
2793057103691141632.000
2397131671021070336.000
1408079257248055296.000
1750658976558359552.000
1355739141883307776.000
1505627702281150976.000
1643850031535708928.000
957960844763262592.000
490055407634183936.000
276613030423331200.000
143280141847451680.000
124520856427177792.000
131733719496264592.000
68493995952087440.000
79171699826118768.000
82158420227759824.000
112137285586139520.000
147397546067710368.000
125653414903153376.000
198703650845302560.000
245699400593818080.000
123952837152093552.000
61599982270561624.000
156978214758403200.000
86808967111486320.000
79305905986201984.000
41917326070144408.000
88490001345817520.000
145578649059040608.000
153656922045522272.000
109376990615122528.000
234113134469734784.000
209708377226430624.000
238633353625765344.000
126128983211366736.000
135595532010565104.000
160490239480007904.000
245131077729041024.000
126370346272507520.000
276005881322558976.000
147627151317201856.000
224703936690848384.000
225422464480330144.000
463068407328978560.000
272640604187337824.000
376882257024114240.000
465200449600915648.000
241721602770853984.000
124249024822939920.000
271730024895031904.000
248757416999943456.000
297651786099689472.000
262711699950817088.000
234871120376174944.000
269313140575694496.000
278550011875696320.000
253885943422430880.000
407076824063097408.000
205420961349265664.000
426977138826945728.000
364795061539523840.000
464980718529946048.000
359507667528839040.000
458290145056206592.000
374582570308712576.000
221094117530268128.000
122562761017823696.000
293385302279070592.000
222778913722050720.000
276364466728819904.000
197165153028998432.000
285773408501653056.000
211915790135296832.000
285557229958558080.000
158215526435029152.000
224325795508352896.000
112765421541211008.000
297533214868910912.000
270786970391639968.000
254125417345467072.000
219779057038143072.000
275257515587892320.000
235869093513629952.000
485174387336206912.000
285385092886977024.000
232732922121844864.000
479796614098004544.000
541416933344921344.000
776088479558699520.000
920111614130850560.000
1160463561490727424.000
1410163099142218496.000
807362513600381568.000
964574961124916608.000
493097862778063360.000
270846236598815936.000
144614110295944192.000
210161134028074336.000
517682413599964544.000
700784274745224704.000
1564501201161830400.000
857661274897502336.000
1172545530186163200.000
1621598655821644032.000
1373617084210148864.000
1169553761748840192.000
2879678304381206528.000
3066533726307969024.000
4343021069788284928.000
3972314059803664896.000
9188542398064225280.000
5498836831725858816.000
7820406203631159296.000
8272584198644840448.000
4646434563385055232.000
6820791925200125952.000
9434030459636910080.000
7193767569945662464.000
3750137166016589824.000
4242924260837861888.000
2264713559185540608.000
4915478131887005696.000
4719930995240832000.000
5223399666981984256.000
8177026523188104192.000
9633962597809033216.000
9195531856549859328.000
5363072554701873152.000
4018560650205486592.000
8925420718375931904.000
7439068697032853504.000
4571739557875490816.000
2604479203900935168.000
1315558614071996160.000
3075446552148894720.000
3120155481774949888.000
1620288169241469952.000
977192282966552448.000
1386978438032432128.000
793365806860891776.000
1648923970479963648.000
958608191907512576.000
933835856316219264.000
821781273037281536.000
1175934407968043520.000
1407768084621500416.000
1730288990277156096.000
2251124682761876992.000
5023819639102235648.000
3911237665363337728.000
4316967914561534464.000
2340294190237672960.000
2906469843415288832.000
2254894785544924672.000
2930647751736719872.000
4590448131592428032.000
2366903158567156224.000
1322650323639102720.000
3086936935050323968.000
2516810744030242304.000
3131986192678328320.000
2183228322933756160.000
3171849679963354624.000
1667847054827472384.000
1174891613037845504.000
1312522104532011776.000
1218401147543220224.000
1495476329029844992.000
901180764168805504.000
760236223585298816.000
860805964034311424.000
745577826454960640.000
666597488751895680.000
958046984940903168.000
926152598452775936.000
763994170794986624.000
1550097105103624704.000
897064408222728576.000
522467409366297024.000
713740320243873664.000
947893634252964736.000
541659518319870720.000
430931180797826048.000
248551484636013568.000
225659487163031424.000
276997935374849280.000
141981049909834528.000
115075869369414864.000
160513340739896768.000
87057401377925520.000
44912437398043896.000
49112080921247928.000
71999079042515168.000
87951798031752064.000
84975732030299280.000
116339016286439856.000
122753734532709936.000
144669206371226304.000
76201304086479072.000
38695683930155696.000
20208415288823992.000
40898794086375744.000
50428624164304728.000
36780954038974608.000
48841575018243976.000
34525358715573492.000
42497736315062216.000
90751006255716656.000
49305323149289912.000
78219978602828688.000
68773918742160840.000
68121727945356512.000
37924815376882584.000
40085093453328296.000
43054189680772480.000
24251172256651076.000
14699126571094734.000
8428077701431380.000
13802185865401602.000
15098457190039856.000
18821832387937768.000
25461734983690356.000
33794809455440340.000
45954387312880944.000
37416009340224736.000
41726286130766056.000
92463841228708464.000
128615256363520528.000
148823351727944480.000
82326942462319968.000
43063987223028440.000
39784958611604592.000
87191417198992816.000
115523267287151328.000
160006168235466208.000
146897508516177216.000
227145027305940832.000
358368011553669760.000
537149769347115648.000
534147019749072256.000
457735587564536960.000
426630201625568448.000
469368279437040384.000
244445795148787392.000
141644262898638064.000
77385849229336880.000
42382702718739376.000
24937170501132136.000
13380132882985740.000
6840698006202402.000
10827954966756262.000
24156520597143764.000
12219885490113280.000
6575855577305919.000
3980059261405583.000
2282236821225741.500
2336318876954758.000
2503413089038450.000
1301488882310603.750
758705865375992.000
651429537658358.875
746071021097943.375
428393184748958.875
440269432618411.312
355095379737593.438
561564668033779.500
578110357988837.750
772906830981290.000
1239228735999107.500
661662626507369.625
336572085314713.062
441510392812497.062
368031778164072.938
218162932535784.062
431147655597426.125
219959781529888.344
111696613172463.188
108041871001667.906
103332606664246.688
60136749291256.133
80267623897767.281
103842686011701.406
61395578840593.648
56573703787364.898
113515102281007.156
130047928842503.594
174349429778888.812
97108983940444.688
133482528303489.250
196309113803774.281
404780787052396.375
226160581248143.969
120339326618398.406
69102042214935.148
66114259601208.258
34973591996850.398
33484521088239.469
19245003116108.520
19458590617315.215
17901208062888.855
36553159471225.977
29802290619976.250
35373423403610.328
42680432325629.023
22533636921250.262
11973336379640.127
10286182896270.955
11447153323124.846
10525002706660.551
5335886874011.798
6094277322246.155
6506650373377.180
7005996446061.160
9810414943808.297
24634216792261.484
33626467304089.820
32096899810989.129
31945676015446.496
18592622736263.863
21157933393976.617
12168276638618.352
9072926288307.316
5336839179536.236
6878091822365.601
5579923255656.903
7259745510016.910
4146046636205.363
2284527018085.002
1671383460733.964
1793389853305.558
1915844287496.732
3046118276904.045
3844873163293.250
2314658658614.442
1263903913045.596
1889445860756.823
2223062614314.900
1271917035637.562
895228425944.507
2001773400311.740
2268254844549.640
2330226905566.897
3840828934829.217
4138056812194.483
5880219631270.143
6043278243202.215
9104990081117.268
9799628547314.951
23433257657144.977
24941141865974.383
17742889044538.664
9500765338787.660
21414496128262.887
30395661032676.961
71571212069367.328
65400849545761.266
64633133492865.844
138206294289491.766
203612019394892.781
428081374847767.750
330316608969602.188
427593352172919.812
419255950738528.500
651905531556545.125
339660209914280.125
203852863151981.969
219416971550115.656
185524267205934.750
95052974070288.734
235945080204239.125
312037792827979.062
365806474471860.188
440194877033104.500
469359697066687.250
363502437497649.312
351543733118342.812
324639477704402.375
309637673319478.688
755841310865054.125
1156772397238733.500
625150123914401.000
322034760984165.312
736075942959484.375
1161501902588120.750
578533088195256.750
822957306848255.750
570680802480028.000
556776437587712.312
761978103934005.750
567410671839261.375
834913263721544.375
1216103234947277.500
2703672127944429.000
2606618129732236.000
3884029409491099.500
3752154770767286.500
8801038010199757.000
11102524630540258.000
23584690221974120.000
25225101472216764.000
28212103609075816.000
14503118936307276.000
8655079901141898.000
7529485027536164.000
10537250211371750.000
11335091270233820.000
15649954560584074.000
13915793518376454.000
22453211099809048.000
48272718177114456.000
34756238756139884.000
75320152732321584.000
159906461225670592.000
122504301738956464.000
69265080610282600.000
85992410354479200.000
137860217474337360.000
219903207144160000.000
237745988338175680.000
200550500039993664.000
223543043892097248.000
298021763676069248.000
409595082830411520.000
537196125820117952.000
423306541373256256.000
485376579719844672.000
765047452586169472.000
755292101207091456.000
431213832689310272.000
413438643762895552.000
448461711520975872.000
524309954747928000.000
302221025502363328.000
433576259246864640.000
389968306193967680.000
232034207721328128.000
271329279562199232.000
537462672858709184.000
436076167450048064.000
539204864343176704.000
296738619090173568.000
429436082234423040.000
221420478583913952.000
212163490661468736.000
274341518655400800.000
406727236908037248.000
473671509745290624.000
733609190452929024.000
962235179653547136.000
1388413647920763136.000
763106589255473280.000
1628417094931834624.000
925863959128552576.000
692733911836406016.000
872745831400460672.000
1212984286377235968.000
2622643346172016640.000
2251579344063383808.000
1158197377243550720.000
1404618230181577728.000
767544195184876032.000
467222542828906496.000
470714140805661120.000
382425559738044992.000
940274056641165696.000
1480638918062810112.000
2220544241278313984.000
2578137063728436736.000
2486321943441777664.000
3079193749912767488.000
1669110744494432512.000
1218805872889052160.000
1685643263572378112.000
2637925124274444800.000
1530343124445898240.000
1587064107429690624.000
1485576659347712256.000
2404287354611495424.000
1283550938104581888.000
1592595487594607872.000
2180571617284597504.000
5475062442785705984.000
4810546517436054528.000
3757318534380494336.000
7997737289616272384.000
9672125599319951360.000
7014662468459429888.000
14906154784525815808.000
16686306090341967872.000
14405042531869186048.000
8130811701711629312.000
4360282967947722752.000
5118519823049408512.000
5407874640788978688.000
4873263236583193600.000
7118801400161940480.000
8250221803265124352.000
4896240340689370112.000
3833539673331510272.000
8908356321629385728.000
9883239735964317696.000
15988288116104261632.000
22683673204709322752.000
27311823395588100096.000
24450107411869229056.000
59544840588997910528.000
40090149088262299648.000
48404852834749063168.000
29291145658007891968.000
15072649173210740736.000
16601211403353980928.000
9222304481249594368.000
10075980573219235840.000
6675232094722844672.000
6973038437577350144.000
9091927333234794496.000
6875670619420996608.000
8240196680621450240.000
9012186850305933312.000
8076332302638447616.000
8818171195081796608.000
4600424296612173312.000
5414140972866711552.000
4083000446312005632.000
2165694309108376064.000
1300545408026192896.000
1638608634459797248.000
2322243809769744384.000
5178163728076158976.000
5030490516799260672.000
7885298700172986368.000
4635805867149964288.000
6674903681550682112.000
8450180199950530560.000
8752807212090058752.000
18400608231816673280.000
15100280413078444032.000
7761797142148763648.000
4066008883222844416.000
2342303210766335488.000
5182823241563419648.000
3869599512830431232.000
9706854834714697728.000
10121388339300419584.000
5266732521047738368.000
4740432535599664128.000
4048510677190605312.000
2215488274267145472.000
1189239896389623040.000
706915775723086464.000
1761122245212331776.000
952987446190080640.000
1565311835879396864.000
862835864747823744.000
729315550846465024.000
842724823110867840.000
447137967729485184.000
530420691874932160.000
492850577913997952.000
285095607917042144.000
263710937154140992.000
535750100375303232.000
507375608078720896.000
377868084136794240.000
223733582874912736.000
117380050592437792.000
131977217283895328.000
154875497016980192.000
225418243110568096.000
273619157486184352.000
271693794697465600.000
138441551910862272.000
70396993230454640.000
78338888139629472.000
73237863761473968.000
75197944966297824.000
69592469756041256.000
40595196914736904.000
42800600998692008.000
21810651141445452.000
18886555925828172.000
27567428004786640.000
24474930997403080.000
22068667144927688.000
28475475313819416.000
22181330491510848.000
28405341241721992.000
14551565510875872.000
7835619372444264.000
6965803514754180.000
14590849735081222.000
19908475818879056.000
11694930323305820.000
26842626654411760.000
20425377877350152.000
25328345526966332.000
19264522087657572.000
45607359542366560.000
38591647391871504.000
23745725384866764.000
13621261085924276.000
7989804602274214.000
6745234679394096.000
8861066675990284.000
6060975830772982.000
8593700667390807.000
6021401667019074.000
7738680398069438.000
11527759231093082.000
24619547802396936.000
13282511869560010.000
27630687237900344.000
18801051071373792.000
21835759013099956.000
22350627384676100.000
11709820377374446.000
7010589411494802.000
8124202991141386.000
12406328092069786.000
15980045851124930.000
20682724509179488.000
20566776403725764.000
23262047019702184.000
14124766464254856.000
14058458477008778.000
13297600445240122.000
7986721614460820.000
6367599606918741.000
8717754060353711.000
11016797274203512.000
13722331318770578.000
13458194757894056.000
12017649461266664.000
13691526559734336.000
21134998251923320.000
10476749701388586.000
14833606335471336.000
19871391959753972.000
45263170261651152.000
45404814008831536.000
50482862289087880.000
42215291840253144.000
34096752202107392.000
88539755789390096.000
137845403266694656.000
71863762784756736.000
42238369924893640.000
62369728284577656.000
63925099495454256.000
62954392399126312.000
75063089077742288.000
78072787399353856.000
61066811737410568.000
144783710688406656.000
76462561680323984.000
39389581370241912.000
88313976391103568.000
68397575096568288.000
75178476638407824.000
166871207651375552.000
163528134206358080.000
149364412509549408.000
244492696298437920.000
298789880176827456.000
485848478041839424.000
652601723423204480.000
840474239470935296.000
429858129000610176.000
481086165944961216.000
269312150205294528.000
427939716969579456.000
687638175633358464.000
1672739807405585152.000
1418260513097847552.000
1352707016269626624.000
2126787151352108032.000
4380500976084545024.000
9353314773382711296.000
13040776358928693248.000
14000249870831603712.000
17539537614554570752.000
9461942777683234816.000
5357136953734564864.000
4411710671182748672.000
5586761707830717440.000
4111393659299613696.000
4882509475893225472.000
9765454013978517504.000
9178000565909711872.000
5128688449166888960.000
2931353249190244352.000
2506268335136207360.000
2755577773402225664.000
2400541727665346560.000
2692853738755089408.000
1485911104077190912.000
1184187122772101376.000
1441730286696874240.000
1630405111019932416.000
2299923487957345792.000
2499363322788434432.000
5289653017405704192.000
4256444801528800256.000
2231161760865176064.000
3180102647301455872.000
2319668748062409216.000
1206503407590938112.000
1707005204651715584.000
1422797380994256128.000
1610664736458262784.000
2126198650875691776.000
3115269528373163520.000
1609727536734897408.000
1436190114481518080.000
1446609199636971008.000
1487063968645104384.000
1597250072494344192.000
1272924572431867904.000
778941263362362496.000
435448152746787712.000
230354088872983552.000
505159059111152320.000
444547973968341632.000
644221838920884096.000
1614714714661252096.000
2109238594302111488.000
2185215791051229696.000
2705678361251973632.000
2178388454132422144.000
1186186937000324608.000
1367518276495583744.000
2988460065128969728.000
2126907812911746304.000
1278350431402655488.000
754146275229046272.000
1651262707515109376.000
1448203390642431744.000
1193183613854836480.000
1675584740217742080.000
2665574617636152832.000
3136078150225744384.000
2270010693807857664.000
1187557402548650496.000
1555569469756878848.000
807232400271644672.000
1625851347418292992.000
1607653252695553792.000
1465962122464298240.000
2073452424655288576.000
5649889708769175552.000
4818588626592710656.000
4750514499438576640.000
5451787705097370624.000
2824358322521649664.000
4085021074696198656.000
3832851217222233600.000
5054347666834200576.000
3002027910435132416.000
3759375615860339712.000
4474242432101779968.000
7192297652864779264.000
8155134299259422720.000
10255865595453906944.000
6814549152374736896.000
8964308847131191296.000
7823116115178061824.000
9548146975899447296.000
15171789670382667776.000
7911168439817367552.000
17788740858644846592.000
9861268325255544832.000
5290532196311961600.000
2739652293053397504.000
1632559102611962880.000
2680860576129145856.000
1508502144026083584.000
1177039390717579776.000
1658214538581968128.000
1479784207954268416.000
1363348482759874816.000
716579225624242816.000
773213935037492224.000
716875834754429824.000
394971352857167424.000
471328105574116672.000
531137949384626496.000
445520551972558912.000
380509043133008512.000
866079190182631552.000
880531234695003648.000
1737484819030293504.000
1594527003739101696.000
1584761053896358144.000
1347597715237696512.000
803432476486336256.000
736879888641780480.000
421962404925591616.000
227308623863160032.000
138833734989098448.000
70581011676725912.000
65773476165044288.000
33963683672928268.000
45357970370371120.000
41462237012518800.000
49215690987469776.000
27682963475136596.000
28220923055105160.000
25245868232651252.000
22407424179965820.000
28789033290392264.000
14962830076382304.000
10618092252085664.000
10701852837236328.000
6560147320424344.000
7158657953838817.000
7130969909190020.000
11464876450259920.000
13737826656353710.000
14704188517864758.000
13474896066790090.000
12538772175591806.000
15444245831793144.000
12239753459437346.000
6105432504760284.000
7495876776980527.000
4321773984587343.500
4251072894379222.500
2322327753967232.000
1298548804085764.500
1858562613871944.750
1132587198219965.750
648632502330033.750
564506554935956.250
1465299714623938.750
2221688032180640.250
1824921269326297.000
2625931372139771.500
1840969937190188.750
2443334721843763.500
2215375700174678.250
1188551627650054.000
1348106135577539.500
1439734382139277.500
732218616230441.625
790718137277533.750
657784098018951.375
1342828220613864.000
1115733199278947.625
1379423996245180.000
1212994980928415.500
707328944758402.000
1052245408295984.875
617233246651323.000
1517585227502098.250
1180797179066193.750
1071313755356784.125
651907095216557.250
1356718435106613.500
1009813622004849.000
