46.717
46.455
67.214
73.352
117.531
126.466
133.994
276.643
430.269
432.742
905.580
1279.346
2759.516
4307.530
4537.574
7270.673
16186.925
22506.712
47669.340
47488.247
51142.076
81737.266
178577.934
266940.292
535504.754
866657.473
1838818.881
2453647.528
2467641.683
5068795.828
11475192.015
14919593.885
32040439.283
34449288.440
46900259.889
98034313.401
196694587.338
289423050.056
632151405.920
971546989.396
892206904.702
2265808964.671
3728307956.831
5674163242.527
11456903035.998
17537496140.114
42459130267.124
68459429612.197
69906467466.461
103567785828.720
226720695068.357
219076917101.540
203913668612.651
327797201248.136
777562281161.926
1024195311164.094
1050197520772.973
987982886021.299
2274904776323.631
3684836411380.491
8286468311260.649
10601482171469.977
10891013523244.691
24481048366078.816
36525655245604.055
79197050214491.359
72354386807909.641
72029702469873.672
77330606219150.656
113298780535330.328
245792375888408.281
253221264995352.438
247043135503294.094
235288416554233.812
348932573531787.250
744982406668584.500
705222780331012.250
710930136020080.875
1142347179766179.250
1240647682642395.000
2642486828014020.500
4012989081736674.500
8552056493527728.000
9241340561048860.000
13860980536564720.000
21453654618970404.000
21708352060900480.000
47595626837761376.000
94761105999434848.000
87050220395206160.000
175542624211210144.000
271689602165660064.000
404081210629758912.000
437433658367379200.000
459635680924281600.000
463465612142575872.000
510430311154859072.000
754622079215001984.000
716857322529513216.000
1695738501526664704.000
2625797994849060864.000
2734089236015192576.000
3258998037009659904.000
3072126930400199680.000
2598717372788626944.000
5842089047390981120.000
5651469478430819328.000
4121800942506487808.000
5920913122008990720.000
8106091806702251008.000
4647459560582745088.000
2634013842159028224.000
1407974442694572032.000
1586005236561626624.000
1620787481240060416.000
950006674277176960.000
821817683740847872.000
496298496978567680.000
297108748311066240.000
460752472933559296.000
475830194130665792.000
269501182590303200.000
158307979142125728.000
140936679400652640.000
172192221984873312.000
143095794686696080.000
77706902981403152.000
43096671149018560.000
96859196690507808.000
86041273236556240.000
96374400223649648.000
79716150090197424.000
43041146902818024.000
44358236068792672.000
26058352767470248.000
23444902771802872.000
13849186036289080.000
7726410746957714.000
6382664060462502.000
3690016624722886.500
8460073484629391.000
7157346617612704.000
3718444817915438.000
4251332281130047.000
3707811423703731.500
4378004202995868.000
2260205808671451.000
1263346042794388.750
1176493602193705.500
685382283256093.250
853065331940590.875
1276119764140338.250
2003190657429453.000
2606469871988868.000
1365372508075989.500
787762592475587.500
1113348262587267.000
2447977710681201.500
1255733184901977.750
1512296914040905.000
1101231971958889.875
1237799772016849.000
1938599947426682.500
2637614634700942.500
1404638659629192.750
1261833247613313.500
1163386490311859.250
1038150344866424.875
2516217280288813.500
1949394000882545.500
1057673592083036.250
2728586908923765.000
3526651604240611.000
3652037172016727.000
4298163013586122.500
3594327893359948.000
8210161044523001.000
8879016263960990.000
7433775265272261.000
11124764080016186.000
5978795221516893.000
3614240177946696.500
4581123376384011.000
5863795460786309.000
8623756661920695.000
7737551690059805.000
8025325955985587.000
4404449094219588.000
3630338788816268.500
8975673777072152.000
4597132787045889.000
2690315116190161.000
2199567084051823.750
2422101674504883.500
3337130083265157.000
7207928588366657.000
6710510823475753.000
8696250843810691.000
13793308305719482.000
7620228593803185.000
4212422154292178.000
6692878939216948.000
7688803865230332.000
11904498452637560.000
14481504270565462.000
7830298317714596.000
7679261933646561.000
4644727951579215.000
3687388799202426.000
4394531430526981.500
5909652362173858.000
13531827367879154.000
20880765407149656.000
26912844760071224.000
35974302315944716.000
35052099478432632.000
43267773228460360.000
86837086719384096.000
140057512401663216.000
123057691829660048.000
126524559316475664.000
298581229299348096.000
450366993979217088.000
251363995960709824.000
153694966276738336.000
127877075971144832.000
132778296009347728.000
133158476814137536.000
79059769907107488.000
43522219917447256.000
35171072710986004.000
50846273772331064.000
51283588141603496.000
72318133187184528.000
153469387813437120.000
79919860940984240.000
161116407484998944.000
162474061920333600.000
135548391103000080.000
198382900018709408.000
292256059803914496.000
167917388043687136.000
153812624406372448.000
123435518529457216.000
74514081984923232.000
40220728085074936.000
43542991323898896.000
39213850417401568.000
41931139190958176.000
37415661796334496.000
19625043436304724.000
22195977834442456.000
19172738521865544.000
10701951914854624.000
22982956008315968.000
51299326656489928.000
26569897669978500.000
14941637106979690.000
14170972369281484.000
12091358241156890.000
6581767126077714.000
7999007693089398.000
5760141650420995.000
7568979283391993.000
10823486619383424.000
14951212674200502.000
13535896999751196.000
13812161571004746.000
11181605615005600.000
14072108903736686.000
22486560178839992.000
12746334418858928.000
15511126896443804.000
19931449472071144.000
27276484164312384.000
19282200781126568.000
23968501990266048.000
34869740509878652.000
46997136676420576.000
37214890354398928.000
34866141109948692.000
82808361881050096.000
48615895815544000.000
26087326866745324.000
20082484848194272.000
22930277217959264.000
25432327503638344.000
25340269256056552.000
13288824635571356.000
11088448603082270.000
26385494821998816.000
37624040369174336.000
51067928708200496.000
79972604182807424.000
67327032623755568.000
35541839001660408.000
81965774963462096.000
72495888581737840.000
82504272223424672.000
89909037965971936.000
140413086845213648.000
119856680608507696.000
152366500407162080.000
84222355493889424.000
48069538704066688.000
74509952602808816.000
71050998387056128.000
70875521843294280.000
93493305144844304.000
61348081539109424.000
36874498461945056.000
20472269430456812.000
10440627373629354.000
14308608274558818.000
10929145216452312.000
26302634118422128.000
14801009808735552.000
8731687067754100.000
4488132955232257.500
2563219827182530.500
2343874053333500.000
2630456225138343.000
1362181757467432.750
1419493824676412.750
1390408374490138.750
720003738772167.875
1446768818653214.750
2114474907122383.500
2341807862075981.500
3328128048270946.500
3944532216877964.500
4630571684260029.000
6612913354178078.000
3481570442873039.000
4388569795956118.500
6833111355762114.000
3667747301105481.500
8597014111518156.000
6894231526113416.000
8175046874287758.000
6908215309706509.000
7295203272994971.000
7930018085396185.000
4616154048196370.000
6154768952863583.000
14289383380138380.000
28499727905021488.000
43909132758986760.000
43922959360507272.000
91545192856119984.000
91156506584673616.000
51151332255067400.000
42445305604648008.000
45779555505115536.000
37515973906337432.000
50861784656865280.000
49782856169533680.000
47219461073003568.000
46139710421853976.000
39012895520259768.000
91347795205396896.000
81967138654493632.000
47138073590735280.000
37072120264428168.000
51323633093450168.000
27082377644411764.000
38845356489867760.000
38794246736360056.000
23317167762731776.000
28499018937370572.000
23525254752405700.000
22526066733191320.000
11974395528497134.000
5943976653233793.000
7357412320466226.000
3873379452125398.500
2053212274281722.500
1092111043812726.625
676161834995859.625
575967857173826.250
1431781015257831.750
1223995502653480.750
1107313692298627.750
2323455423118577.500
1414530711265252.000
1082857680452944.375
1074706066113718.500
1093816156125107.250
2451820766772770.000
1472170453549536.500
1085532569745414.500
640771485279457.250
842518146178494.875
586510503419734.250
336668131443200.812
343990617516449.125
454402519564134.500
412019921977183.688
228846104991279.094
220037651710811.906
189542379763885.594
101810885612737.328
144434072530149.625
188625045196467.094
394293182755098.688
235498056755301.031
228787789939230.625
219507093768822.406
194287661122598.062
115398910105773.641
258166140443295.094
240164170501678.906
362835640790126.188
210795892189540.250
239778722228715.062
184483407529205.469
183046528944887.188
445979139400051.625
605479662492083.500
1414111331148632.500
1429349391472274.000
1218541397549512.750
1087503303510478.125
2437145939217243.000
3939292944787276.500
8396066369123700.000
4946464775528069.000
3334020036411850.500
8866852217656607.000
6423456957699873.000
3799252203685466.500
3251677858516346.500
1940182059774689.250
4285482252826112.000
3527064643237468.500
4760930610476463.000
7033276911486202.000
5933297187022867.000
7118845534612890.000
4215709467671237.000
2224496648066519.250
2139387068677303.750
4876046901229148.000
6073628709327484.000
8041271222998229.000
6112674625497332.000
3575889474519277.500
4325709311407641.000
6260050606943585.000
3556280547245367.000
7762080247034055.000
12549216609996240.000
10555085013218904.000
25859417910662336.000
21138439105986576.000
11719391681865484.000
10492006949284498.000
11769570427258234.000
11549464370882278.000
6390172345472390.000
8163816787611560.000
4607459711848767.000
6478891056292104.000
3466642424089593.500
4724664445182511.000
4348330974597992.500
3452897681227101.500
7344592694275778.000
11081881351665406.000
6811757278298562.000
3989275613844763.500
8464601432560162.000
12268501050393944.000
24669793548111748.000
14880411308359108.000
15456059134620186.000
20304592183710776.000
22565258499334824.000
35532927444005412.000
49457509568441776.000
40622938029443640.000
22916226767339768.000
22011996833686192.000
26110956431676400.000
39302417301824088.000
47216017262057536.000
64741489294263664.000
159728584156011296.000
87788609093147760.000
133225129798314656.000
66040668367946440.000
65667028052557168.000
79027128029204048.000
48158125463587280.000
46325108201725248.000
47911228374878112.000
41930243470401176.000
34842237865191008.000
76538292809746992.000
77800868511124064.000
93063596040224160.000
142014779576984336.000
76684692601433536.000
85172002508765664.000
44641755271709344.000
71920022541479696.000
158217248001023488.000
160057475072716736.000
89660021511536256.000
125202525588598496.000
76003020903160128.000
121677316658033216.000
71435422581280000.000
75973671183845040.000
46777316405035976.000
36931182328697136.000
91961774690164192.000
47177657471161776.000
28194182986144600.000
14641207572393638.000
21698525341108048.000
11977416556718452.000
12366913820593176.000
7490825742401035.000
5857903335006994.000
3347857224337849.500
7283647532619685.000
3967322398336789.500
2090218048543960.250
1174103847773923.250
1291152641504374.750
1024266827269160.125
2616818289182131.000
1493691275977336.500
754699472951277.000
418266178186619.875
313127036670100.875
169864959724146.844
242439518198949.781
246121098112894.688
240747058170120.562
231124559745456.938
137452508468971.969
110778261368636.906
61807322590980.797
73799239402779.766
76198299974594.766
39870405106294.297
21975559830466.918
20485336386112.793
12162660786756.875
10086890749980.191
6181513240051.356
5279313192542.738
6427972883639.308
10297357614712.330
10541608491232.447
24498465528167.629
24439134691289.961
22306322212000.273
11723690076039.500
10795611164558.652
6546154385525.467
9711221226075.158
11165642470107.541
10304511743320.904
12710269228072.260
9224072836776.674
11808483911563.453
12874406488353.426
17560430944770.027
21476289210782.746
16825091688465.697
22076935754867.531
43725439807195.625
70478896535775.328
59628041037811.172
63962808059654.734
55717791311885.852
63272109003830.500
35858146872590.844
32806569659993.848
33629095037446.910
17065682043533.959
10450648970776.398
11982333240740.670
13445496233618.926
7372061295121.729
7506957257832.293
4115867584726.759
3806030892278.697
3583589945800.503
2926927587673.692
5964141326107.093
6632502944573.713
9322715151256.992
12327780560983.098
6846511125049.473
4171389036339.470
5513101012033.598
3112323365217.252
3572298222293.974
5547011177246.176
3314888144020.497
3672163346917.369
2219411677011.470
1156308691147.107
1061197324508.843
954319689784.635
1231528021488.694
1254255325121.468
717977371449.827
966110497590.455
2281807160055.264
2976094608054.296
3904866161451.102
2258411240911.929
3238048438745.817
2992913673205.220
3183353807649.589
1764593100319.503
1808952800140.946
2016350614535.168
2976124005768.777
3559939770675.546
3825730018396.699
2966532102442.040
2848586778665.086
3055091354725.979
2770763804637.243
7226273748637.586
3858409600705.821
3003772734720.182
7069378274054.486
9535456990457.562
21529647662366.996
12057902500729.930
17086530083613.248
22818520626008.434
21609883312392.062
20247710351653.234
30475909855284.137
75971252350175.172
54885170849346.961
59684907793581.867
34305641084441.027
71477778145579.500
105183943359371.453
244501879102659.906
231019580397363.062
337797243727025.625
205694599076488.031
221032658600049.469
130278992769873.797
110122430440149.031
136655715042079.703
134754222268673.891
101932535389259.078
237562136921714.250
254294752936752.000
399831856089717.000
394509001820337.500
554891254409569.062
797843216943966.000
634345256695015.125
1508625497815166.250
1265668936428352.750
741161355678399.750
655267720766525.250
1393019554923989.250
820980581513602.000
604332462232544.000
722072496372129.375
399294343063501.312
200600147796172.312
108101282375689.984
63869373199193.797
61266177109568.570
75097201784161.078
42421469816436.289
59999740519371.734
55848827421872.430
126663773891037.922
181510629852230.719
197230272537418.125
257308382615066.062
142361029278073.406
195970378464953.125
397161724756781.125
396445472169202.188
385992517976113.438
403500304657576.875
445341060996646.250
260304862807108.125
238424594549873.562
175381769990138.125
204188320388914.344
467792955917317.688
647266368858812.750
320433833375050.062
325683098303708.250
392994943458348.875
240833471142329.375
315579450275810.125
835755931864366.000
1274973390346245.000
1246441275751349.250
1260312555208401.250
2709524600140972.000
1450082905239605.750
1523876298192780.750
1847901871928962.250
2132723643632536.000
1780766916265074.750
2192480502718791.250
1110781122589441.625
2487177433513402.000
2111001197302611.000
2139405565947058.500
2325251277838770.500
4730283863342505.000
4830661340512584.000
7726574812485714.000
3901741574183423.500
3351402162285736.500
7078787650316929.000
3843287158025088.000
8253594646254281.000
8709951518996731.000
11352999658649346.000
15402164262736742.000
24221830754921200.000
26944971593806624.000
15407801944936646.000
11951405774370730.000
7176076076909272.000
6445816453295021.000
3411641530762699.000
4217316156657115.500
4196266673971578.500
8870283323008344.000
6729176008580533.000
4169044309198286.000
2092147984081690.750
1871618130281071.500
1810889994403882.750
2360097766701671.500
2611589664256384.000
1856365035516918.500
1900017827508374.750
1008023560362934.500
1066377339887385.625
2505752672763730.000
2550299233516261.500
1341873791666067.750
765890075941470.875
1225579175609939.250
1476127268906394.250
1107371665498377.375
2554207026238552.500
2293046652308239.500
2067940296823968.500
2699031040343391.000
1783674600259713.500
2344257694959627.500
1390772612671800.500
1198365384352200.750
1269654923495886.250
996397509168681.750
557412943356685.812
1142867830421314.250
1302673838881729.000
677727281189230.000
747257332603681.500
1094083852285372.500
1044321207233045.875
1057387099776397.875
1155206687645961.500
664068933386869.500
1387967004820295.250
1060207206745557.875
2427060794203022.500
2102329380907806.250
2570013339301629.000
2422953273983649.000
1849906832646078.000
4867238428524688.000
3643203278169543.000
4092626141365774.500
4012507017366328.500
4290226016950290.500
3899176072040505.500
3302655736726832.500
6877245528847120.000
6369200830933687.000
7980623061243613.000
4771348444223742.000
2723088465607807.500
2052468681652676.750
4139359363903880.000
4353866894900871.000
3254186239051713.500
8584012184741116.000
4522791673077944.000
3224029131440400.000
3874331652842901.000
8355720723127517.000
8902200126378273.000
7319109090602301.000
7427681118934605.000
8078158002501625.000
6781631423371930.000
7600601817309037.000
8594077468297529.000
7276294957755853.000
15608683177775594.000
8413773663078805.000
4608701593476994.000
6050026083643310.000
12460857773832718.000
15833011390329362.000
20811416047451524.000
23852379234977988.000
25216616528134892.000
19666982994395260.000
12196763113076074.000
12685587834920688.000
7238991432495803.000
6633590616469551.000
7622964023588758.000
4219868351764293.500
3326788870398209.000
4553736011126324.000
4248932274547909.500
2127680917420819.500
4513708378400964.000
6688212638902188.000
13843498992620994.000
7621187467778403.000
6896795165276575.000
4143510084662806.500
2071863687409026.250
4490967263995288.000
4651578498849107.000
6119254463017157.000
12507349985088834.000
14092061874032190.000
15631162872241344.000
8709443346497402.000
8860739825094367.000
10493537888401806.000
25872305237686360.000
19502316572671728.000
49519288041110584.000
75756885335168496.000
79652142265392576.000
45560685422564152.000
25858639101950120.000
15225479208403064.000
12089763748650762.000
14503291028670504.000
22599703060771228.000
13974387917698570.000
15479618531832714.000
12610642992117694.000
18820115097136912.000
27575393892485668.000
45005412237843728.000
51876637200940904.000
50245412072837568.000
45035508750524728.000
26735887760470484.000
27536476348557536.000
25387870060117740.000
14634868577148184.000
20383526846077004.000
51427088429043432.000
83989267499841776.000
132141886651063328.000
150314301779812448.000
127067785418077168.000
154048863614430016.000
121727893763108320.000
150402229008858944.000
156690364310491680.000
132204130984495936.000
148996526567011712.000
167357034780081504.000
127168297444238400.000
271008634365595072.000
372496831936143360.000
897608945306265472.000
538134083758998592.000
407260512149775360.000
444611200193357056.000
262903286724833376.000
411444898443584128.000
887282240423728512.000
522519247049471552.000
415280839106811328.000
894208028790382976.000
513187945951334848.000
282992117309922432.000
397490913583300672.000
445909049251969280.000
381605642007102272.000
209487674578951488.000
497008685134430656.000
257027370023654080.000
355946517628987200.000
862940839675721600.000
672992282133618304.000
882105597665268096.000
501708207281430336.000
288145293721645888.000
198405934217658752.000
206109721999297696.000
199151573887643520.000
290511649817058048.000
156585307870005632.000
81818267236577744.000
60829225170307120.000
36321434189980320.000
33913795182441976.000
20641455933733788.000
47464451257896008.000
67115757510974576.000
69169775645208400.000
158771408510585120.000
141198938496430736.000
292742298686752000.000
203300965966292832.000
269506055346808544.000
403897758931426240.000
873964912890446848.000
504780887780843136.000
386274236916068608.000
220655551981326816.000
451280957392226880.000
923393658486812160.000
948219918858481152.000
919422677530432128.000
526987735868976064.000
859566418082658944.000
648354310208625024.000
874506489219474176.000
981382895567061504.000
523654633624145600.000
810789468997473792.000
795173421317356416.000
929477621647580416.000
501091878371374144.000
266736021290590752.000
142898586019080400.000
164079661314795296.000
242983237914119072.000
260023260220666112.000
407474170371723200.000
900406531554908928.000
678323394259027712.000
964509234025613056.000
541130576050291776.000
504890931609702400.000
271092418506493568.000
222470602746048768.000
285224224729980864.000
162128637583904032.000
82247400612707856.000
72006580433390400.000
110093270554715952.000
64379745277948736.000
148550889855168576.000
141852854570606320.000
148699483848685632.000
154899243850508128.000
85986713681950864.000
45626940378609744.000
25489192066100388.000
21445146840236088.000
25496765817359276.000
20837655965024876.000
12550843547586490.000
6988688010886348.000
3947989148441380.500
5926005308823513.000
3534107290746519.000
2160213137840854.000
1068835113119960.625
1324868344662638.000
1131763292227161.500
656643353156528.250
393295818868572.125
566783174990015.250
356246889703771.062
358450129507487.188
788075127316717.250
400514306557557.375
354198949837222.125
789342913997576.125
435353969186158.688
236331780006986.969
251761027146194.562
321586520326852.500
414674028767368.562
309288997936125.750
403416819118058.938
414920224898426.438
217689274555213.094
338582324743734.250
193771775701573.781
242859313926826.250
194438007801321.625
222652642149972.906
453266275749898.625
601836252927324.500
745474423374058.625
1173613594344605.750
2704571865374884.500
1516635336603917.250
2388302259698456.000
4741483704590339.000
2612465949133156.500
2468353891826149.000
3386206715428312.000
3640676214660028.000
4761745994525368.000
3262600152712598.500
8413188157184159.000
4725902392685477.000
4201374340955021.500
2377705533123576.500
2747428819733942.500
1403451039241101.750
844846661081533.125
742791101288681.500
805449124375680.750
620280080265135.000
597851745745636.375
750853535161373.500
393277029363967.875
430842441586656.500
614097973202585.625
587810901938573.500
349715735025252.312
178549394944467.000
95305828478199.562
134181387839626.375
137574303652928.906
114126978488671.328
175445038792495.188
103006743882249.750
111084370611531.125
106244875503491.406
95949907893193.547
58221050974744.617
74847485288215.359
70580861273744.891
56910892187380.312
31503006971490.016
18536756326112.078
9106862792639.266
20944405649951.891
21216523376468.344
19978991271016.016
23210776523552.770
12215671272169.562
24215202811501.500
36996058370545.305
20712911352079.621
17063486414401.746
36799657160312.227
29797359319567.469
29282686998509.207
30885393505834.254
72339963380454.641
73494936844711.406
67422281841130.039
62314289366146.781
33075654091231.297
16398163862880.188
9841314333263.430
10126657419179.359
10127799735603.410
21455725292603.066
11843116453006.637
16806623719473.352
41654363168813.039
58323098487365.641
35568154173406.094
42331981741261.578
53908124494414.609
141814624914586.500
114653701170632.000
125120778046032.469
123637329914183.828
72797588053264.297
114974728564731.812
67972324504619.859
36831372046096.688
77215788229346.344
76693801627225.359
80124204531305.375
42939511187061.891
24774220018036.172
13123555911128.432
10998605464230.273
12076665557096.061
19425452629442.148
9733708592460.621
10205158287690.529
5237775587862.353
7273285774720.564
6290490281901.611
7376425030354.274
3859045407903.752
2210587632317.210
1852248960124.667
1085001874441.657
1595701482257.961
1859451754001.867
2351222482282.925
3118755653456.157
7624946963909.322
6763914519835.537
6473404710993.803
3405020565789.838
3881662656026.461
2164907807484.706
3060804508534.654
1791706475169.304
3873988434474.538
2265921411523.982
2209627396701.196
2281570677440.968
1732939637650.779
1608537364366.225
2313395668247.043
2364575537656.017
1554059276608.989
3200392888790.882
6638634632992.319
5144324781705.249
10563906281704.748
9745629225818.900
22400872278602.188
20457861012658.742
24226224791257.297
33713059741491.973
40972371444847.922
23730929799278.840
24754677050848.672
38318829641996.961
52623755983504.312
127384222573654.984
179550425431314.625
230794529689559.594
222506627843762.562
259673382271629.844
361523783150130.188
814839721581966.500
1070741360228733.000
658026504660837.000
1386718098008944.750
1384616363090044.750
741824163222203.250
803759821048921.875
412986470981763.188
229786374170824.812
330171870170258.250
467603102145113.250
409912570441263.062
451975528692548.688
557573574767997.750
583302881215398.250
348427529662277.812
310301887037763.688
807877432187328.125
1302526310026508.750
1356451792368133.500
2061659071453130.500
2203558256596037.500
4724346311747435.000
7467537332057042.000
4363577778650906.000
5840636528493033.000
3501353132108602.500
2169074084285825.250
1117379362444239.375
2567284960975063.000
1812076992052447.750
2404879855414085.000
1460640702907871.750
1217861300969505.000
1124150052752585.625
2605158949941733.000
3888325336379402.500
4697311919754630.000
7396152388915599.000
7545551981125871.000
6158884832879936.000
5977071714863370.000
13681518047276970.000
21855119439519392.000
48461515123094816.000
46065666586814344.000
38795604516367800.000
89292088850548848.000
48733009040606952.000
62180572711426160.000
140716776056918512.000
139949564489153664.000
124357922754138960.000
139888575309941104.000
167735529823228768.000
157986914208333920.000
152884405792897408.000
120611349692714080.000
116727561035208832.000
147979321763768544.000
112482709419291104.000
163073140960228320.000
85383976470829200.000
62162730764870320.000
35829335875794172.000
85008219674372208.000
83946733005540848.000
73511680070941488.000
75451560273756704.000
40542586148631400.000
88860177428442176.000
62491689063065200.000
61896695872211648.000
62957172985190840.000
151443627847301248.000
120836647849586528.000
270528752739874880.000
144484097357702080.000
130656442382543472.000
70051748852626032.000
84271939839515424.000
65432953783848384.000
91179172709359696.000
49517046458412384.000
69497144161183672.000
34928224598217428.000
86331397384990688.000
66772574674026856.000
38151274775683408.000
22040768633386020.000
21174355978390132.000
20841070838679244.000
25202935522323428.000
21558152749461584.000
25093341559522092.000
15044610341759592.000
10800118936076550.000
10893981982081194.000
14884821138227212.000
10790452845469666.000
15881251727877220.000
12149642413799432.000
11810181595767092.000
16033175351873972.000
15579757025131134.000
19397279731509924.000
18956482371820260.000
50976538270665528.000
71490099202902016.000
92808904308614240.000
81685405233021904.000
49038462414020536.000
39140853046304296.000
45228017836985440.000
71863754227573008.000
110088622503891520.000
117145344597950976.000
62539104179514648.000
38207199602983000.000
38592698227657248.000
49392722083015880.000
69695131825933824.000
91738890433345056.000
68073169909646840.000
74116234395091648.000
63444516914537408.000
168311381381940352.000
259707339152700416.000
235002893422145696.000
297314703767367616.000
163723559093805280.000
119497402648701840.000
110075841189532784.000
68045240528935576.000
73297621091226240.000
43979737392933912.000
49838668322085048.000
45194726482103744.000
26817974275893048.000
24503050042307068.000
21817721151427080.000
22986714568272244.000
13443246985486576.000
15375962538600842.000
11827396887551440.000
24718457858493392.000
12857366505889416.000
7829304017757412.000
10510048451983780.000
12799886887659694.000
6368578093670766.000
6098623941360471.000
8334446147953261.000
4327508868739978.500
2383814756877652.000
2413228453388773.500
2523174127929352.500
2044494498910066.250
4699479271677405.000
3472255305340930.500
1967593150286767.750
1120079315097484.625
2392847589871499.000
1999390742218429.750
2165401535311852.750
2700991808035378.000
3238445257485623.000
4589317022976671.000
4506317318203893.000
4729093389163653.000
3569472185978699.000
4558255901099520.000
4950876738550022.000
7311692836036616.000
8908748131172987.000
7316553358925751.000
3809525456251981.500
3663525755272498.500
3785838643660867.500
7609713367363804.000
6615506224986211.000
3635115462212788.500
4433154561910381.500
4655992278863659.000
2510612058370744.000
2653360856332373.000
2189091447218093.000
1831331003499464.250
4594052058491427.000
6903516098390988.000
10946036186002056.000
25423133783570364.000
14037677943478930.000
15845737815510704.000
10811011325356030.000
25325035520354336.000
12686362391323000.000
19775509807175828.000
24025521017499740.000
12385723420976488.000
13941508866536264.000
15582372995109310.000
20118674907188184.000
11330712610299488.000
28066927249239208.000
22010175015945204.000
34968325402956824.000
21089172262280252.000
26820085884941468.000
23473588529066024.000
19062437212899528.000
48442370709777000.000
35142338549905900.000
51503779148658960.000
46463710319005752.000
37500390065374048.000
40053608358330304.000
41919413090139944.000
41634609558242640.000
42502191796791976.000
24638308790885008.000
28808392381412252.000
21022354806349776.000
12808656136736228.000
12881321173649036.000
14616356491093726.000
7379219708744802.000
6197624976894420.000
6571145626593402.000
8513846110993574.000
12407637858040162.000
6449966484310050.000
6459541904151763.000
6635498179108651.000
6523311844519055.000
14104977213045974.000
8325907273476000.000
7034438402026584.000
15486373919949074.000
15679320950087660.000
8295362092109223.000
8194694926560081.000
8806156724162747.000
6395490168583911.000
3719010276050655.000
1946191978426409.000
4369445744618240.000
4758224852737024.000
3842948722615961.500
4708979160469814.000
7479586296933116.000
11049146793682680.000
13627508430469058.000
28403037408156756.000
26103061998826088.000
39210500340811656.000
42486978187130592.000
22383226385481692.000
26355753846440996.000
23603676454870048.000
49670568815000776.000
45326462077018520.000
26647926054492452.000
23614382726486992.000
35231132281851036.000
44982906594013024.000
27369135807266696.000
22722275197699996.000
21280517892296728.000
45779119250952000.000
33656625343654776.000
48465117437604280.000
73492396151094960.000
81900667582831040.000
44393150668862808.000
51667441370696416.000
47868437191470768.000
66776490395626224.000
69682705291005944.000
92321180332011168.000
64368249160430008.000
71039721876190376.000
36833013521866128.000
38831007829263648.000
42868037737831864.000
38875577462641488.000
22261077101468760.000
19212759069610628.000
27054201386750684.000
19911923724206240.000
26294186974711028.000
13667275904353064.000
12626386304062452.000
15658050669556516.000
8042929398838941.000
4464088797717330.500
4823547960267800.000
3251856520570147.500
4796290686009126.000
6928028195544454.000
8149761464526346.000
4593685472543035.000
2481771173920184.000
2341253374138124.000
1168816941641959.500
663376639729145.750
342894568489147.625
830253998313202.375
458771555778253.000
252252159886138.406
178348052961917.906
213408452897409.344
128527664792031.906
68042763954660.688
34597236134141.277
19141522845211.816
19957050577270.773
39992797753368.906
42379900875921.320
57440779040012.977
61300476802463.977
53798838741206.820
66568593044153.422
67871195851921.289
138461497099323.141
79195977219241.469
75034643913966.828
62859492309471.477
62430413704996.617
33342431767470.332
20564645094288.871
19963426710384.871
22023249618909.848
20624897737337.434
20877329827707.773
18285822702625.559
42588658749488.680
38067342558314.875
30457737854407.922
70866988566142.797
95747388404984.844
103065158264046.000
222271201191892.688
114375506291385.469
120430851203312.156
246505385758758.188
127159144423904.219
196576493111280.375
228322598575058.500
171503287316693.406
103396016723294.406
57056779142918.758
31053135379570.617
17611297139590.938
17407079948121.652
21528202034792.434
34700563956490.645
31203359958219.199
18568640683809.484
24661299870059.730
12803620449754.477
18687308214450.996
39601836389499.062
30472604589763.465
41792459703434.141
24163150111527.840
22276721714610.516
19336867751681.508
20464557967632.285
10986449189983.223
13217003968981.020
6830193102903.528
3872144827002.338
2275703186416.099
3348163669947.592
2015222939548.942
2168620539809.706
1868622747592.627
1853554699957.930
960524708467.595
531620128194.162
554480656560.361
492860812082.587
1203156615234.177
1111686583217.568
1058332967760.700
1593939501792.443
2005123904839.084
1076915338237.116
1230415906326.710
1002420483843.041
1032140363692.443
1617973113110.030
887801511028.289
2141291260241.595
2251325260747.313
3596027284360.690
2871781170605.593
1687571042939.120
2065956760196.083
1128164522224.922
2278853005472.186
2223289910022.453
2103469312135.042
2245732258184.253
2147897060998.112
2184366886781.940
1127432236321.672
2337047276016.819
3481924979081.795
3976548454439.546
2077924806399.192
1954147592710.869
2071425060425.533
2901770505526.227
3072085896179.026
3305291428657.041
3928221900859.551
3941132641882.408
3496212754711.694
3864148230472.753
3249189805152.577
3802840472142.190
5463281042410.743
7626821885457.460
11689668038087.654
17135067979739.768
23478765448624.930
31191487789730.059
72945950570914.312
97660287841801.328
254845641922068.375
343483292173785.938
788325721738715.500
1071639114107580.000
1382534368164672.250
1158822986760417.500
1376734902354522.250
1516548055601782.000
1327779953566595.250
1019278062014821.000
1082422064897572.750
621848864057962.375
1391922819375405.750
1411524956775932.500
1228475272304017.500
2634339786928539.000
1972677589285453.750
2664360462733361.500
1525989715866261.000
2263204838307927.000
4792739008795655.000
7487376828393039.000
10644423245831192.000
27234685740927000.000
14984078708451756.000
8646345158712702.000
12983960411331426.000
14347346474025136.000
11038160264909858.000
25034639880139060.000
28511549173261088.000
25347093996527072.000
21514325063262032.000
13362625666162448.000
28753506776619472.000
26678341087985456.000
21824678297961704.000
48245973610951920.000
70500373477499216.000
41162624912141560.000
42539597051146144.000
43678277191994664.000
45429548615131632.000
24251354021175864.000
49033022754421480.000
62042582373595720.000
82823961244627040.000
88682053897836928.000
118090935286103712.000
123659343217801536.000
296287635060987520.000
411219322238361728.000
201664639428314304.000
500457487983064192.000
732733383131410048.000
887980025175424128.000
483303969396637760.000
668798810735926144.000
413109884659557376.000
504616558832566080.000
498311370474976448.000
444246346272565248.000
420818868291319296.000
475482566865412736.000
519356863016956800.000
390555234127983168.000
232592730475234720.000
513481151429537856.000
264518185553411680.000
352681319279806656.000
511376275400709184.000
784205022396772864.000
824531970406508032.000
1725959824208098304.000
2538702795229275648.000
3845129790486374912.000
8328863882442883072.000
7357407833463659520.000
4276286434997318144.000
2247879889578479616.000
5272843481888102400.000
7430934345186916352.000
7078247141005811712.000
3966409003468987904.000
4343063538136577024.000
9888079552665978880.000
8971732841598148608.000
14352557395134885888.000
16595791850717913088.000
21956109804004069376.000
27385935456313704448.000
13690739208796925952.000
8117183079049080832.000
9250955274924576768.000
6762868682952262656.000
9659812076335319040.000
4969834799992938496.000
3007951957309278208.000
2217187846086973440.000
1343044175425360384.000
1638476701955875072.000
1422284284379892736.000
740008000842846208.000
377219618031402752.000
457754132320909632.000
385662388976845696.000
541500629812218112.000
428556203239222528.000
234187051044190240.000
262759625280229248.000
238105193482883776.000
261431884122524864.000
203979740425703456.000
504872714435258816.000
301084562872395456.000
204224938604165856.000
108878221928740912.000
139283886334896544.000
153790403362229888.000
137975121155248656.000
75994327814696896.000
46435370481232608.000
51622156715778440.000
28229662176456228.000
27004543192904680.000
39297875751022568.000
22848245598551424.000
20551261874319476.000
24351249375731572.000
12368109643641530.000
15502311527824872.000
10824891812581526.000
15185486884090750.000
23647706231739856.000
12358946428886466.000
12053688279730710.000
13662514100000196.000
10434245029237206.000
14051604300566002.000
13312808021105444.000
20110242708581640.000
46838999698588352.000
73712521322630416.000
66649613510063752.000
93076528308317056.000
50663057623529168.000
40981195133066888.000
38140122287296672.000
44147493431041472.000
46682098629879792.000
28436572272563668.000
24965797406302748.000
36116835033688840.000
44694794480562008.000
37489241930517624.000
43565474999928408.000
90808241751059792.000
49678586351717720.000
50556057871413704.000
34922991177147112.000
38821281529779880.000
21281898938956232.000
49551200197898736.000
34742018567904648.000
75750383893432752.000
38166229199791424.000
40209554841821576.000
21553396047466468.000
51618667925443952.000
44047963214983832.000
50134190606563448.000
28706258953357416.000
28041572605957996.000
19106308926273120.000
24557577676244156.000
18824427487657928.000
11753521039735508.000
7053931496734807.000
6324269009158408.000
6356563294439044.000
3589445433274467.000
1955558303386599.250
1818889090809906.250
4395191385426844.500
8701110418263865.000
6509221916488737.000
7992325206823283.000
6155453622971634.000
3482025237789741.000
3939842134210781.500
4680420828662534.000
6816817651486964.000
7468642340341954.000
6471724587751069.000
8267801748028265.000
4317754984376505.500
4547325216776968.000
4635915036272781.000
4175068558754200.500
3883181201661532.000
4810971210521909.000
3335972058352321.500
7906219567051349.000
10685397418851494.000
12283094701601678.000
7225126360779701.000
4442845851869540.500
2468452972975286.000
3755047477301754.000
2162501844016520.750
3262809114051700.000
8222545888340771.000
4408457159344791.500
2316243244369962.000
3491985122947913.000
1817691087088346.750
4908569676234519.000
3839072498716987.000
7989403485051504.000
6257112189345792.000
14256155109531628.000
19383137383949412.000
10522625028745270.000
21680499031367736.000
21625766006354608.000
24667378406346096.000
25082490890489744.000
39967306706768736.000
44877044720189176.000
49343640234409984.000
36512576945553168.000
22530211169472216.000
25801430966682984.000
12940173215037026.000
13789259672214982.000
20499814344967840.000
24418806231316484.000
20994300732406784.000
12215385042986950.000
13032121978834434.000
11149605026364134.000
6471983945375247.000
3566612023212267.500
3689698500702816.000
4271655038077212.500
6699116247865942.000
5778216657074778.000
15629141666226238.000
11596480809569010.000
25005979705577784.000
22848760895917640.000
13611454854308894.000
6784269740595801.000
8896911461348407.000
4703914553539074.000
2664045930804521.000
1905725107297623.500
1954635815764089.500
4005715614801267.000
1985985087973267.000
4541771426579990.000
4874735340970107.000
3380399012150633.500
4743373230258762.000
4294737936108882.000
6442393809464207.000
13695312531477302.000
19238803476011644.000
27637439213795604.000
14553486529319928.000
7345344095626736.000
7739769255419962.000
11636751034155180.000
6111594474087462.000
8016189726894729.000
4272811331913704.000
3836703565156182.500
3465806163695926.000
8129612482469687.000
7872773273258888.000
8195738574396417.000
7779566236865295.000
7950135861594294.000
8792652801855145.000
7823587069707632.000
4514279968407845.000
3971001683439960.000
2432920920914069.000
2262562404431645.000
1269644170888331.750
739293095147683.625
633597478125939.000
614872174205636.625
737653648759200.875
374724108291758.625
412987408673162.438
657880990783829.750
1362929263730707.250
724844945252351.500
719218126918772.000
807755259669905.750
657993965648465.375
391230120616841.188
332154311427826.125
468381241965023.312
682604803099022.750
1064890402977694.500
2536681349420486.000
1438667025862576.500
1935970571636945.500
2685182520373369.500
1475160261070566.750
2291249382193263.000
2092258991284509.250
1109578043764100.000
2698135715623247.500
2423168324690748.000
2744740045096687.500
1473369698686933.000
796930940265331.250
563845986657025.625
747105119404376.625
711419952555076.875
569294870186888.000
1502852611420696.750
1064309453870463.750
2658543771734109.500
2011131323744719.500
1125615364552992.000
1206129454235686.500
1398176045915737.500
1841025890939453.750
2184591395969722.750
4922702545075212.000
4844860264328874.000
2682311226025646.500
2086628748042317.000
2739972670777984.500
2558840104687021.500
2355592102233789.000
1387029500285148.500
1290921774291806.000
1262912145483257.250
1985144924150324.250
1010221404338356.250
1246470469610489.500
1023999354303273.500
1338153051798822.250
1186576948325482.250
1026704751496875.500
2460923998895868.000
3944253381779391.500
3538902788963260.500
1891818813640575.250
4660525652426167.000
4743397057113101.000
3753033224527324.000
8167938831887186.000
4433105888641895.500
6109961925223914.000
3347148356587977.500
6901545913797775.000
3661334101656980.000
2144736639986719.500
1856005718455771.500
2411068541806447.000
2721042699404459.000
1510255852471107.250
999695264294003.250
1010415971141033.750
1106460727963317.500
1154392016912023.000
705431343578070.000
1050720595704341.375
1214548053626902.500
1151248406136808.000
2590331722576553.000
3728769530594647.000
4184794877853133.000
8733427119966071.000
12868487972033588.000
26765084305433196.000
33696298754736848.000
40256382149776936.000
20525381438783836.000
45774925046334696.000
27664724493671768.000
39704220817030160.000
61407674763126576.000
140040608506676320.000
282376035477488352.000
165440383982393952.000
254026429804390976.000
132143626622049360.000
132711378116682416.000
278110600402714624.000
221731288374001152.000
121674762681340048.000
133352703751165632.000
139885614520800864.000
78821665738528560.000
40435103070232096.000
85575591522975824.000
75546303400927824.000
42821005444450952.000
47836679030459752.000
24655432969210148.000
13448727071550792.000
13882574415490284.000
8451861050876856.000
