40.837
65.521
104.200
262.285
422.418
418.493
655.663
691.617
1491.215
1424.582
1963.780
4111.467
4471.142
6667.308
15813.183
16314.890
15918.762
22126.442
54497.787
69842.955
166307.526
268493.598
260469.133
282333.602
285884.857
287706.497
298627.288
430827.433
472289.823
941177.357
1019139.506
1380955.206
2926439.929
5912529.675
9633181.212
9143284.307
19155129.426
26064527.103
28345003.424
29171840.354
28043055.712
57484644.812
54185579.996
75596892.442
185018740.578
294798314.991
306760291.750
330156001.441
443645627.920
1145581569.811
1183249658.872
1816099308.458
3692109089.293
3617027761.508
5743675686.822
5920875138.274
9594188397.155
9747436134.263
14876828556.984
31901217087.601
72510841729.044
95829982088.297
228491440347.782
363439658546.288
726270684387.270
1109895611329.733
1127087900167.195
1665535122487.118
4196104139836.370
5451644344731.263
5924399321706.122
11881962804061.029
25942263311329.441
40407157053242.625
40159152365045.883
40357849085768.875
57021281135133.125
145072608667864.438
217316585979586.875
217008976057238.438
225943724862434.781
461621268435871.875
749048327632054.500
1527170251387478.250
1511839158590049.750
1587041300408686.000
2225243433190355.250
2096723981730887.500
4563614291333487.000
7360848809885390.000
11573270761828744.000
27009464151353272.000
28174796045979720.000
29844329514905408.000
41597481607387192.000
88463181514237232.000
131722083387317952.000
142946934702828656.000
132439546807211120.000
289600743530217408.000
416419746468914880.000
243504358746864768.000
308361195256177920.000
277850066706363680.000
156407124743036544.000
235597791012962656.000
144703551573621664.000
233161888775355424.000
140099621181310512.000
136854272059097248.000
74176170911175856.000
37775863357349528.000
79702719993139344.000
65733998723606408.000
35844404202733336.000
95425050231769840.000
145650133915859392.000
81338349987491360.000
65576061785550656.000
90308636121894320.000
68404850149482304.000
38022857626416776.000
41425734325476064.000
85903928629570880.000
170293852035243168.000
231021571424132512.000
520711990238151488.000
280702787567407200.000
564659801258752768.000
436311049469575104.000
969517590839161344.000
525448555602525888.000
274424714285500000.000
210376791044863648.000
257203531844096896.000
408627700525305216.000
482019365675155200.000
429142847491370432.000
865755530792565504.000
812086497894031232.000
844150712289589888.000
1019223079417206656.000
981208434694903424.000
729058932987651712.000
992321841453140352.000
861741366321476352.000
1329234632735240448.000
1330815566565314816.000
1572779062844758784.000
1274915215351077376.000
1330003568628565248.000
789097613721693312.000
937845606501154304.000
1267546196807532288.000
1702910345487187712.000
2641817809575139840.000
1564761052007312640.000
1503536954765569280.000
842277717862081920.000
464810823474558656.000
258469938031633856.000
140043438017672864.000
169915374736028544.000
130875970640154112.000
69317796418436352.000
38833772104535600.000
82483929683753216.000
93333542922636000.000
51683904571542768.000
40737777035246544.000
91713666988752752.000
68883214228555376.000
92499146061937568.000
79788720012733680.000
172139978705141568.000
163311057974365152.000
135638363828410624.000
170195399215882816.000
145362948178042496.000
138504748189241488.000
303053079501164032.000
170202026224405920.000
92675569884467984.000
69486378145439776.000
166379245846610848.000
170136188266159456.000
142627810650999936.000
311547399825849472.000
163784862221732384.000
86505193018950048.000
95884894605029872.000
70529355401191520.000
159187797038794656.000
231690457001658592.000
135382474548507712.000
154057280591729920.000
90126314414017152.000
86638637824468512.000
89698594220992528.000
75232071711036336.000
45938445574574656.000
48907418463471736.000
26168926419517388.000
23390878375986488.000
50664507612387408.000
28356730458099676.000
36959006610076520.000
21591453141881460.000
50630183824621720.000
69059398170651024.000
75332420824903280.000
154754382260317376.000
119424983855357040.000
164201902630475520.000
226178190471879840.000
291425996226824448.000
152245385556722272.000
227624716440121760.000
265119485070521312.000
218096228747306880.000
125948778712090992.000
296396862984766080.000
287047547900257760.000
235739640581119136.000
127163155644251216.000
68173308466928136.000
38643720507514848.000
87916942724239136.000
95844449839798752.000
74142705033142032.000
37572671427781280.000
78095281246021360.000
159190941190913472.000
120418202323465696.000
172608956949111712.000
146594891057522016.000
164605488682483616.000
128521105750682032.000
147070831727915232.000
298880715681820480.000
310648747341669504.000
170283918958671936.000
224417267317882240.000
281148811902276384.000
237863136010538848.000
119352910032147024.000
163098454651930112.000
231673865890305088.000
275024787421688288.000
146335164530700064.000
220891486135265856.000
223648480449561632.000
135632152522546384.000
71299568229023504.000
80764787684742000.000
45162322262792480.000
71043899938421432.000
173938053971756064.000
160108958613706208.000
239704638806255200.000
385507296166856576.000
893200180971140608.000
518105765463059392.000
285048005026758976.000
299782775739531264.000
386536404712217344.000
569151372316539456.000
314756550570507648.000
297332808167471424.000
171511546418898784.000
89431022947117088.000
68093707160113824.000
88172852978290608.000
46726736090443760.000
27840630075679280.000
28341936065578556.000
16682566067913766.000
9135782812896884.000
7789705773766997.000
8185632960964983.000
4504807715306935.000
4284503464105595.000
8745383312969397.000
4727476043705371.000
4185765887114010.500
6197410708750617.000
8576153142298555.000
4963422395496561.000
7708517899538104.000
7694748926596956.000
4091269252568605.500
4542413341872608.000
5135528744934768.000
3895372776823015.500
3658191764009349.000
2013480089046356.500
4821944233601113.000
6857512942112063.000
14845728451260394.000
7556704386623405.000
7806137901143050.000
12461791963457926.000
25778630783246472.000
21606489491135632.000
26030836956050968.000
25764451617667200.000
14903187789802502.000
13762640917493362.000
16708206517922012.000
14377652945073434.000
13934954436079562.000
7284087032277012.000
8326880474395871.000
7460541327956184.000
4344334884547557.500
4918499354642676.000
7845982466997189.000
6976480606315490.000
3529421837049460.000
4808968336263062.000
4833440582361537.000
3527288927379209.500
7726293513613065.000
6816334228127232.000
14578959622548676.000
14036993566933882.000
13362339211692162.000
8060521152514730.000
4401516395127185.000
3439052108844732.000
7317675236786132.000
8242867567541729.000
4429102381351924.500
2547091378310221.000
2141611158648940.250
2536036786630121.000
1520124064484394.000
1170938640516419.750
719499779284674.500
432712007398414.438
699212650776652.875
1450784158841511.500
1191273648768338.750
1342998075958620.750
1550410328285982.000
2243547198315225.500
2525852303107534.000
1343544305451377.000
1088257615220258.375
2490915226981707.000
1980559085690005.000
2184640054594084.500
2087627052989208.750
5039295960808132.000
3905091604077232.500
3952327118651746.500
4592981899506384.000
2323399587743950.000
3446894618418199.500
1984583133208092.500
2431406780634545.500
2107420933084012.000
1921707202657512.750
4796187845127917.000
7431449051562011.000
8240595306539148.000
9189049625583564.000
8451062394683164.000
13429480581312658.000
21151543923870052.000
53664244211724128.000
46392102881943208.000
24472776891354564.000
23856109177233292.000
26035335794636500.000
38163323273442504.000
41126327298768224.000
43962167272202248.000
37185784078074960.000
96052120395880272.000
127640038040597328.000
309472749234694464.000
270433032233163168.000
548713966852141184.000
280672683990647616.000
156567381917722080.000
85039614032869808.000
136078400812316608.000
76879726799503488.000
172534586215538112.000
167388991548550496.000
117685481508627728.000
66882251641439648.000
91730109182293168.000
122804381466161312.000
256245389504645152.000
314456214829047424.000
286120428370119584.000
217163438940711808.000
436991635936160640.000
899112198763118336.000
714523109250139136.000
940766323735917312.000
493076126497012672.000
401488999290723904.000
1010099949964837376.000
1522464947267806464.000
1602698045616599040.000
1441171685999902208.000
1598913064527506432.000
3243706736144764928.000
4908583599156689920.000
2465182536562424832.000
2754457121840231936.000
5652223154587021312.000
3119359930976939520.000
2782622804959905280.000
2219240539136708864.000
4746064980350987264.000
4138275064391238144.000
8948000047888838656.000
10143323404163037184.000
5368853643656520704.000
3140229493053873152.000
2573050075457298944.000
5149154406066900992.000
4742075009507710976.000
4295671972868278272.000
10688586599137071104.000
5852269025187446784.000
3275225203468909568.000
2435105692160615936.000
5139076585418394624.000
5573410735195242496.000
4882386619928833024.000
2895782324970473472.000
2968592275217942016.000
1764799583960845056.000
2307196788937477632.000
5926536878979940352.000
3045317986817963008.000
2751645468363360256.000
1658391969577299968.000
945847634949393280.000
517295008371192448.000
378655379003682368.000
226643448026474016.000
550029046153595584.000
301642164768079744.000
173276487389937664.000
149301218739050400.000
225455881235172032.000
546854742318086208.000
447279813530147904.000
512577475388003968.000
494037711614010944.000
417246555103238784.000
449429119425170816.000
230411225968174624.000
217535402059199040.000
316227936820104000.000
271913207770070432.000
556526876106209024.000
449198580104797888.000
260485318599465952.000
211932882824422496.000
257655272329030592.000
399882974286953280.000
448328390341626112.000
230608900109608704.000
130265195348329344.000
171380187152598592.000
217050458506742656.000
562400732102026176.000
901825382857508864.000
1014193970981335936.000
979949024702007168.000
1424091483675128064.000
1586742420021220352.000
877621006878409344.000
709509292155059456.000
840181610343033472.000
983112358455524608.000
534322292565746752.000
562365832999573696.000
691188766275264256.000
1762979492052487424.000
1299917505018068992.000
2616846799624413184.000
3010342428097825792.000
4866069775120279552.000
5687489209696852992.000
5880075721732113408.000
3209562864790749696.000
1732310529482399488.000
992982491840117376.000
514341333394840000.000
440312452134497536.000
220433908635148928.000
309301081714659264.000
266312534046233824.000
292361954319621952.000
150619708815431392.000
236660945670468832.000
296070402922024000.000
162007262830815872.000
90122545367441664.000
126329256851671184.000
160021274795892544.000
96261268860913712.000
66837461219329080.000
36528752697817832.000
97324561954749328.000
85615770584534640.000
72316155378288576.000
65967382644496504.000
84062771963547024.000
44749250676643056.000
39677167581997928.000
47389487534601216.000
25584067622613684.000
15190036146100006.000
14917973369073316.000
21328159962758984.000
24560187054644440.000
27604286892068860.000
40922311803156624.000
39450842529071160.000
52343883233692888.000
81956343615760304.000
83159805080917328.000
65815333546559432.000
86428725308681088.000
126393963804488256.000
164941251388632608.000
220288863778457344.000
458302905708323712.000
452211984610046208.000
267023914136812864.000
218234283448336640.000
219282160763771520.000
275401305291861920.000
287805354794401312.000
390982777193548928.000
943172013154467712.000
554290573124220608.000
682241019383737728.000
983213283829825408.000
1000798999261653376.000
1471433021551326720.000
896617946155944704.000
521968429455894976.000
285515421213064960.000
222724513163431840.000
289843592281911360.000
432045604083480128.000
241425349755756128.000
564216958949984320.000
911202258922019328.000
924677537747473920.000
685444202028770560.000
892272264009568896.000
769139200301950720.000
999464926443564032.000
1557943419273494016.000
1805009796314674688.000
1310424121315721472.000
1612393782842721792.000
1832166598949691648.000
2557566340081984512.000
2711805175725746176.000
3173791689546173440.000
2255557545123054848.000
1256403233135437568.000
1537518916116181248.000
878708036836639232.000
1372458437382961920.000
713557033741733632.000
994600518710916864.000
1514317316547497472.000
1265533701567947520.000
1432709082294921984.000
812690563647835008.000
1747626138215068416.000
2684797192932736512.000
1631179594317989632.000
963648979799885312.000
879638205918419328.000
795792368267783296.000
690802144023335808.000
843712624718906624.000
958687361926664064.000
1359989955357805056.000
1435740083820221696.000
1541891652753668352.000
1652865219693011200.000
2511588368012323840.000
1416666627367900416.000
2887035100065912320.000
2402798973821133312.000
2684949682696195072.000
1624595247624036608.000
1721723212341420288.000
1531706634290385664.000
801954612796693888.000
1724193354117038080.000
2647952924611238912.000
1384412580442963200.000
731382124347147136.000
1726910264641972992.000
883516686893079552.000
1784492352617298432.000
1416787757489084928.000
1243331808625046528.000
1422965117702051840.000
2294960128963993600.000
3184111147441705472.000
5048210221604119552.000
4361914647686197760.000
5728960676402700288.000
7853096333365949440.000
7743459629591334912.000
7932035147660784640.000
10389648724550144000.000
5892711360145900544.000
3226264137846282240.000
2230613945231674112.000
5547455194933925888.000
4578435277055480320.000
2559501131933260288.000
5298142845339852800.000
5960089061403956224.000
4333734194718135296.000
5745131716742828032.000
5247097200095832064.000
2905433061155634176.000
3202253508951753216.000
3208733419564400128.000
4782485130862996480.000
5472692365413831680.000
5558752041922246656.000
3947591320526963712.000
8734023570412039168.000
5075774626004297728.000
2984021679037677056.000
4868588203862189056.000
4082991151072921088.000
2289003385334108928.000
2326426969811634176.000
2605468941267342336.000
4000299716471709184.000
10579528698737823744.000
10587275950617001984.000
8279903352981385216.000
4818599394660551680.000
2648267892321494016.000
5368987817499181056.000
4501394262133772288.000
2451331401940115456.000
5353484852724050944.000
4329838258217200128.000
2604696836176076288.000
1551596309093521408.000
923433381295094400.000
532372323126045440.000
294162726592562880.000
264521783126129408.000
295127163610008256.000
172217644230917280.000
94992761546251760.000
141840103706841424.000
72032055685561424.000
82570697041533936.000
125354436717861520.000
144394957889489472.000
211339191874794272.000
248579187380956128.000
378126969458293760.000
492507662531523840.000
435781089293054208.000
566183229108123584.000
392600170711216832.000
388169961318086592.000
237224066006422080.000
211315432153790624.000
538463442241625024.000
551909772369395520.000
466478606679154240.000
415894310577999424.000
220211575866236288.000
314551055156446720.000
250866948376628512.000
219334950983960160.000
545136117729685440.000
537295602353144256.000
758474479386590336.000
950277600535008896.000
958885056953706880.000
565806857828320192.000
292130575666149312.000
166348679376572544.000
175531602380110400.000
215782661470311488.000
311678411187696640.000
418351872470254720.000
501651837293701952.000
297760004624284992.000
273728024737042656.000
412951382399589056.000
212477640462785568.000
530644087957866304.000
284653373152190976.000
162760992438746688.000
96939946012706656.000
84604437459200112.000
65732469611470680.000
78044085893152176.000
44909538407465880.000
51270922912820304.000
26873302309446292.000
14926722105217640.000
13886794433157094.000
19944803854115968.000
22460579470722648.000
22456951793524508.000
24711672875453208.000
29064463475488152.000
20018594498320828.000
24041232372893992.000
23166517095759376.000
28480933651761132.000
21303591923201984.000
25830697823414580.000
23320721825776560.000
28191336701084752.000
26726748751262956.000
22289465739988328.000
23686880742192616.000
14212335672247232.000
12553375046057766.000
26898002051793040.000
20279913010627556.000
11109864538299244.000
24028191654383108.000
51358084746266392.000
36198998202446168.000
46942705077454952.000
43880974367821392.000
42250250620601880.000
23438681877368464.000
12337141992611450.000
7509286961606087.000
8163514863657722.000
4339882099295724.500
6482768456193336.000
6635946632693091.000
3978569979038905.500
4645266598624603.000
6324146288616583.000
3703463717705552.000
1956670768861521.000
4364781751307577.500
4298215562997254.000
6285579277772221.000
6937219991860787.000
16109015936082338.000
12361161464445710.000
14960270011378728.000
14773336502808864.000
29446955335752540.000
15548480878981508.000
24762311866943988.000
20412588785591412.000
12348619470489876.000
14814929392455080.000
12445000096497694.000
16058398313397628.000
13952334069711912.000
12046645414807182.000
14277284657354484.000
12076545302238724.000
6296574801075879.000
13222536124743264.000
11962846755637148.000
13358059778987436.000
7921835086499128.000
7778259036075825.000
4042430056176055.000
5046085249527504.000
6865909037824982.000
3876614331071843.000
4583928850366575.000
4046995002000684.000
4494564776079607.500
4333090522750221.000
3863413073076640.500
5042427937226664.000
4649412903581472.000
7314847830662568.000
6703919292620521.000
7402378820348895.000
15908777241374304.000
13954809138168266.000
16566580349558820.000
11094605804694396.000
12514960837049988.000
11641997111449736.000
12177036530870770.000
6613069891009460.000
6312575009386956.000
3802082810999352.000
3916112664206259.000
8599298756351307.000
13336663829441926.000
6733760354374722.000
3863308833616813.500
2278843607111582.500
4907056867571296.000
4322366600684047.500
6309016764620085.000
6752388157902963.000
7403450372203899.000
4347930086643884.500
3652123791134682.500
7383160065532462.000
16060075132633722.000
8481565082969898.000
7190894886439464.000
3806023948304909.000
8627403138521199.000
5073454963087886.000
2794200507060712.000
2537995271946775.500
1504080900338777.250
1105505158615899.375
1220560188974098.250
1519134174973592.500
1456225461078017.750
1407257563326094.500
769911488537471.000
409165144204297.375
326701199151096.250
670808872576381.000
589411873465571.875
335833644291925.000
181161163600268.875
273187451832903.500
251919300201178.688
249617846823137.625
238121684081035.906
360274724725935.375
344392099532284.562
860621325623220.375
856455750750268.250
664218192621596.500
643323407933572.875
1400233828524154.500
821676968497544.250
482036594234863.438
679327681945483.000
1430357579322132.750
1574907202577382.500
1908207879836256.500
2389476044882530.000
3727693637005448.000
4938143439673889.000
3829673150033094.500
2169187395826861.750
4371454793888282.000
3908863819724164.000
8444021831515977.000
6482998589594840.000
3792421320736852.500
3663812075405188.500
4504983101859897.000
2469865120088755.000
2826710114807997.000
2345928901802400.000
1289561044638648.250
686975669457964.875
599709458460390.500
1213282331725344.000
631094145379822.375
629688585477045.250
793957891580542.875
781016961604720.500
1249351045414673.000
1133002211592053.000
618999753198547.875
344136381414496.062
696291145884611.500
404545971496469.375
337731638585750.812
430519044198870.375
406917123046338.312
209746689427099.812
121239486117488.312
118061062450371.062
68746801198999.852
69699565652487.312
69119209655238.812
60147605685576.391
71625028790693.406
56384184339218.500
83747086111156.109
63115010643666.961
67678097276112.727
140693284088006.344
137752237421233.406
222411391481532.844
216707886664354.188
334705851563434.812
422820451275064.312
349227329220184.562
380184258168877.875
357889509385152.250
370443601681803.500
471115368052889.562
241295982901018.344
191372432675335.688
410625589624817.500
632307390266489.375
1554776250903688.750
868235200009998.000
453770961657194.062
365886973736189.500
372021641246357.500
483448020264685.812
691735698796925.000
856009599611428.750
1062469176724689.500
2564091688796027.500
2855124339246954.500
3981294108429539.000
2017220011293094.500
4149707425948940.500
2437581666191024.000
4808556557580113.000
5090191578148083.000
7703888288460234.000
8435776906629790.000
4818567241525425.000
4302179678548037.000
4878335412182328.000
7445935015629454.000
7129364811798116.000
8677346813710229.000
12748202671858590.000
27881371831946680.000
25803639200764728.000
21251691851841356.000
52936365898126112.000
37392515097914096.000
77855850073490384.000
65045120443079848.000
141097482143186032.000
85437905590300464.000
126873612635841248.000
135303761276309920.000
76595399708925456.000
43372583284122288.000
26169682711640372.000
13363856649902426.000
7142630972798670.000
8729241622694638.000
7117908473337623.000
3892363491408484.000
7928263052872502.000
9135865802439274.000
6219532959950128.000
7025693906655489.000
3924612208336274.500
8448365480943519.000
8783386100021873.000
4725674677975692.000
7479937387120564.000
4294752289503865.500
2342633669516169.000
2226101072060566.000
4435614706315277.000
4009130014296108.000
5137511766006816.000
5127171650719757.000
7856244621453976.000
4508629351116117.000
6876055815620317.000
3994484196501995.000
8285616160659241.000
8253655631330533.000
11886943950649246.000
7239644919130371.000
14466255978333252.000
13085450803248582.000
6582860891376609.000
14392235406709100.000
13272972713912154.000
13422380634143418.000
13808517012302652.000
20268490823576924.000
19979825379631808.000
20880902080233568.000
29592858257560536.000
20132812930609488.000
27574147940519276.000
14253498755923130.000
7961076521478547.000
12722505552554678.000
7497785085803980.000
15556319128235124.000
8948069473848441.000
8443686296528223.000
7200516144008244.000
3714070590254064.000
2088585483876517.500
4751280219649959.000
7045906096731615.000
6317024808131298.000
3637800186573462.000
3948613661728653.000
5038540296909348.000
4319746640776868.500
2585782561488602.000
2162111236275579.000
4444543751657698.000
4564056885655182.000
3831579092101264.000
8275640877425599.000
6918596267533109.000
3725012406904525.500
2131051136984372.250
1281977086268680.750
706018189727806.375
874715823415130.875
673322881274151.375
603765535369403.375
723437274419559.500
1576827874737093.750
1380988279812238.250
2094833557633810.000
1188325056104976.750
1301546356910230.750
1287664380686759.750
782020092994009.375
705969865900390.500
831082997548728.375
1090692839591737.500
1225668765792530.500
667411358848126.125
833221276738161.000
1183080012426142.250
586639447044756.375
864741607000901.125
453365608294685.125
338373503115740.062
390615791037310.438
237146779040571.875
328446622043155.500
406647356463663.438
416274012513665.250
833423043139910.750
779184855988571.125
833400416578548.000
785230642761768.000
1189871570292463.500
595960484172236.125
782470540721135.375
1085669722636159.750
616790532555190.875
367006181713730.500
408900567094938.438
346121899037252.562
359419120477809.688
205339416572472.656
437973244481072.625
437379582114407.500
347806630085026.375
841396038553256.500
1123745632995727.375
2395679906217254.500
1221521261230478.000
1064348745252161.375
601745585166865.000
1536363900163463.750
1092016013934853.875
1121956514746957.375
1410838659331978.500
2127757330805423.500
1215139956088133.500
1319754726317650.750
1115903982028810.125
2815303546879139.000
1456638686219593.000
815582412823723.250
754726464259685.500
826373307784070.625
1356823471669570.500
1912093767378543.750
4544846033265820.000
2316135298736774.500
2148689493578774.750
5157087822165057.000
2692336680347760.500
2225787056898279.250
1206446951203749.250
1293614487578935.750
1195923781906797.750
614755487193635.875
1293606333486660.500
1091827017169455.000
1125147154009164.375
2609915761999848.000
1395389286680709.750
1495338354826210.500
1496801180094478.500
830576743279892.625
482748705161242.438
796741950818635.500
1591763772768787.500
1518323241630659.000
1288946904749003.000
652071276725792.375
1357565101540375.500
1211020653471015.750
1488934914176618.250
1380460195628120.500
1101108298896646.500
676302345470008.875
380092862033244.250
349626484418880.938
767303536187117.000
813455026341377.375
1289893359976705.500
660869622000311.625
881907046847242.250
1304698453083766.250
725943083204906.500
405630294787921.938
212711530836006.500
244013823863908.188
483185797318421.688
452232833679613.625
490098190203759.188
767308685631348.000
861470793908885.750
466340788694878.312
342441413124220.375
426846371101661.000
412224590080732.875
217755910417157.062
267500603249434.969
368705430252334.375
445462074408908.438
451051017977286.250
366893898482353.000
192073944566431.938
207820265582626.344
245412029537558.000
146259976352651.500
200802349834963.781
259844760899635.500
401479554774816.250
826015202597769.375
757595605663355.500
447003707028595.250
418833369617404.625
346609441684640.250
190210121755425.844
187745381343556.406
190018655522372.719
231970103141698.250
202136690827988.156
440303915692918.000
588089756469006.750
357781470153183.062
785384166976087.625
437791066927269.562
231842228370111.000
266036518232610.688
214196671288558.531
449655367296118.188
233674822823162.875
362289464976460.562
414244528446455.938
468001313688240.875
709225457861004.625
788834137471263.375
400079871824970.812
416728878087974.438
866897171197388.875
458937747801605.000
372965125098864.125
595062661384770.375
1491586123559423.000
1942127727619830.750
2831958077893496.500
2382689004695405.000
1313223939772169.750
674642214314195.250
1464213008411677.500
1927612843702761.750
2210240850614063.250
4780183739409614.000
2650837331447225.500
2604105467198478.500
3423611614875695.000
7698189029969573.000
11407937362260334.000
6402446149923656.000
8724716064590517.000
12666270024980860.000
14857494264593864.000
14937910613790042.000
24024500985575780.000
37487265953928936.000
95932853782571584.000
150054168757779328.000
129170270557586064.000
162002051913098176.000
211831315776703776.000
278361217629797664.000
275748117341079872.000
239656290885741280.000
295383941539502464.000
255068095545941856.000
265792567754493696.000
138368387985844784.000
278127198002165088.000
439429527056083456.000
904385365314115840.000
538198008971339776.000
832342434241608320.000
486240029117105856.000
476901593238190976.000
379609008502040896.000
225940320565261632.000
461756501704966144.000
460255350890340224.000
425521045857917312.000
218803225775609536.000
134255846352872224.000
277518224609103680.000
278638192112125888.000
312757533363654848.000
273529812538625472.000
436190845763446080.000
535455223306862080.000
301203635123697024.000
378227004407022592.000
982773993923240192.000
514451888723452224.000
306487982239441792.000
174344730078553888.000
282099674994189408.000
216709819675576448.000
449452291134215872.000
899955112077970176.000
471851668223507776.000
944937588934355200.000
554456230099075712.000
479908724477776512.000
568695268361749824.000
293882842546159488.000
473081748160256320.000
500704158314266880.000
729450381150229120.000
449093436161590592.000
898383114402526464.000
1468904099544873472.000
2235249406583508736.000
3207984315522765312.000
2309559751433207808.000
2813572019368096768.000
3210407141996936192.000
4650028818241463296.000
4089099481301277696.000
9020072275795152896.000
8539827051941496832.000
10045540008894101504.000
5682228191437163520.000
3169396280179023360.000
5045996562093073408.000
2924217465143769088.000
2200545862280534016.000
2846962188004938752.000
3253782169932109312.000
2657173060738771456.000
5362656209851800576.000
5335847648019314688.000
4088681598897847808.000
8920673348981925888.000
10182439828431319040.000
7996734237884099584.000
9779860531266619392.000
5593950322901926912.000
2928315683664183808.000
1637216281698300672.000
3301616413768145408.000
4359486472144220160.000
5929940482819008512.000
4258527094676458496.000
2497612044444846080.000
2995802583668397568.000
4698865835147880448.000
4325344517555074560.000
2340170989994807808.000
1285708077317312512.000
696183349395401216.000
1411880930292224768.000
855489287005497984.000
505897602576505152.000
291156556744701312.000
282831118855165216.000
146272469919639104.000
128250252477375072.000
152834479120283744.000
127130242419870288.000
160691861809668352.000
96835895814794464.000
75882629637309376.000
89874435822677200.000
91736769812274256.000
83231248234624768.000
72532155822374976.000
91120195965454240.000
139067624757924832.000
149998991774778688.000
169179054448272768.000
121955360383975200.000
73746327533379008.000
148257587970845312.000
129768763110782464.000
261231853425139072.000
521105945601274688.000
278367917986656704.000
546994954073750656.000
434996778858396864.000
997297106502382464.000
1534644762313680384.000
2269302686288482560.000
5974406034428921856.000
4557995767055900160.000
9093626688557323264.000
5529822111783643136.000
3060356393545767936.000
1703746662142838784.000
903750591539711488.000
1831746553734769152.000
1363265687395042560.000
1530808682908560640.000
2342348141356032512.000
5236074737058038784.000
8517932751219174400.000
5041846829453419520.000
2763807332308513280.000
1598666068435865856.000
1380484479953513728.000
2855825073305388544.000
1590071443626784000.000
2417826113704627200.000
2687786552832151040.000
1394993328196272128.000
1471146563291640832.000
787852306328820736.000
796059330455623296.000
939410932220118528.000
998322190885028480.000
534093636876056768.000
420332437400541376.000
234477349952997792.000
261697152540088224.000
217746348547228096.000
273397517221654656.000
310258099543875776.000
264998767137985376.000
297138197222548224.000
157650273558283200.000
167926328166439712.000
91326149465994880.000
87743587390257648.000
172110323868317216.000
149500889718049056.000
144690347205081600.000
78641130537173744.000
86595093271334112.000
48994149583824880.000
41721363507169880.000
51616501133265992.000
82835351596065696.000
65414802959121832.000
37511465751209048.000
49147618958497096.000
44550218960901264.000
38772866764977096.000
80213441047805104.000
78154052962316096.000
124648644300866384.000
69930020133074064.000
92709739059944768.000
48315063715648976.000
25582893103922268.000
50511547975719792.000
33868208415882588.000
38330981149860984.000
83394743076087632.000
84857491666000544.000
87748299099970160.000
91752295391655824.000
75958261391836432.000
82483522305017856.000
79392960731090800.000
163893508447184320.000
153625763642264992.000
242794823665278784.000
127972117907029392.000
72301085568905184.000
89140689362486576.000
62539686981005680.000
60943580242236440.000
70356154143343952.000
92553446194027632.000
110333499028460160.000
142647323512075808.000
71476984852762248.000
61984779560838216.000
90628642681755968.000
127824315937874368.000
144335861239150624.000
79970033235862672.000
124403056458107712.000
74548507036624800.000
41567264075041776.000
23145384823031324.000
11859625185155002.000
11390176061167170.000
14686849020196794.000
11299911323119876.000
5846246335553483.000
8549800675350644.000
6834975280402865.000
5765913097406306.000
3482958912801853.500
1776492285691010.250
1851790814605304.500
1852026911130668.750
2001964595956060.750
4937864301867066.000
4171701533881147.500
2534732324822013.500
1951501704462011.500
1034672005805229.250
607254131893137.375
753052581833385.875
1497911183745056.750
1994204628542611.250
2163842118579278.250
1111599269466195.000
1414772159417469.750
1376415424384612.000
727596273799249.375
647314726971550.625
602425280615345.500
1329844905784182.500
1425824805821287.750
1962757639524303.750
1192300271288139.750
1896178374466470.000
1974361230359316.000
2468846628249511.500
3557635302974445.500
4577308023325239.000
3953998992889674.000
2335993233231537.000
2688002200154334.000
1984432732355725.500
2405572498111607.500
3560561698442012.500
3761152292817108.000
8384390644671061.000
11677420546472296.000
7178105756458270.000
5990414308735036.000
13012862602761230.000
28685789757649100.000
21864877501978492.000
47701499028904704.000
39549790378553520.000
51940948507344176.000
27195864487246360.000
20581692395912592.000
47615936901628680.000
42739614714726288.000
33873965030846392.000
51637058413170288.000
41195520233513000.000
43233654196209184.000
37901350187787608.000
34115676007663716.000
45708286153585424.000
44466799714645640.000
41044247978320768.000
46765784055099544.000
37195437927726032.000
19246218331966012.000
11830090806460502.000
11629236805651926.000
10433262818902472.000
24153447006067380.000
27223258470603912.000
43307164111382968.000
61568183229952992.000
84808158670158928.000
168273311893444672.000
86593839061943664.000
141489978081890032.000
297130483266382592.000
162996469264344512.000
84764538608237904.000
134994556303450848.000
120720758495050336.000
67798459060995776.000
84673007858050560.000
48527952571325808.000
67564926888936296.000
75382136717081520.000
92272773782227696.000
49557528675788480.000
26336294332212372.000
36975586704540440.000
42247961109908232.000
46202571617120840.000
42936869548021528.000
67192885013599976.000
61436267790005832.000
144293785798903040.000
86391226744314400.000
51878166476400256.000
77619540144316496.000
42592026253902640.000
23433527500353780.000
26647996380375804.000
42388349157951184.000
86597200188723264.000
86959633406638592.000
112243728463670208.000
285385756434972544.000
157243114487715872.000
82641045355223888.000
111708703505402048.000
69842746511404320.000
159410496369522880.000
158637297165876224.000
135228123292590496.000
116184016538316064.000
132054601603715088.000
136188884202322784.000
126944598712086816.000
161472458682270496.000
225339143694348032.000
526213258655757120.000
290884376749823360.000
476990811307320128.000
248240011561877856.000
498735870256237184.000
384864455771203136.000
406279504668137024.000
507363243748084096.000
703918526157751808.000
793456462494011904.000
455495676634604544.000
533104553508462720.000
372569988687509952.000
981335587750850304.000
884815622553641344.000
489483478458205376.000
402821278053101696.000
476221913075582848.000
442723288971475968.000
489663520536343744.000
410992197753920896.000
372669209581367744.000
213077611042333120.000
117087672899574336.000
67019286476174632.000
79895090274404336.000
89309839367793776.000
68680320605087616.000
37999946038022416.000
34085765923789660.000
46801066768768128.000
24250748449439940.000
18905649096174244.000
28043916869128756.000
23280533332150992.000
13607907169467094.000
26940913699418428.000
21267619319572208.000
45962256269604704.000
34060969894661740.000
36633935404998624.000
36857720479067760.000
47247818709507264.000
26809366385708848.000
43240693241199648.000
40578801415652568.000
39790322109080640.000
93406999535293552.000
84923688250371152.000
43158112848870344.000
36961054481793336.000
19075480046122944.000
10837136219427758.000
13360398485799000.000
13919121969132944.000
8279440722068962.000
6711867799805573.000
5993347474819785.000
13672005906010048.000
11401074570910134.000
6091930173976291.000
6283726812728038.000
3231949469103871.500
3625899703256607.500
2226327410832618.250
1123956817207280.750
1283522584641944.000
2600124266919441.000
3995044790784402.000
3564521538460702.500
3979778745022437.000
3604417077054247.500
3723552340001949.500
2114325107769682.500
1950377335688182.750
1188634026642787.000
1823950415424728.250
4554684537141545.000
3421672276961611.500
7166440546912282.000
7737430854113171.000
6552701408569357.000
7551466344728304.000
5791613456538655.000
13701573726600286.000
8324035543062972.000
7206722339623281.000
7353859238674062.000
10526311412540086.000
11915378271474304.000
27419705270613648.000
14269879636514412.000
19058271405610120.000
10267325335596828.000
14874480387858500.000
10590006419791396.000
11884396280495070.000
24350441166284524.000
20991469633165216.000
23472910199669600.000
26539422858855684.000
26364394352428904.000
23279121328245556.000
34430551965719224.000
47921883208713040.000
38449158174526480.000
40252436353788776.000
34392993996299680.000
41724290147555224.000
21793171950541268.000
46751952117157144.000
25803614977873880.000
18751155622004220.000
10594546557750876.000
12007958238377714.000
13089444652783668.000
7771862527239040.000
4495052417791390.500
6091409546608548.000
3294883859366196.500
4142608881810778.000
5917632841473405.000
12474550620695618.000
19405121686679924.000
21241942462578624.000
26266425730266340.000
14102953768437768.000
11480005351344882.000
11596284213441268.000
10457387068394850.000
15661347994378524.000
22015727624448932.000
25572292248180468.000
13626516084003588.000
11748476479620640.000
23831543909325188.000
12466381260379982.000
7356370454583155.000
3838228146180294.500
3313212422132227.500
8447721386584624.000
8435338863246047.000
6424491174652980.000
6708341320169256.000
5947293214628000.000
13190975843413772.000
19538810001791160.000
10578186536903664.000
12576498811028784.000
11444039611993008.000
13369939584628632.000
13186898489284828.000
14069452720083514.000
7206554759240853.000
6946017386026216.000
7284040102293977.000
8410736015115525.000
11668022379461192.000
13707611176680216.000
11645084107961030.000
11212317846886982.000
11729455116239038.000
12381155169015262.000
27787514369058212.000
40521611179256144.000
64713902683509504.000
34882805209264056.000
42887869743192160.000
34574846747230296.000
19808459374879680.000
24743310732238128.000
23518302548792732.000
47355355087596048.000
43642128311746064.000
64942856079797072.000
145897700612851136.000
124279343513382512.000
76750541749389088.000
90452428425777664.000
61003516129958888.000
127990515611792544.000
64720625964918520.000
39195921152740200.000
19600239558678048.000
9943587765203430.000
26100319477348876.000
15456111174162714.000
21200009452825528.000
17769022541935460.000
24195969957319724.000
13765615800705320.000
14310012616384924.000
8111828569125832.000
13253053960727646.000
10984483351331746.000
13578677125039822.000
13277382189583678.000
10700098072276220.000
15031500701346092.000
12418170968878400.000
6951174296724069.000
15021157116848102.000
8240591451046097.000
6041556528173569.000
7875887139270594.000
4177024009981254.000
6222181827201729.000
3461487679591995.500
4440020543919343.000
4148497215407748.000
2387667105736419.000
2392573561774442.500
1753148141415721.250
4629337079847423.000
2438197770834611.500
3220680478455484.500
7760957156727462.000
8211025586127195.000
4605572993257446.000
6494265924822613.000
3616859288296076.500
1900182507661720.250
1163063902885570.250
1423730032883646.500
1399293805241246.000
1180336722161583.750
2460746293271903.000
1936051386842601.500
4068227359323543.500
8240459174081849.000
4201053893475367.500
2269809850614517.500
1221723096073701.250
1328206553476280.000
992105056280844.500
556074342429148.375
590994911974747.875
1269875573235296.500
1897207226516982.750
2522082885543878.000
1433181405499130.250
1864195671935092.000
954601936017451.500
2292056300645197.000
2592268500336317.500
2060113132764863.500
2349399591151930.500
3718479905228779.000
2004450455545610.750
4241407521816424.000
3354555849666767.000
7064731831418761.000
10100491949064786.000
26343395423861724.000
40626822091948992.000
57367675816822520.000
67735392204574056.000
41641854642736464.000
33852768054934292.000
43087627910490368.000
68274345537797632.000
64477282558619608.000
151099227207253312.000
78010109750970368.000
47009816058529456.000
32202675924327100.000
74815224781265360.000
63473309095555904.000
85657365503220304.000
128357484507979440.000
111540999571910624.000
255239654806181472.000
221568212712429440.000
223380342951300864.000
112870794333056928.000
143667554348078448.000
119547292523426944.000
248288588828033824.000
145407268486435328.000
86104325611714272.000
66389701271728736.000
62640607304721336.000
159499884243900704.000
146756869032960960.000
193022319779621120.000
114763395214948736.000
108939338226410928.000
63864363221620680.000
37339604387662472.000
22972010783457496.000
24908894212772416.000
25307802697716436.000
37970696052082896.000
48492949388164824.000
31652520305538396.000
37178068153090744.000
83154696985034304.000
49661180617321112.000
38982285746471992.000
31743788517772688.000
70239672697315152.000
35214964256831084.000
33315742051253524.000
40629923398043688.000
20440089330476056.000
18216954939990660.000
21046213964965276.000
44351878030192960.000
32193999334735020.000
78780462687833232.000
71128604183823128.000
104554822912053808.000
149790933158483744.000
111465262097508048.000
118420312151443056.000
102650643795905776.000
136705770690016352.000
277021355050227520.000
262299401303071040.000
158276516061916544.000
195566146580397600.000
467306919986966976.000
756398792297522048.000
909795940597484288.000
923849999003507072.000
638850700921109888.000
897336913075353728.000
673774795147141504.000
406705576965139968.000
460723239255407232.000
676616448780037120.000
1662502611236650752.000
1623088866604447488.000
2203636527458748160.000
2904592955066701312.000
4304291959030688256.000
3852449205363683328.000
2049276299952370176.000
2661067074077317632.000
1463493814294076928.000
1475176777363540224.000
1635552579712270080.000
1542586268714663936.000
934568632304182016.000
782932779163266176.000
882857981208897152.000
733690813571232512.000
400253991197874240.000
884013750653066240.000
498640909490626752.000
330337178290824704.000
514142652543290112.000
280796595730831584.000
193801835998382528.000
230442064565764800.000
126467022271375552.000
62751303497211224.000
128578943790025648.000
108418703566743072.000
131922530141131760.000
65828928306361656.000
62276502715079248.000
31578816034225868.000
34880840660976180.000
72963823625410128.000
59961485348719280.000
79334778359809824.000
59132616464364152.000
75444971475570144.000
84494802328292048.000
63462674511305160.000
82621740721424592.000
47808911255192224.000
71429805559562720.000
68646392756087560.000
40338884672597960.000
31602438285293156.000
36350469015982096.000
85990791868359120.000
106283551655023520.000
144301418676700320.000
201726138581518208.000
277088158539667808.000
391873545868171200.000
208698531302936736.000
213536213119486080.000
216043483373087200.000
240779230544974848.000
263506055611841760.000
270217080062724896.000
284203404118361152.000
401269847320054784.000
245074322039190688.000
143083848393140944.000
112370145247966848.000
129331115750104224.000
73107592423389440.000
157571548921728384.000
115416128389263296.000
149211801168953728.000
76020555135793056.000
69587610342403160.000
65821001758663752.000
56843084960804888.000
60052508044691864.000
122951439368969232.000
64483145232750288.000
36111444140167528.000
49235834213651784.000
43148725061153808.000
41216901614042728.000
21498927496959104.000
11121472314461384.000
6123641379756090.000
12534651920551886.000
10910584552275812.000
12805830440343950.000
14626598324578962.000
21749940300202812.000
33770169236091220.000
43709051780792696.000
25382738300672400.000
19126213300353908.000
23654659505836960.000
23959868979694416.000
27149060925881576.000
23194611593794964.000
27076705888564204.000
32680070360673652.000
40622537134406272.000
33720183160153648.000
19162819042146032.000
43231516282551400.000
48823889624206792.000
27042487606682160.000
24174137463547780.000
36858582706332728.000
33135827890652792.000
46965951309960168.000
68157882635939400.000
141280718568630624.000
111793774590718416.000
