40.192
39.827
59.014
144.144
190.722
211.194
230.415
331.428
326.412
345.994
393.364
350.003
840.406
764.507
818.434
777.741
797.652
1218.795
1838.631
1866.119
1988.676
4518.283
6795.628
7212.614
15352.583
18917.475
46350.562
46487.190
63797.037
64788.361
62963.788
61292.216
61680.826
129630.554
134912.719
141319.528
289380.941
294054.802
296135.501
389608.286
409563.685
980438.367
881674.938
978057.254
904442.969
1240827.971
2678868.053
2824379.817
4455420.964
4277158.643
4828402.118
4833308.912
5016454.785
5345398.958
7735167.762
8143984.130
7428104.417
6764154.048
16977258.258
17995987.770
27226133.033
57824961.405
80861155.750
90754155.280
186083624.217
267630842.373
284182905.757
319076249.916
472931212.194
1082475779.121
1063337336.250
1392364942.046
1450428088.659
1344059119.388
1550730210.061
1469161234.068
3084754571.879
6481678062.815
8156045447.401
8926645818.066
9903754983.412
8876648886.958
19395688731.115
17276557806.865
17834521926.035
37641822163.663
48950199424.056
116555125634.608
156658117918.266
395098013630.685
356233327006.291
368489278509.682
340383730733.910
496231291347.149
511679953393.977
1103366995981.983
2354173775966.743
3200135108881.094
6813044111188.911
6123023162492.224
5586133562730.729
5963582643660.924
3037733219832.554
1575601854702.669
2264488878211.874
2899409280715.388
7539755569953.739
5939855927396.147
13561193152966.016
19969166151690.457
42631306502430.633
44867367092407.555
34167436495853.055
37481587124367.672
38295777835277.758
40973675161944.070
56504664109405.883
79654550473537.375
53636013294458.484
117732129875437.906
110969493953267.625
127790563324433.594
108316654695124.266
105475899140199.469
52323371578431.055
31467693819395.293
39325497492886.398
55699037966946.680
64430761367679.305
64096764683097.727
67748489750698.945
65845873088176.273
138052018194669.562
76361307808715.094
70668878505601.297
111238631342623.188
55221781710857.141
54679563191921.227
54516467284650.742
75951348572230.969
113325825471242.844
140048330860811.906
208691486021703.562
214289697854439.750
217056000570985.156
133226989741080.094
108890820991861.453
254024355261615.812
222617259739772.188
247656800160048.969
364289838693697.688
549005008030675.562
578488074801230.000
1270879168895696.250
669492327413172.750
734530757550019.500
1008852972422921.500
2476981066921241.500
1502616626469794.250
1841992500156491.000
2577687409281367.500
1460739413383183.250
758169276275590.875
830078448874086.750
460014066210353.312
370576830250377.500
359600941438292.875
378531294596583.500
436638566966948.125
358313149430795.438
343030553130494.312
192068039109767.312
422555378932581.562
387306703955165.562
583189575253342.250
583999879593081.750
777124223989029.625
442052937017239.375
341030481149190.750
808993223670148.000
789144341035251.500
1129351223289184.500
601238709940053.250
666804535980442.000
1490762324740306.500
1030172905496547.500
1277094917497065.000
778659968353932.750
567647251180102.375
761380744706554.000
700229507813610.250
1478303825202089.000
1527867460171646.250
1150825662239820.250
1201327194236755.250
672360260564507.375
403909940432991.188
244273408150217.469
207822055063957.031
447094388004925.375
414590396578412.625
652340557550741.875
1472164210616767.750
1480532897694564.500
993006012898048.750
1443322268731692.500
744403675972946.250
423622289436739.812
228499151337042.719
117959365665506.766
141173098228580.250
213391477423026.781
125125292518568.641
139076635024213.969
124649680677401.750
259160355202373.500
217363146786110.719
183295858281250.906
261132275679383.094
191743010032284.219
464018929673606.188
237887191891455.188
137806076419950.203
176117248096683.781
433190762628804.625
435166139258531.500
317398770626371.062
406570856610180.062
226961450135778.656
342821137102307.375
369058025474517.688
846354829736912.875
591570810429724.875
1408931420296201.500
2125537285822362.500
1189007960001617.750
1266330107900693.250
1110061985176708.250
2713352928377584.500
1437387950415797.000
800240199381644.125
696296254271533.500
378517944305160.812
583296802881427.625
669132635031504.875
650636335174984.000
353242937740312.250
217641062548006.219
129109489965077.688
144262324144456.219
98299767553003.922
63310189542055.672
55475499413458.898
77048923102452.734
79214496464441.266
79999640857705.219
59227264897009.867
79456659127579.922
105495242864162.344
54006640889843.266
30970883143131.617
72463933627462.375
78502236593083.766
70047395462815.086
106235828079304.625
57037085032254.508
53315162142347.500
123465762029563.906
65525455196720.469
40909268704956.352
56126578096909.031
135662461333093.359
95030828825620.812
209825015439059.281
244037704078308.656
317485856867669.938
409115367645221.250
432208315383498.812
311620005816211.375
456050529071028.938
671143130427130.375
802735379570023.625
1077232150025690.625
1022360412494311.250
602576594656082.375
812261752682319.625
414891427560604.750
430676008517483.812
240554526947279.938
189774743203271.188
457754195382384.125
228231425821974.375
227330592417449.531
120147887551463.359
119998499545707.953
125235403082099.156
187916606583417.562
470563221035685.062
401014943593676.000
246668499372627.562
338001738789431.875
416769338972227.562
469523227271851.750
688016499420678.125
371485049859249.875
313661843837590.438
352509444138129.062
756968089011746.000
800426672830501.125
722936690976432.750
423762702374116.250
371662144882990.000
327422515747796.062
311056228008770.625
671347929612683.625
346228628183190.750
418287659803920.000
235648601895151.375
186638559149054.156
106064792123633.750
60656023407533.172
54869753233726.820
53081614987060.430
75598940111027.156
60394740397047.078
138410562684215.500
104452410627030.672
140997036724312.312
199990483182551.094
110371121195515.391
114692273839642.656
61936852309714.234
35484558236917.352
44361010435240.984
29139459152418.684
32975240918624.805
70497996594010.969
63702449497169.438
37413711048442.781
54196868391791.320
58159806942301.219
30192602837889.152
31684619928935.730
19193003707600.914
43065507089798.258
40578092256797.211
64260351798703.852
143402668399688.938
226605474295033.188
236247429417119.250
175199208992380.031
446066619255410.062
659251206405206.500
376941145494323.188
395009073593353.562
400872715717079.000
209116989961465.875
178429746337293.281
223445419546815.312
466501903748094.750
558983338903032.312
309483908668844.188
357496618459411.688
360823628585797.438
442322596027209.812
396017996096647.562
597101142710530.750
827954883051530.375
1105460068561070.000
2475723494872298.500
1956027311894846.500
1218337999125313.500
697882103422751.000
406615014164232.375
233018707206018.719
192840031643392.219
120627687659152.609
108479542424930.328
56655541002095.648
32984426359011.453
16722286406484.283
9943097467717.121
5589055545422.206
13310952009572.451
18566741751327.961
21594382953390.832
29367828669289.699
33718322521308.031
78387245512168.734
40219312591902.023
20046514341455.164
17574050414369.859
38928339523793.492
39871795879789.148
40236129805372.438
55342148763733.602
65875163860491.258
34580964619236.980
41063191339797.195
44607695724212.766
22794187746711.133
18807667241112.480
11634447844467.467
6853705703951.710
7325733812683.479
5189637282681.279
12495841957982.625
7446627346997.999
10462618323504.498
23470173330763.348
24227080482115.391
12486784181020.213
12194275127088.324
18864879233202.695
23700340447857.707
29452342112419.113
16894119731821.805
43759310093529.711
38320335956976.289
37236940198379.516
57535753155331.125
61925841161432.453
67778279978966.875
55919384558640.789
65412495826298.172
38664060032798.336
21899961924832.582
13296420799247.588
9356554046999.566
19590808179266.898
41198125351543.922
41710705757365.227
65964267117884.234
55447568392020.195
66152935972545.414
73623068072457.938
42932614544968.727
64571738796225.117
97832526163303.922
137450808840269.000
131518971381266.812
200012724214779.406
187264629240208.719
185122237183458.719
261003208725002.094
326240613777889.812
192019688332879.406
116396008668552.281
72855473435121.297
79513824784539.734
63094690831608.141
36640805894608.609
21573676087036.090
31282305548367.359
33313486338840.152
35326940235133.984
38120593823795.773
32244849698953.984
17392403407960.049
9647463094439.754
5380451885653.660
5836876004854.409
12192839222735.174
13038645882124.408
9326338761104.127
22478672346696.742
17052726700540.020
22316465761422.891
16466030107800.135
19840671313177.555
22598198748544.941
34994703402153.773
36266316784593.523
38767706551428.789
36992504752179.062
21034467417634.723
31274567363791.352
34001768876478.133
38428320346835.750
54252560832888.234
116819264882142.594
124758267633349.109
126599947243917.734
74984657504478.984
63686120129746.805
53460550299006.469
30554036800987.301
32931794287385.445
18095806653276.055
18745511898233.344
18992105559924.422
17432550876253.441
21294710439662.039
19305339975923.719
29258665168539.250
40308233790968.727
21061855294917.594
21060780729038.855
12203346681971.934
19173861177539.480
21210861878149.410
11509804719570.500
16633035315661.408
38069620085093.375
36549828010320.422
21613265275779.066
12316256824119.072
13216899823353.053
7686677805432.703
4169028725033.663
5783667223858.648
12079747772676.379
13504654037906.875
9182426428858.529
5309616919106.186
7165924055933.650
7394210433039.652
4210308635162.136
2996024055606.362
3400760618450.449
1646583808703.265
1573561325072.301
3365199830415.307
1818064336458.365
1129066351171.279
1219343965707.297
1300252546469.518
1695395666038.588
980368595111.500
535148271106.147
731009941790.682
684278698550.252
535704571351.685
726186248804.221
392075384544.492
562622344697.312
596707222211.051
362832938930.403
309220096213.031
366948853264.527
348545823908.712
206221751232.602
217123383600.269
198752020029.436
112790368652.252
85960317828.580
213678557268.343
314682494850.813
328129019643.824
311789218987.468
166723412704.933
148876187958.909
389570168617.061
307902314941.939
651793624139.867
670314985809.598
651648268833.068
341899836247.592
327185999623.356
360428085894.814
546873544139.684
1240485068389.925
673957075840.460
605408149045.134
355779653709.272
289251017167.295
402183688380.247
222744794915.165
196278620418.672
225157830151.010
122370030924.951
100566265048.913
222862301415.625
307965396997.945
640600095685.564
603424490307.059
710302674887.812
923461823253.122
1041392874000.808
1192966092543.138
664901240007.443
1026850058700.857
1037778502663.315
1165792763397.696
693100818086.920
554570013682.197
1272483742496.184
1799362046003.697
1598859604609.857
3991677789776.157
4041572426741.958
3603820787646.763
1970232803369.698
2156621337446.235
1099742719706.586
671430304799.872
666860992190.728
671780004492.501
1033128870585.604
625146681877.055
671676896900.185
1004323377045.447
613422533087.146
319926361777.615
340746613414.277
384463954810.374
360130948512.085
549132005759.240
622119506803.612
698662709224.236
390521255066.741
298380591332.161
317615873263.778
183276784598.653
278661422229.253
178312413565.509
187838239735.061
196042671867.878
100507119092.822
216145224279.235
337567754431.217
316367930978.778
189247745437.682
286658755643.938
695055913719.449
689941338709.969
1071377089941.722
1275020956018.892
1723892859469.277
1814972898902.132
876472426746.926
1907499603353.576
1600232378588.848
2223629412379.938
2074236546390.451
1650866277618.771
1792319773683.903
4244090630315.386
3339937468375.759
1787640529900.374
1828408043968.909
1814009190454.045
1798676518008.462
3983889969091.735
5054832704833.740
3216171792720.323
3798127989600.819
2096128404340.226
2294067846822.696
2183980470105.082
3252296200720.629
3590487966091.054
4089639064402.283
3165791042400.269
1784523872322.833
1642797049891.541
3865380711604.065
3677416394686.854
3734671206443.431
3290494392656.530
4039918066042.189
3483839771422.531
7435456346079.687
10911031450439.035
12034905564386.027
6479975754791.119
4028921022476.563
5574214629735.137
6831226796483.098
3431194604899.207
7649802643580.127
6267499457107.552
7369945968800.483
6078018637698.997
3573895879999.091
5063236360898.927
6129035495069.191
3156185941901.326
7078057166960.101
5610093196455.033
5669053115885.610
3242104002652.600
3633079721796.093
7464002701227.046
11812716200915.145
6285967277146.850
3820222542512.549
3298215918556.797
3288249325362.396
1885716666094.773
4005964502046.581
5976196485706.102
12350029538148.053
13469973450979.740
12400488943841.543
13664580359066.662
18186564256214.438
17604924886921.789
21159059473547.805
23513289855159.531
21452426391343.641
17991375451467.402
38894416204951.602
80393684524286.703
75328041852866.750
76505983504277.078
118617915700717.031
73297167635553.484
111035760993979.969
108280600050635.281
100189468381760.906
60550870579991.312
54421737547600.602
127835196853043.203
79186486356437.438
125829362243471.156
191571896812071.688
207202695185667.969
308650826855093.438
188717174553250.219
217356896839839.312
193328871730847.281
221399986608072.562
135592213458300.750
73310152348286.875
107854536283724.844
141752091243112.438
117709250089550.859
57770419032737.906
61020974484143.773
57823383777847.922
80379159335533.625
58752689833709.398
34397597978515.609
31935938040945.930
41782431906960.570
39159878612278.227
22977171398191.988
20210963083600.840
44347705195600.195
65611312715645.695
135317819582638.906
136983692420939.422
73642727352711.516
41375702946003.805
38369997383441.328
29498927251263.977
31998402737365.008
33323456715788.934
37011383753578.844
21176118978692.742
31965100207655.676
19236673538703.992
9950148933468.973
24936608019721.055
33469276503155.543
17966541501142.996
39830145219527.141
44234208890833.211
65155596738727.695
76285699214821.828
61984383528056.086
35068080366299.590
18958899321390.238
17318844561648.424
18688788744289.672
18146774975129.898
11463254388321.682
13305407725331.475
18202869834918.020
10092154636403.941
11786737460510.369
13794958885609.395
7017682223960.245
9806171847767.797
5243611091036.274
7527730821363.724
9797923311016.969
6271544649596.676
7292769034786.371
9109238812406.408
9841286361902.730
24671680651192.770
16840226184711.328
22121800798594.371
34923268004391.023
31624550499656.977
38867759917194.484
42273234365951.219
43251649131020.609
37709913646764.602
32148789443205.883
19383468071639.363
44645815838100.039
42416213299868.781
39880032764866.258
19583287769075.383
44889337415276.859
23687922808847.387
36867379189886.328
33760676556555.484
18169622219516.520
23689851917056.219
13319298699042.604
13198039205449.557
16323691767946.787
24077301363900.973
37911977668678.070
21702801593961.492
22304550195761.137
23195145113321.129
21855247582679.289
23070770622392.945
11551589603893.361
11388947203702.410
7029556037544.590
4016510280165.633
5024201322553.625
6352034545908.575
6638774905486.474
5630646620078.411
5258227972048.104
13665804052549.459
13767831490753.033
21987972933078.516
12782707135801.363
6619874686168.854
3592585081925.810
3304847297042.696
2993242978252.483
7648778102438.075
6349287059291.521
3739432878958.264
3446590371617.811
3246563997599.652
4080289548136.618
6000894071330.898
6089404569322.204
6990129814840.440
3913369724012.388
2124406507667.782
1697165635525.717
3861085738957.524
3521037939520.796
3828022197931.674
5754733690125.787
7600104575302.713
7320612172590.631
10976626942026.100
10666534685001.480
9183265681983.734
5909413602846.128
6202852834198.788
9182655827284.404
10766800736175.301
6640538695275.735
7357271587210.348
5635421488375.766
5556180402238.558
3155133038041.952
4270359885809.405
3631676983744.541
3187834040849.652
6703062821487.010
5988895285698.319
9016122972625.668
9371069358725.539
24896477738064.656
12652172088965.449
6327532070165.302
6619196267963.057
7577769897916.884
3871163978813.682
5878701003174.563
3098573572758.981
7274075728424.897
5765713876684.477
3650406490562.987
3920625671031.635
2848426013163.784
4247333627308.673
6483261891962.400
4007520129811.049
2350808930919.049
1265963775454.616
665114865209.381
657870260583.995
360494133325.660
506531847021.156
507813633423.994
267680434579.946
326711391040.536
318676536536.559
272762815766.884
586762381211.824
567336965602.329
630256404341.184
306290264852.911
302383897229.844
178060693813.733
264326158254.553
304066212626.406
356490759799.521
562263385432.298
570566195160.002
303522398940.505
154568143198.968
93741463454.981
204873037302.139
314044304699.354
714726850500.701
638365417173.799
687403785829.919
969959700688.255
2266486828067.116
3199870968206.281
6840951058752.920
5649477668966.709
7671666123902.420
9209344250026.842
13838852848791.740
21973105242451.684
11636502631764.090
11270892245665.688
9503321108580.469
21204943022794.969
30742428234046.488
32381931996916.305
32972335602200.875
70535527771649.703
80258654174531.406
42593720457321.594
42533013203706.461
64711343787237.617
66167247965290.328
75148360247345.422
43369131157686.336
43805598981064.922
37200669085478.445
52472569226323.203
56829677005121.602
32106883731120.023
17966072640324.312
44153946642443.930
70041131639503.820
58400116696606.648
74926726465439.625
74305989118201.312
37749288253229.273
56934720606054.016
124023725636237.875
179651737771615.875
456575968400402.125
402867951079958.500
214932522202831.188
316632287028766.438
807388553965616.375
425227679179163.500
417717848174691.188
454628195918588.938
329809170265036.438
176753240306843.375
176928947517025.500
259617352604762.188
380954661787289.438
313102030248930.125
360850307709120.062
307196733415451.438
732805772748149.500
1075588947159353.625
2541228709744227.500
1324296939673978.500
1359713840756222.750
1035501921151718.875
2563688274512261.500
1844107270847345.750
995848921886931.750
2626081641595030.000
3959219263460894.500
4907667694264615.000
3284862517778003.500
1807058381433275.500
3966954120464171.500
8574455874202578.000
12232465120372376.000
13147984742904592.000
19580940840656752.000
19891656687209988.000
28568853547386124.000
35558364518399744.000
82958094514698608.000
66413267379923760.000
150966799148551648.000
74709378894698544.000
87695245317204160.000
85039119873659488.000
128851415822997184.000
276730254478795232.000
284844677296113728.000
387630276786087168.000
235319101635192448.000
538536344548271296.000
395408672457793152.000
500414648661230464.000
476796571326937600.000
512500921917860800.000
481427621822376384.000
667016993036428032.000
425398387518098752.000
251424311334979872.000
148588351326373024.000
165562327453920608.000
241090294656561184.000
144465779399141184.000
73020691339837520.000
39932594827268136.000
21929236791606752.000
13903258757855260.000
11122690562756316.000
5951934038873771.000
3404784724272968.000
1886958611339046.250
4491628098534034.500
6688736100062258.000
8147976162481347.000
4443005397743913.500
3261397357817693.000
3237826233713202.000
8207387098920625.000
4065418744219430.000
2531467965734202.500
3378834691390218.000
7948412811083882.000
4062782619728285.500
5796416972099960.000
7809757563684143.000
7013309159250102.000
7683625392042012.000
4175064806854958.000
2246713563601795.500
2322170414879683.000
4803900371844604.000
7199074776967413.000
3779012187849660.000
4926524022889073.000
2445646303502496.500
1498169561699118.500
1881379227827101.750
2069302848010063.250
1270591514902219.500
759158654276419.375
556527142594079.312
683673632699843.875
393381846990259.062
556235683293757.375
823344437080637.375
692217599003652.500
676705683269434.625
1445285368645123.750
1845502111937782.500
2510503498623418.500
2696494693987660.500
4269350727818559.000
2379910371556760.500
1360626998268402.250
825757153748680.125
738700959664806.875
553141552041082.125
729681130119054.125
582750571915545.500
352794694218473.750
804278897488857.000
829607512466295.375
694191500122394.625
394090506145786.125
194821140653762.156
406910208587492.062
216527565534250.906
256022281136160.625
206997472040577.375
117604037590332.234
114806510951749.859
55401378551531.633
65792489827154.164
40269290360453.133
39929253663567.305
30341417604761.047
67098770716981.672
40392787407587.344
34990381647101.855
44465316085072.602
22565744752401.875
11249273562462.275
11534253748026.736
6657319150638.000
9892320227453.857
13628409030024.861
9855953888363.150
21243248716956.566
11438808331935.838
10855093676750.713
12783630749576.027
9973095123492.113
12015107658255.291
11861162180481.018
17061451505708.709
40172839268964.500
23093073400851.715
22796438130230.703
31031056856941.293
30435190621315.301
29841077293604.707
38584803129608.172
37548792083528.844
36893790784162.656
41518277711291.156
36945768867412.297
55118096589065.539
67925405891318.344
75026529901972.312
105688258376024.266
251156560572741.688
124716409981175.531
72311689695697.312
41375193191318.414
42145511323983.320
21707545696682.273
20268179098477.191
16723009491417.504
16490464833365.297
42602344438690.531
33159105770743.062
44187268227748.984
69100016972160.148
80669437382504.484
61128605630648.359
66737384021902.766
59119547953466.398
53451459165280.727
112709078192791.078
243248147996997.938
199183920734441.750
119197661048988.062
127762888117105.016
145213923950682.031
184519252527942.875
201489830553633.031
123009369619004.844
126472592692311.672
131705697299093.609
133977305702912.453
101795042326873.734
124874454315034.906
124081884673900.297
76012712671186.719
41095839443035.195
23726967111250.898
31821971377575.074
42687643099652.930
35053631439398.531
20525285399157.637
21672307274170.980
11967482794540.225
16894104323574.105
38305699308073.148
39499185959677.859
54717014171639.312
73372728482354.938
61985572393434.734
38560906524098.359
36324470417391.750
22659071922089.133
22342630032823.574
17367124121979.779
16374188354309.701
37623124328843.992
42591272528643.742
64164415110728.797
30902907708884.438
40676341408216.250
41441684553711.977
55639466544123.609
143292359503010.156
76894497537113.141
77166777703073.766
99914080139622.516
62246379165062.172
53263369339963.211
56951139369917.203
75046236070525.750
58863681587808.172
132994065438249.750
186173989561849.875
405797029673843.562
419063020731024.812
359717538314430.938
210655246307721.656
102460143007751.391
61312122754728.898
63913707452541.547
94126913379452.469
60902972813179.734
36774781827132.930
22201825077557.000
21779889798042.648
17351447513098.740
20728530020939.449
30263549678542.898
76276136559212.156
44101769031816.664
40008587193562.336
43249172099558.125
22125165567510.871
30768413971665.930
75372902686510.875
94269914928827.125
225572025988386.938
121259020575149.219
74888129864955.047
78978809452651.266
54517187647597.617
31564872031301.234
31258615117657.930
31601557674659.117
32417840253033.094
75236370658981.828
115284520248738.703
124077945576917.219
99450042205217.266
108437905241871.812
56095476379943.578
65326805436907.734
35336933499952.312
20981289283620.328
16901016370837.035
10451763404119.051
11367397468754.771
10425074749264.072
9393157049497.100
12900839781221.150
7059285379110.448
5668479853555.686
13748709181745.332
19853280755302.781
24239140800698.371
18618099050190.293
18605989316169.375
44068436342372.781
42251085984725.141
40545287524976.250
54179310579571.836
73099059355394.594
39504520752721.992
35989175045152.500
37760514929403.938
41187085362474.008
37771820101295.438
29230959860466.195
41037355839273.930
24368027784285.832
23809502365832.766
23696749179773.945
35848319477137.867
19774126751836.613
10006132744404.764
9148194736113.330
5455553780346.126
7052224953340.939
5306145226304.145
5007045333186.646
10547597935746.908
16181952224376.836
40866446367612.469
23862498702119.719
24475657213924.430
17758031275288.191
23601498076877.000
20718287008394.469
20363080091591.660
12252229732967.721
17540270104632.846
9537020474077.133
5030434222344.258
12715495212210.137
11694652537456.771
6964565326624.946
6703721687453.300
3697478992541.813
5500789328487.335
6611047031690.912
7662290195811.679
5784669534558.990
3394738592345.467
1967386578905.752
1946105882130.938
2350941181272.990
2839062489952.052
2951172121487.089
6605413621395.987
9618390132509.223
5044553175848.709
12975512974864.553
17056473251427.523
35574929981075.562
31158565169905.344
16373182906379.162
21547900222195.672
10650040005157.566
5454779299829.180
12071270929660.201
13463953669250.711
13333682759883.779
16241299979421.836
9221294274836.568
12862141752208.299
6608508064274.396
5471787479316.079
6222014963559.234
6265575900604.142
6087851388344.251
6973077492155.864
10115923627352.939
23171899578313.336
32742133649945.965
80825958595468.250
59464558709507.477
29862650817185.340
67015637192831.602
39404515184839.734
55420548173540.625
125867733725217.266
73981416224936.344
67943327295269.688
76403712462763.422
65290943979941.148
71329947205750.797
96690235192603.984
217416237669702.906
337800370090206.875
189022287463778.281
208816970861995.219
173268093328830.750
251462606066925.000
132331976555652.594
75841979762640.359
39363398883946.703
80466584200699.812
58722189516488.625
59552582759097.023
59619885333751.023
31598801422401.160
18376435441483.949
43380512667923.094
41045507845429.016
57043252587468.875
143521664930541.750
179603155936357.594
107885561839221.031
65739591067866.188
60108204690612.602
140995650413142.719
217864180172967.219
107358635870188.547
96929830930524.000
252711677722656.688
242722882498784.594
226437765191990.344
172158671760768.344
96815795549033.906
109831222897415.531
54926899543041.133
76065443257914.609
66556176660060.094
143976830968439.125
199155691782560.938
110335038392399.359
66919773759919.805
35488970007874.461
73924939499327.547
72365076463943.094
41795175592273.336
39882503722229.977
61164689281549.227
32976078594412.359
36578433524298.539
75940550877162.047
106090100316437.438
119086811988664.453
62827788036563.133
79166730703308.875
42435740772662.570
35152726439976.125
37131737769446.336
41310101865946.062
43084787918666.617
29145426105323.750
36831972753731.930
37137681587277.602
22229159571462.434
11599554400959.609
23793667354838.082
20451339188155.941
16806215686126.051
9276326620215.826
10219178022394.451
21527637208106.469
18480102991580.297
16584686289106.562
36944312244271.156
44131605693059.523
44873572476206.625
42599099127895.180
31429845493117.324
31791684016349.586
41517081456231.906
41905897697777.117
23395270353681.777
24022407097258.176
24833400168655.809
38791649080889.500
23176854410062.875
16496216105064.557
9825544578022.223
5360185178075.028
2970994008353.036
4193417252629.932
5599484371849.372
3171038293818.762
3509648774413.252
1811364205802.453
902032777737.632
2186918550888.248
2086875427072.778
2102327409441.561
1066806423040.534
1161000619682.838
582684041716.967
340214843535.101
210006179186.281
322458881690.708
660189068981.444
381556065422.576
203421299642.652
299921263995.559
707648167925.000
952834768179.600
1281064537727.025
1048167853477.578
1007223257049.574
1148950322743.305
1175329565422.485
1569992371140.158
1892225709887.653
2101323216063.875
1125971470695.387
935449218540.408
1172117866150.997
1794802956589.178
1727534470897.721
1682682040077.068
1975254123823.276
1586545127960.054
3504578267017.931
3784998483576.966
2278326442950.715
3153628813075.782
3392074866119.058
4259197742929.122
5239410144110.035
6060069434911.553
5248980863326.827
6499064409475.370
5146047071427.144
6289560319983.678
5012076183981.505
11014002469968.584
10001591206266.176
22988085431303.457
12263041772912.695
18036292271452.195
42710277053905.312
55186653794094.383
33998776678606.664
36491845863553.414
78662435623699.922
63373869667419.711
72810118449038.016
99839489635114.344
99360681042188.500
53032177950492.250
115421651739505.812
97588083048057.422
251435189842827.938
337143445565600.938
342725266652149.188
176938995329817.625
108683947732131.344
238370161656149.281
244189764537535.500
335406545466219.500
435342350108439.000
245559160776602.344
128926104915355.828
140590748372383.078
205040264673847.406
253883968452578.312
126569906173462.125
197625175300794.812
110165030337369.000
60446807784610.359
57454131572734.102
61967580722111.031
35965119582789.656
77358349903261.984
42456386698790.047
42668114985234.609
61291727633286.148
132074458314843.766
122579855115640.688
66482668696730.820
98566602815486.047
53210009090125.312
126149479963430.578
132739891605286.844
206409812234551.500
125504352019511.859
64637264042785.250
65750351194397.789
139626992005307.469
188778556080111.062
215407895737143.344
130180500573034.469
172712567634970.844
398068829712271.188
432809074611249.188
659184388406153.750
677210811741244.750
1517919853362303.750
1454130679942333.000
725203969321021.500
418117301594781.812
395233643176040.625
579629105388150.875
819618694407436.250
705729967967709.000
846682468630447.250
597568870085363.125
821875146186796.875
797270377757190.500
726786875175994.500
1094815834230661.875
1287901260635549.000
647538289896024.750
1357890549909090.500
2055384795942911.250
1232063882032428.500
1065964207629573.250
1442950603326345.750
1474139487428059.000
1887119561222866.250
1028438902919176.500
615565557525158.000
308582132721922.500
324982267572335.625
775107200720648.625
647771471285634.750
727768084631231.125
370829716544973.500
203115915341459.969
449520397094198.125
424829148134852.750
357772378057579.750
426608598844240.312
241028879529634.062
189607463816437.344
120810803210683.641
130335356295251.500
97503121780039.859
105567295360126.312
131246557909404.422
99483438998114.891
132991907855900.578
202135761700301.656
183179582306436.438
232662208185231.719
138402262942194.625
80232755417107.016
57289790562606.055
54960127329490.016
53326986914288.547
69705850887204.570
40571643558043.031
24773569967180.922
13594278301668.996
16377367449222.984
18885148712113.406
16495210087172.828
24687283382556.109
34188356749103.664
17807584327936.172
22675810737283.426
20539375279426.430
44160346676799.000
58452183747391.172
78539946716024.328
40483983726587.086
44811036581764.734
24412969496176.105
34038815734628.699
37912509778119.117
77033130322250.422
70982577468413.391
77974472246459.578
57113070095106.398
57711199598241.945
136149642771120.000
116949925856005.094
136506050897544.672
123411016000465.406
118975189037720.625
138631744909786.750
197466167998784.500
122892672277666.500
256170849836515.719
131088719517360.016
270065985849869.000
375606744682201.125
339701916504267.750
409781431709783.812
251546038400484.438
391379281859150.500
598282125412179.750
707591243298370.000
596775063158683.125
1239206088798238.750
1538356109797569.500
2273572634406558.500
2723842283516607.000
2910791309960453.000
4253841829814027.500
4112914559193369.000
8388907408508413.000
6965848175325761.000
3988135584087706.500
2238251265871020.500
1136440015308545.250
1336386382350760.500
794565338811435.250
1184979032212526.000
2894690236275295.000
2296441746216309.000
1356070350343527.750
2968460867796820.000
2138606113189493.750
1218022749710665.750
1320768918035010.250
671416829956135.250
806206315804337.375
804073016231797.000
469352393406259.750
497192460746953.000
457107436737819.938
670967415435394.500
1381931998126599.750
1645163868854383.500
1218150800439522.500
1365897491988070.750
1415969660838564.750
1461794641838741.750
880738320093980.125
1400467254693048.500
856154897376314.000
503039425227294.688
462743054119995.000
367798099114438.688
375525355155449.250
819024380921910.000
495677880481586.625
515624336515746.125
290942229998053.688
159341476233047.031
83548424254753.047
42099743633079.422
86164071922718.391
48248088710922.805
43585411886102.594
42216145698849.625
22485042298906.461
24504254671250.902
36722313986465.531
21228960944296.875
22169281926614.551
47937397041808.336
43243008381562.531
48386629823556.625
68300122931023.781
68386193887519.945
38553537948099.617
51235419783348.820
80864528786843.188
91464219585707.484
147843337695084.250
84248961985538.547
71028144935791.344
94613915657275.469
135522834061523.594
304919584803552.500
287162001241995.750
157642617624127.062
228617447765394.688
123399560504268.812
262213889839991.062
265481253736113.938
304460304861994.500
487202736038246.375
247562114406984.906
292725050584250.688
257078536249453.094
266637122290887.656
410493069883751.812
511012982619729.812
267149177432898.875
555860098022982.625
490431097855709.125
517118796816704.562
296881764225123.625
256588523450180.219
523087326107802.688
288007535228976.062
411456003529511.062
545506868615144.062
297125088624191.875
168258686364289.781
94890171907027.688
50064506937968.062
28129115802728.215
23142080219455.027
13123115083563.270
27536973117167.098
14410237050736.764
13169623623311.680
7866432739212.413
4195087691601.951
8601816401642.206
9273844351900.223
9245423488923.781
4728566122695.388
4830142919175.952
4062852829836.056
5244505477082.656
4549390923510.234
4524570236884.320
5294734952247.237
2706330639765.258
2497503910813.960
2700755461988.626
4005333659496.598
2227461968435.634
2274743879285.743
4949310489783.938
7910855930768.646
15861282344447.410
8160798793075.840
4392495626787.112
5329394333306.878
3022636834657.271
4203914257309.407
9225375512451.023
14589537979948.775
32090377846351.879
16470213431410.107
15035172144644.006
29893414383021.625
43406214310267.977
52188677127076.891
82311356472461.719
100838104746627.531
165761456950897.875
260218481337742.406
584415592227397.125
553051006731721.000
829300623584909.250
875175932559327.500
483370301110075.000
464422643750447.875
477139404825075.938
1082669556436720.625
1087602088035193.250
1723058998396459.750
966553930380049.875
1928723867548323.000
3013320277088148.500
1541153682145884.750
3592921709458209.000
1994888269459561.500
1714457038438846.500
1645351355419427.500
3592306249221382.500
1851351127246223.500
1635028367330138.750
967462376194994.250
1106633869532220.125
1542265485124901.500
1832955604456161.250
1092783789516543.500
910535269538691.500
1081456945270791.750
1664201136965099.500
3343802214557680.500
1962290518618052.750
2776460717149381.000
3428392268547919.000
3200949421259597.500
1743502525664020.250
2021622339426137.000
1961700352868340.250
1710292634486375.500
936567178614196.375
1948820804839849.500
1775926098164487.750
933032599312771.000
2056748066564343.000
1053082674980609.000
588207036210802.500
946729634321856.875
1019872721006462.000
1140321404443873.250
1028464375913336.500
1538097649537878.750
1925572481061078.750
1598835912128578.250
3590701937932213.000
3695254438647176.500
3593085460752701.500
3302138822192725.500
6658754759848159.000
5065902353243132.000
5230446741837800.000
6004077296968086.000
5782274766879254.000
5334593623476551.000
5694693543481676.000
9255373755909486.000
10801311269540734.000
16373789810020566.000
37099371917299872.000
38669343100282256.000
37529494484909888.000
33844980913962612.000
17739535733134946.000
9830357972325866.000
10303180891202872.000
9168953536668658.000
9367220870132896.000
20492433551932464.000
20721497586322272.000
18809800330194700.000
37952787116592208.000
37917145629566400.000
33649479905403232.000
38616973114442432.000
29253851595793804.000
62821625152044336.000
63724182064557168.000
35273654828618856.000
55713457804962320.000
62784566307788680.000
35479576511607240.000
29053922466789188.000
16616644059873806.000
38100664617693440.000
37106665668352592.000
31734763557596344.000
35846339352649208.000
20085884231933084.000
10976317609189826.000
6283919596658325.000
3642528360017745.500
2834288442971762.500
1653847802987633.500
3426143826176346.500
1936635314372554.750
1929761587997006.000
1942191861429084.500
3087957443799586.500
4988687489825510.000
6035333682698789.000
5869366224355863.000
3489018352707230.500
5513497422809220.000
3229288265707544.500
1860966974931836.000
2001697846480155.750
1756969739684511.500
1842938045353029.250
1020116091200023.875
1078917303374166.000
554402818599520.188
861326910687366.750
1081415484723318.750
1140002166285180.000
614522115265108.250
476336577426242.062
266724217222956.750
594106908008515.500
476418758822236.500
598272476083615.625
521106234586149.188
288517968240971.625
291188322336272.062
169609702510438.562
96709467865605.281
101201872208998.312
101491117646063.156
52273259709504.898
47498313301202.305
28971909582352.938
46962764108774.430
27544728084581.203
32585178544541.840
30545576038325.914
16965455310016.699
17950828540664.918
24862476967760.098
15141624293490.990
32937996151053.809
29326708695663.605
15435525905638.549
9161869104466.199
10246690348356.865
5570978954306.839
2889573406983.917
4371292231815.640
10068062789214.945
14764846011107.008
17110026024685.338
14330073008643.354
30572863520416.527
27772507118443.324
26126077001577.977
56517699883612.945
57062581081180.281
51390797441294.922
30800379529846.250
24884835300049.312
31133892646609.496
47422612313927.750
52126587804665.219
31209431556427.375
49324213582798.195
47937873559169.430
96463832958353.297
55143349120412.977
57618085803990.781
33395501112109.242
47247009958757.672
25611821682911.426
31944367127200.176
46301044554701.750
59004927196303.227
32311162255622.930
27020993792088.082
16376669387194.521
16605029371341.871
16307034032998.016
9692598407822.041
5012429031846.268
5152951992634.639
5643079548976.039
7928376772880.109
9779285622823.586
14066510914352.842
8619883829729.343
4737539108730.176
4950344676780.110
4884369808433.332
10057301799810.463
9768119821485.641
5597027776837.943
7749114664817.463
9725863592177.871
9418252598982.215
9640917219823.498
10226622927818.680
7871457375028.152
10333441329577.627
5621394660439.359
8029732543541.033
17117509483813.895
10189255349309.678
9686939068342.096
15313139391939.109
16507746038679.236
9052519046192.764
18202893571927.289
18231162360649.660
25196819596897.949
58726272474972.859
33366664321594.637
25077195240839.566
