31.459
78.773
76.720
110.623
240.326
370.036
755.415
778.475
1191.172
2486.488
4077.147
3952.335
3700.823
8817.970
13493.353
21700.794
34549.312
33757.801
76894.033
70698.198
69437.989
66592.168
149053.457
162322.566
262386.688
275737.786
298051.619
459091.763
722244.618
670922.192
1708489.018
1768724.089
1696979.602
2755247.568
2641047.869
5615213.258
5445387.196
8685102.998
8473311.932
8970811.868
12555469.260
32530817.684
45941780.455
42367755.886
40858181.928
105065064.147
104190410.950
147965120.297
156902028.994
149527097.315
349941818.143
480558997.977
1034731577.068
1514471960.154
3178360300.276
3303850396.069
3080888732.773
4920600753.314
4719006844.006
11950595299.669
17667615063.585
27148513092.253
25519615286.273
62552654734.462
56971664988.049
60786632015.659
83449866573.146
175094889332.764
388466518398.442
498223952407.700
1174007912036.082
1811250627101.353
4088190249393.775
6194690416132.354
9684632447054.162
23477955535001.961
31478202676207.273
29632499561194.633
78088909534802.172
103320581849147.844
257555401770019.438
256670127106387.156
320255087418933.750
840198507427035.250
1289719416708033.000
2628088993320312.500
2477678966069538.000
2483643351847196.000
2619421167366595.000
2476256425625720.500
2383963407048284.500
3561668303950733.500
3790312770065649.500
5812159818322560.000
14624724084106694.000
21089096118612924.000
50508869307454432.000
69741092474071488.000
143731482698219536.000
155655238231917088.000
247258535723578016.000
145725105023394848.000
134972682519648848.000
76323466679170816.000
46210742954241792.000
38706724900645704.000
50814926523001256.000
79163255189452848.000
67125973514944080.000
79445947404556496.000
47130922994498968.000
49830070760708272.000
71295142952947448.000
40198176162849896.000
22657635744698364.000
27681626020144260.000
14244058386862490.000
19775276453325616.000
27276298730369496.000
34789061479607728.000
83818649691590496.000
88074530652142240.000
64463076194478272.000
67396987570070208.000
34670058378195060.000
76920832402966560.000
73331489393104608.000
40764902211682704.000
51592608657788568.000
70082976081703496.000
87533350358946512.000
92154318289847216.000
129277075185607104.000
78002282504787360.000
73159264578612928.000
41045403462406816.000
37357686594011552.000
18685534183224712.000
38991674155989240.000
36873991391264872.000
43239066413938128.000
24342104841381112.000
14349423765489638.000
13397742739155644.000
19418323568764440.000
23488843903798224.000
50431996151777632.000
44637663507501824.000
43879397621051032.000
62517396452124104.000
91305638411211024.000
78719433599690256.000
68648687218352088.000
40494764546547176.000
24466081721660628.000
36761105108183360.000
81997851354642448.000
72746733318943296.000
159497277803354400.000
86095989100564080.000
75848489701055808.000
62152764255254808.000
129637887276248368.000
68214093551910560.000
72969721180277744.000
80280763213800768.000
71149481333382432.000
42780469575036584.000
51708785796026696.000
38553640424318616.000
20600261483062032.000
24093607758293600.000
20851125316912756.000
25129809728138620.000
28138287471841000.000
24338867134088312.000
14467609629560030.000
13726442188998968.000
7999320505352997.000
8749956054977862.000
7466857823585602.000
8133920749606340.000
4815241415528353.000
4407362742610578.000
2476896174548368.500
1416698333305752.750
1997021549812561.500
4459524075002059.500
4439084279893407.000
6631143853716037.000
5978325559973246.000
7908105854529353.000
8157201979174137.000
7143613521245301.000
5857493617607712.000
7390084867922157.000
8806155496124314.000
7360564733387970.000
5912314413797579.000
13837864602242106.000
12526509360792744.000
25907296272892324.000
24879258380352288.000
38905832992288552.000
37061635138014952.000
43330972570011696.000
22480952489935208.000
27613699672568168.000
21153981736227664.000
24464291850467828.000
23837645307925448.000
25693420390896060.000
19689474306373728.000
47845877512156624.000
65187333247415592.000
74016190683039648.000
116099694991343936.000
164602143305710720.000
134543242124519280.000
110035658501283488.000
164011170513650496.000
242372426962266272.000
134728133180022208.000
267804165820256864.000
532589148795035200.000
426934403217294080.000
862414049630310144.000
787525251054179328.000
876125039482393600.000
666881563494794368.000
815326985975481216.000
1303566259041988864.000
1753798417730741760.000
1697014520662038784.000
2188945687293405952.000
2085959884633762816.000
4876803189430127616.000
7114174430496670720.000
9970191794519566336.000
12456712159335462912.000
17574820845568647168.000
22048602928902004736.000
24536225768089808896.000
56308587184307970048.000
32213544792663379968.000
28695837936478982144.000
23203976256489009152.000
14132669915821228032.000
15111709809830373376.000
12804202323441086464.000
7461209650012181504.000
8392871298410678272.000
7529291127179215872.000
12026156003573145600.000
27104236723881189376.000
22536819462698164224.000
13472240352379443200.000
15082185708738230272.000
8050750385555973120.000
18536965923228909568.000
9845546873167816704.000
5531501367166422016.000
2894052584344494592.000
4694529777064068096.000
7544232255351001088.000
7105201921015287808.000
3931740876593178624.000
3919120357416145408.000
5295944805015901184.000
2863127663904870912.000
2810162680791489024.000
2350111568775218688.000
2799126063244873728.000
3081832484498663424.000
2619711687714916352.000
1584962524995303680.000
2259669247207574784.000
4836205313390027776.000
9553774826439735296.000
8678500447031541760.000
7162794535386682368.000
14888285452604755968.000
23185697870562299904.000
31681430329911615488.000
38948315130451910656.000
104785951376046538752.000
73645354138331799552.000
88917892729784631296.000
85495979804845408256.000
95040814280161624064.000
86625731598370406400.000
50724899899344592896.000
50034866761358893056.000
41863905533253492736.000
22245097785129693184.000
28848203466028351488.000
15442056663720886272.000
8891001874336179200.000
7707227032455468032.000
3992681691555735552.000
2413971877838175232.000
1325443698982064128.000
1257479928824879616.000
1637342224822787328.000
2144162462284187136.000
2901124324865946624.000
3109926313702784512.000
2766336252681976832.000
2458361395281318912.000
2924860366487403008.000
3768804953538152960.000
7672010677393263616.000
9038037801681275904.000
7579978790905138176.000
8821668269947744256.000
7780440716167333888.000
4148319648525850112.000
2385710696040745984.000
1256875641307868672.000
1401028803737879808.000
847216247204624256.000
953539932943442944.000
1340377525789862144.000
723312058361684480.000
809040940212078848.000
417688426767397120.000
515106352471822912.000
524474217994209280.000
403512498728241728.000
485043364300817536.000
251982300031715136.000
135819064358958736.000
76782723727529792.000
75220120234853504.000
43423049324089280.000
44766610292728000.000
24765984203018068.000
28347069540755656.000
25909584443841092.000
13807529533525112.000
15446412284176088.000
10563412744170364.000
22985696327152924.000
25447883653477596.000
50384059101276792.000
41673332962309824.000
49673008446757208.000
64003252061888984.000
133431079916373984.000
71307162844544360.000
74314214202469056.000
86790910791704176.000
74769896362246944.000
92662096195475664.000
50878018795495784.000
27771871430122060.000
26827346254249400.000
22911823565378084.000
46151702178394976.000
23898633163011068.000
34038872791334432.000
82926819746325024.000
166040161803883424.000
115211184498813232.000
63807177362980592.000
147881578290572928.000
224436867431312832.000
520605595466688256.000
413721209442952512.000
397083476819752192.000
440427725790801152.000
254919566193328384.000
207292989124926048.000
283836670730577504.000
151471536957970656.000
150937067139616832.000
129289361165654048.000
78405063290384064.000
67479173065627256.000
36282966087435240.000
21082467507529608.000
25223749042620836.000
15119318059133766.000
7726435993041582.000
4105719700951248.000
4678594083892208.000
2733991722421568.500
1425677399846867.500
1403101512613628.250
824210642974381.000
1184829476119160.250
1205264843961994.500
1792929518059839.000
1022210157029754.125
2282070490491652.500
2691335445411746.500
3949911796486375.500
3984916050518233.000
2308778195413692.000
3296860424979994.000
7075641707784549.000
6861471846648068.000
6595048264732475.000
3367947000170203.500
2038287776172304.000
1062635928737913.250
2332613583526581.000
1308604349087860.750
671094826406954.750
579218463423256.125
666118026765784.250
593024089968982.750
703650756745219.125
819014693779685.000
550854663375704.312
646979115411423.750
1025563526123825.500
1094305925894520.375
1197561123314718.500
705914068029037.625
1051779687451041.125
617065612606163.750
369155452839769.188
795377704274186.250
594725370813832.875
1449388322074169.250
802506059940450.000
1135430033722053.750
655951799631217.625
561482350645634.438
612928350238449.250
1471036685167308.000
1503489720065091.000
2086166984862762.000
2147648795572527.000
1994171019883427.750
4354276636073040.500
2413215993913769.000
1237044697757822.000
1164262860209075.000
1444526026760608.500
822923731165872.000
710707968854315.250
424593012598601.312
256466390640650.656
205328284115658.250
181434070566335.969
256934084265350.375
134305040698776.453
138453847025263.125
139058098928789.156
113535928697606.422
64637451875261.602
34465141740962.320
37668134028069.883
74996102847355.625
104104345899619.453
141922601380135.312
124755938095694.922
254745922071094.500
226279968110806.500
124982890134875.531
75825866529385.969
62472989557267.438
59062449991976.945
34191554514407.852
28725285875751.586
16498468122816.154
9308225836802.762
23054546072537.180
21243980361306.348
44219333771524.664
40625937296829.008
34244312525351.945
36689348405815.766
74005688246019.688
43043935819841.625
60074841945858.531
35339416177471.039
55682308963501.703
53714380341460.539
74437746014031.141
77558166806723.797
99431654592669.359
229075414764379.219
133687324870009.203
177631530216933.906
449697120954539.500
726079600606003.500
666207671270557.875
545215942487748.938
1319563016597220.000
734249145135541.750
1079768222487828.250
1494313776677731.250
1135742359293003.500
1453301199693540.750
1411857327759489.500
1852333279608868.250
1108099238379181.250
645177921130980.875
1341905495995478.250
1793462375745360.500
3888225993844011.500
4258985011795516.500
6377153827372363.000
8368862432875288.000
8007119399164715.000
12496926849437950.000
6523745112154536.000
3474723557406425.000
2026495799865331.750
1711231506552279.000
2323628115342548.000
1223601295281736.000
1038365410274067.875
1471229538092835.000
2395538328216273.500
2184819875888853.250
2296537818838684.000
1161145075415154.000
1044814394240105.000
2457298501304506.500
1246577105718469.250
635374192296350.250
330640516010696.250
807174359384337.625
598946665979880.750
652713105378087.875
340506995299675.812
336828378594580.500
175553007664775.250
447584550509552.062
303411485643758.688
725132927542569.125
785548548146721.500
600560743090762.625
1283078610044633.000
1854736002496238.750
4673377676954740.000
3488480133028698.000
3359206825780855.000
1796127313601301.750
1691761094402439.750
3526754108838224.500
4382204625497559.000
2363804389228429.000
1260511171325241.000
1256595716116638.500
2630804549066515.500
2626111765691616.000
1345089861716044.000
1712548598961008.250
1923009106328390.000
4698295524309913.000
3808528131709845.500
4222027984740933.000
3349664376563482.500
4768605627576130.000
3997970277591041.500
2300440282609295.500
3224463038530410.000
7364725929544698.000
4207494315009858.500
5682053508379131.000
14241560023905030.000
7427984746265555.000
11605816308642534.000
24468114456338160.000
21000531536267568.000
23278313228755172.000
19603851254864400.000
10536980184748602.000
12710013820402222.000
25218776208252940.000
15091347610563670.000
22257153419562484.000
18972259640543048.000
45590588371158512.000
33751647100284216.000
73409528998004928.000
39108126353570896.000
39933294157829280.000
20315362163030844.000
11171254311751360.000
11752079634267958.000
10410915702700344.000
6294587693331017.000
3774416076036824.000
7766205863901205.000
4630139022416879.000
2479067634913761.500
3458852505385639.500
4516237824930973.000
4064013028114228.000
4609672068426924.000
2568185225050286.500
2392356838233479.500
2153310419204753.500
2344106463844655.000
3165675910454896.000
3823188458741769.000
3282765664971152.500
4694827613372779.000
5887254002495598.000
7909038561975350.000
4184128456188811.500
4091566512021820.500
2465397610597969.000
3959836716582138.000
3824919149489516.000
4211162391243069.000
3722705199679117.500
4433599869803029.000
4038300965972316.000
2293543316167650.000
2549067829831920.000
2170734873001947.500
2079060359071384.500
2112579953534461.000
2137976697399028.750
3234068541830068.000
1946719427623089.250
1783882445914216.000
1736914056095472.250
3933243837915298.000
3325730930695199.000
1734749194252340.000
3753763493485066.500
5461942377898698.000
13123892590224824.000
18389360450441464.000
10648503886292912.000
13855933071003950.000
9829251957588888.000
22623498691292428.000
13797379047568226.000
7328818497824762.000
8096009767434576.000
5624385747371148.000
8503883081148458.000
12379900873894928.000
13227596190892652.000
13619434950724554.000
7285982707187380.000
6011395889576334.000
14891570880674562.000
24429625236936244.000
32303796367592400.000
19876924868478228.000
21443756014187260.000
20551099712281404.000
17922609737761170.000
43319952925341960.000
25529351756633968.000
14507179644002378.000
8045853259237008.000
4587079752623619.000
3538641163159654.500
3019759948456261.500
7036366267137564.000
5607970335181081.000
3068702364827469.500
7431616521820722.000
4387319011704373.500
3087792589739466.000
7845740960201239.000
4405449618827274.000
3380515768229163.000
1971951806652237.000
4298305999958573.500
2502250836130668.000
2355260081867109.000
1947090937037241.250
960568107740418.750
2201583506951632.500
1754681163528921.000
2385993770803916.000
1989790117420730.000
2435703814008665.000
1852932036084970.500
1995235764043021.000
2155639312311346.000
3445294548771222.500
7742697463271775.000
7751409717086517.000
5610841103304638.000
12304557743412614.000
17439044502686558.000
10052259050274114.000
21120437947806420.000
23178053145207100.000
18038827708610960.000
21529445667622576.000
12095520943526986.000
10281576293652026.000
11204184696967586.000
26707290233872456.000
23574559378300688.000
47581959465276680.000
26642383754675140.000
23774569590825096.000
13267856759178768.000
14854154022386604.000
10096428303538578.000
14576214880116318.000
15340210443162570.000
21931350931709856.000
47980011687766416.000
43003873086072280.000
57563377598743392.000
63498166209863400.000
85313120261298848.000
60637028744883736.000
138949584748058976.000
133557668493744912.000
107850819691998240.000
57815123678664088.000
122276165936781984.000
129736870842311088.000
266912629801837184.000
237136619686370144.000
240068689067705024.000
256780424194112896.000
392925610540341056.000
218832397374949376.000
120652672908759488.000
263213371266997248.000
204069418722710400.000
238119460538801824.000
131784000229049136.000
79282252808463664.000
119785772435699264.000
146077454877448608.000
124290162967081120.000
148615774960393600.000
150378691588794784.000
150055317673867392.000
86193988734690496.000
47329585341958568.000
39016112834368736.000
21883480865588348.000
22061498300891388.000
34779082599692136.000
77038366031545632.000
66235501884260136.000
34717207943844728.000
20997141515994860.000
24498872289342000.000
37609139372348288.000
85431963566779296.000
83159092322891248.000
72508968799619568.000
42164551324950104.000
86868360366462304.000
123957175811561408.000
250915657402284224.000
510886573679237248.000
267555161056148288.000
153208249356924768.000
135597717011108656.000
103407556444470112.000
249282549619637760.000
203648235425357280.000
464417183709062080.000
382851765462644672.000
231848691992969216.000
489465384836373696.000
259338130110341632.000
239816481992581568.000
143385100959373232.000
156520525904818176.000
253267013613480000.000
216125025759829824.000
491608576458558400.000
346393213156105152.000
475918932013469632.000
268798202333748864.000
219465614979367840.000
192417053172234304.000
113873715449134992.000
259074979827235680.000
411144340657657920.000
358692116013087744.000
420275604190350528.000
630459081862629504.000
824616944503077120.000
911719490315683200.000
766291828121390336.000
1634026552639132160.000
853452375300998272.000
861357018153252864.000
782359468037715456.000
421584207378211776.000
414173690751251136.000
359508636013120832.000
907667940708281856.000
700280640286428160.000
349590086304384192.000
505360700608226880.000
775833549091550208.000
863605077858668672.000
1150729198135101184.000
1682934385338794240.000
865975323497244160.000
444662387075973504.000
442297834852137216.000
232470071984637696.000
197747087778259424.000
118895154581580912.000
70748922151134896.000
70369658176498520.000
78030846324498000.000
42361589731450824.000
36416443942585984.000
87563655958408048.000
66894519288307640.000
156062979679001344.000
89704852199342336.000
125374789369542976.000
153872779009678944.000
138506597689045648.000
200935829445242400.000
461671327415779520.000
242460866411384448.000
376869822142487424.000
360234566058911616.000
210726950858616544.000
259966380985212960.000
289093495403412480.000
382071558139795392.000
340297212151596288.000
414646628902200960.000
356039516844432256.000
441460624550669952.000
243986005116607872.000
228350227726319136.000
500225539848020736.000
490353695776941248.000
701343149221021952.000
886359122000337024.000
1118856059103776256.000
2477649244945483776.000
2065889860312553984.000
2485926525671261184.000
3017573897824224768.000
4865509316703578112.000
4494947647782351360.000
2592969271337130496.000
2853688133102688768.000
2438836427518642176.000
2213985711163688704.000
1117955311607913344.000
1175018601836476928.000
634444180627680768.000
806905766940888832.000
483521752695043968.000
372956526778385664.000
765956473843266048.000
807469396387205376.000
631942408670761344.000
382855242115344128.000
448062974549212672.000
501472632167067712.000
286326511573105376.000
234833828232124032.000
514379897542735872.000
358050824278428160.000
759076176113630464.000
1100768412143482496.000
2416999536950313472.000
5325775002683736064.000
4057869144814067712.000
4703036207163598848.000
2666765986821406208.000
1439551064035797504.000
1677632299244052224.000
2260607700050007040.000
1183974087923916800.000
1445560425724376832.000
2234861836783031040.000
2964622103500946944.000
2140852340139459328.000
3003370783253879808.000
2517324630833123328.000
3000637103998455808.000
2133627996133825792.000
2602697077515924992.000
1376777289706727936.000
1606323123138412800.000
2423128557409868800.000
5005646372381706240.000
5519886531382939648.000
6754742686147379200.000
7356546561695143936.000
8219004486181423104.000
7074937037216082944.000
8803760873357769728.000
12816574309413359616.000
15372723699795881984.000
8662739469498185728.000
4701445832201007104.000
4205860770793291776.000
5561193942514616320.000
7142675183351822336.000
7148271713552791552.000
15718631293099872256.000
21199102905978683392.000
31510941960823480320.000
43121878852928913408.000
38882961929551855616.000
41974378815302557696.000
48184286660304650240.000
49903270429313785856.000
25808474231289675776.000
30478303063356600320.000
27314349351468294144.000
15067529028590688256.000
22654717293194457088.000
28660337359764688896.000
17123355315994318848.000
15208767286629072896.000
13367910828100333568.000
15628980238257111040.000
21087297484429295616.000
32175607942692093952.000
31901512778441760768.000
50046848851300876288.000
28244702801848823808.000
32588323695440420864.000
16787413007986397184.000
23470402714728828928.000
13959601633794326528.000
16379140803572725760.000
8542720743562070016.000
11904401416187488256.000
27809264489482571776.000
15668987570828427264.000
32421236442360553472.000
17265133811821783040.000
9221142109642426368.000
6919595834961507328.000
8393153651869286400.000
7519273639526525952.000
3832013277980398592.000
4866216389828696064.000
2496612957630512128.000
2701661174497768448.000
2531599413623005696.000
2160128364016322304.000
1256036511721727744.000
1292993779041525504.000
2974231249208852992.000
4482024785283044352.000
9579187385468786688.000
5417186356021219328.000
8708529380787770368.000
4576695421406541824.000
4114518823883629568.000
4108477955946470912.000
5451652575465779200.000
8640677834049698816.000
7803304864762004480.000
4081981437912934912.000
4516063106274176000.000
4012745316247181312.000
4596741818362293248.000
3689400022671246848.000
5033916091104132096.000
2583509268149502976.000
1343377817079106560.000
1686110080506174208.000
943131407713910528.000
730531550372370816.000
658516213831570560.000
1551732582193419008.000
795911061677911680.000
965984192597895552.000
908134428270926848.000
825621018744951808.000
480181653097658752.000
276313644361223776.000
244770277735584832.000
279962830669737088.000
244840080611143872.000
136092898173908624.000
111485232986587232.000
126521266946839312.000
269839672258857920.000
203880712442065952.000
126358020344529808.000
112416860869803008.000
136058544655158704.000
117536694857102608.000
264608880662393344.000
219817639222289600.000
295983978045669312.000
225907581938938752.000
271123385733989984.000
295735946260091904.000
358195439352954624.000
742471382121081984.000
385469526403089792.000
474595799611704960.000
426018697104142016.000
634330501282708608.000
389688081983549888.000
220368222376255488.000
260198653999902848.000
232868930382885120.000
256309323697819680.000
267992038798019264.000
206981107684559968.000
530418954713497024.000
506137917178288128.000
364734563614637824.000
447567872694424704.000
921031897616464512.000
493831730882482560.000
268682376415056128.000
399437125733096448.000
458163138334326656.000
514125635472824832.000
387884471249321472.000
468876863197337216.000
248758627572379232.000
269357492835958816.000
136943802965560496.000
133819798554357296.000
148977339980048064.000
218856214679439808.000
272743681211324128.000
280787071750902560.000
203425897837590880.000
454985249635111616.000
266330826926406144.000
158161644115271552.000
218574506062097152.000
261923769081465920.000
280371460588337888.000
399328679764455744.000
503783762873833984.000
435517896740017792.000
219224879699757216.000
219064102485111168.000
288007691043862784.000
278149937535577504.000
269863136224498144.000
414154123836155136.000
251631956814737056.000
272909199362418432.000
266829229444980160.000
152605594475566336.000
84237852336752896.000
50060763070508504.000
75355140385075632.000
67481384677885704.000
106941772549989520.000
151968887499431424.000
194479596795196864.000
233153425065708384.000
293555467931117120.000
249596309308857248.000
248669996747315648.000
235129334761474080.000
271597644212004352.000
153284990030788768.000
118808341247252256.000
143944472619608224.000
150554791726785856.000
138631096903420080.000
109315964094851744.000
251556974312706880.000
296203164779507520.000
298216788458479296.000
160209083107583456.000
239214858373545856.000
121791300266141152.000
191758089020626176.000
241914570342240928.000
238378704091908448.000
534051846104308544.000
375012413537417408.000
504000817095387840.000
266231003499237888.000
267323997178073952.000
137642855243455792.000
79711599022829312.000
59870425989013280.000
85373382990379584.000
85159355761789344.000
77375772672606384.000
42143634256122408.000
23929735489307520.000
20092445144619772.000
11372487684218000.000
13825399569813252.000
11987354199534600.000
6352254781867823.000
7417665433320359.000
4186699791107295.500
2181995784773479.500
3130808286359743.500
3657845953563438.500
1974052977444741.500
2671418004137539.500
3498943630016213.500
7081441826540549.000
4242184890448225.500
3754977635209153.000
8018853517919037.000
8058907775373279.000
5855648601061634.000
6659779705338480.000
14582431970438490.000
7649320851551033.000
3892205131128411.500
2048765131204818.000
3216568387836983.000
3385763500822653.500
1794016411494998.000
2402837289843974.000
1951815844599489.250
1704893206444114.250
2514535219090973.500
3592180547562100.000
3228122208424530.000
7453998992298358.000
7211885006515142.000
8351149610683874.000
4258636987667198.500
2369464415794525.000
2526877228010380.500
2062796539926009.750
1130267857909912.250
2452894376779037.500
3562750032877301.500
4651104397043013.000
2462000434044153.500
3254586970028056.500
1709424421774010.000
2087240879492941.000
2664082059874499.500
3737450258834612.500
7735895825003457.000
6025894042785226.000
13249567522873774.000
21299609976613580.000
11886615626137316.000
25642760511846660.000
27899137733007136.000
42778543236018848.000
44809581606496360.000
65226518911519448.000
158014191328095840.000
111762961779227712.000
63949986582914832.000
80211439673683168.000
47423224225976592.000
26497938935462480.000
15180308723431780.000
10625477535948646.000
12827421390445922.000
12455613931101862.000
19933034788027408.000
22873757786716164.000
32748414786813304.000
46885254449540320.000
32958185076347380.000
82908561909936688.000
82898876597221952.000
45379468635002400.000
33119313077515284.000
49177477781227728.000
65629798852295048.000
138932459598611584.000
123540237960431872.000
266109130409213728.000
159437780365752576.000
85426537083996272.000
113822984226427296.000
68678072150749592.000
40715899201572320.000
34718682779361800.000
38268565831437008.000
60644176532274800.000
57902876921845664.000
134586193943062224.000
116037421784251712.000
71635402122391296.000
103798220843441856.000
145577888396842272.000
288514389792873984.000
353387378769684544.000
517532175455356928.000
793102951771553536.000
927829041286259712.000
621066615674428672.000
639125939057982976.000
383548121422905984.000
390477917686972224.000
351905762735866240.000
206050255090553280.000
236540630785300960.000
346940613308641984.000
461044885317349632.000
255632832065672992.000
152128454024447552.000
224561603311934016.000
275041250362996320.000
185744061090551584.000
385367761966470976.000
468014668254554624.000
341164759987166912.000
422935091967464576.000
898953960667625984.000
832158820013041664.000
1292204996681269504.000
740703766328777472.000
1495095592630855168.000
1426288586043176192.000
1641300348878305280.000
1261893430448464640.000
1517050300395744768.000
875572314330062336.000
508375314873543936.000
634695733819069312.000
360162723228456512.000
890056854397191424.000
466780319289298496.000
509463931072726720.000
487733101185765568.000
689681595473687424.000
871727155871876352.000
1280363923625682688.000
771818426541766272.000
608219213592960512.000
345121872984924864.000
347086889053460096.000
200576638125926720.000
445556441750156032.000
494727856859660736.000
376415793209017088.000
476346678151108864.000
284135700996725888.000
240413376457471584.000
282074654717313760.000
240451695578553920.000
244174896932806496.000
146786808255133280.000
232526274585409312.000
124312587549701024.000
127975677469702832.000
67700921409511232.000
89402301725227568.000
81095492289828816.000
83602379423243440.000
58157134651909440.000
131968919066567392.000
121698541555243424.000
282916001871269632.000
157000038443493600.000
133379988897027840.000
284771111128352640.000
154763710948635904.000
135886004470129280.000
152607312331438624.000
79083575070113456.000
89084054512843232.000
67674829476877752.000
69192014688923200.000
75376283083789792.000
41990705057187488.000
49900081430058744.000
37880517026825856.000
22888970374725736.000
26443488025816064.000
13475056498671882.000
27330625098955104.000
35418872675862504.000
45029232900457392.000
41982988197004968.000
89737845071182576.000
48532622545226000.000
75047830847481440.000
61245552702606768.000
153325228088998944.000
87079472044103136.000
73514165189079392.000
72401690234252256.000
83523271384247328.000
46387673382587312.000
23911546149342980.000
27134237388357888.000
18579279513208272.000
11346118142630790.000
6561172116198881.000
5678564706177485.000
11542799355168796.000
12783279816804898.000
13730484261426998.000
13904561977969276.000
22255755975558048.000
11387325413846066.000
6407089633082371.000
7396646378201359.000
15059290032658326.000
18518036271054132.000
11191819155610926.000
6221255848705616.000
7993204962203471.000
6617852552533683.000
3423320435737537.500
4758844077567525.000
2532717895504822.500
1328415563087234.250
1397151249853611.750
796661286512220.500
748930751449157.875
607954932175959.750
1298913268364753.500
734681343161848.375
375155429347705.125
309258742013133.125
676162849545482.875
667512133905325.000
569062099138249.125
1265670894233191.250
656662580495291.000
1413498831193591.250
1291564911149427.000
1828547953011148.750
2309459285642700.000
2649525308934534.500
2411769810816578.500
2565601175907685.000
1360760240514828.750
1416955374562419.000
1410605483013058.500
2209898374460982.500
1124205339166950.625
1398561204964685.750
812801886330282.250
537844226691962.125
1299343458255806.750
657185959904923.375
544469549879466.125
822056154630495.750
824641150035652.875
778588383617557.750
550012620504901.062
615056751327452.875
1399443621491920.250
1494907200866696.000
1344431677598447.000
1081570934854781.750
2351484302057387.500
1312032331964774.750
672492298763016.000
735785729421295.250
424361611042611.125
656611017324390.625
360946269115719.125
217901963172053.875
214093677342647.750
170411234707748.344
246008453846835.656
251636550566991.281
168752208725772.312
233428927311684.094
239416496760685.125
246436010516738.812
398173139519340.750
353813770029592.125
192251803436464.062
468717120863923.938
401877761764392.125
429271286743064.125
248157511677215.375
208449997028246.906
255243198059988.469
241350433740320.562
179313659330231.875
435412576840529.312
319328832150548.062
384756948284318.875
467546161545987.062
590690386949182.125
804284084229051.750
789183285788462.250
617815985285184.625
1374182509779908.500
1293818373270275.500
1000234032781485.500
556244175192830.688
1502245707797828.250
2325514430533719.000
1315066151465146.000
1182733120641989.000
1208517176694229.250
2698718903537842.000
3291726836396818.000
4113221256831576.000
4249282014790661.000
6887651703191826.000
3541460743492865.000
4711127296532722.000
3236251736918990.500
6738577012929981.000
6445428695398689.000
3235295227479646.500
4515479358725449.000
4884264643801577.000
4132816062437343.000
4235710693609655.000
3909668195461800.000
8311844045160139.000
11380548440794932.000
26781543451334476.000
20869207218996236.000
11750711981961398.000
12309503379545872.000
12445822250307302.000
7194862054890519.000
8567074878861755.000
10676133311685782.000
14510064430502968.000
8557938479552204.000
11829569049069762.000
16022019076661328.000
22274297093160792.000
11203486958780614.000
6107187724332696.000
7648137760593161.000
8635138244043594.000
11301069881684522.000
24980789006937492.000
34063655372402532.000
88884001304134384.000
45532413088273400.000
49675274601652320.000
34485451439719132.000
34352077143286000.000
51436390565071632.000
26851104028515872.000
33609416760101420.000
45116331977566264.000
25105291174923088.000
26207883204450016.000
24050707113052716.000
28865727976830808.000
27730622624495744.000
14567821496832738.000
23459240164378668.000
13751159961125144.000
15542352346292706.000
14134653795745358.000
15201486094342578.000
15445202472363832.000
14757087813927730.000
14592871288980136.000
12655398504078462.000
27297997513836488.000
26754392913030452.000
27140223453686024.000
14278805431122500.000
7657666465839378.000
7620201979704410.000
5920004954700299.000
6786790728574489.000
6712749297649367.000
10535601753555398.000
5755176400557921.000
7430655720570147.000
7855342624458581.000
6469521748400137.000
3357507383970902.000
7172755586985763.000
7581891677447363.000
6801078413859879.000
4002098549264464.500
6475461454177080.000
3248230526544501.000
4340659781378498.500
2630203475620587.000
1798436834931576.250
2659532187623374.500
1986242251290749.250
2548933509307996.000
3542217109292004.000
4696087253036514.000
2711846020057898.500
3309485286383413.500
4930707688606303.000
7920329920703601.000
6445496365819024.000
8119857188316152.000
12528384891684730.000
6321736546107820.000
6119419198580966.000
3471857277576208.000
4912749117369538.000
4341373162660982.000
4639384481610695.000
3399252757300496.500
8348491935040020.000
7368423572357576.000
8188816079261972.000
6407806070387630.000
14496646350205606.000
21305037418756124.000
12825299123759230.000
25528673071514928.000
20809390219518836.000
48361813361941424.000
74440024559692944.000
91556323946570544.000
77777888759615344.000
64819940983418856.000
33859486120864552.000
90335545656213392.000
116951692137259488.000
239210509141954784.000
244579594151232896.000
296872458063295936.000
246902767171663808.000
280435227417322112.000
394414228257030464.000
485786739376652096.000
380939148003995008.000
489290137657722304.000
526774028968533184.000
774672109183672320.000
663480849391045248.000
393279987995914432.000
501058166350513088.000
442255177085336256.000
221673445916696704.000
261181623605954304.000
378083504898126720.000
878954703343026432.000
488923428811000512.000
789930484158871936.000
676421810677321216.000
1658292589247435776.000
1298479068709111552.000
668580823955977088.000
1509402182529864192.000
2452876713414746112.000
5650672493577780224.000
5056156294590862336.000
6951179755900009472.000
15405135533711718400.000
8209183268660234240.000
8648005196723086336.000
5048546048071863296.000
3038421533579058176.000
2959710984764166144.000
4483052460563400704.000
9223508097726554112.000
14273833413649080320.000
12215397843837227008.000
13742771070668619776.000
30946385828145082368.000
28409076664469639168.000
28785782254082834432.000
59340878279128809472.000
73060084261966929920.000
96050959377846763520.000
85189444588436324352.000
131652491178156490752.000
151170110530434498560.000
156672214508379799552.000
85012819247354085376.000
183664765194641047552.000
105745612452726358016.000
103526887070318493696.000
83021577659582955520.000
128318128238841036800.000
151922022812508094464.000
166936965321858056192.000
85474189469450469376.000
126343901065982312448.000
179314663127766695936.000
263253423076165812224.000
133525417317631344640.000
78201268622505885696.000
95949135624241348608.000
86120905450673455104.000
47589500597240864768.000
52838766104688959488.000
70572483337120464896.000
42252694425429565440.000
55737813692854812672.000
31755909367646527488.000
16563738648263667712.000
13163187153315022848.000
16343331753791440896.000
24137675034850074624.000
56354851008440016896.000
55442998971728633856.000
30510557509311893504.000
22015683332268904448.000
47045539787184660480.000
56501136930782502912.000
31943250496446967808.000
29171347692844720128.000
21829390867495514112.000
33028219466200924160.000
29829024820380680192.000
17055498763658805248.000
16941225915209916416.000
12471733295047352320.000
18166616252282818560.000
12163469054077466624.000
15942867748465756160.000
17857166318972323840.000
9713679916254609408.000
7125410907356485632.000
7073468887594945536.000
4299359099986440192.000
2326964346292196352.000
1340834549663632896.000
1230769944626528256.000
684312704325592704.000
405765235556755008.000
248182452533122528.000
130358911754574096.000
147901545420145600.000
77319722988018528.000
66508196610145336.000
164582973350220352.000
87490081708839392.000
50820498915605528.000
72005133223990920.000
64413903644344704.000
38042512642745984.000
38137976585984224.000
48419303251571112.000
25722129040792984.000
22103602877981968.000
48769404527222480.000
24822792856453636.000
28127225085930112.000
20607118852416180.000
27752061790630700.000
41829842940058128.000
51260642119705008.000
46377541716781016.000
24921441311413344.000
28289183217016416.000
23855588825063732.000
27413350897530304.000
44502315460978408.000
43368922299362304.000
89305850476359328.000
119018642389977152.000
247101628957312384.000
129401980149664864.000
148128410152914112.000
78094706075736640.000
67369071651497328.000
81396093488452800.000
65677254414780432.000
162574463747546944.000
210356771615501760.000
275140364482753696.000
244365623980472064.000
147002764369075424.000
83047770736563824.000
50278578797552688.000
25810875766979288.000
23849094540088552.000
37740440297019504.000
48554192016741912.000
75394600263604432.000
156587539563739552.000
107144012140938976.000
62460209143432880.000
38254569368479776.000
78449657006192176.000
123944653914139728.000
64622441263545384.000
87699040704256624.000
67868920400378488.000
64749685712349736.000
62089353788491920.000
34495994655485728.000
49687306471544528.000
47920099853027856.000
27911150646982576.000
22181959410842532.000
20622909864837088.000
23721622675454708.000
33088902161659380.000
68276846045324496.000
90343467581323280.000
81465280042079248.000
48406643165039272.000
36113522103171600.000
35966125182500160.000
85286295748959792.000
45718601342806032.000
32805628105655880.000
19225636873757556.000
39379224796610224.000
43685973122957544.000
22356280155495640.000
11355581753099796.000
5708117018609698.000
15279645504530190.000
14854201252726452.000
10848799434832594.000
6199196197290858.000
3629897570641137.000
4292907577953534.000
3279927010473896.000
7960030183535678.000
6377711909586364.000
14469557627633814.000
20141630561862848.000
47217494003833456.000
75474788343365104.000
69207255944656952.000
66128615837983816.000
157963127310684192.000
202655301221536704.000
484487361231770688.000
277960004333050176.000
382079156598670976.000
455879519013457536.000
242815034951726080.000
264832247151239680.000
244351154946317856.000
124140270268623968.000
137708942416518096.000
135420414126844416.000
134221557610292928.000
79771917921005856.000
76393602221294912.000
83909353589927088.000
48001590958143272.000
66670621185553232.000
37841508670968544.000
43068758374805784.000
48304301899132344.000
42854407056325848.000
49482639406732040.000
38731957801180432.000
37397714524435208.000
21704117631454484.000
11098622691232918.000
6661669995430593.000
3983925948522389.000
4111769810736003.500
2454810676345410.500
1820053680505908.500
949413508965635.250
2287732674928620.000
1942372198993676.500
4331175069835001.000
2327466301515049.000
1890672144537580.250
1010638676026036.500
590415253847176.250
802174879102752.625
410218130750277.750
243243763438159.125
327398644330649.688
306630102380327.125
655650802469046.000
1304330756189201.250
2069204136125113.500
2527296481760095.500
1754009729428608.750
2546128402460024.000
2097526882919969.750
1053270096202471.500
2278590855720210.500
2346210760099704.000
2596740180830265.500
1422649374549659.750
1741359441661871.750
2014159682029506.000
2614414734722746.500
3533360346399153.500
3328957225167273.000
6941301830683620.000
8426942726950860.000
7969017786389749.000
12045834324889528.000
6787550782241359.000
14929005779816972.000
10743335699507810.000
5540228142040161.000
6711769164783138.000
4044781242734398.500
2238429784648843.750
3348913055511011.500
1764268915614581.500
1800531466001930.750
2444044297460560.500
3233133223220829.000
4612392201016715.000
4697215924726234.000
2472543202431142.500
1388694520740485.000
2007264781385469.250
4218898084177338.000
6787350337382281.000
8407723959586973.000
13338910491125958.000
7520019538112936.000
10374760278594934.000
22936278864654376.000
26235392040186004.000
14862784487571508.000
8343487026893873.000
4428356989102102.000
3020792475068503.500
4694204256834588.000
3030125025049937.000
3470828369843336.500
7189954305265460.000
6844248731502881.000
8558012296011233.000
6247324939750669.000
3740892794813221.500
7953229478045398.000
4212052608981718.000
2468461790136741.000
3616859511173404.000
7800415321237143.000
11066637124137700.000
25382082106551868.000
20932248285838360.000
45752064492637616.000
63081553603878696.000
142517426073455776.000
291037964673875968.000
209168574091972224.000
191319437456863584.000
242627168921675840.000
372846329570666176.000
474436454460295232.000
347166422832970816.000
420798065491454208.000
337950369480605248.000
186634964129266624.000
502656379518791488.000
819233578742475776.000
845081120989042944.000
828201760893697408.000
886994078157428864.000
881802019915004160.000
1433712271222911232.000
843689379066136576.000
1237637669583522048.000
630596197645197312.000
715249241869522688.000
898676493903676800.000
909613842794119808.000
742341065478212224.000
1671233008376288256.000
2719801787691334656.000
3073938786941780480.000
4146737369592578560.000
4470162434139841536.000
4981204035799106560.000
6394686889451426816.000
9375768780671352832.000
7572494094924161024.000
4188949310940434944.000
4652670485953519616.000
2639101132118127104.000
2937902043544758784.000
1618685508662069504.000
1531016064959210240.000
1357628683490566144.000
2952218655407049728.000
2534096692285883904.000
2519465750555405824.000
1456237310589206016.000
736360355620552832.000
436411338693075200.000
371838041760528448.000
849562756045870080.000
666266399527037184.000
921217347193528448.000
1406063745266923520.000
1188865270141803008.000
2951198312396921344.000
2600874646049135104.000
2917186723087559168.000
3030431670905271296.000
2041251919155399680.000
2045794992769454080.000
2272134688721071360.000
2737956834385199104.000
3667922450961295360.000
9486044170380306432.000
4977543334086590464.000
4099758654329863168.000
2431190810363590144.000
2482118236900907520.000
2320984502175726080.000
2340855166792617984.000
2688359428319362048.000
2395590832366482432.000
2095680913344190720.000
2625106803122587648.000
2936584076365249536.000
2968318982898450432.000
2708143659504671744.000
1999963016106622464.000
3081671652539564544.000
4181350800807213568.000
6680560220834143232.000
6986593134363152384.000
8587455027558095872.000
7130799977881626624.000
4214161787471371776.000
5533836047748633600.000
4669319780266337280.000
6769028339560156160.000
7927412978093176832.000
4189897325761562624.000
9195482183705832448.000
5028873606716963840.000
7034956492828344320.000
7713229998911862784.000
8752125213681813504.000
5211825794852440064.000
4364412084171905024.000
3635485255340634112.000
4704946022713839616.000
5474909280878361600.000
4323666700095405568.000
2226537336049854976.000
2779144450327759360.000
1434262182949818624.000
2209626384198758144.000
2611966333431273984.000
2903203382720414208.000
1562107684626306816.000
1187428429292882432.000
1581478492057304064.000
888754565202592512.000
1164353387598589184.000
1337674528915835648.000
712340410294733312.000
1518213859681873920.000
3120252511805639168.000
3056954542524961792.000
4519425399879265792.000
2708163524001217536.000
3919158373829308416.000
5558494029379479552.000
8648073966923501568.000
4350865118219079680.000
2521750212254978048.000
3668169441739600896.000
4677954423476139008.000
2655645130218161152.000
2032286660424249600.000
1166624114092815872.000
661466772627491968.000
637303021772381312.000
834358585945888384.000
475052683464966208.000
374362151019988032.000
432177463027758720.000
954879313655789184.000
503387382047412160.000
762134489236955776.000
408685060237315328.000
441996429338924032.000
448410204370059008.000
375025332577295040.000
217057883563358720.000
262250206951918464.000
403008340199863488.000
841563858812120448.000
1735467227943857152.000
1618440628645249536.000
1249402237374120192.000
736462375946530560.000
418306986554280896.000
246258804537216096.000
207089909593368032.000
119386150806251264.000
66105027652658344.000
38810265797518480.000
20687978083768252.000
22733902743775524.000
12293605432512198.000
26810051180634964.000
40336680617956200.000
20822620618155852.000
10364883142675508.000
