46.306
66.158
139.224
221.841
218.836
493.939
733.751
1081.732
2354.561
2370.384
4973.800
6248.825
16224.855
23189.961
21604.781
22422.638
48115.396
51842.038
77443.056
77871.197
160965.327
245294.842
223713.482
526263.441
480922.725
980971.683
1275766.491
2954125.967
2882686.515
4091997.707
9844758.542
14427921.307
29742432.738
60849656.972
58692118.043
54964343.774
109079149.450
166586251.780
261804276.563
636149931.715
869510265.092
1810267454.666
3750905076.539
4740466596.938
10384864974.604
16682908904.286
16599241864.493
39929123059.675
55741215116.925
115856622777.776
123614291203.180
117303160848.955
163019796657.727
417815366159.889
546734083137.342
547024850200.213
1225523168951.084
1620511039629.173
1668327405644.268
3461694405174.637
3781479818758.828
4078647588452.950
4096132168273.813
5945615932172.654
12835902672788.629
25485364584893.488
36127849282875.375
35316896851570.195
34000822573801.215
37119759577458.273
76240279553659.266
124098418165954.453
132860372477953.734
187845258930261.969
413574172091586.875
847760164372230.500
1264065938848399.000
2639623877782099.500
3880601008210393.500
8311476760213491.000
7819986028421972.000
15659891115816908.000
16375886585669844.000
16002580731155412.000
16291470992569892.000
25687723161365844.000
52302176742443024.000
73224641894938560.000
154481451574532736.000
231064474654840256.000
492554380785780480.000
701018608952610048.000
1451730536805861120.000
1308528927226457088.000
1404988447891434240.000
1352604807620104448.000
3112313935420001280.000
3924018260656183296.000
9003695589572656128.000
13343874104664768512.000
13058352156087818240.000
16174977799537756160.000
8284445933105627136.000
9228666268814368768.000
14805238475615977472.000
17339093105522577408.000
9818474096267083776.000
5153885435011892224.000
3090254216785807872.000
4383566211035129344.000
5604113229524232192.000
4305341344366309376.000
2228536314710248960.000
2907621487507979264.000
5810911009501527040.000
8494540906106463232.000
9408638130330970112.000
18648150522278776832.000
14191547322634250240.000
14683930150640011264.000
18286755883107276800.000
12334484954942492672.000
13112927967171540992.000
7533661960999164928.000
16789700028707475456.000
14821212683545225216.000
18583292213414727680.000
12504953166651148288.000
26854885633261948928.000
33430837078091784192.000
23831797826115084288.000
14367298458830970880.000
8366653523885833216.000
6876550229193584640.000
16133670854911299584.000
24332333335299379200.000
12647546751378614272.000
7200407241067929600.000
8569504159821280256.000
4807014749811520512.000
2780255024193169920.000
2106545624685658880.000
2699785201624397312.000
2191409616000514048.000
1256777878483638784.000
1728635377262393600.000
2322446001667080192.000
3128518904263044096.000
2647934308962650624.000
1397434625660693504.000
1311451443412486144.000
2650060760667447808.000
1424823020843287296.000
1747643427683223296.000
1185562746130941440.000
3013883157529908736.000
2414705632418759168.000
3022589229993537536.000
3998803044320693760.000
4854004006432459776.000
4588384691389103616.000
7326467151694305280.000
18289935579929425920.000
16477182842672136192.000
9161918271384512512.000
4776936440526819328.000
2521914113149726208.000
2646855102400566272.000
5471489198897387520.000
8776928314052305920.000
7391442428589502464.000
8376196787662959616.000
7572889587125864448.000
4310113766095314432.000
2353003506161243136.000
1257455189726221312.000
705155070919131136.000
822456468627937536.000
923020503201227136.000
763423462023520512.000
751055545611610880.000
891849469430509184.000
1280301720616273664.000
1375375010805464832.000
1269893589288223744.000
1506928577723801088.000
1207113634594070784.000
1372161531928795392.000
738725591286879104.000
379185082359182336.000
528235816377171008.000
407313347042411456.000
462086710011281280.000
469825114817477312.000
472832350230028032.000
746541901686939392.000
641001936383878144.000
360269822758951040.000
215577269542134624.000
275245396758558784.000
432328447087445440.000
244613879240859680.000
488694912487909440.000
264165842787083040.000
154834158069139008.000
110318999925713648.000
299704399874216320.000
402877170440999424.000
376613477296221120.000
504628318462117568.000
437997610270850624.000
376990878333349248.000
802438407116030336.000
900551454621568896.000
530813200886637120.000
357915156206408448.000
435932998388725568.000
254747131614182880.000
154944200991505952.000
196800276972493248.000
298092225178101696.000
269753747891756160.000
290702925939424576.000
404423978395919424.000
482223284849403712.000
269949747117845440.000
152611666179783392.000
131279470714739904.000
159490204491246144.000
119511135351653008.000
61862176573285152.000
153203791184021856.000
143789723189244608.000
120699236853671792.000
144693402081924000.000
80353397747735664.000
159376491259260224.000
200930172801516512.000
266423347709201888.000
399780134068557248.000
438003986092388544.000
221129744474409312.000
135319732914692544.000
79339001776339568.000
75049387327135776.000
90873531844974256.000
74845776203296624.000
37928268157972328.000
51562952793975648.000
82427529791171440.000
90108460620857408.000
68698759255442688.000
60967631195894592.000
71445113531364960.000
37710247819842744.000
48754619873409288.000
35037944083804428.000
18648929337293332.000
11269342660794668.000
14489719642317044.000
19774212529298424.000
25721470080849604.000
13222732988368104.000
7167532738087457.000
14624442784254716.000
15147398149058074.000
21796468828751116.000
19723510922694076.000
11909921359400920.000
10468183688281336.000
12114659971294602.000
6174564306551021.000
6286586097049257.000
6200218407624478.000
14176180211359058.000
14514891497467454.000
28700177001084340.000
21305142862391544.000
11508928614754644.000
5788284239118836.000
15648178232931564.000
11407841960839246.000
14425153363402510.000
15310012448651184.000
22315209694854540.000
12005932276241060.000
10624146217717712.000
6209816214470685.000
15927220068341912.000
19515246059166352.000
22293232966241756.000
11531475025529336.000
15834744560483298.000
23511951825508356.000
37030140079759200.000
51029915762072888.000
35718552772750536.000
75388572877883024.000
83038320432490864.000
71958804335699576.000
44102598730187624.000
43571928101775144.000
37759702967999408.000
35469571194229416.000
35059372210419552.000
18703428503578504.000
23039568190015140.000
28752166615996956.000
42690275122349680.000
24062125280827128.000
12337199247207660.000
6245417542225549.000
8489536959090094.000
6792272739077252.000
6947158252928716.000
3826621038339970.500
2043021869658097.250
1832845472080030.500
4441865063383555.500
3443461294345850.000
4299364521160006.500
2424597675127798.000
2426017360134959.000
1265077667311829.500
1057554275742282.125
1050634248135510.375
988420706666134.000
1238552018292743.250
1057660903160875.125
629217301085041.125
1473461026125036.250
1140993091501590.750
1191257895714937.000
1043609402957717.250
1506967959910007.250
1405504016303489.000
817668891949191.875
604631679655502.125
333755126251057.750
452169798638787.812
551670668301475.000
1508539610657309.500
2449588230853453.500
3788835245187164.500
3879959507289381.000
4529540366477979.000
2566168103244939.000
2345415949939690.000
2028321156127958.250
2512749130092887.500
3651475648267962.000
4616272008222908.000
7155169514724705.000
5760742317840156.000
14769292752210520.000
7614737580381891.000
3970696330278427.500
3655655600038234.500
8338050198863239.000
4897256559525557.000
2584300882755614.000
1902482719474073.000
4223842436000419.500
5782377575219102.000
7297507400051210.000
7495903473824468.000
5954275089822074.000
14795538191889922.000
23738558103684244.000
28674601912089752.000
19414587797961468.000
41822729855031448.000
40287232192815232.000
80985645226174944.000
70828575813623000.000
161881355043209504.000
115917812285827552.000
69122017148359264.000
70771370928723680.000
69367782466317288.000
88117907041615136.000
78438266309365616.000
46812103373430616.000
92568973469543360.000
47149691919579952.000
50448523544685944.000
44317479776787512.000
89715719787839968.000
74493156173094208.000
85795844548151952.000
48078317014474928.000
68561159701516144.000
91975343239574688.000
61968795667485112.000
89421478191079392.000
74556989886893328.000
43327347801693760.000
37677615703774888.000
39860925930371944.000
20518439317384180.000
41657239494028760.000
39795114024056576.000
35112948389487556.000
75479003299228560.000
114385570846829984.000
300553841893672896.000
209202019317280736.000
271427925660493760.000
228433115983512480.000
508180064489597504.000
719719319532008832.000
758642274468892544.000
654420522979201664.000
372250734988818560.000
794822708309952640.000
1642134453763740416.000
1712172575035509504.000
2087263320431818752.000
1192943200346671616.000
1370201487421890816.000
1753810552846389504.000
2315174025057486336.000
2162500124023641088.000
2257887341893508864.000
2926066004160148992.000
4475523876384324096.000
9304862516347643904.000
7144615043472468992.000
8057265985520858112.000
12236650139430004736.000
15593197242842906624.000
17288021620269162496.000
22647330196843728896.000
27569081163738501120.000
14330955085206337536.000
29102737528708349952.000
39655489196340387840.000
51116737883457462272.000
77188279298093072384.000
107162039373433995264.000
84436548028669820928.000
103836031996457107456.000
56652141380052426752.000
41341878734539587584.000
40179988338757648384.000
23438053236344844288.000
22233850558949744640.000
47872001605846704128.000
54010413215701843968.000
59682291093964668928.000
52463977223741341696.000
42628520078269751296.000
57904738536939192320.000
40770330043931566080.000
58631990847804260352.000
57403501056077209600.000
56195082296967569408.000
91544094979879010304.000
104277933213195501568.000
142381653829705105408.000
157709250646780248064.000
80214725955043688448.000
90160889781146533888.000
106166608154977107968.000
88050407041467531264.000
94313647807364972544.000
54766640887865212928.000
44814603529823010816.000
25590823677996015616.000
13407580550338410496.000
7836742641134534656.000
8994622351458905088.000
13625803067256039424.000
15621745567668477952.000
8992639094852972544.000
5380317944710471680.000
3023285839697376768.000
4271133604283008000.000
10047056150796128256.000
13305457579228581888.000
6868617265067993088.000
9300492684770967552.000
8902981410443593728.000
4797108144075298816.000
7638632386720869376.000
7564257043235760128.000
3860482382945691648.000
4456367130910479872.000
5387904596295228416.000
2797521722643827712.000
2837015430550150656.000
2137906582174683648.000
2692910942546715136.000
1544068351446256896.000
914148718463682048.000
469669507583518656.000
437082331285545216.000
509973559007894208.000
481368717742896512.000
746494594434754048.000
946022432975594880.000
1425043671974424064.000
754145570039493120.000
966091563502969344.000
538325546735468736.000
417488693911206720.000
255760708056426688.000
150704237435998528.000
91100630899207936.000
68321040389644608.000
86761846547097920.000
123833606173773360.000
69158994613533720.000
157526447181368032.000
135809403026353488.000
151647661842950784.000
199598761175078720.000
233153935535501184.000
527111520913249920.000
364200257927457792.000
532665067444301632.000
371882245807752960.000
778296829899468160.000
729424273177141760.000
933735262236162560.000
503257643050219200.000
298062510373441536.000
196099066100331840.000
229423018051795584.000
134024704010257600.000
76627708520124624.000
44994326560387392.000
23670644015571544.000
26373679475947512.000
39159026547185024.000
23281227776178672.000
19116087856765988.000
24082952866991344.000
20207348615072564.000
11897423012090130.000
6846482743027576.000
3820515854362288.500
3424036226739613.000
2074304355640837.250
2302297937847274.500
2531129131630157.000
2561544501331833.500
2294771997026392.500
1273595145395063.750
650574901202493.375
345362771110578.312
192002313691222.500
244259188744972.000
125020134641098.219
140956280371501.844
180689518719273.375
175079924760088.562
98972976736934.922
123234667071573.656
68220805511908.438
63685094487866.914
137466571746865.219
111376809293133.797
57478106500693.508
78036764357096.438
73225533398850.391
68113086695620.922
80845613968068.188
108273514320742.422
106159915984917.797
253247318716014.438
183884782278800.312
245318301992780.812
135992984680131.469
132056260952982.578
122616333216936.938
174859984428957.594
94152240747371.609
57654335286272.773
64902057362703.242
95902311774756.531
145093031975128.688
229995615562927.500
339693871860279.750
194508188945468.719
442654842486218.688
601637261471666.500
747119025696310.875
662390484393943.375
600900463430295.875
664086532641582.750
801740813313105.625
603124382130820.500
591247354040239.875
612806667050997.750
1358180329055817.500
1350693585215551.500
790125324878858.125
1264066382496070.500
690974466070892.375
372428133115912.500
221576659933786.781
224073163389875.562
261838316533210.531
246757697387384.500
170077253251945.094
360403358531442.000
796047018492914.750
1255860307187612.000
1068559839013564.375
589771565773321.625
356985849531994.562
336344380151394.750
173607075147055.312
244204712152916.812
203865262466830.000
245017319188981.312
218721997063170.406
115299300758688.094
62959666430239.914
55596550949529.320
78624441022583.922
41372232614385.094
58808222979521.320
29671090207571.375
77334231464922.781
107649886847915.703
54555943925230.852
29817284788990.836
63046763301613.344
62043780972258.766
63882151128045.070
58443145337720.578
35492973309276.516
43654840405423.852
61744383572092.734
74940395982540.641
40754830437019.000
44768501822886.453
43157127107279.453
63702585807232.992
68924556062760.500
71160744915346.562
141641869366131.469
206468302504004.000
192704412618442.875
421833246038202.375
350711730073642.562
808540982343636.375
1171738110233143.000
1195304712529593.500
1188649701628705.750
622599587013883.375
600820431151651.500
307672484810688.000
388078669002075.188
572860756401857.250
642606868932859.375
377849045871722.938
816499290148785.375
1136733518618477.250
1443471701957949.250
806156174354533.875
1013072737771605.000
1311395861879173.500
1796288308503343.500
4164794187585815.000
4842419852853856.000
2482969754373752.000
2669065333044161.500
2375069701077039.500
1988552840931728.750
2689410395652753.000
3397395310103058.500
8179387905697972.000
12986455646116250.000
15357362282325228.000
19481318328218732.000
49520862328599232.000
26734149613746348.000
19086630088110384.000
24908878230536840.000
27506379818212268.000
15768035390289428.000
15126202259852128.000
12633984122463612.000
6511965990244865.000
3868845857969740.500
2102032956336046.750
4237871965831875.500
6474795215988361.000
7870977092119029.000
4686308544312259.000
6504753783208863.000
13878414781527550.000
15447373396294780.000
14152341647227622.000
14237662208631090.000
10377677625071452.000
24883576845938984.000
50741641890032296.000
51745236513488416.000
75380832022560688.000
41841973124703912.000
38855690903222448.000
19535683243558776.000
10955179691587852.000
15141110146082476.000
7766331253353520.000
6102629353721938.000
14418967425836554.000
14569014382904522.000
13922548934940218.000
19821996149962508.000
22994210222694716.000
11408130157858086.000
6889269164780760.000
3915474604905296.000
3876139963155319.500
3661729745433243.000
2082436092411441.750
1103731985520111.625
993544442747918.625
1315192183254492.000
1289591870088504.000
1060755353192824.500
1517902327657331.750
1394274643909227.750
2163079026397484.250
2490039178304938.000
4947402297992438.000
6999510678530697.000
6941078915388855.000
7053164704456799.000
8405488447275024.000
6282096751088176.000
8845711556589479.000
10730845707723270.000
16003435653625532.000
24504373780569780.000
19938254248305148.000
18724024294540192.000
51002645888679424.000
37008964058452432.000
21050519110118060.000
51076567661422376.000
39959197393655584.000
20826275169993044.000
12845945763769846.000
15110780737186868.000
21062684725932848.000
19018131016104500.000
20745115469418872.000
21232817726152540.000
19299214092609324.000
11848125649339260.000
14761268482538316.000
15883931739290896.000
15593167607743484.000
8904458996904703.000
4938255131854761.000
4386183090844963.500
4245765621312589.500
2582823316899762.000
1507609009299920.000
1192838565389684.500
1038312327870527.875
582952271631771.625
626502906618607.500
575417055907319.375
320283195229601.500
429811558591156.062
350752756989535.688
215998820444846.375
171043254860207.344
95938499043838.156
114384870260065.656
66368499270535.000
78110856636259.312
71387287989382.953
62971827832639.320
32885033782258.723
18074680648119.500
37120993442141.531
80749641303961.312
42636366719196.398
57644059597365.016
57260800258978.188
123846042898043.406
63432571269195.734
53771985564740.773
30591420079283.922
75426468232068.375
57848057479474.961
29445899619942.887
44242959542698.773
68876502621999.094
69130098166628.141
39748220685779.531
31462408144037.535
37695201293646.641
78804951503663.734
43405372566802.992
62739844717158.625
56450458401958.344
128945647526342.297
184884026050583.688
248891491904818.094
356355206323999.125
186575472771155.406
215246468570011.594
193323479909662.594
456192979218869.562
247399333945093.000
204230209916397.938
438533986687062.625
436077089189489.312
550814972066639.875
1383784052783776.750
1258343259168915.750
1986027626670810.000
4580589898056330.000
6627297413748048.000
3474772514388577.500
3451490379767842.500
1965283103836703.750
2300348273929074.500
2183626026576729.000
2586277694525860.500
1354081684575071.250
814645743571514.250
657161517042624.125
685269717716526.000
1046309840682763.500
1412803750828338.500
1061500013673547.750
1288445830966790.250
988414771431779.750
1328123310169644.250
668168164970907.375
402217647804835.562
565317896838833.000
331712321394137.375
411928767965866.688
426803764838419.938
218206297940315.562
258144680531479.844
407955015273242.875
826120510213242.625
432632087303564.312
364140110027900.000
366746624001595.688
842368314645585.000
1168890012350344.500
1281002542514052.000
2563120885518161.500
1439212906653325.250
1380297455483584.750
1916143771768526.000
1793176389264343.500
1853068382651437.750
2367815239137360.500
2188056651690754.500
2309314105578107.500
3684297118012846.000
4852146171603823.000
4091255909526718.000
6345860726515882.000
6839444596116912.000
7028654610035782.000
6301515880101696.000
8174868062416875.000
6235673438593256.000
5774918268409739.000
6677324227026044.000
15734240476874606.000
8352095455003232.000
8808401942350162.000
7465449940182366.000
15370459537542054.000
11292424721394690.000
11681471384723192.000
24855416212260836.000
14299457133673206.000
11567209880761470.000
12238828058461660.000
6510101876368635.000
6742250393238750.000
3363182473418535.000
3435314701046161.000
3979976530355445.000
8039718513110337.000
4785602031515005.000
2462124640081566.000
2273133091263092.000
1184256032358717.000
671707586157376.375
1520826483797715.000
1421254559235980.750
1049732021234970.875
1412613938502763.500
1219274168207886.750
1259535972590508.000
1039560146942613.750
1122006887748032.625
1390290770106082.250
813827435900653.875
627669629723796.750
752959850838488.250
1207770774158854.750
684972571776063.125
1081882727755272.750
1380050490908099.750
1346298683746183.750
1491863920183983.500
1354523169531057.000
1394817139589205.750
802063102189844.500
406040082574283.562
422685364793125.812
212559279408782.219
124481343214801.797
144290846183864.250
216052810866151.531
200502732867596.750
406803399783266.625
214253153805684.125
227257002330155.875
125732790662213.234
130902500118481.656
138623232900066.141
99695232020465.172
100064973275804.391
121314425638101.859
72240261570715.750
59993624472153.273
37008152332984.312
21741267255865.543
24409601439397.703
24046010527603.379
23432311547909.980
12132205048796.695
11872384163014.303
6696559710353.230
13388404460989.844
18806980147573.824
23847893442990.902
18885988090945.133
9895834750704.732
22596620539681.387
12156229026338.441
12059478244931.160
6161082787720.710
5328885488048.539
12639661924063.279
6589435790909.908
13563877986043.117
16955318341091.232
9419537982838.055
20506547530003.016
30426798556105.363
37569761475981.625
75021047260967.312
72820954630605.047
43703196483299.922
35184077664028.418
30663818883827.113
18290294432291.352
40080585792378.148
80186493545898.984
80476854210070.781
63318756956748.984
53737335392690.047
57405687818534.172
64943008014409.414
33921052850436.336
78184552686054.734
109857743700941.859
56248583567918.742
73100970676143.406
38084281614959.117
79867537044919.406
66139199401533.234
61293237861971.164
35965901146976.742
39120307678581.531
62048115952321.719
143116566232059.031
208447498809068.906
206148787224436.750
170512190050667.812
258965424952711.312
355978216186630.688
367519145564712.500
333853176008643.438
738540778719144.500
1477269334632911.750
1247894259367193.000
2742003112160333.000
1467938672858676.500
1094250485200974.125
599381528009720.125
559066602434694.750
698824241291718.500
739203613130248.250
384642916448619.750
383753939535158.500
306584150856717.188
395368574591553.438
467386712992632.750
728613218110750.625
421401361996350.375
344511800730251.250
317959221787598.812
180961859268031.188
251348838631089.625
261710406031162.125
306194376692804.438
799246933383271.250
1301554422452865.250
1299143340257918.250
1239484322451755.500
1095885054379854.000
1487659706178634.500
1374469678618125.000
1177719282441501.000
1108543551782972.000
2260607302918421.500
3320426787794661.500
3416213297192139.500
8106555037346489.000
5905515261526985.000
14651468916929626.000
8133723588544704.000
8381471938644589.000
4237514842996466.000
4365991721717787.500
4647112371086884.000
2397414448721192.500
3323373157552764.000
3258068300555250.000
7135164571837443.000
11139260203651900.000
25174668801911300.000
15264829716837618.000
8457469599119271.000
6930314116712664.000
8009167030144749.000
11245903100078510.000
12762112795802972.000
20390207216084264.000
43768529181716640.000
46632895416641888.000
35299029556035640.000
43521511209137992.000
39672858355429536.000
20117959948591796.000
23074761179335344.000
22179053531846876.000
24975231765922908.000
19430088621512860.000
23711785903866324.000
21173627827385000.000
22487086708788396.000
45474714768541744.000
26122959982078288.000
23488093452851804.000
24726970497130848.000
28374664275451704.000
20272686123500376.000
48572884304541568.000
41255299347048600.000
48298380835025168.000
63478177015534536.000
88682389987581984.000
124773030891059568.000
156810095168881184.000
93118807117471568.000
142211257513652256.000
168141761606510208.000
159156375042585792.000
88988957101517200.000
68127272390958784.000
68254677400279104.000
167196802662854624.000
212457650887712096.000
119889426227310432.000
141032018268291232.000
82630323591711648.000
121216956477000640.000
138269236539852496.000
109435127846859344.000
165801897616331008.000
159760997168724544.000
241558399276218464.000
133865603463108528.000
70735258809025248.000
41274896551279872.000
49985694726030040.000
49691557864151664.000
41585674551948728.000
41891879281815192.000
92769755884589632.000
51912795237816944.000
71283194354171664.000
66438903596554776.000
148666984310556896.000
122732581518220672.000
158809447346079936.000
83724377718315504.000
44552181676173168.000
66698529978345824.000
75512727644040304.000
77342664945364464.000
84720798490374112.000
67327765537969816.000
69751426680811744.000
83816789083527760.000
70085798091593784.000
92180295548799936.000
115941153085738288.000
269925745222930528.000
137143339092006864.000
70679248039533600.000
66935106690510960.000
87256570053396480.000
115263670817229296.000
135401907926348320.000
70112083468575704.000
69412919313515528.000
78630092515951264.000
45246221451965432.000
23287626125762184.000
22346139597356308.000
21488588208144328.000
20696885937306828.000
51590445963708048.000
48330899323052576.000
50027942590721016.000
36765751640808416.000
80108799275583360.000
44463207677141456.000
22774869216916604.000
19973243090335436.000
46092814269758448.000
62919983897914656.000
37719158724080736.000
49350265403915168.000
36433700113707752.000
45352006875892144.000
25098139055013428.000
22088532206860292.000
51239942145879936.000
33974842224627792.000
48427603756529760.000
50380450950967280.000
46397899629581872.000
36998383918501816.000
80723848043954624.000
61572673905684680.000
75844211496560048.000
61464459031849632.000
74296512175227440.000
153513119988200320.000
81974912733169776.000
89754601726870384.000
45512348666936632.000
67975823383681856.000
89894300099887888.000
81794371051553136.000
91475778372598512.000
79973589395214032.000
42543252755063360.000
23037734612776524.000
13667965619558730.000
10431607027073556.000
12690905065136564.000
13991284183341628.000
8402493807020824.000
6606034427254010.000
5891192392406705.000
15606626803618346.000
10616274743391878.000
25919356762801644.000
22759225892556680.000
28270093936778544.000
40822393494407808.000
50350801573004136.000
78221232239902432.000
47814299111583704.000
35894656762053748.000
18951302344559588.000
10935451240791274.000
11418500794949356.000
12991967072295456.000
13740301992599202.000
28641892824210980.000
37029079647556176.000
42522755284987056.000
46697572509544784.000
27761911360285180.000
40921406327613504.000
22199130381584144.000
50978295424354232.000
33985560715923340.000
87047969608596848.000
75491050551754320.000
45523888303946552.000
25083979756437644.000
38161745423954616.000
87170795652377504.000
71474487789953592.000
36540694340473152.000
74746678410965248.000
72278284143936432.000
84020257159116768.000
84135550756610256.000
67226546216769392.000
35086468820646660.000
41480939142806272.000
21390971860453224.000
27267075764733128.000
36858527974346648.000
38366110953795176.000
88558256056114176.000
46452533931943024.000
27360519523255816.000
20114400014437740.000
44596243380039384.000
92242744757109024.000
75041860412999520.000
150500148379885888.000
299828085142010432.000
295994515328013376.000
271018934224935456.000
388262035722721600.000
447282449174383872.000
693753367606342912.000
1580641002554207744.000
1747699265594611968.000
908173275192022144.000
1477578425351574528.000
3109488205861825536.000
2826330915976026112.000
1538183779453414912.000
895842412851924480.000
1444756770356697600.000
1684778192528728064.000
1252652047682983168.000
731028647821912320.000
794685280752248704.000
411756353759362368.000
244111889658915328.000
199804943279832000.000
289083357838773888.000
354752202206457920.000
825435034267091072.000
484182724058719488.000
267242330014586496.000
159866235033540224.000
121513198514760208.000
141174110303458656.000
81802978136885808.000
44526532988033112.000
47392702130949016.000
45684664319533848.000
62748807330274272.000
81111330359017904.000
41166840186840808.000
25149765105197856.000
14070220426454756.000
11026964760083634.000
11451124656903854.000
23228192998688276.000
22600537201989088.000
25435086136583512.000
14484315837415996.000
18749134777655544.000
19377136296327276.000
22894424772100140.000
25094863684058460.000
19226149296896952.000
22868108392228476.000
11777131766240330.000
6935686721214878.000
6066938637931624.000
7708775928377129.000
5620548272537191.000
7884688713907542.000
11151121635320368.000
6264619024633278.000
14576449353274020.000
14258051168838942.000
13623259058782230.000
10501991873757660.000
10474718322666484.000
6051076341672876.000
7097942373418710.000
8701453717364441.000
13434837196432416.000
21021701112700052.000
11604684264592034.000
26099733974972524.000
19117740480982992.000
24327525860340336.000
27776832452053244.000
23399882017916568.000
34873635342749176.000
34054923649152060.000
45417500932666280.000
27679097337482768.000
19421969315793572.000
41818442185743416.000
24986257227801952.000
40042664214518696.000
20817346212264620.000
43427094005046696.000
34679245226735356.000
84785802204883664.000
50331822583346400.000
49246729946600800.000
43644851544860304.000
26197519932467820.000
26778002493051036.000
22327617745678344.000
48381627752401576.000
47261283758889888.000
27086513270664840.000
22929774620740636.000
11918298255365598.000
14737804763417772.000
8450519834477022.000
6085723127338134.000
6312467984505014.000
6532071345388630.000
7434029651873379.000
6567119567142715.000
7525644926624431.000
3876772087157842.000
1978559081023788.250
4073897365955802.000
3154762797517264.500
4271559613257593.000
3478582066573918.000
7896262450769739.000
12100206644425344.000
15451947371392446.000
8222210616165844.000
5724863483226324.000
6400367209772876.000
6175917963740070.000
13400771585518162.000
20159736284512692.000
10666171493183616.000
15171843009853912.000
11027110017318868.000
5900801669614122.000
13094599882519916.000
27345447861450640.000
27193369205427720.000
20508587386113168.000
25938061612943560.000
38969339816502800.000
37747620285658640.000
58399571508726712.000
62598023160113488.000
87094219932581408.000
61938797453252584.000
58076053315604656.000
121179751401215840.000
112919416594719120.000
151588751284326720.000
140176780855205568.000
78546672034915200.000
74824544877743920.000
62742378120767784.000
62718879649527912.000
35800885789285992.000
86683709034490464.000
45650855552097712.000
58146568358119016.000
82798285541731232.000
44409647838917496.000
66299393706813128.000
136535990570976496.000
118272791173527392.000
69265866807514512.000
35819148791976452.000
40729524451312608.000
22276158488148348.000
46105066924500816.000
27301647665697716.000
39838866110895320.000
57859540556744688.000
36303724696856680.000
85295843599120912.000
85497212519078192.000
49328745060483368.000
41863205295295760.000
46755384981096688.000
25881796719505308.000
33636340968864064.000
41467054617239968.000
20657940452659788.000
11877708985200754.000
13644316673090196.000
10428547120370580.000
12567719543029740.000
27234549087893928.000
19371794579438656.000
20699634188674868.000
26893595415562792.000
19950638287020360.000
40436327307174656.000
46817066849761576.000
59604135914889480.000
83057910403132064.000
71346458793022016.000
88264342356683408.000
126358321834207152.000
138007200406558992.000
162885475972966016.000
157981783167332800.000
197991856661250144.000
284187671895565664.000
251513262142424096.000
225809524501174880.000
215830800343300864.000
284264903149178048.000
344711826146016768.000
523240926520568640.000
508214650253577792.000
257967347023269312.000
267891983400877280.000
426253424547141184.000
221628961645419072.000
194852804176642368.000
284351543445620576.000
288713406131407104.000
360502442747656768.000
496552077865214208.000
354653543431127296.000
402493362077591360.000
232963116783106816.000
141167035847436432.000
114869303597530368.000
62059491113557424.000
66057635051550552.000
35506288074180780.000
75823776579318880.000
164551507007203392.000
143959024367754016.000
128471057128027472.000
198446352396249312.000
107819331829205824.000
66470453606287832.000
146771885378594240.000
86355622356730672.000
47545596140013576.000
66530803059006136.000
85239969583310304.000
65478031945969496.000
74869860060553392.000
167826000768202592.000
92282572504818192.000
115376355649557776.000
61325686640597656.000
90220691363767728.000
113752918721311264.000
146850602139361632.000
212209955700126912.000
283208025109472992.000
258028009223269728.000
415973883095584832.000
418038350566231104.000
514520067620910208.000
468619852501048064.000
439016756090555328.000
491580349459403968.000
745696347585484544.000
439168979271574144.000
364213750176398400.000
783553457824920704.000
931397295964852864.000
814476158173939712.000
662416874785294208.000
713089093756194688.000
681472260584802816.000
985236292203638400.000
1491990946723412736.000
893373091207900672.000
955877128346797824.000
810814661848730752.000
441677478258444544.000
434883278083915200.000
241366951909231808.000
527571339469217280.000
674259574955857792.000
966786714980190464.000
760423027992139264.000
828764336975315840.000
699828577175284480.000
945307279031600640.000
994926750023410048.000
1233068533379939840.000
1788523486978003968.000
1322409308638996224.000
772245057936375552.000
422500878749232832.000
489182288983824192.000
705696773707068544.000
421608534607854656.000
533811668717835520.000
444403735032944512.000
383250485382763392.000
540517961459956480.000
307413947988349632.000
229781223797558976.000
260489137194797984.000
292737340177602112.000
448401705307125760.000
228298070392562144.000
542058735987143808.000
424375730279108992.000
224431929866815840.000
284417882115277952.000
375729122530942784.000
894618516009248896.000
512219351448595520.000
270203785632207648.000
311543412484447232.000
395207762301219840.000
820200963186893184.000
890235805885583232.000
472369217093882944.000
729625652222990080.000
994987802094226560.000
526226567689889536.000
504484087814310016.000
293565836912384448.000
224441107944697504.000
118487884771755376.000
171301970353232000.000
262459451049330368.000
532583857868475904.000
444934486793286720.000
486841841310184896.000
1017499375187315456.000
1275148052929921792.000
1648647165148032512.000
1242141978930892800.000
1821614595852475648.000
1421144719970292736.000
839378761412106112.000
916821315948684672.000
1823586416868139008.000
1669465858533319680.000
1592086972693868032.000
1496960113372442624.000
874849306918497024.000
981117410122449792.000
529334784456719424.000
276658520017983456.000
162470535909899520.000
152368242955919616.000
86347358854815696.000
123779610920736112.000
75944525165217296.000
98678487515512560.000
83033753815717808.000
69950201270602064.000
39234872131081672.000
99426762906397872.000
78892921727380464.000
174367274244618816.000
131786552812249968.000
317882628681153216.000
393785665784386176.000
514497039211660928.000
288897613348953408.000
309663222793690176.000
170442446675148224.000
135359110352843200.000
72858568024581504.000
84458658262863888.000
46358288053058080.000
42851327955853104.000
88078278416161776.000
48342171229842160.000
55954832257911360.000
90658722108688016.000
139855937460987552.000
72772994829623088.000
147247878213781600.000
137243732088623584.000
128384009250804000.000
77141509150690208.000
92089976256299648.000
47148232279492576.000
26748465767025460.000
38471755380856760.000
22329848544796360.000
25277882743376316.000
26637517283323092.000
15361503565295578.000
13316666265258270.000
17008502721319656.000
17072502682035978.000
25033612350937936.000
29374797287592744.000
23842198386870324.000
23040513736714328.000
13216574665868990.000
7766092522719262.000
4590153486333483.000
5121921617903100.000
7897540949764182.000
4725018615643911.000
3736579171022678.000
4267772481000903.500
2333841884060821.500
2325707244734786.500
1355070295779133.500
1180811427466312.500
2605272941245496.500
1572803365704889.750
1132000620279991.750
1400530299673654.500
2866909130704287.500
3982983735405120.500
4451781830048571.000
2570251857648792.000
1333129826580508.500
2056825318483136.750
2034728501017304.750
2826844605137614.500
2271293243840624.000
2119162890749723.250
2116144824077247.250
4905262486814569.000
3723301266401152.000
9133565327829726.000
7288234922593730.000
8783634875245625.000
7889921191780079.000
4169918696219081.000
6659526490460205.000
3753056655438298.000
2213504018291252.250
2531882027435523.500
2881318077774661.500
1524792529167081.750
1357614191644455.750
1974383871180068.000
2210666268823149.750
2514101221041762.000
2818668742290747.500
4034812595789019.000
8371548781398625.000
9046731661908102.000
6832925905539789.000
14350417974624822.000
21228849489007992.000
52832002635176240.000
75777416593445168.000
153648001101318304.000
124761883768859424.000
305537153266994752.000
236097616820120608.000
287034180647670144.000
154857928059208928.000
158404396783790080.000
130629138588738464.000
74408820883074320.000
84166491777068256.000
46143702664873872.000
51557117882824736.000
28329142363498136.000
22148681240861844.000
22194107587343924.000
53425153475363272.000
66727380021786720.000
87811260452069568.000
87592135408003984.000
67742354681686944.000
148764475681998816.000
151541263195626176.000
90781663017061344.000
97247090722485952.000
49809555959797504.000
26609623115001304.000
14199166647255728.000
13611023660065854.000
16246905061582678.000
21642858676263828.000
22264147560186404.000
53320811290599960.000
48385647167110264.000
48359386259662152.000
71766920970861008.000
42925968163512104.000
95025402507080176.000
52907480917220200.000
79200934103802064.000
170814941483108736.000
144149890302517344.000
160491689363105056.000
155368947993515136.000
138030101292376752.000
170075431964549920.000
152299433074228640.000
230983792272997184.000
528493863990501760.000
849062873828213376.000
1351830062205300992.000
1550002488295575296.000
940116167300875008.000
1231693621588755712.000
1644875888675394048.000
1396047339746817280.000
1261790985583620096.000
1204506964623668480.000
2982907780437751808.000
1740456697450086912.000
1528816924702698752.000
2227050049196256000.000
2825289619894148608.000
2219636834416126720.000
2874460140635030016.000
2573909209508849152.000
3153884206882319360.000
4410932562501515264.000
4372004926686582272.000
5488000468390376448.000
5013343028209525760.000
5836579518672918528.000
5305016018196804608.000
5165717118922212352.000
7527847470698614784.000
9023747492420921344.000
8115703234553295872.000
9181867496073935872.000
5267710646730258432.000
3916261292627123200.000
2433471913856200192.000
5692088190514865152.000
3058670628792386560.000
3013191281696812544.000
2815104567627883520.000
2339224049352350208.000
2830355290702137344.000
4059286929170738688.000
2381759949531097600.000
1352064149640630272.000
2956595306557624320.000
2227664908536230656.000
2918583065296807936.000
3219372022281575424.000
2284145030272504320.000
5308395929292614656.000
2744266992623684096.000
3031176359844407808.000
2597176593199396352.000
2264580187041425920.000
1370669591428002304.000
1536371067942305536.000
1313147903640012800.000
754134403272979840.000
933675453554190720.000
534246312481329728.000
549441701795000576.000
853379561732410752.000
984579072881828864.000
1430153718017928704.000
1175995440268176640.000
2623759966114605568.000
3051978774724826112.000
4280909283232550400.000
2166502851642683392.000
4516243224900264448.000
5362552744743003136.000
4275379636808977920.000
2342855308059646464.000
2357247510294139392.000
1191106971295721984.000
1623540255834815744.000
1482130739799191040.000
1373981815030781696.000
3128146035317223936.000
4074791913464834048.000
9246413985672685568.000
9613449062333677568.000
14690911408447328256.000
8312888797032478720.000
9956848122275166208.000
14739411907952472064.000
18168444021063993344.000
14075785718447454208.000
22109629887757647872.000
27071443800305672192.000
29046483277764734976.000
33205461548816773120.000
41697802576956669952.000
57822873964782460928.000
49841520451164299264.000
59837120882158141440.000
50537646725714649088.000
81476108880620421120.000
98634518403387392000.000
86303462977364148224.000
43318436127191531520.000
24502488059325255680.000
14121755446794641408.000
17087072492604657664.000
9277766617255600128.000
7780261377496471552.000
18013842512186462208.000
14793254838020554752.000
9075992127257398272.000
6707871752873749504.000
18440155080545794048.000
28481802256710115328.000
32433138770521415680.000
48326229413369020416.000
29721684091608784896.000
16550527577845958656.000
9606831088721885184.000
8653487080124337152.000
9754184546397616128.000
5624664983792399360.000
3954344047001546240.000
2465811911986254336.000
5529857521970180096.000
4850112275743372288.000
9756211903531419648.000
7725725373916179456.000
8784823317107601408.000
13419245710588045312.000
6728445360158480384.000
8522422977376465920.000
4335579214162644992.000
5381711335669828608.000
5578120870660998144.000
4629695829504044032.000
4307741547049952768.000
2315662912330515968.000
2246391390964253184.000
4859348181735556096.000
5225165945076040704.000
4692773729475432448.000
2587768696985365504.000
1514271961378108416.000
3158886542706917376.000
4642392057996817408.000
5296631727324446720.000
4011323897705614336.000
5195992272014062592.000
3832203804140612608.000
4397455059003477504.000
2291623454235764736.000
5026921523877331968.000
5584285204579184640.000
3796329824339721216.000
5224508664364514304.000
6913704443598887936.000
8701073941838093312.000
4631875849928868864.000
9268694047112773632.000
5232728921055440896.000
4980739498535355392.000
7485526727919170560.000
9131516677032606720.000
8016060805253179392.000
7045897794278466560.000
8860560519353164800.000
6774277999681741824.000
8522641206702412800.000
4893828737893552128.000
4533500670424442368.000
2590903706058680320.000
1513807259899238144.000
833947550797830272.000
853652015713542912.000
1271481336704666112.000
2854210019189903872.000
1458512397251724800.000
1556328138409148928.000
1531944053124129024.000
862392341402683520.000
774224803859213440.000
446978422131136640.000
710172736663335168.000
883861981759331328.000
858240943637097728.000
456827798323673216.000
248438994068817408.000
147558558495315040.000
76681099051620944.000
40145015881207256.000
47891512270276280.000
75841904064381104.000
46030569632692400.000
39586516514408568.000
34554711894276660.000
48469307002580024.000
26280423342607872.000
19717364224823236.000
11711666331815158.000
15459472059025634.000
11015085256470040.000
25701449651792824.000
39662703850516512.000
89091443228206160.000
68212770713674776.000
158536684241942752.000
92112824179708352.000
80607019380701888.000
65743770727816320.000
140927656902133312.000
167683794165129216.000
112982467862331328.000
63541757623053128.000
75235761549435760.000
92885089695600384.000
88162837650882096.000
88836719486508624.000
115869225695996384.000
63013533954570496.000
34983149222931892.000
35012863201579900.000
20156911877472976.000
20560842726896604.000
12725733444790834.000
14887666554114686.000
8670543123901327.000
6529191325606835.000
3237777448965692.500
4661335013418053.000
4321041095208192.500
4900959889720761.000
7982651070553861.000
6601682530698705.000
15332974039959982.000
12763954732209070.000
11908261416449064.000
28176874539093432.000
37288961757899688.000
19527736484012432.000
21365565130403184.000
25129741350712208.000
39007086507136016.000
42568601273396416.000
35495754512642108.000
49570646890388984.000
35020630109459148.000
20229170726827492.000
11552791964255582.000
14030148391218160.000
12171992832977588.000
27754846640424392.000
23304537211336440.000
11921943353234962.000
6057915934545056.000
7386884149336159.000
5809311245508376.000
3339016999542489.000
8674515534759318.000
7099118835159300.000
7832110387341108.000
15959855259553686.000
13801720915703464.000
12175784927695254.000
14805536047941422.000
12760921234454062.000
7118891919008179.000
8352329104835889.000
4944283709748162.000
6506930488771210.000
14599391240549552.000
14261582564868582.000
13785024467644178.000
20286423265152972.000
41010025585413280.000
48767229886770088.000
25122956248930036.000
24863427136444160.000
37931905141294600.000
37146636152055840.000
84050173436537360.000
49802278236494872.000
76910494154450064.000
64859599118935832.000
86383152026197312.000
130017653169826720.000
136578541090102528.000
214112712698206368.000
202099555945794336.000
481546478454293888.000
744622526897895680.000
934297962258968832.000
