40.363
41.329
42.095
41.126
65.572
97.322
231.392
349.290
349.363
850.889
1216.630
2420.423
2374.850
3727.437
3369.384
8439.692
11881.075
27643.184
27566.492
35587.485
35733.546
73830.298
156231.754
166757.530
258944.571
280691.810
431676.906
902502.516
1266342.026
2641940.319
5621141.121
5372499.667
4980046.290
5336045.295
8120403.782
17033704.468
16323005.986
32697570.546
43399379.762
103944267.045
106829491.615
167522938.571
247544175.531
240825178.074
488929486.891
525816399.365
1086539093.865
1366561719.562
2778605506.968
5604197932.935
6035003465.142
5632265580.785
11472791108.068
15127170610.394
13977773867.620
30392088246.279
31508289321.813
32524346131.363
65149106379.573
68707212105.401
63236679058.463
64079381772.016
87421580430.306
178655451229.829
187649402710.916
288793846201.846
603694517012.001
1286508016031.083
1919636321413.651
2721672185773.283
2883549324507.217
2821786625300.827
7576356165215.871
12385233979597.002
16902916498871.227
35653910820077.078
33549764155705.898
52262774884463.883
111213248959044.656
248574209636919.875
353915357691938.438
818341621631498.000
788811096330760.250
998568512096707.000
2030381455065645.750
4120983044293492.000
4101204736869153.500
3874551960173237.500
3749458095380034.000
8407582059460050.000
12770216555665820.000
12231500050221218.000
27785431254454304.000
27124812435101576.000
37272850773648680.000
77816771837058800.000
77377270584054080.000
117019248529104384.000
109926576209396624.000
279994350695667616.000
438137024508557888.000
453890445734428224.000
625526567500994560.000
1373075913041099520.000
819719569782297344.000
464851575752080256.000
270313076280903616.000
235448210430837088.000
504947412089911680.000
291430326668916544.000
149485555501221088.000
163225454815284000.000
216621438110400992.000
120065892850096832.000
265683873451259136.000
208083596876058752.000
272413718102917664.000
191554569632103072.000
425823310227830272.000
241703398612432288.000
250025678852100864.000
146189760409065216.000
75888287942470048.000
152310195801397856.000
111191664646838096.000
262643464283811040.000
206967917004277408.000
112612806383924096.000
135552961233264960.000
120803101887897360.000
64829912153690640.000
67521569203783848.000
62979968120584872.000
61081579409051656.000
87643000979946816.000
47355996633274232.000
49591071201799752.000
45379036599120848.000
32542271077221352.000
19913262047954812.000
45465523852911384.000
25203527776856116.000
18059846800943152.000
18701349628954936.000
26183672502640472.000
27938343528671592.000
23550009998802360.000
26174888203376832.000
14062585396491392.000
10007948794271268.000
23735902551777072.000
50096614807628664.000
43001332011069200.000
24156583985803072.000
25930265238656796.000
21421759006817276.000
23353585997192896.000
37377213393692264.000
20965921218065268.000
20850842612953432.000
42516991618401032.000
66958239185042432.000
39540079272260056.000
24262807043720716.000
23600910947367548.000
26829622198150732.000
19861882432628120.000
10254342919482246.000
13343915616752800.000
11498186957595148.000
18140907465668328.000
18231264892181284.000
10666700101751786.000
12591492400065942.000
10506782960617008.000
5445424183387570.000
13424402431293328.000
11975167434596620.000
6769161999263578.000
8476348019646622.000
4639758848056958.000
2564575005920772.000
3189939295942212.500
4383707190500002.500
3291553253124255.500
2043451578250831.000
1975016343376043.000
2096041325882973.000
2264662635965034.000
1296551045774271.000
747120943858223.625
1137142809890694.750
610729958427452.375
1292533675677038.250
1435807209811793.500
1032246560496667.250
1111715325552679.875
943726207441943.875
1032249935273510.500
1215852340166792.500
719978682530483.625
712687989332655.750
572391673401077.250
349477653674489.500
718956560588648.125
1424110688147299.750
1938039723239946.500
2567298119951182.500
1965873649508432.500
4190713939593473.500
8386658341362232.000
6279368373154925.000
8236758165836308.000
11061477516462040.000
5561289668218245.000
7377178273656133.000
8518359079436164.000
4748036326133411.000
3904244173481869.000
3595258591344228.000
5425492294917700.000
11903272059509314.000
12782692566374868.000
6392061333644777.000
3278778873982664.000
4185033595643721.500
2299332854979228.500
2133270832415023.500
1846927291919176.500
1098473363535334.250
2265466311228000.000
3230662159436223.000
7455101440436752.000
9965951408054666.000
5579738085751859.000
12791011452616872.000
18444546943339952.000
25309787564148636.000
20927015285283296.000
49293328008779768.000
35707666248804880.000
75387641057888848.000
58653276617318448.000
160879899438189952.000
139145947071430320.000
127070461678538096.000
150490282462414976.000
103200037597790512.000
238935487921391328.000
273456763046072864.000
234060560158652320.000
139279808032738080.000
72620168895115568.000
110790893370545712.000
118828656953822752.000
103877359901107104.000
109784770078922528.000
63431481663819312.000
64278617792689232.000
62074620836308496.000
36661340080624536.000
44467591593535536.000
61616941151419688.000
132478201246804736.000
127744036718077600.000
145969039512264032.000
105000816694113168.000
222944903497122944.000
112206985716181744.000
137730887889091632.000
158517888442492064.000
155772509442232224.000
156938698137609376.000
114303690852778512.000
60188886574103536.000
160353649297059744.000
131699947060893120.000
72062380771182704.000
143569652769225856.000
129959828748935376.000
293505296558041920.000
381950111876571072.000
494393818576780672.000
258797786379800032.000
140366969013811504.000
223968173056005056.000
232259396633054528.000
339608478420768192.000
901865830725030400.000
1324128525277223168.000
1301273554919359744.000
1486376349313053184.000
2189196779811125760.000
2635095345774249472.000
2156383446030390016.000
2970997400410437632.000
4489053717298034176.000
2686739918032329728.000
2921296487224719360.000
2246111603399305216.000
2352533064026782208.000
5344789767268823040.000
4279477124423384064.000
4342917568052300288.000
5248167340439007232.000
4552926781745235456.000
3868435240872823296.000
5419927823041664000.000
4149259425529010688.000
2476556277962161664.000
3076306455772245504.000
2061085544750540800.000
3007894896825181184.000
2064157685837385984.000
2057012095039219456.000
2611825010053510656.000
2929542435939763200.000
4777765429924955136.000
2767827941189407232.000
2775681850381764096.000
1632848977349014272.000
1477255559004821248.000
2227705594160027392.000
2150656019176461568.000
2393993746185088512.000
1294132471716247040.000
2771978457390800384.000
3622368232221481472.000
4230310401189236736.000
4197368714203100160.000
2379489182537458176.000
1300467914154457088.000
792176274589144704.000
684162751217298176.000
1448413642149890048.000
793424192904823168.000
473152889735126144.000
259110273300967200.000
148317453978131040.000
83177037138439136.000
64008191163009552.000
83638960357046352.000
75373352624737584.000
90830657456501616.000
83082120624114352.000
83744136326900592.000
71017294649549616.000
35949046983086116.000
19104972502699388.000
11061900221936912.000
6761801732077718.000
14296845519164256.000
15267981924342228.000
8571030802061055.000
11813849255970594.000
13686855620638876.000
20633126447488180.000
43903754399912288.000
70741720999200528.000
149720621856087360.000
158672767731762720.000
82828168650883472.000
45559861215668104.000
38197063673745752.000
42293823262808952.000
37815734038938296.000
47336291555423808.000
40964485997481776.000
92287948789066016.000
79786361447994784.000
43696456908039856.000
69187249737346208.000
151080646880611008.000
78045532284977824.000
77588520077557968.000
39905985428016128.000
48007465861010280.000
43853996813264992.000
51730648414813024.000
35764217159378824.000
18880925122727144.000
27586642071425172.000
24191054025840804.000
24827226692042472.000
24130136113511932.000
26497122960527332.000
27305454735205024.000
14337377051115932.000
7639667316244808.000
6227144191998229.000
13514980113157160.000
11906001802012142.000
13459436663745402.000
7350105944162580.000
3721807406190469.500
2234076696269870.500
1222163569846980.750
1107124612673908.125
2442490697673259.500
1463782423862851.500
2170434460783474.750
2677911115491462.000
1794878091282713.750
4487088147116223.000
2313259041726433.500
1278842276640671.750
1062080577710734.750
614679355328128.875
748490079468119.250
762730569211426.500
391368651658436.125
457571067165982.812
339112094067181.125
422279246721181.438
449080071849356.500
308175665376750.938
392142290960458.500
202439198043335.719
455202916747136.500
443650983270898.125
683917054806174.250
825405546523178.500
553779701248622.312
1499880831647731.000
1455733388071511.750
1947499052449472.250
989930597162569.500
1249005711197200.750
1106165959070726.000
1160165621266728.750
1115132303908498.500
2549220133773831.500
3444562977828442.000
1781183684221177.250
2645478500563498.500
4328322890174518.500
6434093661613753.000
6226101140846127.000
14119538210668596.000
18793807304004460.000
23775182323181776.000
26183818845446356.000
20218883796894584.000
26521069819874764.000
22716039037758444.000
21826736251017096.000
25441371708481708.000
26503979083886024.000
42000675193953904.000
86289453307984224.000
126372670012726912.000
155135841826235168.000
201939866461740576.000
208547637944047712.000
301680653115597056.000
262451824472724896.000
133504349178677360.000
118335123007998096.000
146130497184121856.000
162115348651988704.000
151224027945533408.000
205614408027431744.000
528537667988739904.000
389064191009453824.000
376838299989334912.000
231979078337982816.000
206396421026947200.000
236533663955782880.000
139344063489846400.000
71970961710873776.000
114196318402211264.000
159084593877929376.000
142821669546031216.000
302001774178820864.000
361781817191196736.000
387259840402914560.000
515113368862007680.000
522178119654811328.000
368126171163706752.000
536704666012003968.000
736843749884468736.000
450802345893335936.000
536933477146638336.000
512786939106589888.000
481929768738265152.000
434294657497621888.000
891868005901748096.000
1418102865114847744.000
1483921325824271104.000
1183199604056680704.000
1468910057345903616.000
1621552979374692096.000
1146687208374299648.000
3113365852350077440.000
4119169703688786432.000
3843286867001688576.000
9742550650423136256.000
9737656690525065216.000
8452110021700974592.000
13264147060160415744.000
18316449639516739584.000
12414155450666985472.000
6852452345932145664.000
8564774681807619072.000
8892928333520315392.000
9123145196682689536.000
7734504511392578560.000
16365395583413116928.000
9421510972440907776.000
9240652787248293888.000
18545744835578384384.000
16021736550902499328.000
14516233543505899520.000
7406720626338473984.000
15966496050364741632.000
13715628118564339712.000
16749851819144247296.000
25443505268187168768.000
22575085959948840960.000
22657772262181900288.000
13821906961412581376.000
12210601490572175360.000
14234146440426240000.000
8682158096878493696.000
17241922345369139200.000
14789238136654319616.000
15697891616375726080.000
13825557263973369856.000
18067782573996326912.000
17200592745894287360.000
16869367307257491456.000
13780393047076231168.000
8291285842182493184.000
12818077024477997056.000
7848598785658500096.000
4025655992210843136.000
2115576242830451456.000
2339931727980078080.000
1291266425215282944.000
737824418569353856.000
819991445266394624.000
452931598277131904.000
528571759765784512.000
400992456400829504.000
494007671505153408.000
796747545548484224.000
401477920197529920.000
386470936540261568.000
208523283650396448.000
252857025991661856.000
128590879960199280.000
161064369409878240.000
82307364441754032.000
84584521882027088.000
49680766686600304.000
40240992132852488.000
61402521693587912.000
77173739456423328.000
66461766593118008.000
76849781683665264.000
152494571015209088.000
109162713034241952.000
142438778958749440.000
81495113351065808.000
79632468439011872.000
114210717890921200.000
67700169894951200.000
82736005259024576.000
88566627753015088.000
88168132383655568.000
46235214231758016.000
25112880704567172.000
13901938285705852.000
7982160001413678.000
5801057632141448.000
13022054804425530.000
11206526797539270.000
26408837991678888.000
20489253169600908.000
10825865326106422.000
15559816427189456.000
15170396910338102.000
11725456806196028.000
27076663275623352.000
37181403120153504.000
44640687686999088.000
38609765498274816.000
43690413233692528.000
44468484112041056.000
39696677134649184.000
19971697950473196.000
24511903908321896.000
12621420454700920.000
15439393258394480.000
11575814247735944.000
24997448207116944.000
21596342087759380.000
43323128906078048.000
25864558180648000.000
13955291692355370.000
11675548825426550.000
15434818655102386.000
21197511216332988.000
12850450898087190.000
20163647287302224.000
19416134372992548.000
11085747712686556.000
5836701745258953.000
14967475695254794.000
15676590937548466.000
11506655993487240.000
6053046873639820.000
8419645134784928.000
8374655909827026.000
4400679527766006.500
3850223496640123.000
2201923706552425.500
2636166682075648.500
1488215578479364.250
1387055698663148.250
1482193645694215.750
841601073655757.125
462371081000503.375
425056116524621.000
243629724518406.312
130556189724417.562
138179010580368.500
80855807408252.219
44258488960377.562
57420698344400.047
121972936625095.719
138158695666937.312
131758050484790.531
77182336367617.172
123756145272348.469
116051777019111.984
252912202446007.469
398652358480163.812
602023666744824.625
1478539326426132.500
1268443274392429.000
1169820461981744.250
695651808435201.125
355800438383436.750
201796682985555.375
259685574826537.188
256409073353172.312
323995971856972.125
733358657215063.750
369804975380275.938
589142505825303.375
819589941487851.375
1147700359238971.250
2631998162976915.000
3314832605667727.000
4815969062126284.000
3375461960356352.000
4011320268260762.500
2095378520385457.750
1059829185854466.500
1423951381124066.250
987605710017278.250
1206135902323958.750
1327789774420218.500
1945683789469929.000
1099928619503506.125
2653924527670699.500
2193044276166888.250
3302340261171143.500
3672751674806457.500
3297315884039383.000
3295035580591633.000
7228059898485447.000
14606728312666586.000
10536380968951614.000
13865134778296946.000
15402959421445662.000
8034568740027964.000
5966007961395864.000
6456786940798125.000
8152033386245591.000
8467327735122183.000
4730296550509915.000
3207059653724955.500
3895939555208675.000
2372577618220661.500
1806954601604078.250
2634849441050091.000
4040154049525365.000
4518315156375438.000
6833969999774737.000
3879198315558547.500
7719860107723622.000
3913534611564414.500
3486027728158901.000
2050574227877655.000
2662293025624000.500
1845631355723921.500
3989681184498126.000
3972402906347562.000
4781639134831524.000
3640428383767377.500
4707785115885399.000
4526166825175812.000
3959771739870043.000
5891820693009917.000
6376643998686065.000
14131170577809042.000
15645663725461220.000
21579121055612944.000
12730638657364240.000
26515491859200228.000
13825014176172344.000
20211484185629892.000
19182338964328280.000
27957124464164484.000
44065165915165376.000
39271921290401016.000
91623990623162160.000
89227762477655424.000
92928823720679312.000
126341874949853808.000
196153373552755200.000
486960460327546048.000
671480703410308992.000
697593587342474368.000
1554960882070911232.000
1579643950815770368.000
3168614235293600768.000
2570085387743477248.000
2938492385901378048.000
2144426638838671104.000
2120061904694698752.000
4448785149732350464.000
3902003691450713600.000
3962073167902008320.000
4458493688778897408.000
2326951668085782528.000
1319360452507637248.000
1634728365589916160.000
1144883244987540608.000
1277346093209508096.000
2943682211951938560.000
3930757468071965184.000
8386223230879642624.000
4877681110338054144.000
9764368789075535872.000
7814791512742137856.000
4443203083164958208.000
6817975382351155200.000
4092531441092989440.000
5370630128020543488.000
4264723446372074496.000
5112158102759902208.000
2946118227603138048.000
1571595514140376576.000
797650660380669312.000
675334992036398720.000
742123667688039296.000
1714077864800874752.000
914311433584089984.000
665101518752468224.000
396263944488096896.000
832336782136177920.000
495113588771608832.000
465027286395414208.000
272783492016544000.000
151181678066356352.000
119963137774074288.000
125662336396361776.000
260439554384662112.000
279062332425817472.000
146753264742590816.000
121526999092976176.000
156704740489308608.000
112737833854888416.000
133294882827898576.000
212316672050110336.000
112530749717909328.000
293524689735175488.000
237629345625604704.000
253048927172852544.000
538894375318892608.000
472589396788855168.000
402654713655691328.000
967372628716648064.000
840952410466621824.000
645398859645236480.000
930578954045420928.000
493088080588195456.000
262027979222785248.000
372852284016355712.000
428855465115594816.000
674327105235980032.000
395216142493615296.000
904265945545734784.000
501956397279948928.000
301378845007432704.000
224390203905697792.000
461708100244196288.000
254186737845657888.000
140365271682569344.000
126776511587914656.000
197084490674861696.000
236966489184902368.000
302391755800655424.000
371087418653644032.000
227847076109080224.000
302047433054285888.000
261679345459086240.000
269575302067325184.000
149551879707463232.000
212134037440925344.000
303124564161750912.000
392000245030121216.000
216710356710283872.000
129472521303851568.000
71446462918703440.000
61361520995113608.000
166835112546330048.000
167100158692424544.000
87095081499571760.000
44441482349447848.000
23507531403897040.000
11812778518271192.000
27908923983163384.000
23298497254855408.000
47245821128717232.000
41899923535314528.000
36246097757852208.000
51044999403851256.000
40528208761852144.000
37366615962262768.000
20889123711401192.000
12421192443012004.000
18838456502032248.000
11608262959098136.000
10376422396156540.000
11659357229723786.000
14087459682033956.000
7943409946001186.000
12439469477889062.000
7055101377951710.000
3871982598248409.000
2128758714937644.750
4527551657345936.000
3873199482340724.000
2364576783750575.000
2205699165577060.250
1872265961393333.250
4230768309878865.500
4939612512019023.000
3885312376466799.000
2023105567751026.500
4286871984908195.000
8607472398962606.000
8797950994219499.000
6699695377632779.000
6396140079156117.000
8899053246697131.000
11902983278976150.000
5985463930922015.000
6087706399677603.000
3467005799141573.500
7451862852397281.000
7505130965695749.000
12027380017197966.000
24120142799235396.000
21353449082260964.000
43258812026093000.000
22664093683676988.000
51423239919558520.000
69545602237977648.000
80419003879920432.000
42217211163400112.000
49457769095987912.000
25573253407053544.000
15188615993615858.000
20325964261125876.000
23010951811297664.000
19842116869328180.000
20956801920648968.000
11220952740456922.000
6021034205747883.000
8620592496875716.000
7168648055905300.000
4343016429541901.000
2330254671718412.000
2603883705918548.500
4001183534065365.000
3626541248514480.500
4185877354482468.500
4722288006808961.000
3772786408988792.000
8527878412729931.000
4634392869918888.000
6166642468603562.000
13544157418658850.000
15603489441788274.000
13464785057543922.000
28662113617609676.000
44454981109585952.000
35729998001991856.000
19067209016103580.000
23212521129095316.000
11694797716148072.000
7019895471702176.000
15622460746477108.000
11865678778619316.000
15971015821234926.000
21250304679735276.000
47316636275785888.000
25909454218892316.000
22905898834337300.000
11676162335469638.000
12415069379959880.000
11945158535664586.000
10754233758861356.000
12468365024716004.000
10538998660422492.000
22765887477294644.000
24571056211222864.000
38393341477019880.000
41240766337316184.000
43299770085958504.000
23479908560401448.000
12037021091902332.000
13678162356863452.000
11141460246848232.000
12481035024145386.000
14473009364103656.000
11898426629908404.000
13035821559031444.000
21096067275008328.000
49246731216451648.000
37839011166913008.000
41770790568725976.000
39573266977417384.000
62303993019996368.000
75052710312406992.000
160718172437425280.000
130179216361465184.000
141854106920394768.000
143700095453342576.000
135650952258393808.000
164370161466077856.000
91438146371303792.000
148717446611726272.000
152203005238798336.000
89330797976333280.000
80914797604470352.000
43725452715163592.000
50060630662644512.000
75101573396067936.000
82876224431958464.000
48228708436309536.000
65335883851548448.000
92461275837026576.000
141345942154422112.000
158145517510965408.000
131954835166191472.000
144892593801618816.000
200541256333067712.000
474572247109571392.000
257639320595913920.000
237077063458474272.000
143425060013698848.000
163628666118894432.000
141508319168049840.000
158861387378162976.000
220283978169891936.000
302007671370034048.000
251820255335930624.000
215593707577688416.000
452624471972285120.000
542239134740864640.000
532571188118204288.000
688861010411622016.000
923613185341188736.000
490420530272564672.000
285324454542029184.000
437168190867550912.000
695493161605104512.000
701864115309156608.000
356243154976339840.000
198906127177419136.000
437620339940613056.000
400197495133968320.000
218279199482903040.000
285449460164201280.000
263274687023627648.000
297151401802210432.000
218530269754486368.000
286869958063634784.000
246108864747192512.000
258296703596966016.000
222164411311173792.000
258960223644482400.000
212637180351701312.000
275941320082196768.000
154181923442546656.000
129089434869031744.000
74512783307169456.000
115814527115008976.000
62116995762510208.000
147752746300200480.000
224803678096626144.000
123777497617177888.000
156542889436161856.000
114201926297948272.000
148144703376800704.000
128187751480354832.000
291827240203989056.000
215548741723141056.000
500366266206514688.000
458641179832276096.000
653243847172292608.000
1332026555751523584.000
1487439051111803136.000
1662535838219318528.000
1271386663513001728.000
1210876886035852032.000
659823427253305600.000
1361862132292671488.000
2922592011441715712.000
3140540846475635200.000
3010953642853967360.000
2536713721128118784.000
2256833550618927360.000
2879770980338442240.000
1482217570872084224.000
1279522523106733568.000
1157372752629989120.000
1683178176270580224.000
1220527775448332288.000
1500063020398200832.000
2311271308688828928.000
5633266287109648384.000
4972266901490068480.000
4233720436467762688.000
2543982643741407232.000
2219363345447943424.000
2299139318504436480.000
5699920934740270080.000
5683379851199391744.000
3042329782097800704.000
2978385400595205632.000
1657851249537761280.000
1627313947763490816.000
2117656413006146560.000
3053499205829471744.000
3873091967222232064.000
2192344169323360768.000
2473253311434606592.000
2829306397236655616.000
3925824537995213312.000
2293199450614962432.000
3157029229602083840.000
2884862619031693312.000
1713057746258581760.000
927471775802114432.000
1227890296422836224.000
662973413883564800.000
803787509379857664.000
1278447832689753600.000
1189498801070197248.000
2813205636241431040.000
1437375419573308928.000
1604181824110318592.000
934023927651342848.000
776328800348465152.000
885019222685183232.000
478096209265460416.000
274342136317130432.000
300209936372675840.000
159835366483132352.000
223173449017560576.000
271167980957126048.000
299764416194023296.000
378097455066312192.000
362782933470927552.000
537635923790907584.000
361952550543521600.000
374676557063471232.000
823981015491603968.000
1705343160756253184.000
1453740227210837760.000
2076238268942867200.000
5693234280515303424.000
3946330941717356032.000
3932416728323361792.000
2412019509688453632.000
1364301332101212416.000
830598786743018624.000
951732590714809472.000
1154070890921637888.000
674208298686182144.000
919378770969332864.000
533551419726704320.000
296199238502355456.000
359080383146655616.000
456581024995279232.000
418367274150547072.000
477138343543600640.000
494215340209163072.000
402299268288453568.000
501713794503747520.000
520698941339950464.000
297640818087885568.000
215857785521143360.000
245315687503073216.000
139625947165234432.000
158214840124463808.000
121760279590266640.000
153139563903948320.000
216608611866665376.000
113843894439446848.000
168295354207164512.000
151142265057467136.000
166591203539476608.000
150718132773437952.000
215102790108449472.000
199195430787874432.000
253776060301216704.000
151579034141919008.000
300181606717283456.000
356375964446410112.000
496178356331961984.000
265270026812191328.000
154749984961368256.000
214651832463922400.000
252882081861457344.000
275705089238113248.000
301947102526875520.000
251363684704387584.000
148892873835361984.000
83918089632365584.000
45999495363735664.000
38854323298473528.000
34332924028663528.000
76982359860431568.000
91639528772421408.000
130008075888134112.000
71866868887821544.000
159163406277538912.000
211725059958951552.000
207116999031778624.000
487941952986259712.000
453544122809187136.000
246752616962358688.000
132113362120549872.000
162512282079041600.000
226566331379205536.000
267455765201168448.000
162050888061784608.000
139028738748919056.000
204065633715930272.000
282330080885153888.000
232092999980779616.000
250377207282268416.000
227849909563320672.000
283067651170693376.000
375574483150054656.000
223115536968527520.000
257892004003537824.000
273315344850737216.000
210216014309559360.000
231650527111112544.000
115312936556139600.000
301956060345952384.000
262282741278244640.000
300034735957272384.000
420686771869636544.000
418040687055214912.000
244240284680674016.000
255447003102948768.000
219224663250385184.000
127449204487420656.000
71993695947783352.000
41549691704778680.000
83448025902995280.000
66451670260417568.000
35206594841752408.000
89820513681549360.000
80233389956743808.000
71005966791622664.000
36737134320093416.000
21050878681862636.000
12514045667377970.000
6685036360350371.000
6606897467989101.000
14248865067609778.000
14375137084865326.000
18913618183270444.000
11492954137700912.000
13274409808582608.000
14327832099256082.000
7409865784101656.000
7649485417176025.000
8178346860198725.000
4270268336100853.500
4809632446732065.000
5871571942752166.000
8252522663052534.000
8214505104181270.000
6660594514785369.000
3627590531372267.500
8682014995166626.000
13008947641338634.000
10861417721440146.000
14816225376197418.000
15457761937941148.000
11578608855531840.000
13534779093955890.000
7580091754032975.000
6781111417870966.000
7380472436687324.000
8356693928215668.000
7132626493314006.000
5947976271284863.000
3501088123840857.500
3987882307193054.000
8020500206074753.000
4297923928906023.000
4213091517578403.500
3359409537105540.000
2044762159036502.750
2563746018104067.500
3853304948070025.000
7675924535420877.000
8800436399231173.000
8072852878630827.000
7900746519628653.000
4542031906055763.000
2560692889351878.000
2426250692381988.500
2455407833862707.000
3689158929423510.000
4295745251339999.500
4808810649524872.000
3514448503418498.000
4731812177032789.000
3642792498580577.500
3899735915479939.500
3355386136824057.500
2033657452573772.000
2035925856481166.500
1781482452724148.000
4758483078510046.000
7842970391410232.000
7694505684125829.000
4634457803664566.000
4225147905781006.500
3260342772078651.000
3462573299975019.500
1985973856113778.750
2368417795872466.000
2631174271081362.500
2180040570144501.750
4862546719665808.000
5957705034943602.000
3440361504365960.000
4021446167219062.500
4180293922937433.500
4771147036857828.000
6677483064479603.000
8002547396397428.000
11612672065740970.000
23639816114787512.000
13238019906803598.000
7791926477194842.000
8693224249346133.000
4640655503554803.000
6635842849323916.000
7336306802755441.000
7360538534051430.000
4430945722212196.500
4354190637985724.500
6406990546173429.000
6713610272791194.000
4090797008904108.500
2233366013750772.750
4525040150202560.000
3405380396055276.000
4134634622779046.500
2302306964274635.500
2510387285872047.500
3732286782974539.000
8871626561103780.000
8722669344411755.000
12395174898267250.000
14262589892494968.000
22132940081749152.000
28621597655461704.000
28713007709776428.000
25228815694467792.000
26002060583469172.000
24317112371804324.000
23638537768780144.000
25293890795380780.000
25199168453985936.000
14380125083916350.000
12234258157097310.000
6389165712291568.000
5859722553780439.000
6680766005586478.000
15831801954420862.000
8527202741429399.000
4766830049091162.000
3341509581937585.500
4357251119626978.500
6662265970548370.000
8734698853393641.000
6014575892825684.000
15959033387794770.000
12115340126057832.000
13398555279263508.000
14811911806517524.000
7644244736820129.000
6750216694367399.000
15851146638414188.000
11988730480216848.000
13939476220745418.000
28776807371069716.000
45979271100346400.000
25276274726637260.000
51851947345034568.000
39534958118059464.000
50863325203202232.000
43268207110691840.000
25203183785261780.000
20060533198587680.000
48609923681216640.000
65447391508314048.000
159005866482873600.000
152147479882817600.000
155211772698501856.000
85956413196307024.000
64210427182822504.000
77666944918424672.000
89165848458877152.000
79379476877812448.000
67220495834287464.000
69787062356774232.000
42436642105622288.000
68489425514010000.000
66202420630430592.000
37640139915062256.000
20606338687440472.000
25203577161504188.000
34489943779300172.000
37937066999637408.000
49453186740102480.000
28108609413925792.000
34921644209708436.000
36107271348948152.000
49724750413155296.000
43462556766486088.000
23876246630583684.000
13458212537732382.000
7533436177346569.000
11882217419805826.000
6141926649180226.000
6438213199734325.000
8310440028160345.000
7566465327677999.000
8685438507246544.000
4502051012658222.000
3231867117853557.500
3456826811690018.500
7899694270040930.000
4192647490701555.500
6102309325243206.000
7053529657405028.000
14321232992587922.000
13841267302000574.000
14967459193018040.000
19923560457993284.000
10475484880447534.000
23492454180808540.000
24079889525470892.000
25456191442307224.000
19057177529353032.000
11675211068668930.000
6912116841078368.000
15464707578520120.000
14564068982361636.000
10700082674805918.000
12663574637963314.000
27735113407438272.000
14890177489521580.000
8165941871321941.000
4583230991607263.000
2460217263326535.500
2481735774330069.000
1923913753309740.750
4227105794858907.500
8398305988948647.000
8743543708042671.000
10654752326001922.000
23098709824115656.000
47785818136359072.000
41892500463445224.000
66510484523475712.000
164707104359034400.000
91670097014375216.000
67448024567172536.000
144146900486145440.000
149236068202215456.000
164287069025330784.000
133754405692306528.000
161410471377149536.000
83490098177931584.000
63118120850958408.000
79852550920465376.000
64760283076355680.000
163677092921325792.000
110052119496935248.000
117808781565049744.000
71263224380507736.000
90200417317592496.000
77504639239409200.000
44619723769830400.000
23381789198645640.000
20790612967340560.000
22044617620077556.000
12785875822822642.000
7280225713784830.000
6017294962286503.000
3438045134567411.500
7224912339209405.000
4114580558646171.000
3286517292443883.500
4010384692481308.000
2110543344354362.000
4539854534280457.000
4398576430254617.000
6571815039875778.000
8246815745146962.000
4267850069574420.500
3338156668750568.000
4419323175634760.000
2431187924611786.500
3278657250045503.000
3433027756414571.000
4803654799428350.000
5808042427099446.000
11922554573705328.000
25566549994434600.000
18953581141647048.000
26941770816343840.000
25825933627547484.000
13093904376016280.000
20920345976033092.000
12161873637188500.000
12592594529333844.000
6400868000968119.000
3555375341732809.500
3898677474046931.000
8632298566815615.000
8387970499968383.000
7605444554157804.000
7460497579477748.000
6996018836984395.000
8207029814430575.000
6230842076361040.000
7515120199087626.000
10656225327343784.000
12978752404155572.000
28149155323726360.000
15212657916903378.000
23268986333672464.000
19705806906342180.000
22939519705312880.000
12642770944748120.000
26476777761182800.000
38477990651335176.000
21187456598056160.000
21138728635633288.000
25926435172228828.000
38510984494238056.000
39517793980199408.000
21746577645228332.000
22994544049015992.000
51951199362338304.000
38410602726798328.000
91349705314260688.000
75678515438210160.000
45512267428821184.000
25143749011751200.000
38617476130337856.000
91784634609141008.000
142848699399739904.000
216668776316349344.000
220564829488226112.000
293626484818317120.000
244851540863364608.000
123863965929007616.000
249515733993996000.000
132040073349712400.000
148034014388523008.000
75038076001624512.000
43890710777444912.000
24773868208356620.000
12603189181892830.000
12679047809999692.000
14409137762056628.000
11952091809759740.000
12533841933797984.000
7485207494925933.000
6768054120137910.000
8663344976963783.000
13207440019976112.000
14927075689479920.000
8376960855113188.000
6376343207325594.000
7310912626400467.000
8057645249206933.000
10890665964884514.000
24240295816349652.000
28383943315616092.000
23807339529557624.000
36206897920953472.000
33662707208655864.000
18884621043248420.000
44608396938824912.000
93191535966764608.000
109830176515820256.000
148713076831541216.000
202085148794609728.000
259506904152550080.000
235801545715130016.000
267052146978081664.000
208124351288930880.000
221678984137064704.000
127552109527457648.000
116718911000415296.000
69354144023415208.000
37192556618060208.000
39162686682369216.000
23679863298328396.000
26634432575704280.000
25691405839824344.000
22301199882740968.000
50045559087476136.000
27102853981642404.000
21398648396536212.000
11620437650804956.000
15522731196128264.000
8554094621985363.000
4715820822723315.000
6804614574676262.000
14135720487894518.000
7386079993091062.000
11296951185354828.000
26375844035736096.000
39350984663807136.000
88514833390677808.000
122184413786464464.000
63002728478494936.000
67386703398194136.000
93561789277750240.000
146879693446524992.000
216755624902501856.000
299883748465371200.000
235594558319211328.000
207147532886106752.000
238977577990054880.000
273869237939649824.000
302248158675203392.000
493732822481927296.000
286787958422929856.000
216056506242117696.000
279564295045246688.000
275994705235685312.000
148606766624828256.000
84142770987467008.000
128470580692244432.000
119364447315199312.000
136462916353325248.000
77886161223303136.000
74735006388197680.000
72171449942243840.000
71370534212840936.000
85176512527231664.000
44269166863826120.000
25892614560080792.000
20334691379517696.000
49242774766754152.000
69745552758709112.000
37790087434579992.000
20663685848896716.000
28823519711384460.000
24568877987254176.000
38758857554958048.000
46226745081325784.000
23405157337468716.000
23556223162456304.000
21079314025168380.000
46318613699824200.000
35021761734884084.000
35352871292527136.000
38613343102823120.000
39335478271028128.000
38289808411550976.000
38180464377823688.000
22738575542951568.000
12011464627397056.000
12091643486254468.000
25215669900751776.000
13841434084189818.000
7249093729002653.000
6489574555968224.000
3913865054758602.500
3594231680849448.500
4688768387300272.000
2688329292054416.500
1938714173904587.000
2526177347417490.000
2239686045722221.250
1790695711828955.250
2310094567776865.000
1335967902916913.750
1251640662713411.000
1843823941347068.500
993121518397286.250
1411881483552944.500
824691177242001.125
439844208859654.500
241569378422433.438
181688020742213.188
169871166464032.094
251318558768712.938
175935042525032.438
170887297998509.344
460459857421433.312
433745330488678.375
462925516758724.812
437121539290483.438
421892224744003.312
412470385517400.250
218801941256601.750
345650268992542.562
386138398491984.188
428194085764201.875
422250288246872.125
240121151619062.344
309056819375876.875
450294057154922.562
695071024854985.500
717493308128171.875
820521482980979.000
587514305896372.875
1276041744033358.250
1115510778287551.875
1290254517988587.500
1161112041110474.250
669958117830415.875
383579668566224.875
358781390426269.375
756935753554152.250
440805032720898.875
247374074315622.281
183840734730090.906
213432937916679.438
249758950488094.094
207657223054893.531
122327465934565.297
71793154012782.172
54811085785354.172
63373052618791.297
62490447458438.844
78262334191842.016
67896846721479.023
62645976201414.867
134637434231398.703
135891683946345.969
99298590824912.391
106485526344408.281
144195858120531.000
134694592182803.000
126719870778292.703
126238295043420.359
136208022655430.141
78738157400105.938
114500261201785.703
240341335742776.969
206517446608716.750
174002610528021.000
206575971156835.781
210602920326493.031
319642738189500.812
397464978997108.375
320334596558521.938
433522670985963.062
381844665473707.500
794877292851312.375
1105612703256624.375
1482416935269700.500
1007018462141598.000
1330510012021356.000
1245310002979055.750
1833416724694733.000
3989507249092727.000
3638248186162294.000
5806161467174370.000
12180478010222612.000
28278872690316860.000
46714947836151280.000
38008493099524304.000
84634923781450032.000
119264971800264864.000
72629628742005200.000
163405146851799456.000
242306601470476960.000
143588695041915232.000
283422623229483616.000
204546796694393568.000
115873809538823024.000
68158542441934992.000
41018480558073000.000
20533813243795248.000
47180672048598960.000
48326844664424056.000
25421299810996672.000
24662611147401476.000
27833481944264880.000
28629495653611448.000
34771928306424964.000
83282899663691376.000
62385426009109320.000
158484099496620032.000
90521072321924064.000
72718820205488128.000
65909026431087800.000
77973323045772464.000
112405803993414928.000
296180538445373888.000
485470106656785856.000
652152596294443136.000
1559354159551319296.000
2454018914604447744.000
2914367091704870400.000
2659229929149515776.000
3020886759611592192.000
2835425098051198464.000
5650137919522268160.000
4730930960692460544.000
2427815813520655872.000
2973473662313631232.000
2918559747098201088.000
2253002767491947264.000
2986121066426509824.000
2518675531915343872.000
2929287839913262592.000
2087744794223056640.000
2871931030774330368.000
4588294346825559552.000
4616808723635472384.000
4741839661277073408.000
3914580961274686464.000
8892517824646441984.000
8264612384891377664.000
10261883171834173440.000
7533934412226045952.000
4191469787780189696.000
5038073495273718784.000
5237814400265164800.000
10266262812435075072.000
6900334969583221760.000
9984623106195802112.000
13218265161446664192.000
15407377011282212864.000
12118754017283385344.000
29462557408192835584.000
16215401977301843968.000
32808990374943756288.000
28336066966805995520.000
56382809799714373632.000
31985223663340072960.000
49066365677492305920.000
51272480884237238272.000
82773713175730077696.000
85693544818031804416.000
136375052205956005888.000
75725669781746974720.000
39013127115215577088.000
47407005896529534976.000
26404019608050515968.000
15094122945769697280.000
14522110280625600512.000
17401595957649348608.000
12401037970516641792.000
16679992741738526720.000
9731966061555259392.000
5177750797299856384.000
3706696974712554496.000
2121073857532248064.000
2691129592691375104.000
1511894897159006464.000
860220701789253376.000
881928110487460480.000
678632188561633664.000
386703339598107840.000
365793504842166016.000
221603295861630496.000
129137973513291920.000
165879378279835520.000
138999256673929744.000
163893642280064256.000
123099217091646928.000
147779291009980352.000
202952794912882560.000
111031372638301808.000
140145606789287504.000
292432228724126144.000
159730103987077440.000
114973446712236176.000
117390034052572656.000
116533285909496160.000
258083083907645824.000
250340321593415392.000
139312326578416240.000
140829363656895344.000
151572057073631904.000
224566175195994528.000
119373977945489856.000
125923688641587568.000
64874569092334104.000
85622049971805616.000
69661720354335672.000
39627041346214680.000
85849485418680800.000
72486414891840592.000
156292098412013120.000
119490377152212352.000
152900134278819680.000
92373023674459680.000
62478785588628360.000
92609549135705632.000
62041122680871760.000
84175167319003088.000
92422214118911328.000
64584588267952440.000
38529751861279936.000
91127138190656912.000
60472231810361104.000
75701065094259040.000
163627052069426432.000
83941811873311888.000
84268919012716032.000
47834085132662320.000
42728519342837368.000
49794233104970456.000
37458719785223680.000
44561546562056712.000
24522439964234380.000
14446162794431144.000
13687800823190458.000
19167401211653312.000
25326057242197388.000
21916932935103968.000
21158540589369236.000
12740578591007480.000
15856488966111364.000
20662685809383072.000
11142308426028138.000
24255984126282600.000
20224179343260896.000
12485476807063252.000
16017733639723094.000
14554448121727212.000
8291427361545762.000
4583832869195808.000
4079067961375936.000
6244507643125122.000
7772050598467292.000
4035199633918055.000
2309163219579795.500
2390140400881506.500
1946497832679789.750
1954817244922452.000
1130022336662169.250
1015017236752137.500
1333707062154621.000
1436536224035374.750
2289489036237443.500
1974372428491986.500
1964977557273659.750
1807727851648388.250
4201770126213519.500
2428444883444047.500
1264998022954487.500
1070124620736249.250
2237400927942491.750
2250128739208761.000
1223231588724616.000
2599733581701419.000
1407986247264522.000
2165587623510724.750
2097486250986698.500
3292460035069552.000
3844312744662511.500
5906673988429547.000
12448617766757596.000
24813752141731456.000
35895365893163364.000
42961778255215416.000
24711804942791052.000
14252038993876134.000
8247473727486253.000
4487938884390591.000
3476453964460581.500
8051914777527623.000
4722277826805058.000
3394936571689861.000
7476495055476043.000
4416782044784059.000
5759995731510694.000
6115095111341999.000
3304455038288809.500
3355582930982330.500
8108076014441932.000
11835539207695986.000
13056451424361076.000
7924417133888360.000
11631809650940686.000
11771334343537896.000
12741749683302348.000
11136745082078156.000
15967305240533188.000
15449291893441688.000
11641268442139374.000
13672431973174920.000
10385073183044884.000
5799868777951817.000
6868352898098620.000
6299021302004760.000
3479424777863945.500
4688221338296750.000
3880766751129853.000
1957002598529091.000
2357529204844903.000
2596830445240109.500
2515758530794470.500
1416483400134724.250
1132337425012581.750
1391142724363791.750
1104900478114525.875
995116850849541.375
2368132149857358.000
2493370014037616.500
1337178911302805.000
1042451771708865.625
1233034511726321.500
1079279344096438.250
2580683111451104.000
3399316794616822.500
7026794586241739.000
4002329957123478.500
2142482162150097.000
2608676754653101.000
4130330111752699.000
8443505836026477.000
6758644202614088.000
8516802796550095.000
13482783970812580.000
6782008425776788.000
3480756644341581.000
7061090995624152.000
3906272128768920.000
2264015443393853.500
2224533693481381.000
2208394196953821.500
1981037865225790.250
1044544053329622.500
549411364697367.625
1484379521185543.000
1396307911311051.500
2060144798720547.250
2330396169647143.000
3396535687953868.000
3582061645739030.500
7656634863602568.000
4625969110624518.000
7476266835591848.000
8619259021804323.000
4791957294156354.000
4567358451871687.000
4542478900043524.000
3952166192197856.000
8047910591833047.000
12021383970044076.000
7255987529745525.000
3672895333366603.500
3865142265102206.500
3885654001726425.500
1952701972811241.250
4682144960111988.000
2387295948461747.500
