37.262
34.815
37.652
80.456
129.593
189.970
418.326
415.045
668.124
657.004
1044.486
2713.428
3826.068
7657.223
7979.868
8328.025
11259.723
28767.825
36663.681
88987.815
117416.093
270550.467
384910.851
882921.196
1374505.672
1299824.239
3028787.277
2798221.096
4462642.926
9881576.690
12135600.985
30158041.034
59709342.910
71648735.860
194471729.030
293933660.312
281066511.348
307912998.155
302200557.402
427026902.067
970700377.286
980576193.494
1450976021.954
1348066824.028
1419671766.745
1549738363.984
2436780696.109
2649768824.642
2865075649.064
4383921986.751
9718063800.507
14608997658.338
37503115527.797
37497437851.079
46178181196.755
97321799736.882
204203568716.126
270389478917.067
706493558753.375
724841955976.805
1183105768330.655
1256940195073.476
1914860516880.267
1991231555775.268
2158451672845.031
3320629538287.059
5322144668470.487
11213320791399.375
23727447052822.012
24887682704441.008
38365427515938.289
39460617439717.195
39375009962399.188
58432341994143.727
59931419395868.266
140753971686815.656
228931491240256.688
219139510788132.344
437371181456164.750
451858875771183.000
469226138101202.062
677122460909930.000
726488501238466.625
1026647641085036.875
2291829649113839.000
4936739908612792.000
7415538589987152.000
15570139697395004.000
15820669834642160.000
18715676548014692.000
44798420450776688.000
46714101644334056.000
69851137218487648.000
69698625930841176.000
147041234530879968.000
233183085830431040.000
476523894646281408.000
771888070042140800.000
718865787895555072.000
1641031547242408192.000
1679820732848096256.000
1634543151369766656.000
1582690052049239040.000
1205658714775593984.000
655444533277966336.000
950846836627096448.000
800892251513951360.000
1627224722334322944.000
1394386549385795840.000
2227497282396894464.000
1324159747487778048.000
1555871989278566912.000
898627032413199744.000
477758410157611968.000
494354172632252864.000
487012725938564352.000
542886720922628736.000
299551839162737792.000
159425514747353024.000
90009452342037728.000
46024700595103456.000
41039559784221616.000
36324025441105104.000
20497653407272364.000
28459688970565388.000
35246810966914016.000
41353876666027112.000
63288247616193048.000
35669099703516720.000
50842145685245896.000
35199306111231168.000
20413736187996684.000
11632171927453896.000
15950129025443304.000
11760619111881414.000
14083455737702856.000
19378795179964684.000
43638792140076104.000
43234538883478176.000
25862703270632320.000
14714843144331342.000
19423645899544072.000
26253055687952100.000
35148458483373292.000
34655563880494776.000
88888598658398256.000
46961439538432608.000
50507520655475712.000
50574093116113760.000
44883790282984408.000
33663654051985268.000
49314798509190448.000
37457687106157792.000
40380708635959192.000
21200954696237124.000
12434516992370652.000
7345906882563992.000
8165706430473283.000
6092231574334994.000
13168289153607062.000
15835342748836418.000
20907170085627188.000
24458328548761100.000
25622602477937692.000
37827260525751816.000
33607995838291104.000
48309934900056944.000
42517937493179072.000
50559354730117104.000
49642946188989184.000
38463715446926016.000
60888609694131976.000
131121564627508304.000
149701179064133152.000
230860822416866688.000
260882088148069632.000
138610218658761360.000
290240923790378304.000
207874856247552800.000
433250658651405504.000
412807820757125312.000
474389790054449408.000
456729606632569792.000
391094272571716608.000
436272372520970880.000
366488345043517760.000
541911799789373184.000
444512306183488576.000
711339420026045952.000
853395908035811328.000
959448871686796160.000
1155850851384920832.000
1698095920531555840.000
1751055108343631616.000
963676055456103680.000
650457860622734464.000
848206654233567616.000
981277568226265600.000
1331870618675951360.000
672838171638643200.000
749590772595714944.000
757379970797839104.000
745151616304541696.000
431115774279057152.000
666372236382097920.000
936248202644103296.000
826691107235315200.000
693405927139854720.000
418245812391698112.000
366457496628499840.000
393128015589957312.000
461294604101100800.000
429019846434614400.000
401052308919683712.000
437678921027596992.000
412817087131565568.000
244581498007694432.000
518349300791890048.000
497351569799531072.000
643778437163260160.000
1531829057210351104.000
884095202688833280.000
695776092323177088.000
1410145964532976384.000
1631230388462486016.000
954643318679331712.000
807574019110440832.000
938248768517825152.000
1315820635523571456.000
714380010057938048.000
634924141053527040.000
1353847804158990848.000
2807687082324029440.000
2209425858991502080.000
2524572791266417152.000
2140886222216756992.000
2449033057078259712.000
1306752445851865600.000
1192406336418022656.000
2490298568142309376.000
5178690816637244416.000
4278646259865470464.000
5410041466082597888.000
4719147863708525568.000
5153108709522847744.000
3751881021117179392.000
9041442687014171648.000
9521741118831706112.000
12114305479647092736.000
7497243483246926848.000
8567340696347406336.000
4702461765476656128.000
2440852976247274496.000
2341234027367963136.000
2163409832560550400.000
4718217145994886144.000
5004439723744825344.000
3011541672982250496.000
1614789662708610048.000
1210315593196619520.000
691209482089960960.000
974078479163304832.000
827958510170883712.000
1170715191045020160.000
668013489028787328.000
889139772267506688.000
799493180917573376.000
718046473931570560.000
439061096285694208.000
689090903844207104.000
812014283038520576.000
689858994743157376.000
772011328122648704.000
679429463674588544.000
414597767251642304.000
461760055831233600.000
503207878881203520.000
404468653587122304.000
208899362419875648.000
234493596836036256.000
235271463772175744.000
299597262898618368.000
464716088138808576.000
531425947145196096.000
473515551143564288.000
244303933639813760.000
296734256326223552.000
265639223781662912.000
298581042647215104.000
262519794318018304.000
147688899525639488.000
115731097177001664.000
164492748209945024.000
251283603071165696.000
261825950956031424.000
154597276202224384.000
85498944435177616.000
69222448894665672.000
38018573097488456.000
82189180705851456.000
162667575474459456.000
163586566682809056.000
224851766706612032.000
206147544828495296.000
112563938590081360.000
63948648581980584.000
35121687682764624.000
43806336436055920.000
43287885162187680.000
36954310232548488.000
35757907446715244.000
41716296959373696.000
45064544254127472.000
64574186852187960.000
142765965207940864.000
227525252355234592.000
493304105026168320.000
252460127630584032.000
374417011379649408.000
523088697530853632.000
417304854248759936.000
965694698510386304.000
834380809446283648.000
705004520712810880.000
799180300079920896.000
875161612738979840.000
770265576313116928.000
864480400229892352.000
748632676932657280.000
720887676892514560.000
407109876397325824.000
228070077216354464.000
133152054041597936.000
70409008213596984.000
85035351229614864.000
48962831523890904.000
35078677195465708.000
36307025480478984.000
36958929748112816.000
47125457911583896.000
42180154501091720.000
23125302200914208.000
13734042845963356.000
7227060568645028.000
7547413227935523.000
6516703489316064.000
7438361668460358.000
7942404761047249.000
6909480504336403.000
15567004057879320.000
8784242168341948.000
10686796363696814.000
23817528808793416.000
49019872333638672.000
61287738680875896.000
77648767757282000.000
83909263642283568.000
112172771258071712.000
111569696106070656.000
65794889567068848.000
167731105154788000.000
88836133702179120.000
75914677585841952.000
91716262261561744.000
93120675109038832.000
83144964791026240.000
44340500551631864.000
22465551063401404.000
21927602605345596.000
25366656926234876.000
28760925933510864.000
19320329883896412.000
26282628998954160.000
22412128020505108.000
20957480209847752.000
10424235535294610.000
11669412419213040.000
6499054307835884.000
5827595513804765.000
8353715594468989.000
8676892899844371.000
6910620894875270.000
4141444826035770.500
4617387929334793.000
2422030909916815.500
3625575976849024.000
4158229393621143.000
2153762778806941.500
2685636496391486.000
1892390095281572.500
4867604495469209.000
4219774090658422.500
4723155737748888.000
3704821015113217.500
8677752953170621.000
8170896671968549.000
10805938344247602.000
14046113283850888.000
14890642052796442.000
12639934635494424.000
15632805795135812.000
14976360993267362.000
8560022944858396.000
8232369098634749.000
8280127814666049.000
13172218253854078.000
20817253684109460.000
27422586938831276.000
27584149623547756.000
22141885590291108.000
20817035280862156.000
10565878439597880.000
27591647988601720.000
21020783855831440.000
27560296465972044.000
22003051252893640.000
24610461567220344.000
23688538640029892.000
20337263687379884.000
11132957577199928.000
6182884205427138.000
8861804563589550.000
6915764618022635.000
3586236116796181.000
1806221241509350.000
4397524298877626.000
2642403781645515.000
1472474721099723.000
783037432263594.000
1000639625897967.000
2401419183335074.500
3875936457534899.000
3740229483548632.000
8526334736829634.000
4470547229184255.500
4192506338804163.000
4591788372057396.000
4481165728133182.000
6454399576197905.000
3738147573809110.000
4501959382965385.000
5892201266025982.000
14194650265202766.000
12922408731922968.000
12743546677587082.000
14209390539876422.000
10762591093535410.000
10836007824971690.000
12665565272936260.000
11083214219189322.000
10624654592300040.000
15990772814939924.000
8451704493144103.000
4519747345756083.000
2540338602191105.500
1297883696608124.250
1304619980183164.250
719470450039133.750
1128847830581007.250
2663378237607787.500
1493811659130747.250
2131032850295439.750
2421797402689485.000
1891818832917408.000
1955029272271369.500
1167550964736588.750
2484502917788669.000
2639912428716217.000
2516677515218470.000
1349432035581272.750
784064605630175.625
593960833049723.500
666306791077728.500
357226067804511.750
373622561090596.750
354426775269867.375
361436745499860.500
371888468384503.000
360668390935537.688
407131080726945.125
652935017101648.375
370448055698847.875
563265002296997.250
838121658109050.000
1232576402705861.500
735471123627681.750
630027234023354.500
1505007943915044.750
810352811384729.625
458951220154089.625
305884426942131.188
400557984107165.062
207728892582050.156
181982969067362.156
205052234752661.000
455096571358756.938
374325614293079.875
455032447553373.562
749300642062643.500
402587192027069.875
229413807397409.781
460602425791442.250
584842965488444.000
557219431499104.500
1316799529525108.250
1106617276704866.875
602644463707547.500
345003022659012.688
702157598023540.125
390142289861006.562
613234498808811.000
569147454144216.875
347637071669018.875
409167255970937.438
367971754352164.375
313510118116249.812
176548713614146.219
196073614471897.875
106010150347068.156
220634001558645.938
458448121621503.750
249958948670635.062
193522488425634.344
200760654239331.469
457715956733982.438
414077143862133.438
404363494380376.938
594985401205459.000
1318751955907015.500
783970274233504.500
428772025444231.750
246626816838363.188
392697221068184.438
219343054726980.094
321445702172914.500
817277623520484.875
673860385781578.250
1377440578128477.500
787152019359360.000
1271473672355765.250
719620340985856.875
564404730393963.000
713143452410692.250
1002177468814887.500
2650915132448645.000
1480719874500092.750
842721455979904.125
1176316763169634.250
1374338071997499.750
1504805181961654.500
2054670074409113.500
1214236868716061.500
1301291876537725.000
2685246428985228.500
2716892406251939.500
4227617757282125.500
4003935657547048.500
5783287009462703.000
7249386682832838.000
8600302677324669.000
8675754615960433.000
6014976689903350.000
8857120483077509.000
7539658695798730.000
15841157637257076.000
14639732575671858.000
8292042690811783.000
7776371039111141.000
12526734183220310.000
19642876124753592.000
40799360911088200.000
34451561786175348.000
21041349823208460.000
47987855097622664.000
48942641338616488.000
70247474410385216.000
68136810362290152.000
69275541731384280.000
146547845793696000.000
129337858948623520.000
161668093360864448.000
156289433746432736.000
93004491196618080.000
48455685171462144.000
39972803324913752.000
41956352272894584.000
34452346597485792.000
42128615337539072.000
39279164828894760.000
80361074369147712.000
67367344026867888.000
83443815954240048.000
109145404247160624.000
143054638162935040.000
158459915888706048.000
112027294328904080.000
152512500420847872.000
168351811875157216.000
140264272854248464.000
132909983891861824.000
287033212976960864.000
224540201730518048.000
199575816578704256.000
455275942911339072.000
511377851644293568.000
465431834127125888.000
714417114141725696.000
1462054807335428096.000
1629900403661953024.000
1533288779794889216.000
796183728504699136.000
765358753359352448.000
1760635157713156608.000
1176241364810735872.000
1630479686736254720.000
844948094300966912.000
831740099278189568.000
831977958326235904.000
1172703418533578240.000
1521081141172065536.000
1171782176595530496.000
2822153722745090560.000
2081235560571483648.000
4984169720219980800.000
5491678287001988096.000
4928253468934275072.000
9733472221561014272.000
7521944360210293760.000
8555359828111554560.000
7913405875587009536.000
15812847916822720512.000
31463807485857816576.000
26393506918675128320.000
27526506567334027264.000
15602895682529800192.000
12040337091400368128.000
16104930979812933632.000
13074264873292050432.000
31528456398053998592.000
22779077569497067520.000
21966628242578468864.000
26911870481282383872.000
16351446905915844608.000
13215744288746254336.000
6675976188597381120.000
7459830608852164608.000
16139553045546260480.000
13835983105059749888.000
8214897090589071360.000
4608668235068862464.000
3986160662015590912.000
3913895353369990656.000
4221459003900091392.000
5594317751228554240.000
8949290242348945408.000
10288566482150072320.000
14590908519739484160.000
8552712673708475392.000
7069510868111931392.000
9651832324524679168.000
10237821918226022400.000
5465548453592671232.000
3088223452356029440.000
2376464331377067008.000
2673538120486096384.000
5458817071836175360.000
7318242791570907136.000
18278054282960224256.000
12832715232473352192.000
14428329903382743040.000
17423573160982941696.000
14483554892924116992.000
14890946513584517120.000
17182897804378013696.000
23240046318707576832.000
12002228533869672448.000
25933643341631635456.000
58507649087937298432.000
41664967507035799552.000
23778831429811113984.000
12266779295343947776.000
12639690053641428992.000
12343170760552431616.000
31118015015721238528.000
17144788229525657600.000
26471551999097823232.000
22282391045986033664.000
27505274610275889152.000
42915778154857160704.000
53980174524839182336.000
30841542064183582720.000
17586086661497479168.000
12167289424370618368.000
14108883057070991360.000
7428167218066841600.000
9710189770279557120.000
7134795834409918464.000
10073347172853559296.000
5207076403845397504.000
7155774423080536064.000
9382347927506186240.000
7255999923188674560.000
8567041551398677504.000
7485094671016876032.000
9026104366274745344.000
4962843924359979008.000
2595219756076159488.000
2162066446739926528.000
2466865592698206208.000
5248117033347702784.000
5366643745114043392.000
5074645104354733056.000
4357657318683313152.000
2668179888991471104.000
1433304333727260928.000
1548378320105419776.000
3054200691626377728.000
3174614886295296000.000
2461509122412041216.000
1405034951158082816.000
1230067717758611968.000
726337696516852992.000
967546683343616640.000
511026301358237568.000
379388964388579328.000
483687308156429760.000
362148642947227584.000
533868078040566592.000
472687761618551936.000
663467032707597824.000
396277763739977984.000
445652896801209344.000
243120863636132640.000
259463814404941632.000
364472598238500288.000
524827248907245568.000
297652570095388608.000
250976353159661504.000
282325594284055520.000
147648731991544384.000
199062661582900992.000
117606167051516240.000
124210738689835920.000
109802494060990400.000
272911289701641024.000
292233900951907712.000
165600898154273664.000
88201331306170352.000
141467227314921328.000
145964107334847072.000
77719775459367408.000
111422798880625040.000
251201363695329024.000
145091081812802400.000
168069436863238784.000
86097426083167920.000
50601186892265656.000
68847824342815392.000
93005294536105232.000
64613769105105320.000
131678862482698480.000
140609970203583632.000
141245898815713824.000
157145747521832736.000
84509645213331216.000
64014451647211920.000
35605333845391168.000
40575855071980544.000
24812171727266096.000
20440107877987792.000
10505834213603972.000
5847820884642234.000
14866300076992216.000
8042310626209728.000
8901856545789107.000
12538554806945294.000
6872455719723813.000
7877589991037115.000
6123930837494477.000
6472479153130719.000
14520335206893630.000
14822006725850272.000
14355790105765368.000
15841270443254510.000
23538255290233524.000
20708120203349748.000
11620286935429602.000
13309917073099866.000
15169258536587656.000
12536257301179248.000
25450696947441352.000
27172750079733932.000
24717978473794556.000
18749163570020440.000
51097303425890224.000
46564215278517480.000
26074751216243584.000
21190468412684748.000
19698072600651000.000
25412046401306004.000
13846504487381346.000
15661980588815218.000
13694842981557920.000
10901266047687144.000
14326903162012798.000
13277973846930048.000
13112627486391242.000
7123257572640250.000
6265133665416438.000
3673680174038771.500
8604945535390186.000
12525317835583854.000
10444675188891176.000
28210255741259840.000
37686283708549080.000
37471915093583816.000
49466887817280160.000
79664163350310176.000
62786975277334872.000
143315450542077760.000
81834658253697312.000
115850612603781552.000
146280693150160928.000
152218880266266496.000
82765696783969072.000
46663319131617632.000
23999872424123264.000
13229538267305620.000
15777713753274160.000
13292497024538148.000
12094638461205238.000
15800948113560232.000
22865209367291680.000
23423589216537240.000
26640088647846716.000
21039009849128512.000
20707135101567056.000
25120579587171888.000
13149069231006178.000
21103379871245444.000
12953415988802692.000
27641051838104968.000
25767713260052136.000
22521873630750348.000
28201549018516420.000
26015408253763800.000
25792756716865428.000
34372399584052132.000
42595957623197200.000
91067473491687744.000
88738247670390864.000
64357051363830672.000
81068468519950976.000
167824734713483328.000
145650805314382368.000
142747860384483040.000
133476686733991488.000
75878485565064656.000
91862474880439616.000
82322905988941456.000
48125197136489408.000
51730705378524768.000
79292760786951664.000
43360517478938616.000
89615119950730032.000
60418171666417576.000
61368708336530912.000
33850993137520824.000
75906878154076416.000
87035773411027040.000
128359048847146240.000
198904175944271328.000
122044566721504080.000
256756263286152384.000
206083496379172992.000
119683157994633856.000
258677926415268736.000
140283492410719728.000
167574663271856064.000
160769850126350080.000
131912393035939088.000
296083504179367680.000
434813709932605824.000
218810243412090496.000
279870658727791968.000
229784231925373344.000
470264741120140352.000
277683374305000992.000
160562781583282848.000
83676751520465952.000
73736309307004288.000
163672199318493696.000
138073419085306528.000
121469734441431696.000
135625525289797488.000
156936954630731328.000
257525685897005504.000
289718574983862144.000
389890341750871040.000
433748270881876352.000
447782014428632192.000
535153588528988160.000
374162023576945984.000
216372690409330944.000
267599342990346912.000
405186118627359168.000
979893382933414400.000
1179981028384821504.000
636271045009019648.000
1347908394814617088.000
1517063294188799488.000
1726192617422877440.000
935696871046327296.000
502559743543297280.000
408991811152235968.000
650229123827398272.000
972041473394302848.000
523250468416061376.000
302443091717760768.000
232857764357233152.000
489568610286022656.000
281348622687715392.000
153450330589168928.000
222411377440748256.000
210474211141220000.000
197709334151920608.000
204192774727166496.000
538990928603222400.000
402450032311614976.000
210651815806451488.000
523779155283428160.000
434950691976160256.000
528613955185818112.000
500182535931860800.000
448931574582259968.000
386133438856573952.000
424967061248134400.000
377106570924433472.000
979236831205456128.000
884713060992253440.000
1267216102032091136.000
1695360272222527232.000
1616489817188730880.000
1275056562512870656.000
652709001124919936.000
1534353941282748928.000
1610404089511868672.000
878996099543565696.000
473898807234790464.000
372774033260758528.000
816608587058887424.000
494332282212668736.000
353308071713322624.000
448497818553221056.000
268409688478030560.000
532670401266253440.000
791210877486432256.000
755868016523023872.000
922213241771645312.000
517896006377404480.000
723327288395375616.000
656336823832109312.000
933160073430435968.000
1193534363491828224.000
1730556214741234688.000
1536675832134739200.000
3090934889275156992.000
3080849539824069120.000
2617169361170917888.000
3023225866804152832.000
2325853018311390720.000
2908611067393809408.000
2665834546539671040.000
2301529029440050944.000
1162510923237643520.000
2852428855232266752.000
2078839588247221248.000
5643915487398247424.000
3179356049566715392.000
5104836929111354368.000
2783882550892561920.000
1509137683671093504.000
781003586571628800.000
755078020047382528.000
660428038431936384.000
774350202369463936.000
426018400980695232.000
429977994724825408.000
693406349044022144.000
1445126359525697280.000
1674405235709592576.000
942651691555985792.000
819210861403612800.000
704261190161588608.000
392730927700185408.000
467379942172121472.000
283311868159413152.000
225697893297731168.000
116946610890375728.000
139749043463729712.000
151346301405994016.000
119104631325601520.000
61389895497184472.000
136870713709727040.000
80189911540386768.000
71237118891884864.000
62165929221489504.000
89400223247101760.000
113826242238189664.000
165163000844880864.000
112494027795409408.000
61159354056468544.000
66614700439199480.000
71293618794782640.000
84607008380776624.000
62458963563357712.000
91802499671264800.000
93462919516344128.000
129126707124112304.000
159310608059472544.000
92619682262620480.000
128783367157903264.000
136423890218997760.000
82578389547054320.000
87170215718045632.000
110485668583799104.000
235073845607064960.000
139572333482573040.000
167753418666951712.000
163768680058068160.000
148224171060282336.000
78753129908026208.000
65285833302029856.000
142343789637026800.000
164606684080759104.000
139080421883598576.000
198398822433231712.000
242738422185928768.000
142167962100393712.000
73214323154618352.000
87149720211846656.000
46114997469921016.000
60885461433504432.000
92489842987300176.000
137889518571573152.000
115864997984442096.000
300612553738620032.000
457483156435236160.000
492532166463199872.000
293186010441576384.000
152412508186015296.000
244306391921251712.000
131149122152944288.000
160222801366881696.000
256203772213287008.000
283379553090130080.000
159784167098867840.000
206892246080504608.000
270047833613186464.000
424641486799965952.000
538862706638377920.000
636993260585699968.000
837114789972596608.000
706323774363014912.000
377052152326259264.000
443985176984035456.000
395784743888865664.000
400533469176735808.000
218886263266652032.000
114818117609185312.000
128429747871294048.000
64961679942352904.000
167128445319283136.000
151269659022812640.000
155980366673815328.000
135257939807572176.000
68085762781310840.000
90870805040517904.000
131656362180391216.000
66435742273389840.000
142812411142993312.000
283971687724658880.000
419480503704525184.000
851834043873111552.000
651671715436700800.000
740037784130726528.000
1479206636235847680.000
1494891553805493504.000
819600666169860480.000
684280016003839104.000
415094659469162048.000
425590998031033344.000
520194519088974976.000
447133781869817920.000
638113820761699840.000
974455630792571776.000
1451930434076661760.000
1304813420576102656.000
2716152531366175232.000
3139274036046563840.000
4176719259444959744.000
5503870819453857792.000
7415080409718195200.000
3705074216081306112.000
10019877760040230912.000
5555718697326498816.000
3075980274781582336.000
2329126894487783936.000
2957226243204134912.000
1558913256907275776.000
854477084536879488.000
807019032198599168.000
1267131278802868224.000
1242300559019013888.000
1624648770340551680.000
1270488888275923200.000
1535972433440978176.000
3159335312677573632.000
2325622749773778432.000
1356857243229250816.000
1404880625253722624.000
1665245824166713600.000
2268306473615635456.000
4788165685584692224.000
4379944292373014528.000
2681418283338952704.000
2199595882222291456.000
2420362474361829376.000
2756138466413003264.000
2782313523353639424.000
1535417213037121792.000
3126477845152470528.000
2057439481715463168.000
2579408413070216704.000
2236997178362621952.000
1227224042211016448.000
697348387763776640.000
411743827879816256.000
867976408095360640.000
1175047077414775808.000
1321689282834649344.000
3079139269022467584.000
2263602845904715008.000
2529812817257896448.000
3090008972809966592.000
2526976041014739968.000
2138569187453986816.000
3024059730883507200.000
4632524866674761728.000
10160702179357224960.000
16803719524849231872.000
9160764371294668800.000
8906977962230927360.000
4741681752542620672.000
2802859944950455296.000
2319773226999230976.000
5008730994143997952.000
4329746158458763776.000
2319449104934015488.000
2909916196817550336.000
2165479517633201152.000
1250166055535826432.000
1438602209473611008.000
1592256919352575232.000
2235736381094601216.000
1217705295629453824.000
1680878943361911040.000
1759942044960069376.000
2645092077484575232.000
2899175149283579904.000
1711612858794504448.000
2311060139577380864.000
1255057898704648960.000
1731032055275519488.000
2747158269351616000.000
1577919906223981312.000
2126210616424497408.000
2469832670795215872.000
1392334835762575104.000
1443186123808526592.000
1765750831387820288.000
1405580005266977024.000
772747638679787008.000
469020616463860352.000
244617672267216064.000
287174310877211104.000
218357915790594688.000
216470263320155680.000
204557545792382272.000
251473908503820096.000
231205417071966496.000
220270343412979296.000
122653923087917760.000
72096041336997664.000
41077381228385552.000
24165859963929364.000
13178973293099260.000
7285101561249093.000
6456720104649287.000
3570713568155935.500
4529035397269296.000
3709949651216129.000
2264750277731971.500
3331130530583500.500
4308545740939686.000
4690490549447496.000
4595673454254599.000
2347508877885586.000
1959147908852124.750
2039577832204051.500
2097963404221348.500
4695362828595773.000
3881567768432810.500
8900373532141955.000
5778517649032922.000
8762612528374434.000
6136889295310637.000
7768163839504236.000
4327354860989155.500
4277677518732281.500
6545890721217230.000
7840268781860198.000
4738053050118626.000
3591550106617252.000
3743395535931606.000
8378030647443357.000
4816841556467870.000
6297761971082158.000
8485261462376737.000
10659051359500454.000
28148766135491980.000
15361320852680906.000
14006217194007706.000
7240680694754081.000
3948767816111623.500
8533113741876611.000
11936808958129680.000
24382848700166180.000
13835944545285572.000
7990307368123360.000
7202995425087736.000
3822403213668131.000
4737312598565193.000
2669379886238103.000
1492346564161800.000
777003436516871.875
449030310854831.312
233804110733848.219
122723106791481.859
63351052023564.297
35526841501272.359
36833620801148.375
35506880923420.398
34807053877658.664
78218659753322.906
42553391271161.953
32634521127645.371
39852692981438.062
40784071876115.898
21197413575839.367
16164237086674.172
42764267559103.469
29030647015092.852
43142035349761.180
34812746170186.387
32929881008059.695
16597524669859.072
18297686208604.961
10545220848949.723
16482896039530.850
16712722702784.887
19213403973144.965
41619242386499.477
33726549561545.414
18452378980720.906
18633610796459.906
24436942262046.344
17587856943428.650
42857198430076.469
70265489140416.391
39385018176093.258
32026481514011.660
70090900018189.555
110561990257918.312
238654262285877.156
139691858324060.703
107535329105707.859
242328121295072.281
339907387578008.000
383491199030047.000
620662888117859.625
1270067582399174.500
1819044033342115.750
3765019559678634.000
3746171361792566.000
4132862456802658.500
4522958080069391.000
6884877573509850.000
8022456290651245.000
16017966098699256.000
8235344168707900.000
6112639503149056.000
15041975480488992.000
11888574698665908.000
14623320607277094.000
14780449549786282.000
15302251980259662.000
18678562916714364.000
21653995140996668.000
47490635254130848.000
47064349034659224.000
34962781495550812.000
21104905862693016.000
25439089639999972.000
15069518796417564.000
7907770442890698.000
6011991131546766.000
3590908385507320.500
8633533231638974.000
10977154558604892.000
15838348267518354.000
11370288162960694.000
10937910041074044.000
13674786244296724.000
19684967391172720.000
23051396850411856.000
35539933612716708.000
21276241117594192.000
10777328809254016.000
14394696531007452.000
11010820422696088.000
10519772899035308.000
15252702159142262.000
20863295821284052.000
51544976329679128.000
27143351337198108.000
24653569289569580.000
12914768066350692.000
12006750193585160.000
11128052230332528.000
6064324837255765.000
5760962895659354.000
3394781788475993.000
3587464097486334.000
3373771976958285.000
8275142458182881.000
10673228084803488.000
25427146169660096.000
50760313325270912.000
71380840276139952.000
155304902549544608.000
247001856885116256.000
265221164214352800.000
264460121953032032.000
289893847903901696.000
395208568836539072.000
448873822091861184.000
367414482913731008.000
404465657755627392.000
970804171077447424.000
682447216539171712.000
366892083079834304.000
457126444767587904.000
390770930774538944.000
237907997387190272.000
524239494573019520.000
646481071324518528.000
1401054002928432128.000
2242165309960162048.000
1225814578687627264.000
3056343896214996992.000
2726595543206727680.000
1468607757293571072.000
891943012100326144.000
913508455391812992.000
971972325142075648.000
770938647901763968.000
644401292371035392.000
895824899213360000.000
464805365269974592.000
933292924943448192.000
533823552621690048.000
294692768468911360.000
164549216164319808.000
122719839332866416.000
296926363798863360.000
235624562575137824.000
275450219078420448.000
196617957788234752.000
258252645002731424.000
288217838529145856.000
150384449438156160.000
87781590288202704.000
63559633573830176.000
158988035978049184.000
257415692355861472.000
508978400603381376.000
391571189053293120.000
437670231132480576.000
234620602888260896.000
543240334556140032.000
431315499575700096.000
531105551830381248.000
407140653662135104.000
219910136501234784.000
463174009114709312.000
716948843430784384.000
394602246123751552.000
443116066094430016.000
244971767432573920.000
354784946305003584.000
451618109670586560.000
916975714729976320.000
528504501958418752.000
826504490165460736.000
1669586036573434368.000
1213558171797978624.000
2486207993904978944.000
1369539220816688640.000
687224397924557952.000
808512838988736256.000
406167716641941952.000
968223355504817024.000
782112430764202112.000
943157923279120640.000
545026130869389504.000
291024663659973312.000
391248598495910400.000
889681054081701376.000
731798715008682368.000
367496717347143680.000
852142351630100224.000
658436370731635072.000
941339475111616512.000
713950644145181568.000
1670919306344970496.000
897827495694732544.000
1220651856044052480.000
1222518885581619712.000
1200256340360248832.000
1283331930800857856.000
2832257760427068416.000
4040954010890042368.000
8574377720119444480.000
12382648204772106240.000
15609889383285549056.000
8798529050552546304.000
7720467983277573120.000
3906628825202728960.000
2318027277206665216.000
1326337285783120128.000
774486958386694400.000
703218499660447360.000
762750889261366656.000
852140904195606528.000
450947525825976896.000
393024337986278848.000
490415089977466624.000
473705417886161792.000
261895425952804192.000
140411500285155264.000
152593002450345024.000
77490658694758544.000
42039940363623320.000
92108235624504672.000
75009268930559360.000
41583378360788800.000
20812407863493248.000
11719330337538542.000
28236250647887556.000
24658422983509908.000
14201903851580552.000
21158650088792296.000
47079667162441208.000
70902491249828840.000
151015714196310688.000
87285443412008352.000
49984972856846696.000
40521296665261160.000
91325563320000400.000
82062796397344512.000
117476945013015280.000
244139311112661760.000
387314750588411072.000
221694219092278368.000
135016550082475488.000
161725416209627936.000
84529568097835424.000
61877194172445864.000
83983345303855488.000
50162609275996440.000
62719359800894992.000
158979293762522880.000
124304923680255968.000
73638222791680080.000
61406147258262800.000
77117749842488256.000
63894271542362832.000
74885828409270560.000
68815577219632184.000
40247536658015168.000
45639232815801000.000
25575833385672784.000
19929599320222116.000
20383785422665080.000
26947567531744204.000
14671449246212124.000
14599032612028736.000
7410343986429180.000
11109137983369094.000
6781500743732540.000
3926664109978966.500
4551994551839214.000
6611861046714649.000
7844042082210678.000
4199946335222015.000
2437677516674736.500
1429707717055065.250
1347600728889096.000
1802971084233462.000
2722520216263249.000
3424517913681024.500
3993217221232438.000
2272158401328985.500
1170784705876662.250
1145471178708603.750
2495472065193133.000
1435592022232104.500
1010857025151773.875
1381652207948598.000
1385938505259596.500
1509328297707141.750
1306504754877795.750
1436778270686928.750
753418181370903.500
603361121140691.125
604185853423064.750
364257018391848.250
563846102699098.000
1372816700705565.250
1255226614795547.750
1452998372002162.250
1048421880709651.125
1525020744163579.250
1363364482719301.500
1522982917782339.750
2102558432933899.500
1788011669948553.250
3657883574913297.000
3890488469166098.500
3886142982154103.500
5982091586869462.000
14958390999869664.000
18755714581275116.000
26725338947245200.000
37468682904916392.000
22644372371676676.000
28079259101526664.000
27274992431763424.000
26970579473819312.000
28035853228528496.000
27236801009043368.000
26282899943662072.000
39881985330611856.000
23715863342008124.000
28008130175799180.000
46189319528633872.000
45445437258598328.000
43523310723389448.000
22052530489327768.000
26910718115603776.000
25996316757554660.000
22157653810570240.000
26789947611157380.000
18686499363374228.000
23790609777874008.000
23352829074718380.000
22410435247992312.000
25975846235300208.000
21752723787378668.000
28258047933197028.000
24457270802493768.000
13434419563064236.000
15167962056416414.000
21620387226759016.000
51768423272495984.000
35941423503806216.000
84270461199971312.000
44107714791073664.000
34377700213886352.000
77258702450683280.000
44590445077181760.000
39607075084759952.000
20771687873585328.000
50769077095094672.000
46102269441693896.000
37665873759245440.000
43801453387074280.000
26467040334005760.000
42425806986933312.000
85368785391944576.000
48578381167844896.000
51659821373402760.000
27407483193813760.000
28329041648167220.000
24453320608200780.000
22311500042877360.000
50008878991049096.000
49493288662163032.000
42905121919381768.000
69547293848879024.000
166941959764698816.000
153014216824470912.000
123625665622800144.000
74501505199607344.000
164494604885554560.000
255404003825945152.000
270328267089365088.000
359096903418138176.000
507907294001404480.000
278285627792515328.000
150283398166603744.000
85553148499263664.000
111773365527351728.000
252984838148814720.000
393405563230057216.000
479480675639770176.000
439068669118527168.000
266695526180357568.000
223438762464205824.000
455942110106951424.000
507384930068196416.000
444287529088481344.000
244468361054137440.000
252209929077873440.000
276486579132589920.000
426708434239768384.000
429121487006737664.000
521861061014943232.000
428779954534863552.000
420862330109433472.000
513572531594448000.000
262394084743342688.000
137639108479014640.000
83752052262410448.000
70640549951891448.000
39957927974019720.000
47797990053146104.000
40803347640852944.000
64667341574709976.000
62168843187356480.000
85147464430913056.000
61047382842686024.000
87901383023424848.000
69895251768260480.000
85775086696294800.000
87451719640995680.000
47504778949427920.000
45563622144058336.000
46991655661243640.000
50841303048471008.000
83471090994772864.000
77127267019676336.000
42269557289319704.000
38922226175748944.000
23205199648136100.000
11930689191128940.000
27646427568180660.000
43260820630928560.000
39961835864838040.000
21045217146160496.000
21822296423120564.000
27070969442608576.000
24377720631420696.000
12404679776435310.000
14643575000039712.000
15467179356073344.000
14595094994275352.000
8495715893913090.000
7180358535049652.000
6101381302267866.000
8746724426034291.000
8652432428018217.000
4907169668729366.000
3684610905378627.500
2257478387855842.500
1375732291764953.000
1216732190643764.000
1177753184052421.750
668630191958896.125
365514445226114.438
821883391063091.500
745436714055668.625
1077155990389417.125
607122898211823.375
318967787026824.250
388347294637502.312
432517592812043.250
610427239428234.500
787083012806037.375
629955580680632.625
1386758707703165.750
1928993271553572.250
2118156878704127.000
2240488939417540.250
1321777861341950.500
2722930832190028.500
2174533724287481.000
2055170984813882.250
2553121892711633.000
1464389511802955.500
820016638423604.500
469871966414330.312
339041330481529.250
331046617844760.500
454270066174409.688
406517794154764.375
621134340628392.500
334118246510042.375
395415136845154.688
835278998858705.625
794556181056923.125
1224201999795746.750
1021204093098033.250
1184235288160184.250
718647300212197.000
554606240062705.750
1381515272398792.500
1497676020140099.750
1261091015979848.750
661833671861585.000
353744356066831.062
217336443449999.406
344366138848352.312
320918461213015.375
393027872758305.125
225649163001132.625
235279670385135.438
177570351379562.531
205218692057330.375
410734993199160.312
449014065114771.688
448605045179574.250
705945202476495.750
712665072932065.125
631198403837558.750
1422936593468698.000
1194767554563959.500
1349441020987918.250
1172270983840567.000
1112525057729823.125
1374343091713992.500
1028418181888470.125
609831000455878.500
333769855797443.375
445113543978707.562
649447824731980.625
687003191219592.375
748034935236107.375
1163860972509717.250
2366473761084570.000
2606181389580855.500
3861595622851454.000
8428936050120348.000
7726574120790225.000
11631898750435478.000
27945405199630320.000
18974492618024992.000
28315345913143456.000
40309825295969688.000
92796608338599008.000
113864843989154624.000
162590538822318368.000
136513207780718832.000
142723824750667248.000
161582397170134624.000
161014269002857728.000
256362755306264800.000
395045792801620800.000
447011709034928640.000
237161445939232032.000
142612228112334880.000
155500236103271840.000
236970957253897312.000
124861003497997648.000
118335304240779744.000
247562042434111552.000
217061592902637952.000
220730240636715360.000
219426736934158720.000
453562051750539456.000
265824181911920032.000
241227216139069056.000
292626036785307840.000
396526341314369024.000
889781267178874112.000
775443059945409152.000
961279501326427648.000
749000674236019584.000
846106260478138496.000
724702177634252416.000
444686653503740544.000
229462613183292960.000
505070657578763072.000
706147575653263744.000
728830936225969024.000
882001206141790464.000
449989061657322752.000
654379574798623360.000
815353145671727872.000
1287494100777706496.000
1390796014401450240.000
1262167771235725312.000
724976763196441728.000
731862054077763712.000
635455940031804288.000
759918969632172800.000
897575169376066944.000
905199550705767552.000
682926828683916160.000
366180769072789056.000
356038183659214272.000
505719131673874944.000
352511543518585600.000
430496421296168512.000
462143254865647616.000
508841011651916864.000
352433490536003328.000
725196818365133056.000
941203438900268032.000
1443927586015742976.000
1334076989549340416.000
1193009574390403584.000
1476420731598477568.000
2069509286643198208.000
2751485011074129408.000
5685466831153313792.000
6998818243254786048.000
4100407494886087680.000
5130481989467539456.000
4180269361774426112.000
5371593993277595648.000
5114502778496686080.000
3007542427352173056.000
4127654937989002240.000
4740863650449776640.000
5516067801773635584.000
4734193597272489984.000
5405931956736374784.000
2930660398823484416.000
4647525237382786048.000
2664596134972414976.000
1399244104300508672.000
2223559014722178560.000
5481808501534763008.000
2847487520392861696.000
1441445934769532160.000
1537815402447907328.000
1540329797966871552.000
1251794296019253504.000
765270689026461952.000
855524671180629888.000
460972186166416000.000
388590960287911360.000
367826142157439552.000
544992049576032192.000
463934073128379392.000
533238374968269824.000
454674641353638912.000
363649702004562880.000
458072657407795968.000
410141466296972160.000
234987441274834944.000
279685037024797536.000
427402023809435136.000
484813889226794752.000
492627686870498752.000
403247167942419712.000
210896496777711136.000
127765509300756096.000
280197282644751392.000
391399726440202624.000
403006523917054848.000
355567706601736064.000
847194854694063744.000
875447802455574656.000
472552557175329920.000
278768868026544352.000
265664187926141952.000
533939920432566720.000
282789475928726048.000
297379834015041024.000
258595042574233056.000
223066828507118016.000
128991722418080688.000
164449056312237792.000
109569849378836656.000
126812225422581152.000
143981071128690768.000
120800302035459840.000
68632206708321000.000
75219389031758384.000
157645010923607648.000
92877315228374160.000
72319633781460928.000
70129236240415128.000
91420610882549856.000
92996609727424528.000
67608839582916096.000
89839447676589488.000
62217400257720600.000
156171645834888224.000
162795473417890816.000
149401884719623936.000
148688475640456640.000
79691236476703440.000
62499113173364416.000
85428166113790688.000
122119767490086144.000
136301174578776240.000
289075357819170240.000
409006111330405440.000
223521089484207456.000
298363491760020032.000
257009142451625600.000
261054065547957536.000
232653303503625632.000
204940510061952192.000
248910679360656608.000
294899488868627904.000
159273569062336352.000
168263728656029408.000
274514522290943968.000
201503504528001760.000
120494192571932208.000
63296315508325440.000
85504538665005680.000
48282624817782872.000
65690898389465544.000
87167020528370256.000
48428470406426232.000
35875207290463476.000
39550816566475504.000
91246264003060624.000
70362126865944432.000
38025270945668064.000
49339080796787264.000
40097009077061440.000
48117209362261584.000
63654622801954224.000
36047480430520824.000
76220893655790208.000
78964807041347952.000
64210745088342840.000
37142966911154136.000
82860587481323200.000
89883416271941136.000
88890499886932144.000
89125204284820416.000
68823177131329616.000
151444917169853088.000
85581781571928768.000
90701189917194624.000
50195790366193536.000
75956239442441568.000
38808953106697672.000
48304217031016152.000
38109864289183736.000
19949393832394340.000
23771562118712248.000
12502254008975136.000
7127891798437471.000
7044288680832602.000
7773720535432814.000
4559250861567473.000
2699798605263995.500
3390655812409898.500
3868619475860940.000
3641363473217078.000
3775440623544965.500
3284466798351834.500
4220268941835778.500
6815243965374456.000
5780590003530962.000
7837188709496021.000
11394760801858888.000
10829433806522772.000
11542570819388730.000
26493592470460584.000
21428680379049184.000
47503940557896232.000
49936072461696824.000
26627009999614512.000
15656449070737964.000
21875896294046568.000
25558575012385584.000
19393155060685296.000
10960713256889034.000
6716604112750192.000
5961462555787181.000
