44.389
63.887
150.625
220.841
483.997
761.848
690.899
1409.581
1928.040
2067.468
4413.223
6451.523
13751.721
14296.916
22344.266
20733.961
20311.899
44261.409
67855.649
152891.820
223057.307
233338.496
498046.779
1010006.143
1241378.844
3208315.612
3187670.730
4075849.839
9488443.122
9389598.259
13848971.612
13681983.248
13450834.220
27366401.535
60019384.383
93516905.381
94799261.606
98955531.868
151428481.551
139546384.475
342884144.783
541846209.214
515595343.688
1069155039.173
1686356818.393
3578320120.820
3453339973.143
3198056688.099
6503682339.479
6368226667.995
6303074711.590
5858283620.998
5897936102.172
8605312169.939
19471140474.961
38709826615.139
35889933098.058
36799124865.464
35508580233.914
53007405375.404
121197008924.147
186668162216.938
284527038730.482
701904377399.266
896683397329.261
1001019942862.748
1018777761970.730
964995176276.997
2332069667983.062
3800357762813.995
3773769332588.807
6020168559206.718
13393584479066.777
12854632171083.584
12804348488967.252
11709869516162.314
23855998667213.055
38400301037838.383
36903416361234.805
82092277502830.188
109182703858951.125
116821997471482.797
257791852185543.562
239979009841683.344
250641743966885.125
406260398307375.750
378852921708964.562
839887103602625.500
1373198186490496.500
2106932263337702.250
1937553801017530.000
4665004891981746.000
7176267649878247.000
16107583793182032.000
23191044675776128.000
34847600484602564.000
72600744113708400.000
72994677880456864.000
73971130906457456.000
77015510384879088.000
71115086284123480.000
82323594731902416.000
67914207107214032.000
94597612505962336.000
68615130994321120.000
36188461105427320.000
91294393688403840.000
68698406012114160.000
39984643393555008.000
42105394235747168.000
49598190541269624.000
29335307585978288.000
19348592441535340.000
44790388161226848.000
35973424722822468.000
73025097543314576.000
68605852837028880.000
79788039080253280.000
68962988895918888.000
41069872173295048.000
23070104162063892.000
50067459953523216.000
36418628131820848.000
43852759422102816.000
52046915456430608.000
29033048295938784.000
40798640225874336.000
50488746357794200.000
35469540052877224.000
38489889619331952.000
51767472585296816.000
72094287180265008.000
169050739353773952.000
120639800346285504.000
168341414838607424.000
93719569723136656.000
121802099004573024.000
264188879136915744.000
211886158722428512.000
232123514620936480.000
115779141329838672.000
148470725283534368.000
134811629850637008.000
164271098252009600.000
84015555362793408.000
45432386292352792.000
43312240534450800.000
45259038407090008.000
24100938739433184.000
22655506650424400.000
50640232899445328.000
46455084843556952.000
47660125175058464.000
24779227873247604.000
14843851382369104.000
7716352607974797.000
8197494466044145.000
12441953729289048.000
13728010262061238.000
11436900387923186.000
6555392127789679.000
3288806662602894.000
1808029809311880.250
2566604536635269.500
1423665432115529.000
1318017853433620.000
1210749108093309.250
1240213446997688.250
711110727237787.500
605942229363224.250
1229073174428115.750
643163006163981.875
828201662046049.500
825761222558730.375
811083718565160.875
997180280159344.625
1522049428001336.750
837115081501918.750
1349949397031998.750
1488649054007148.250
1023127370870994.875
1034163822406278.000
1173329958160206.250
2535842436065006.000
4083011167554548.000
4747058988885355.000
4639811877597736.000
2363312803492725.000
1405442653972924.250
789371580050127.875
1258442991827267.000
1495267472455170.000
1344917720498795.250
1204825372268269.250
626255393759611.500
759247167484600.875
414738226093578.812
407623676406629.562
590051551617863.750
1453274485768264.750
1392583059931294.750
818955289754621.000
586738367134535.000
826338241909522.250
471328227342474.562
562132851112159.688
683734153078850.375
416200568573113.250
672207321600613.125
1034049354562630.625
638591919317873.500
656659121436935.125
381236489379321.750
467083402073187.000
318695976163962.812
429421018986846.625
845581703544032.125
762943741014358.500
448783021805649.438
462983949969147.938
753225027661828.625
412258802089745.375
314171230026761.438
406934374639155.125
334493876474085.000
707943061743987.250
806702731083500.625
724561840562152.125
622227598520662.625
1290149525789382.250
745305420289034.500
398365037544311.250
351130084482976.688
448809579645490.625
253455148835411.125
337151634485018.062
203745012998472.500
240428165685544.344
187700363668423.312
452758705455532.188
631126069786873.750
779747910570038.375
1192883179141333.000
694893241036339.250
1002954133884562.625
2347038878932524.000
3587073910702289.500
3291247271105039.500
8803430722879803.000
14261502306996586.000
15676109334401334.000
15347526867896858.000
22411781645798584.000
47518363729329024.000
62514387945278576.000
129916438527515440.000
267028817349144864.000
140492876053318336.000
287442532232625312.000
228665794986204416.000
543921426734108800.000
537366314232592256.000
825388799211699456.000
493905525801876224.000
744909424138747264.000
1668097167365583104.000
2663436639618900480.000
2557202012160586240.000
2334930231891039744.000
3040282004532430848.000
1670646165423196416.000
2561166868622022656.000
3161517809617139200.000
3024747535165828608.000
2815406640504096256.000
1625015595238898944.000
1160732756713338112.000
3175400751614250496.000
2721531622261797376.000
1410708785785969664.000
799313464677261056.000
1179878049736730880.000
663840509680883072.000
950407530433962880.000
505892470712237760.000
283055985562281600.000
440798671340548096.000
909387872249298432.000
1336539600205596416.000
1408649459123730688.000
846690046088578688.000
505286941289254784.000
428925026977569856.000
238715347290914208.000
483937747409131648.000
276416427571345216.000
426036454269159040.000
967615017042115200.000
740531959657711872.000
658392105681380736.000
1590124737350843904.000
1464334358315286016.000
732239460214769792.000
408139997101754880.000
856397906146878336.000
647809292000197632.000
797481490089166976.000
1650659634177998080.000
892031719634270080.000
663438932610367104.000
1523639218495333376.000
1563093619903690752.000
2271402159650167552.000
1398619284225548032.000
1640066968684776192.000
1255850151107300864.000
1540977432186284800.000
1392978073762334976.000
1462618489409932800.000
1509243550057322240.000
871865910887375232.000
1380936933234436096.000
1576833855326953728.000
1142308521733043200.000
1751447354893664256.000
1312750826653377024.000
760007382846937600.000
888518160305618816.000
715720628663981312.000
370739635309468736.000
965204902994586240.000
1476490044359148800.000
1682288626758717696.000
888833653412191744.000
843139291045717376.000
959398118989779072.000
889111615905537152.000
730019387787948544.000
395279518674282752.000
488000521032982080.000
295698667375344192.000
251048689305432032.000
149604338133934560.000
295470972423913856.000
210307481753015424.000
119132272630853088.000
161162909896675296.000
202000456734539904.000
120544902013623856.000
135447292450407696.000
119359582085151088.000
109260387557803424.000
143408570025731504.000
81099486718959600.000
64542201872852456.000
34935463710882908.000
46823954274296176.000
61205623011570920.000
76406045428044560.000
41717729362094488.000
23784771310107912.000
22757171829094092.000
13530276626812938.000
27072508521370000.000
15629711989795320.000
8292395675303874.000
6210202783275717.000
16002507060157222.000
25608854229090016.000
21470581484793952.000
23100122289000836.000
25577167942671408.000
19757199856580352.000
47638021061954000.000
74174964902367088.000
108837158706787376.000
160292380009262336.000
143427626946091616.000
166715801041453088.000
244713246916432288.000
357977430444485760.000
467311939751198272.000
734617493950238592.000
440436707773164224.000
688832827639157504.000
1665375739376812288.000
1459542217215208960.000
1643155286100401920.000
924659984756858752.000
975141138196114944.000
1336495372558632704.000
1388984214696292864.000
1630825856279203072.000
1677945586660702208.000
1207952711521208832.000
2480052701876961792.000
1348534631827299840.000
1758872948894343424.000
1248704582572174848.000
1647739940316537600.000
1245675560697854464.000
1171457056561269760.000
2719525673348602880.000
2929442422855602688.000
2402089499660906496.000
2082550497923046400.000
3044875026502249472.000
2364625403941157888.000
2450341099313538560.000
2141970066316523520.000
2934515023227852288.000
2863816177949256704.000
2194914797586931968.000
2097759641759505152.000
1260130909473484032.000
1509084927913445888.000
1323611465309528576.000
1622932185529125376.000
2437850267248227328.000
3848405704324258304.000
7796549932944966656.000
6810620352427344896.000
3803717014075718144.000
5643669377485804544.000
4200934361270246912.000
2545713578156557824.000
5091080591226380288.000
2937944159421117440.000
1517965717489581312.000
2323995428135502336.000
1346505083547449344.000
715484275809900416.000
379297872993723456.000
859506295877686528.000
1398887775021191936.000
1177458072224048384.000
2893675097691622912.000
1511689765642042624.000
3042792901751417856.000
2079559232709357312.000
2096281556080357888.000
2424022070996244992.000
5418119018765184000.000
4623403897179422720.000
3781456119699778560.000
10099770520628207616.000
7716970030725043200.000
9852680929832990720.000
9237855826611185664.000
10126364670961795072.000
9022709966367483904.000
8206646741923374080.000
9486723628656070656.000
15504445032788322304.000
12301356336152150016.000
30745683480777687040.000
17911686015475425280.000
12325526804914819072.000
6673022925983899648.000
7414272225218137088.000
17601210087889354752.000
16510141620251402240.000
32982143832208269312.000
25580350599056351232.000
54328773907726532608.000
72896445836319653888.000
41736592023365517312.000
49420976579791888384.000
58003432716541476864.000
32244555824006094848.000
45539023118836744192.000
39259271118734581760.000
22760925146030575616.000
27610821312969445376.000
15258941905785083904.000
8097597214417390592.000
9154835531939674112.000
7853146123607181312.000
4645623986964946944.000
2401525427677596672.000
1354651739030831872.000
765122533140842752.000
448435021837739968.000
424008124957506944.000
487707919428033600.000
248341992955894272.000
294891225172296064.000
164898358176332640.000
158850971326394272.000
231698699004110848.000
201874586052814432.000
429247906211566976.000
229884538288673440.000
465155070311662656.000
365132470099719360.000
514531710591120704.000
801616517992328320.000
484438085275058368.000
436434241713045632.000
221750301618513216.000
301834119142065600.000
286016912894707264.000
225925181414031072.000
225299015650436416.000
119794366571587936.000
150787092061259744.000
84443936801432064.000
67186085600347328.000
67978323901881504.000
38429095287611864.000
19649116764867160.000
20306145059797172.000
23835383338128324.000
37761237603368304.000
40432290713769792.000
23435182743405360.000
14097711850754356.000
8246540197550619.000
4888070765665251.000
3761140161558346.500
1903889832136059.500
2635868447327490.500
2671018683719847.500
1828820709173188.250
2107444283437281.750
3332589397309751.500
2028054388603764.750
4939057654000343.000
4652231867855241.000
2696791206384914.000
2741282853022850.000
3402487397820474.500
7375788637151930.000
8294831705377176.000
7495819099539705.000
4050257670482611.000
4568222317313387.000
5855947382323896.000
3251856976167161.500
4142318839586558.000
4351740177539941.500
3838522572898166.000
3250661226381375.000
1902197845225239.750
2689951215393369.500
2457663553362198.000
1376488963490959.750
702485954990251.250
1415265945066946.000
838359748382841.875
597369973022081.500
1221443784401218.000
999587879603429.375
1355925148995723.000
1097164826598169.875
556490139153831.562
590238324149278.500
827908262226723.625
1358150995186640.750
2021124276960345.750
1187519982735124.250
1082383960364320.750
1453474305062838.750
1118640872646874.125
1337922899967600.000
1154585934189604.500
2632425759852225.000
2076276052902986.500
1787387115740300.250
4933760655395554.000
3993266351847489.000
2445531897247524.500
3645097347258215.500
1813179914384087.500
1986494874119232.500
4546801138656148.000
2459167598354840.000
1916800632907962.000
4893530560805428.000
6518807415852369.000
14762289786247642.000
20495848380803312.000
22075955593922288.000
24208822421859888.000
13983557087560272.000
28028145607853928.000
23386676760828160.000
21040171421288464.000
44206006929601280.000
34710987119500540.000
48615912630500568.000
38054569385132200.000
38084662620480320.000
44551540407338352.000
36069431757596184.000
20291041411638572.000
23040891476332764.000
35106956374221628.000
48050130731375592.000
76313053807677424.000
45605445653699432.000
91293166081479408.000
48024019474903120.000
50518697892439256.000
48645292154585992.000
40195360667815192.000
44076401359626696.000
51111709618839936.000
79789075929392096.000
75899643951282432.000
166461661809311232.000
248220631896619232.000
140338993289091936.000
113916217780012896.000
242265759891983040.000
540673855478740096.000
713231295213499136.000
1441051254780533248.000
1554094528445306112.000
847000303275428608.000
882143379572716416.000
740160774463972224.000
715491392932895232.000
365064368851498304.000
458963724709752704.000
262567779736840320.000
520284970057638400.000
393992653231585664.000
855049645304352896.000
1757377772334259712.000
2843800955847687168.000
3198055645455124480.000
2341941339546899456.000
1413447849953386752.000
849653139325600640.000
798853692175037056.000
412380366619164992.000
245608218829711968.000
535266800080537536.000
296700150771539136.000
287286156012016704.000
166100367423272992.000
92353327531941152.000
151987408162060352.000
112173364198260784.000
129828621112629152.000
304570118019387840.000
280450800409580480.000
211330745756044576.000
199122864563254592.000
299810141689905728.000
169533178574540160.000
93576063398198528.000
62370995745114912.000
82552868621502448.000
121271411058102496.000
282537738409484384.000
155330280939983392.000
88316376942306624.000
45419249754869024.000
44489400377169280.000
64987515015861936.000
92493954506948784.000
72351486678619696.000
89584865934417200.000
80777971355663184.000
94688154431336560.000
86423693124880544.000
70823446414344288.000
80997175133734704.000
48418164973500256.000
72798595107183712.000
38935267499380784.000
40478304357709136.000
39010322648144536.000
48852111931529400.000
51364554366656576.000
36886921979295608.000
19589214235765024.000
10931229830141310.000
12698572383123348.000
15857127713545694.000
15836299698281060.000
19957561004324784.000
46010820068315544.000
37430326553052008.000
44582274819687216.000
43372502517811216.000
52735496498121200.000
45236566069921896.000
36591228268385960.000
22389928453351868.000
24502478699902640.000
13959614234972028.000
15585617998173778.000
22729649413210180.000
20108891193837952.000
26763033977833548.000
14900835217088670.000
13070053569267030.000
26190819251518392.000
13793305076919948.000
28583261574914796.000
43527754862022024.000
64169610457955088.000
38089881905938744.000
42104859450740800.000
22637067138037000.000
25841982171609152.000
24810419081071908.000
21500254796421052.000
10847439530643894.000
24688178467386600.000
14725027452629260.000
8508606338718441.000
4864526136829728.000
2610111862901308.500
1532203371214912.000
1520093111225037.500
1491574588111145.750
2046930610523710.500
2307380685817455.500
3731929870298950.500
9125156359876622.000
7833613007434632.000
11477982347273382.000
6994281099844924.000
4006238684759030.000
3585300231811968.000
4946629173352756.000
2778575803591091.000
2340391224486734.500
2723059902205937.500
4072438414814876.000
8076856518373527.000
7685580076829569.000
15774494765136042.000
25252826597904900.000
28700671111578668.000
37651971664631192.000
38795873617236864.000
79561436897401728.000
120267941967586240.000
158223120308966496.000
91951167815132496.000
51018283712939464.000
37793035659398328.000
86688664998777568.000
46574270472074056.000
43576307847958544.000
38459988263520288.000
39183056455219328.000
39460410914331144.000
22004606751757992.000
13075884811869426.000
11175969497571582.000
13887501529894068.000
21696807059415436.000
23179810770616148.000
50425183224400624.000
47834925204410760.000
27204842866692520.000
16030307068847678.000
12572719520526618.000
6573279425765787.000
3801978014155972.500
1918637576089854.750
2578430708284791.000
1457706198500284.500
1300477419131711.250
2582705264561551.000
2296904810885820.000
4653601799836630.000
4350247629296791.500
8895799042150655.000
6596841366985739.000
13861631091141904.000
15890065376380428.000
22648645691176996.000
49654633405754272.000
36406045704020376.000
51127646781050504.000
64991992602390552.000
78295147138072544.000
65510905505653368.000
81806126409445696.000
42715877741378016.000
40036627329046184.000
21637093580584868.000
27605950133921592.000
23036737461094468.000
52149556328603000.000
52408613880339160.000
50977925759289040.000
43370419691242328.000
24541853325746912.000
13130883012380902.000
11594023587123936.000
25442900876691004.000
21085080958819896.000
26180091953306424.000
53851108717741696.000
30045727588352028.000
21296829306061296.000
28794633672014948.000
28927197684760328.000
40997480289680960.000
88686021838981056.000
50525009749541328.000
48958207758413008.000
28382747849606580.000
26424732348354528.000
14543454751302944.000
21536069731148476.000
50054882840493176.000
47875942621171520.000
72445461856944112.000
65637950345711928.000
68549617240371056.000
139702378139651488.000
173639265195572992.000
131285364086162624.000
77809942032764544.000
46484246779132184.000
38963274163988224.000
47392288222743840.000
49437185944429440.000
64146464810661184.000
95475919487932528.000
70563340730513664.000
149148008955671264.000
83523546301657024.000
47952517104746392.000
25566498543252584.000
14161235597311106.000
19867174749143064.000
10956469849236482.000
6486810430992061.000
7707247106325525.000
4214143812846665.000
8559993181401022.000
6695468071966441.000
3699369231070938.000
5045591567670578.000
6886452660004275.000
7351448765373978.000
6130562166087788.000
7243663127095475.000
11601268573382382.000
11830891581941494.000
15341985265241546.000
21099239826334432.000
23027347743227264.000
23745879525165148.000
49919254602080968.000
40566253249286864.000
21058332362700244.000
24662084792530416.000
35541774801443032.000
49450182766712376.000
47122344472381416.000
67996146672098816.000
147002868219147456.000
124905327583678832.000
258559207379021376.000
265893957012583136.000
412828791671609152.000
509010865612171136.000
796217086314544640.000
414930424711506624.000
470376415035808576.000
424081255604924288.000
216808435931991776.000
217525411258387648.000
134134993854231360.000
69792300661185216.000
40007631495087144.000
22466295898639100.000
13657962836625910.000
7264830533579887.000
3698945891157831.500
4359423336920937.000
2441323562141922.000
2043720129160883.250
1111104188815354.000
1415989108325514.500
1442675934335029.000
1543282732227142.750
2300623630239705.000
1157960717813166.500
585882092795801.000
785183098080950.000
838356286721790.125
1242963385620877.500
639881643868267.500
1474034849874022.250
1356956867226278.750
1509768992135908.500
1064080837673568.500
621657651435971.875
346933131006640.312
397142983781060.938
829160172854701.500
571684846335351.375
342535147177040.750
324165394160503.125
366931445883262.188
184540251000904.812
479334515967373.375
755455933319464.125
1538909616414146.500
2275769855366301.500
3507542848156393.000
5035462099576665.000
4064917930884862.500
4013666408938282.500
4673137349010695.000
7563291724597738.000
11965693734624098.000
13630618461221440.000
12016398166218708.000
6813552937432857.000
6306998148245503.000
13065271289227744.000
7634103922817213.000
8873390904351432.000
12238924178697082.000
15707673598920870.000
8561348927496567.000
7735264436845498.000
6463940657777262.000
15123505512572668.000
14072875573543704.000
22576291266608152.000
24568283107936548.000
12335980944525676.000
12758348061818636.000
27409269562888012.000
14728517744895948.000
14314547440320228.000
7592180339680104.000
8957235087438887.000
8236266233387717.000
6108723777502038.000
7149160647075337.000
6739472993724209.000
8644472024568093.000
7689143938863300.000
8674025119637483.000
8579940634266036.000
4410559125151406.000
3449948281571624.000
8125897287564976.000
8615581207639071.000
6442325672076347.000
8618220102881769.000
10850501330570746.000
5972246626985686.000
3590341587760416.000
4806499233354015.000
6863976728911725.000
8466043635005038.000
6367904015650258.000
7787920958092733.000
8885127611630106.000
14070133040138842.000
7666006952340395.000
4406653863516757.500
2651094504637158.000
2440508620178713.000
1309834254307268.000
1501953254684860.500
1918719948358820.500
4049847079657208.500
6249249303871996.000
15083077514656652.000
19896739755212308.000
48809695763259584.000
65954414119744280.000
69377101654904784.000
166113380932442208.000
129486636099242480.000
132967386655594912.000
149176067112654656.000
138659166919365936.000
122534163279590128.000
302985315317256000.000
361136653574286912.000
498002096461449280.000
804945529384414976.000
1297069887199847936.000
663093527665914624.000
649475670940146560.000
850308645791834496.000
821344697530790656.000
489750205050338752.000
700937284589452032.000
947044511052128896.000
821182107848459136.000
787477238479015808.000
803783003866795520.000
438078103654460032.000
225330117481669952.000
260140921910377696.000
357907895719881792.000
763803417297325440.000
463842693118879744.000
653381599968721920.000
802065922297843328.000
462301644533161600.000
263283289028430048.000
301945699700053504.000
255026316253572928.000
289677246476658112.000
224535691089520544.000
480506901945839488.000
429946566728572544.000
487388597091194048.000
289197419717024512.000
159272637391443168.000
138796864678780656.000
197119608121333024.000
492841909942623744.000
437835133425168832.000
952760120615356544.000
768590916712755584.000
452784430694499008.000
260059393883019936.000
240519080643673376.000
276473941154583104.000
204306454429624736.000
254159242416728160.000
270705049926804192.000
161441935241728896.000
231756567763178624.000
512115086433304320.000
478719015598637952.000
259545130794528032.000
513821055450107648.000
830305162044283648.000
1332376780493459456.000
1484651661331917824.000
1383855906552894976.000
808282722544771712.000
475003530908320128.000
453352484724420288.000
534718709896623680.000
284406466793443712.000
256116883251211904.000
392563292877136384.000
429064858370094784.000
213986719414283072.000
293337893108674112.000
278661057085572192.000
165625318982267040.000
91794600549696928.000
76405231554825328.000
167449969403825696.000
205970077596773216.000
232211877826968288.000
125367659675712528.000
150267839642583328.000
113699584903973232.000
166160194861662336.000
145417944840379904.000
162585932845770528.000
262807843073445792.000
278808325168084608.000
361159966081879360.000
959420705444254208.000
900744949213112320.000
796764351416958208.000
958408699211915264.000
859425600576907392.000
973484069126169472.000
514945212239209152.000
410160359419892608.000
505737719156999104.000
290580366471335616.000
426139136768851072.000
526184557855211520.000
384306130521596032.000
879547317051944448.000
963169172470233344.000
1370303453196035072.000
824787169940059392.000
704170107942595584.000
375786787455798720.000
478260877775435584.000
247916770689422656.000
143547918609972784.000
138596125638183120.000
197294803672819872.000
116172572407869664.000
112025323437981888.000
124764215891068752.000
150438430884809504.000
77359969714950320.000
39246370554807176.000
84919391539935584.000
77286867080347376.000
166064708922248416.000
241707253266122720.000
127754757187170512.000
109866478846159600.000
165649657042148096.000
163680362143882432.000
112764646681141328.000
156160310876166112.000
163668891987992800.000
214376401521339808.000
125666389408603632.000
155798959042314880.000
131774961098316352.000
75478113201249104.000
37749157857036312.000
42450799922519272.000
49036809654316384.000
46719386262151832.000
75388083843922784.000
37754188204563136.000
22564126757550644.000
28624593877372668.000
21212661694456464.000
11527454876406538.000
15835553072869152.000
14583610834961368.000
18766732309877896.000
44944748397748960.000
27309634660172284.000
14768782840129902.000
7820433364200850.000
15667243277590938.000
20439363936583000.000
28502302374980156.000
20356631065659228.000
20625198282532740.000
44481105101921176.000
33589912892966728.000
40761671666008216.000
35956924411819004.000
21398771338710156.000
50326183420731160.000
75119265394073088.000
114532737863264880.000
252013440285916416.000
292728003700471808.000
388006004149510592.000
539501326449950400.000
492131377395238208.000
500571144652605504.000
786277066567207936.000
408338008284269696.000
908108630191663744.000
953518013442103680.000
915240303668333824.000
502556012246187968.000
441935588672624960.000
250082153436188864.000
289169290528425920.000
422782691374037312.000
544585830627496000.000
288822568426923392.000
163326582084423584.000
136339034695007472.000
118321273672573024.000
154486723809598176.000
248857688478875136.000
217071647442779840.000
271043237843976448.000
354274287185725248.000
540713057885912704.000
285769913620166432.000
200747524489612672.000
237557347102436160.000
484428380220747712.000
247130539610818080.000
146757378547669472.000
232348749695356960.000
126885073873992384.000
159307479901160832.000
127821986058594688.000
143104477249828176.000
119871855575851808.000
134773464327621840.000
145907316860101664.000
81776078249377472.000
126669804095745952.000
67696905176642208.000
156217109246078592.000
245286223734848384.000
525755935966677952.000
475856195903261568.000
693296417757487488.000
1689026412036341760.000
1681858315323261952.000
945869482526894976.000
1424468945848632576.000
3131542491789106688.000
2221035181444222208.000
5228910957844800512.000
2715154417238214656.000
3021494496422707712.000
3117630531707916800.000
1694374319206450176.000
948684034401768576.000
1155779158546618368.000
1451341000941374720.000
769073663877128320.000
1602161207674173184.000
934738951361945344.000
1381494900038119936.000
704516929248984960.000
845447234941443072.000
831241140922685696.000
1311432329852070400.000
1519714314963143424.000
822354545145163008.000
845400106149397504.000
445829344705211904.000
406108818519014592.000
422738521175517312.000
215367916879070720.000
110946273284392416.000
275950449759231712.000
209001585704564352.000
440974527477965184.000
534096902872037504.000
382007344496590720.000
906573037881130240.000
1316093773772697344.000
1309233953176302336.000
1759080303245617152.000
1385245648243832832.000
1593137047497250304.000
825972668730640000.000
843615544876300288.000
646599866679161728.000
756651829512875264.000
966777594719009152.000
521380419431461056.000
721040758979484672.000
895256315365791232.000
471781257397146816.000
537145093150906624.000
356789482610655552.000
408719595477151424.000
529980625513550976.000
353693750839806208.000
196036331286681344.000
517208710608017728.000
447079464563888576.000
701530327556562560.000
904335917073976320.000
1239986069878044672.000
1274574679850461696.000
2724994711689673728.000
2279048283102121728.000
2203278941405631232.000
2640741851898390528.000
3083055172855533056.000
2165806167957994240.000
5700167588247134208.000
5437869763483047936.000
4936802141281546240.000
2713408845837820416.000
1650670452157467648.000
1431829312021940736.000
1755566336902364672.000
1465935249433516544.000
883791298714481920.000
734514557565174528.000
1521632596400658944.000
829287839194552832.000
470211412557272384.000
242180431898942208.000
220001151230567872.000
453733079944372800.000
271339215302065248.000
254813337830084032.000
139005132542654176.000
115386957638387616.000
143316522365872240.000
85340998779887040.000
46160669962380952.000
66315534629055512.000
161655976926003744.000
144678460322534880.000
206071824595451680.000
279324913512760544.000
141340925795690976.000
168229737212760320.000
119955893800429600.000
137143090151292048.000
73047452420792976.000
66511093780730280.000
135598375160807968.000
71705705538790920.000
82173712232065408.000
46271441629861960.000
36979414905570600.000
34147629906302032.000
20425141346015288.000
47112263383637640.000
43507481373266072.000
66053413096831904.000
88859001469389248.000
68655243488047472.000
152224726841725056.000
87879627561839744.000
81212394423623008.000
64305977714272976.000
134968800077457616.000
75232602116436688.000
151645921033593408.000
82142207327777344.000
64362044955021872.000
68461516453699440.000
61119241460073968.000
163734516456482560.000
153469539765108032.000
156770560326318272.000
202131178295842592.000
218109013670735808.000
293555778743623488.000
241327714416323968.000
135743514100800000.000
121508083978136208.000
66403845046562816.000
39044413241926672.000
21944437269634168.000
50932542516939136.000
39110752449422064.000
44487387342946520.000
23558549549325336.000
24952285140127752.000
49305492913861248.000
28507394195060892.000
23341520796535216.000
13255329721979662.000
14478254218212966.000
12640635155259212.000
6857832068684534.000
7273609374254194.000
6176539753995119.000
8599194133055293.000
6486476353075523.000
3280458770847866.500
4541422692483914.000
6841265144717094.000
8291413169751685.000
6517792891880211.000
3874761174891486.500
2017430989517987.500
2347683158618547.500
2169712246587904.500
1117616251853351.750
1375454230004079.250
2121879768236217.500
1201851696243558.500
1361737780575804.250
789959487175854.125
407296627712684.125
594313683894006.375
368106664803980.438
785800127370681.125
1067021014993225.625
1372137684343324.000
704608726275876.000
627847987382284.750
1300671527090653.000
1141428181729886.250
1443947449071979.500
1360091270015815.500
1869190091465293.000
1787875008966284.000
4894593025797131.000
4176656113254563.000
4270667790045819.000
3987578687421288.000
8069270453793611.000
4562310609427468.000
3660872399158344.000
3675174740064296.500
8759762392071757.000
5976713007417179.000
8074930958419555.000
6070955417668213.000
3431849922600991.500
2119682450913252.250
2052672511594791.750
1822872828252202.500
2127977437742355.750
2712054396027335.500
3758164620805358.500
8743934522664286.000
4624214529558364.000
4216012234382307.500
4904501595755989.000
6516971382987330.000
3858265861848107.000
3545930915786916.000
7231836099577243.000
3637630600156067.000
3851753332843207.000
4808136645225107.000
3749358460165976.000
4837037935525421.000
3204578617717576.000
7041155291073449.000
11154549356204072.000
6033165784810148.000
6939954929065811.000
7220936235358345.000
3968381111824090.500
6388567556378861.000
8699021900776055.000
11184491504473710.000
11826855146408660.000
14906118742172524.000
15777929774022396.000
15111462055863634.000
13197108203762342.000
13463493553059118.000
10654784263487550.000
6472851773355668.000
14322911106698806.000
12196535065270758.000
13011240999522594.000
13726706496060396.000
19619503180499544.000
22417409572113864.000
13337151393043492.000
11624308492920852.000
11226699703244478.000
11980991010809962.000
6155824030356052.000
15422068517711774.000
12089326050869060.000
11686736593509736.000
24812689766241240.000
20165626622369904.000
21156416163982164.000
44865685189748984.000
50336931082539000.000
45222778360879552.000
23804417407000908.000
50832423075022864.000
42693145079396392.000
24863401617676112.000
22119685135755908.000
11965693904730730.000
19011576939124988.000
43831796203237624.000
38228004157813312.000
86993176484204736.000
93011902950027440.000
84505619971396912.000
69478449816568656.000
75653650734277744.000
43024927939507952.000
42884253337583616.000
87992832546091488.000
61141348170395160.000
142704876234425616.000
121830089112012128.000
143257172083468272.000
111063875762753824.000
243848303366757600.000
297691524363150528.000
240450644680275424.000
288397843013875264.000
161118529081863584.000
259385133089988192.000
198088796581204608.000
514723231427227776.000
433594958608955008.000
383725577806149632.000
957639158938981632.000
957441057732354432.000
724717584626742784.000
690059804629224576.000
862541686899277440.000
896956505483643648.000
474166801873593472.000
249539682560827104.000
205233475018450016.000
113268218058867264.000
285998302002244096.000
268322999814380928.000
414935929635264768.000
490477216837935616.000
297576033879236416.000
236164622000664896.000
209392789742183040.000
271221338896668704.000
378529339152390784.000
370229002906485312.000
223493673707647520.000
120615761998283808.000
131005109866270704.000
128359216156110384.000
144324111787531872.000
138462872183431456.000
127260663286173136.000
70547408517910512.000
42572575939054192.000
49172339687398192.000
26110324703200236.000
14265159969565042.000
11056840369985138.000
26670584638305820.000
20229266719035924.000
19274156116340856.000
19306380259689688.000
10513376279967052.000
14664705554972072.000
11798255249752038.000
12541660811396058.000
6723657847055607.000
15461637722086548.000
16026655599269742.000
13941047837560764.000
14647461557742238.000
12164203500493308.000
11975390690027254.000
15441017311682616.000
11091086850262592.000
22518600217394048.000
48972920761672320.000
27170605369095032.000
20256998036578260.000
47318323988313296.000
26786841585689904.000
34350972713959624.000
84104554686977616.000
134818878326597056.000
76518996896090064.000
43933229748401272.000
87724548064986992.000
64861602311341848.000
40179323908759168.000
38404777135028864.000
19399473205708080.000
26776360461781388.000
19341365298931896.000
43330267119430080.000
25580829382963280.000
28661220103377544.000
27165011377780000.000
14423183740579148.000
15576948225461276.000
7966999519659384.000
6266594315141487.000
7940189611767900.000
6268795716906087.000
5783368754224401.000
8393753006059227.000
4933594478365905.000
5836737245196734.000
6385030735585379.000
6525624289657254.000
8116550593260295.000
6701075679482679.000
3761944277302882.000
3321053747691657.000
4657524886445919.000
4105515582472708.000
2299038852930591.500
2641491301848531.000
2384854111176313.000
1420470949620708.250
1981250686747998.250
1134967380104944.000
987537416719335.000
1326199819433974.000
677267061954235.625
828960215692987.250
588140745972827.250
560417533726516.562
345817533679953.125
375359905223311.312
443295365559733.750
455780171547016.688
746048761884640.625
812215207841195.750
548827316760166.000
1222427329043176.750
638158956767246.375
1406489141196561.750
724387176973727.625
559047316872239.688
1373623528496837.750
830418299307611.250
706412047641463.375
786282768677527.750
417618736804342.938
441780129405885.500
573808194268958.500
559698499373717.125
629142318900852.375
1458639656452815.000
1136216305450601.250
1086737700317398.500
2435853312646934.500
3369982396414590.500
7893369571821501.000
4610828280273485.000
5817271610943500.000
14077581881327226.000
12245922590431234.000
6778961262135439.000
7972648862938090.000
8445782548542206.000
7986279646337973.000
8623621050262924.000
4752023328819486.000
3646975454370917.500
3530456587047743.000
3418667158422778.000
1946637374097486.500
1795668686905729.250
2613905700478309.500
2742732432479203.000
1921812401960800.750
3929691719055707.500
4892134791047592.000
2511905980326942.000
2076811148713307.500
1191321450958470.500
1304617652906529.250
701162764768070.500
390660153736276.625
423899168977248.000
340800050917291.562
436517465495337.375
364402017495990.438
777313674859900.750
992335314558100.375
1433855744563312.250
785539382962471.875
747380850392252.625
787354443186873.750
802326226833296.000
637898341328745.000
389121015230650.875
338698134000225.062
827756988562392.250
617851393160051.750
672151575453520.250
1397991597649950.000
1934720438461174.750
4372150965846670.000
2539988612726862.000
1988131138739991.250
2519784881048437.500
3290037159062756.500
2046242697307710.750
4637377375765659.000
3815235403444530.500
8275529535239016.000
8515345861487373.000
4394316145130585.000
4928818827561817.000
4836710487298404.000
3872361203059205.000
2284394325146185.500
1865449051164304.250
3796936523860369.500
1924893259473441.000
2288792448025067.000
2296622881764770.000
1326541225076167.000
1222625811198241.000
747427269026937.375
387603381056683.312
825111546077189.625
684509153579374.375
357085109684795.875
718769695052461.500
713642788714839.625
709817226117919.500
828512727068634.875
804765226924255.375
680597218423806.000
709902776328885.125
356903179135554.875
404438752021741.000
830685343310746.500
581133161590884.375
1218162407278099.000
1455588447842537.500
1224082144278268.000
1307688014604436.000
715677654500061.375
598382390716734.750
576739830356381.250
1249978226726680.000
1056965467117973.875
1127978407394012.750
2691167606583663.000
2278936048613603.000
1326226907947470.000
1947153549090140.500
2481718068056760.500
1289632023413637.250
1146968364064525.250
2314195904483297.000
1912479457456831.000
2215654465602013.750
2518761647630702.500
2310908103447319.500
2615143346444806.000
2403292644201617.000
3632916387167173.500
7542258170422227.000
14956394238856844.000
8655206607209999.000
8460357293973195.000
13466694849791022.000
27811866286917888.000
39878326362909408.000
21035603686074088.000
50671579152251272.000
37576492398800896.000
50693659522514552.000
43910970178730872.000
88470535029463568.000
78316781484136560.000
159956791965332160.000
201211329470822048.000
529793333314711040.000
662788615198051968.000
1632755260503100160.000
833076924297818112.000
460054789772233344.000
374683812420268672.000
511614616935191808.000
262880953942194848.000
133819375940312352.000
198897834062219712.000
217651100015462336.000
498215842072166208.000
693193320682411520.000
829427921525235072.000
800548989511250816.000
459864276273051712.000
244672539573321152.000
138018515476766688.000
274169995110267456.000
143951147215710448.000
79827820204181280.000
68531168425886976.000
69189207265830512.000
60449546641978808.000
36322310088408840.000
47210212515974408.000
64861032808438592.000
36719191609565336.000
21034367884096816.000
23739459339815228.000
24310949910669192.000
26004327552985020.000
22219911042745732.000
33917439546953188.000
41988945305048384.000
84741804156712400.000
45697727506931384.000
33797962956009888.000
37572434341217448.000
21396309531202416.000
22595154280147748.000
21784489358267364.000
46933421061087496.000
71966373570851240.000
159072929252942656.000
135901236355416672.000
111661662289672576.000
286370729295467040.000
145494038184683200.000
297949998084941440.000
275813531379757920.000
246950434651564512.000
381633920312889216.000
489840373248166528.000
488982579682423040.000
500078349283497216.000
269968509600829696.000
139307293362897216.000
121507459025545168.000
71091359880864456.000
89870763739867392.000
50673177432712408.000
72055725271641048.000
155744327910334464.000
130820108892926800.000
140692648879311696.000
84667057286168304.000
64295445932348936.000
138644280629342064.000
69636238330238584.000
60491262965554464.000
166940963592974656.000
91642659679265968.000
63386054148001536.000
146356688681018464.000
130241353692104352.000
65676483899554048.000
76563799861928720.000
43620176628589120.000
48816706959287872.000
68957388648686624.000
79505225666795472.000
124465557697511312.000
65081941207974952.000
73353687746658784.000
41941609363728224.000
88479710527783248.000
87645525622484032.000
44913755102435632.000
36522841353764960.000
42600419976702256.000
62905692594800064.000
91378724729790688.000
61569845618424832.000
92469732960611728.000
70957089643894576.000
87741996974145424.000
45957142937787128.000
37623992332180784.000
44508942660032912.000
35774587410413256.000
21195670525101672.000
27571811043966680.000
25679994268221456.000
25329653929616512.000
19786152183180236.000
11803947691999362.000
26243541440328784.000
41267204227898616.000
51285554326947328.000
77006952238625152.000
62161416857663456.000
82024468072687232.000
91702805603908976.000
126073457313851104.000
123819427001398096.000
261029263633330880.000
259988179986677664.000
212317736738762880.000
478519376087452928.000
642044508346996224.000
766997394058533504.000
738067624912654208.000
377776935291304128.000
782960808262834176.000
906712060336116096.000
641621397732431616.000
1524072247024086272.000
3149637296123607040.000
2722215194277481472.000
2660153113935040512.000
5472378012730153984.000
4879804398944186368.000
2801662336231551488.000
3144232149759997440.000
2521741201649239040.000
5644494594763431936.000
3041522002509403648.000
3079934461500410368.000
2973887509113391104.000
4068000944392893952.000
4009257580774286336.000
4709936654441061376.000
5441538360257916928.000
4083530968363824128.000
4709332704498484224.000
2411876719267961344.000
1343873411303845376.000
1486503065716689408.000
1671106384865604864.000
1536696770753622272.000
935120742285096960.000
705109784002009088.000
375992283057352384.000
932433555234563584.000
1333164530943227904.000
2870417851782836224.000
4078245876321187840.000
5441795563477777408.000
6750411470638629888.000
8839549374238929920.000
8860371044134498304.000
4532976878950302208.000
2548658313008437248.000
1392486256692388864.000
1248291213642400768.000
1220828595221259776.000
1635385624066268928.000
1239391269527889152.000
2520541121152403968.000
2156868039776127488.000
2613369363617525248.000
2354243973782996992.000
1337791604341667840.000
796258916437029120.000
413806787810585216.000
888526916567103104.000
537209653361420288.000
690030307246179072.000
385074047831688768.000
502056491090073728.000
454417617506134464.000
512440102377703104.000
476991591962479680.000
538087877792826624.000
497220588597551872.000
390670474163893696.000
364809350997443776.000
953700060114807296.000
869401346383975424.000
496754076421730048.000
271836827414705280.000
155407339798882560.000
80166103371765680.000
89934281921093504.000
81812638462853792.000
64154383393287896.000
66504001752164144.000
35633249242499448.000
18812098682296180.000
10997276843174244.000
10995935193618560.000
15745158595675826.000
25480496075694492.000
40923670639456816.000
20424870816283080.000
20598374530160312.000
10463168826792906.000
13380516021056580.000
14795411910560702.000
10814659083044098.000
6464498054249137.000
3202761799791392.000
4168382364351987.500
3392170471515639.000
3747611101725067.500
1932113844963491.250
4602423691112850.000
3862923736091259.000
2008587464216310.750
2325841548635268.000
2566875748558328.500
4113087826700820.500
4086404299504493.000
2173367157735537.500
2704871522240255.500
1381997020314605.250
708615746924318.625
399084016568503.750
222609197265561.906
206375364057066.469
126389900675615.688
63593811040621.461
100159111894805.906
59007778077051.383
31132146817653.098
36819382411469.812
36583702280911.828
39572351987123.258
57008976071844.094
79900363318930.031
113494104915152.297
66896996982735.562
54471990057219.539
77472449185757.125
44029075936877.328
41956774300496.398
38746852892081.773
37879450197695.664
30848907818064.531
30119874952541.086
61826994908352.047
69436647768476.969
66542037906870.844
38914605446248.281
33976466622091.605
40366560670457.094
33250972287691.309
41263598955830.758
32611401248922.520
36860187823498.227
36795087591496.359
80771137467519.891
125288218789423.000
183361476349807.469
185018252372502.688
449709963722580.438
328420461393390.625
372052791745317.000
