43.180
43.152
70.052
94.515
217.105
334.094
340.122
377.708
849.379
1043.273
2128.361
4648.256
6414.117
14831.068
14425.866
13201.742
13989.483
21672.781
45279.282
43452.278
45107.598
43606.116
67984.335
157930.656
211078.546
488476.955
464754.104
447989.085
444836.503
884998.329
851705.575
1311137.254
2917299.754
4397944.607
4310190.577
4434541.185
6740971.307
17701272.245
17319153.964
21733176.998
51737037.127
50295487.563
106067426.773
106755711.438
106030049.788
100605621.532
133661101.408
334737469.786
346540302.880
555463993.280
1123330218.012
1810086620.746
2778499942.672
6655565260.093
9657562503.726
14628192396.593
14187647259.169
38209236779.897
59647294280.136
58976232176.605
54289926215.725
86816393564.410
225058649384.232
297723871995.912
321406171362.930
723144385258.129
1060145504300.703
989053271748.040
1003010472710.456
907091013215.488
2281030855888.353
3424800494792.752
5273592902730.402
10819945985472.018
23445639838332.027
34446885498629.234
31389611203897.031
68660651129972.008
145220881697089.438
136093985003941.375
219360093213469.281
216013932721085.000
208863837898136.125
317084678447207.500
313617287082372.312
824985587511121.000
1091028501113531.625
1153809173955683.750
1085866060998696.750
2336554527328042.500
3239001992162564.000
8858974826549776.000
8354967770817340.000
8070122623622804.000
10872957603387134.000
23421164091758184.000
37797630778422624.000
87819572007072032.000
92178385560378080.000
128602151408959296.000
121180562389250688.000
279975869652506112.000
196330094032712736.000
225360468934846752.000
277141351729968640.000
143138760728951328.000
152246669130181280.000
154431000950488768.000
168047399262090880.000
128634442237141584.000
160371159725855456.000
135009340622997520.000
81643991716966128.000
89989340213351952.000
122639130139469136.000
264374931963521600.000
522115583473548992.000
280462841460679584.000
152986108323441664.000
152145855088001664.000
211791154260088896.000
480365571247960832.000
367200266107521984.000
199971090566266656.000
255281866543839392.000
283485884233065248.000
433202565814722368.000
452109137342426880.000
643348603410747008.000
907424441891579008.000
1380758001685356288.000
1529903894051683328.000
1239647166302862080.000
1381606121211970304.000
2786393942713589248.000
2712729197935558144.000
2148082682589537792.000
2920397615602969088.000
4539136567767172608.000
5239368668219315200.000
4095968335528813056.000
9238734912669579264.000
7515324441782185984.000
12040815673114187776.000
12200616250220523520.000
26604264211860717568.000
15641225613684602880.000
7937389365286141952.000
17521871533573220352.000
12317018225470803968.000
18459194794737229824.000
10190396547239725056.000
9127385455433874432.000
6714977352340254720.000
9931928473504837632.000
8301550141198517248.000
12841572236045242368.000
7729493786838144000.000
3890526434635164160.000
9384993053021466624.000
9637725634917732352.000
8195694590467477504.000
4830821219437195264.000
3784493973268311040.000
7855846949334441984.000
4137783193619364864.000
5324137557108165632.000
6686191011503017984.000
6737945299355634688.000
18160603918848419840.000
9925260876988733440.000
7840807513893189632.000
9326743431326390272.000
8442189529379699712.000
5030055215308680192.000
2781169472556516864.000
4338041544327703552.000
2521192398768118784.000
1264749126825031936.000
1387309182282587648.000
763314617043317760.000
705088730604265216.000
1566761564814251008.000
879901523256639360.000
1220467111144995072.000
1722008126083339264.000
927142439967907584.000
854152726026267904.000
913428458938911872.000
526928161938580608.000
469177188496094144.000
247967065152072192.000
252612795132662912.000
392747304372444608.000
221307647762148160.000
288889580964989952.000
252958461283353792.000
212116548547263200.000
455037070188762496.000
233691652936935776.000
515688583941758976.000
293263547691642432.000
166711022589617120.000
109495153940006176.000
146724845073342848.000
156815292129886720.000
239964597676610240.000
493100836792354304.000
250437069696949696.000
216214719735893312.000
274643329610606304.000
147652914689075584.000
208602350455912672.000
260078110089046336.000
222301215242848288.000
289374194667716992.000
238224356963366880.000
222224950422011328.000
227622132443204192.000
479683781955075456.000
244187395290998560.000
123509780912736640.000
155952151919378208.000
208767213580149984.000
118676612760778096.000
65689868980298288.000
34862266567749356.000
37360303462564592.000
18713126797355892.000
28791316731172864.000
19165545787999080.000
27256289625204612.000
15047275271944250.000
8705022896895802.000
5875688196829514.000
14299588548632802.000
8431915988501325.000
7180273860606369.000
6388256355645210.000
8798093023937328.000
6624328721371322.000
4022357694905304.500
2361288727484829.500
1265536616337412.500
1189485315158972.000
1334168134851224.750
1900861635379815.250
4839155310713530.000
3817563455758289.000
3297300996193997.500
4504282731702146.000
8828257462508828.000
7288948300113402.000
8638883435574351.000
7259147382082875.000
4066843304019546.000
4789132658497696.000
6624648011645385.000
14709586095255940.000
11535465965424802.000
28185846863346508.000
16040077716790242.000
19009500245284972.000
27747673720502260.000
22984271181094744.000
23417366758186648.000
19704256884785352.000
11943660230332472.000
26382241908315488.000
13782493279557852.000
21811742650282224.000
18865871069797092.000
21271588955100288.000
26580737590163736.000
26414071568974912.000
36673050850902768.000
19638379269191072.000
51779707535155256.000
65453389492248520.000
65695196568124776.000
150438797812795008.000
156999350746578848.000
90378004896048784.000
121175600743393776.000
64896594267192816.000
39513290106371672.000
79081670421633648.000
72601172328874944.000
158441892572616672.000
252325717679392928.000
147391777319207104.000
148754341264947584.000
151289606392722432.000
89282470662944688.000
143452211576490032.000
76384670142870240.000
86418934686067568.000
77420876575325296.000
88808888660549552.000
143359650308384496.000
115293114331957152.000
243085059327225504.000
488835675401683968.000
399964419917226304.000
477870525304413632.000
444686925444778752.000
382916359430851136.000
466923908748198272.000
965146630267025920.000
866180163120886272.000
465314923619556288.000
432033066438270144.000
356990179642953152.000
468883691306772288.000
368485915524040768.000
205335473783959136.000
303015376163504256.000
354259292307574720.000
835946289021294464.000
688579769014644480.000
1605235656082872832.000
2162619514542763520.000
3091967334023090688.000
2328193472166693376.000
2295835339108174080.000
5599449275752331264.000
7230793300763290624.000
7902149340995647488.000
15882482626910263296.000
14270067445002778624.000
17133416104811345920.000
13579261579498930176.000
33261765964682305536.000
53991826965240930304.000
27444542905001648128.000
14087394850529853440.000
14726432572100456448.000
16302996689214818304.000
9428673819222288384.000
8089750397102921728.000
9123003895597956096.000
8753510438331013120.000
13542822779983147008.000
13413933677841418240.000
28769596955831685120.000
17218846111083591680.000
12194428530244847616.000
15621958134114238464.000
8011071644908534784.000
4367286143987781632.000
3775412481689091072.000
2188792789930320128.000
2918052897399157248.000
1512538415453340672.000
1311303665132518144.000
2634488992827891712.000
1404380443815633408.000
1188162250280785408.000
671400041291316864.000
843879342570564864.000
939696301303239168.000
1418527373235620864.000
1719491724300626688.000
1381189382767574784.000
806459060167498368.000
1647151219376323072.000
871591340280131584.000
1290266899420903168.000
1733207921830618368.000
1653505714995138304.000
1425929259042060288.000
829172092881721728.000
487339604192748224.000
364917449387528512.000
922640238692000640.000
667761818105100288.000
1619706894912823808.000
942960783122493952.000
522765465767599232.000
721283645872720128.000
639043528948850688.000
1752461580518460672.000
2380946999120910336.000
1369365261360427520.000
1265638878987426304.000
2897341813104883712.000
2256453437198583552.000
2155223588100783360.000
2797406136175145472.000
2069902021693507584.000
4584480028650148352.000
4410908950579282944.000
8987511753237978112.000
13271689936972759040.000
15093586948836483072.000
22108168732388315136.000
27820272571932401664.000
21612611735586631680.000
26050305094873886720.000
13429581713543397376.000
15486431027404703744.000
8756933106132502528.000
7686238493160076288.000
3961815760165871104.000
4612726533197202432.000
9802837862299766784.000
5485598331806239744.000
4966478565980678144.000
4335108154138500608.000
5150905376512155648.000
5168411000869797888.000
5168819871550041088.000
3090680898009731584.000
2648819435488430592.000
1466933813549832192.000
1479128029550739456.000
1199164096661750272.000
1683263260960462336.000
896827822055783552.000
775554909194596352.000
393408002401831232.000
539237846752812672.000
275739437573975456.000
153688760465240736.000
209831106539349536.000
254577029233788224.000
154023319003815776.000
238451875531520448.000
267672407971202912.000
302917692730902080.000
232979738987438016.000
120326679890177824.000
67154150349688392.000
79586344534163680.000
116076779735871984.000
293811955442927808.000
450841087879696768.000
526147576606986304.000
832704861885822976.000
675018488299594368.000
369300748245936256.000
955607109669446016.000
715447446594172928.000
1634669148460626176.000
1259881906763279616.000
1149849534682709888.000
1473645788236416000.000
1710833502907502080.000
2355138902032238592.000
2393178807607097856.000
2656478789434995200.000
2886529756842338816.000
1713328143514203392.000
2385652164646638080.000
1255208607627267840.000
704462054801632768.000
689042520771428480.000
367397893465866368.000
825720205428164864.000
707027648546331264.000
826251561437052032.000
666283740257455104.000
930035017825341952.000
478596272016900160.000
448665926840543040.000
512588714700814272.000
704940921086252928.000
433320468631617472.000
225475176723827936.000
456689898154003968.000
399992182554973376.000
380638521568143424.000
797115052090150784.000
647648051305355904.000
766386704630032896.000
402536052932041344.000
212557543640251680.000
488128603302272512.000
475512677399336192.000
361940394481252416.000
510051468777865984.000
370733346696735424.000
220150605678762528.000
223265396888079552.000
237160032686768128.000
302941985480301696.000
260858619055399872.000
252609128130094784.000
296022330970281088.000
210587548079122176.000
267343225226469216.000
285393772776877344.000
205645671274458720.000
122446381663669168.000
152025860048942880.000
125644427226847856.000
111268309823262112.000
136023137704121568.000
165971045359718176.000
251523954006903072.000
293088281387352640.000
458845940783620864.000
278900937679094048.000
421123097141816448.000
489376067138903872.000
254150276734464896.000
239722597252727872.000
129816228624030784.000
167623877112819008.000
111369569080657296.000
273848304757551168.000
253203871270854592.000
405206120491130368.000
538403342049613888.000
677400438774436480.000
1589369546987976192.000
1765505637963609600.000
1556251540953419008.000
2157655399281235968.000
2891914852595020288.000
4089665050704514560.000
2102457114301980160.000
5029336824790219776.000
5257396655727357952.000
4514721678529794048.000
5545214357550702592.000
7633560183161772032.000
3860164247891421696.000
4513514946597459968.000
2689043731981489664.000
1386870831430505216.000
1343677669848937984.000
1474984044050090240.000
1698854418235523840.000
966238523563904384.000
741001571977598464.000
378960404685015872.000
524267142478539712.000
477125839225296064.000
372901265722889728.000
834550852136988928.000
474309486515203840.000
429311397671957056.000
224261535460531232.000
137374093785710544.000
145994099338415872.000
77755560794761456.000
68399427194324080.000
82211937239192928.000
114091615921163008.000
130356762023556432.000
266116075905882944.000
258642442499848320.000
231588581359209760.000
226403893266855744.000
528373554198131776.000
667472712379672192.000
1459452485567504640.000
1711466836110897152.000
900251159562038656.000
499197836402274624.000
353395229947947072.000
208303094802378976.000
202608725390251616.000
422822051839394304.000
214567530071116064.000
131870028718740192.000
125678764407037536.000
131371442213819968.000
112700879782284576.000
62893014008561400.000
66585513027590184.000
80284473881538784.000
65143158743684000.000
80233601207647888.000
122337870607010656.000
259599337758671904.000
132553483335604512.000
272744113619487168.000
225501056059707072.000
290684998215670464.000
249594845954033344.000
543132817198921856.000
822318861106427136.000
1179214279939588352.000
1643958033475449088.000
1448843957798564096.000
1464361056507675904.000
1747400589471470848.000
1439796099541235712.000
1674435657077892096.000
2343828299972137984.000
1262809468941526272.000
2645370994990049792.000
2172265275801594112.000
1283010932719683584.000
657064009627019904.000
847141141182806912.000
452758224089393984.000
256818284934392032.000
138407076517424800.000
116504643058339472.000
280001824838429984.000
209083919106949184.000
243821438089480160.000
247409917098894112.000
354136032037699072.000
374606485240051328.000
497711657877460800.000
451416275466942336.000
248149472596320768.000
254982796073745600.000
292070740254115776.000
197092220025030240.000
252709576241133760.000
150161955687345600.000
89481492964214768.000
68292625003838696.000
38670558150817504.000
20555619887500852.000
25101945282757524.000
27296481765389920.000
22425766399346244.000
20447133297632732.000
12339656259141118.000
15799513259952510.000
12338491132728704.000
27467875041454992.000
22176073428393292.000
51567040357532768.000
83710239216346400.000
83475635170707984.000
81643990072534160.000
66878731449194888.000
163613785692068864.000
83876310011064480.000
110192144761033216.000
139163896938177856.000
156185733407988224.000
130946449054305664.000
155330504609717600.000
240691878701865984.000
136459978491404800.000
200562517847884960.000
209427189758610752.000
517529042958662400.000
476528238813506496.000
384843023467992960.000
494474767543566016.000
269285791239487648.000
218607085338512832.000
265986278223036128.000
283679435014421824.000
164407886625200576.000
264558417749483264.000
143183488444153456.000
119256996482994480.000
68937752622652992.000
40981134871563600.000
64443822605759200.000
140876533253800512.000
73476224634554608.000
152160361994471168.000
155273509077495936.000
115937322130060768.000
123498901611528848.000
112325608545055408.000
116678177872137280.000
124421335561663456.000
63706757906713792.000
145669521279197632.000
152498772121786464.000
77793724017544528.000
69691226399813464.000
85681058390049936.000
50641836885797784.000
40664556403944112.000
84258215757448688.000
66459557628829872.000
76439690807458256.000
40319571138023856.000
45271388767898360.000
50433199249140424.000
42751659470695576.000
23709070945431504.000
12630236985281172.000
7536418371525213.000
11668912929447034.000
14694980466253256.000
11767702465536074.000
6856426654383763.000
4108335067682861.500
6190995234936546.000
3347650968943899.500
1940075126642555.000
3978415746034913.000
4369879378664427.500
3740308356259594.000
8575127134425628.000
8179287822384554.000
12564831062699444.000
6959263094542194.000
8169394531034866.000
6753333139690834.000
3706274870604833.500
3758613761101945.000
2147539816857638.250
2177432021453701.500
2475699729011391.500
1293244848320388.750
1883887062168714.000
1887542588533099.250
2739587141864289.000
2367179378870532.500
1196435550241392.000
1186940218971752.500
2477813530958491.000
2190848264736222.250
2186227241183413.000
4376557818704485.000
2248806721786186.000
4637843454972854.000
4208719561006680.000
5774506362750291.000
6371786750259550.000
7539455781434352.000
8647906708805636.000
6793707077172558.000
3687776672380036.500
4629770396492958.000
3779942346347325.000
7821672004391285.000
11796796119679788.000
15592160893824918.000
13899435157394144.000
27837623122842936.000
24086524291515328.000
19623917789193008.000
23049304834216476.000
26229895074255736.000
14152656703993610.000
15537676183965412.000
15365112115599244.000
13720227344092436.000
13459919875497472.000
14947786076219500.000
21969803564046500.000
18880865640433432.000
11572775212561464.000
12580678885768370.000
15538909559588416.000
10967983716894252.000
26736558374291128.000
38650833934272536.000
19344043470805724.000
51079143650082032.000
27479722178720512.000
28563459508953384.000
40032740849732416.000
21988315717394336.000
19487841682609824.000
21247563214185688.000
25095766175269196.000
50196929937564720.000
34961826980095036.000
85990129142899520.000
119757707695152976.000
243846362775325344.000
516034939915215488.000
745392206187491712.000
406117347924866176.000
936132413244760320.000
1339612491161366016.000
767181978481940864.000
658214195198242432.000
1424154038231293696.000
1603541629862873344.000
939488930490089216.000
674933328971373312.000
383402827910572800.000
368441300443113280.000
439415405495130112.000
392917502858496000.000
528452423855224832.000
508395713732718400.000
681757699059184896.000
1560698640806596096.000
1241994716920384256.000
1500201346179825920.000
1348357506560846848.000
2764263517597410304.000
5657863759613903872.000
3923044000728927744.000
4224130520670699008.000
4325045824950758400.000
5576461825752571904.000
6966822825614457856.000
8924798253698983936.000
10293871040381276160.000
13595354157217275904.000
15282630503475439616.000
16528250990185310208.000
14322030407042895872.000
8382153684625532928.000
8280156752153556992.000
7472849558379421696.000
15803422470704904192.000
32046778608548171776.000
16830424904967137280.000
16800576827478294528.000
12058343917753128960.000
30315992882225496064.000
25526597907449798656.000
21637039452117467136.000
44700673501158055936.000
99097475543421140992.000
75754270953445588992.000
44778697014332235776.000
42720561789367369728.000
49646702511899402240.000
76888435584444465152.000
45205935205102493696.000
51253944806173360128.000
26775725327232159744.000
25805379821456384000.000
14300995386878099456.000
7379382043640180736.000
3800424944214343168.000
8309675842877664256.000
7136995614889530368.000
3856717698321375744.000
5151178681051582464.000
4013892520042210304.000
5453667010898230272.000
3156000543773939712.000
2714988200513671168.000
2387895797036057600.000
3171626963233492480.000
2100925488296020480.000
2562059180314504192.000
3870359699099332608.000
2366075299184853504.000
4826135471441934336.000
2515594538995229184.000
4999726184387979264.000
4284685645492029440.000
5353518928872744960.000
4451824786722243584.000
10247155250180169728.000
16607375485443237888.000
9061171729063817216.000
7023072990454219776.000
8692972339455951872.000
4375020917382280704.000
9402807528191428608.000
8011327020810269696.000
16572704522194978816.000
18044455090682634240.000
10079819937159342080.000
9386809300839872512.000
4851827583912519680.000
4967263177780312064.000
2878254222654317568.000
2426331363461351424.000
1319715891910496256.000
1177192966010728448.000
1441363858414639360.000
1684263686637045248.000
1197072780433935360.000
1452108939350865152.000
2069513432425634304.000
1170102785303248384.000
1726624909434170624.000
2437102674844147712.000
2075864040885062656.000
3055048601978162176.000
2545100099484089344.000
2490073187003969024.000
1346105880703895040.000
2140811302196264704.000
2139146628640560384.000
2907077787589769216.000
2268330362012971008.000
2934361046152514048.000
3098505058426938880.000
1695397851994032384.000
1245020483117571072.000
685811695434206208.000
366864835598425536.000
417183372380573184.000
220673652629837728.000
272523884100471200.000
142942742990191408.000
199288172008377984.000
455887297157916672.000
529955320914567936.000
426144545240178816.000
255804919018802304.000
299732314824012032.000
250206138973845632.000
137485348227696768.000
290554891433372992.000
154143605549312768.000
142893691918758544.000
209787759051432768.000
208873640126683616.000
127579409662033648.000
141747674964975184.000
229833933538431232.000
368527408254631936.000
227342154494542432.000
113572828187218816.000
152991048599229184.000
131958743664550560.000
146842578008172192.000
115220052656998896.000
145179478631797216.000
143352290978377264.000
204345298007150336.000
291917508482726848.000
149488927302319104.000
237828802643475264.000
298526476480491584.000
374393564387409856.000
837687857266319360.000
1169941776667417600.000
2635590232982282240.000
5481375701157964800.000
2896825910339962880.000
2592510689375816192.000
2449443600751653888.000
2094297885184770816.000
1263245410126256128.000
1432164828791855616.000
1452238424642512896.000
1145796187730963840.000
1525313333238495232.000
1214976688900329984.000
1650483161022743808.000
1320071617898467584.000
1156325810657419776.000
2766416100591380480.000
1632629873428844544.000
1714675926051513856.000
1497835657272511488.000
1201353080608686592.000
1733530850225553408.000
1162972799236056064.000
1482854326029046272.000
855626166596779008.000
818347864849546496.000
696718854381393792.000
411955035927031936.000
389143539425136384.000
221222066387015040.000
110127276801255440.000
136709015191740528.000
298158889686540736.000
446693881884445632.000
909326293392540928.000
1260434012659534592.000
2728009328003648000.000
4167159967304341504.000
2339898045872837632.000
2186327937734352640.000
1232817948581999872.000
1718875854287289600.000
912273005773395328.000
818100522406650368.000
652772956778265216.000
855975320838673024.000
1211093815195205376.000
1736609592213749760.000
1349646613407239936.000
1518777223755858688.000
1150551286968181760.000
1443674572648126976.000
1420489250510329600.000
2151536468601453568.000
2469303626893957632.000
4994457148604265472.000
2919092738368092672.000
2326429516057342464.000
1270953272378354944.000
2907292987108191232.000
2924211724397548544.000
1580266329657478656.000
1639261788913338880.000
2248300784214699776.000
2861187568036194816.000
5633293558755429376.000
4081379230211331072.000
9992793466226606080.000
5596671053286830080.000
3703650594674641408.000
5424725806625707008.000
3149088664109057536.000
3800793517090432000.000
4395591070068285952.000
3763113164975099904.000
4131106198776349184.000
2233385448330111488.000
2343195606482309632.000
2222009289135148032.000
1335071068409087232.000
3076186447821914624.000
2857913164284981760.000
1543817330382116352.000
1264495335307656192.000
709386686065529856.000
1621187203615627520.000
1627253403024648704.000
909524023607851264.000
763672588587722496.000
673345614575313920.000
390139146867669504.000
451137206673739968.000
473576904316380992.000
239942700341328800.000
269121323244160224.000
261868069115382880.000
151656909440456192.000
80508078646341360.000
69563821105931904.000
84743329622070560.000
62537458999264632.000
84601348739717248.000
62042949695487976.000
125294854321061360.000
71648045895161448.000
157842859514204544.000
89948573874661632.000
85314293207558816.000
73304917343856784.000
159951019581240576.000
93425133731600000.000
85120560319771856.000
71331114244025712.000
81793177102238944.000
90700449223086224.000
76478719623309696.000
89113730360178112.000
146624164249157216.000
221543808297467072.000
259835411174747904.000
136572045656011200.000
81095929811228896.000
44752882993353208.000
34646554142902564.000
87287012775035024.000
80398047418024864.000
47052239785071744.000
45660215086813592.000
64462530016393160.000
151666619125965184.000
241596850814140000.000
207982008222901504.000
243587137209430976.000
140137462314816944.000
114117147481538048.000
145413643559344032.000
82560282596560416.000
93074899421322784.000
149072386939000032.000
242111972365255584.000
227680773884423072.000
202896375186513504.000
460247019131529792.000
388349313712519680.000
450160650821618240.000
369879068215678592.000
527935373459658432.000
408736307855886592.000
513353382268195072.000
267672930447587840.000
137527168114555552.000
112563744875791200.000
259688820701561664.000
134308104808455136.000
72863532680349408.000
61894999437397912.000
127360181308311024.000
77554431771458960.000
113004846920495216.000
128129429366938336.000
126679793345542448.000
255610493748095328.000
396188505640375168.000
464011900047522176.000
360192791158793216.000
480298893831844736.000
275098636624452768.000
206241299298813536.000
498404017573711296.000
269793575103759904.000
227054165131353664.000
504507613811304512.000
358918832609692096.000
456840536909816832.000
389676774447571712.000
871069230833033856.000
807215261484661120.000
1641671174732998144.000
1723780285969939968.000
2395752824607578112.000
1439056631607604224.000
2947173795434809344.000
2750748020425652736.000
2452850049716710400.000
5535454067818379264.000
3968888430702283264.000
4241462625820225024.000
8827901817154769920.000
4850216447434652672.000
3748786450095661568.000
3841174020617169920.000
5298592751958737920.000
7299184757539553280.000
14877857759612774400.000
7559093730144574464.000
6977914315592862720.000
18438533009781037056.000
25415194056999718912.000
32784760828301119488.000
26967935541272764416.000
32087971595386945536.000
28153633263329935360.000
15760096524839997440.000
12907980010885746688.000
26983108789236924416.000
14877080780150788096.000
13762544900440655872.000
15045896271702697984.000
8384393298104224768.000
4360993344819244544.000
4091305998607604736.000
2260080613598873856.000
2822069010964686848.000
1529903554845370368.000
1212943239494426368.000
727876661187861760.000
914397594854200704.000
489985403801520832.000
290554975706523200.000
148116751349860192.000
140478259792297680.000
292022287308808960.000
439204249151020800.000
231354187361402080.000
202963508090186016.000
204448293426198080.000
436586153333627328.000
393997119469806080.000
230886544991461216.000
121820840236149424.000
69039652000015544.000
35759091694538620.000
19988286776806428.000
21758583232220448.000
26863432011791992.000
21987638897217524.000
23391063874990416.000
25799975846230560.000
13204776222726184.000
14719717675828268.000
20229060795437384.000
12048437067592542.000
13451228324700276.000
10570678438133774.000
6241157264783553.000
3651981423795790.500
1984319152089450.250
1211608680085848.500
643497482405017.875
1345312992233745.500
2686549247060789.500
2456987828579417.500
1274777556151254.000
1241978670466694.750
2642074541542833.000
2213048516116330.000
1113822611225625.625
2730340164104824.500
1983098232235388.250
2612429044470104.000
3285329861800198.000
3889062258920279.500
4535886056132139.000
2306077997643345.000
1928754541424936.250
2260883600724917.500
3491154734036751.000
4526854527163760.000
3447611342581899.000
3789128930987196.500
4574593050919952.000
2461204441766870.500
1439026566979307.000
1012079258909759.625
1450808754298781.000
1128151006172851.250
1042207899804046.625
551055418367150.250
1460412745722167.750
1211046157409641.500
1212542716546431.750
1422722124963776.250
1507054546668490.750
1194015506815928.750
675663929926600.875
793128126276075.250
784699266725361.750
635967647774769.000
634253751697061.500
788393309408840.875
847115710860467.500
450658930688936.250
344616044590698.562
427396554067322.938
844294015303906.000
778908359415123.625
658051270133894.750
351444981434087.875
200421046319194.031
171167245100799.844
97255721701234.562
130281929446225.734
258417923010829.375
174447243829181.000
261652122455591.156
327540694748875.438
355872756971124.438
342670449640478.312
769859683039255.125
1072117124550492.375
2532507997039461.500
3797876681684247.000
2238133011150119.500
2187417957178773.750
1205783731623437.250
2671098115051296.000
2438889909739781.000
3551708524273151.500
3725431518197791.500
8769769524550341.000
12048185837285076.000
6531597410321940.000
3981196732722375.000
8296087764453104.000
7162682148023567.000
10679847687199234.000
12595422624390714.000
11510092319968002.000
25438220473301616.000
37569812365963704.000
83440329194544576.000
128145406578177056.000
203710069531065376.000
513591747020394176.000
297497807797710592.000
208535670802061344.000
426818222736668480.000
507275989945864256.000
471669857366557888.000
420895520009873344.000
255138603788538880.000
257395473789088064.000
299569486302589504.000
244759339787865504.000
543782940576007552.000
825310340261685632.000
868675185874916864.000
878490285255707136.000
1224984672436494848.000
1550305708530738688.000
1158549213800651008.000
1700424272817914368.000
2560653090591805440.000
5178555772460041216.000
3977559465279556608.000
5461984563105081344.000
6783906043677806592.000
9544188882916298752.000
6892790994211856384.000
9971904028267685888.000
7321282870112111616.000
8780834216317936640.000
7073192033767615488.000
15791942539120969728.000
17346468503749177344.000
9458068330369357824.000
5425321926876628992.000
2773773618237753856.000
1477915810526245888.000
2100888774884490496.000
2982624722275030016.000
2939375722522398720.000
4087107261046952960.000
5009046373928290304.000
2861458191484948992.000
2306792419115863040.000
5376154785436066816.000
7822198164700911616.000
10058783652622276608.000
5298561370500305920.000
4864134200611699712.000
3841919993836876800.000
10249557164288618496.000
5415375216258080768.000
5032567178402304000.000
3711467181434631168.000
3936300951983720448.000
2164590333836371456.000
2230600518823404544.000
1222016667070427648.000
2602142222527212032.000
2471254297662641664.000
1389577756455093248.000
1534728721701672960.000
1759842515673842176.000
2589825007470369792.000
2956115404895596544.000
2765448269226177536.000
4203553253115671040.000
5378033750386988032.000
7643142000829940736.000
8978051836840713216.000
5013251606320415744.000
5497881522775829504.000
3805405864448680960.000
4612307658975963136.000
7437904317601801216.000
15649785938834987008.000
13033168577594114048.000
16065950622591436800.000
8649409482221746176.000
5060267020743195648.000
9945099114156410880.000
10305737476889718784.000
15481211219612753920.000
17655166106118014976.000
9386282585764048896.000
4879373858458266624.000
7634183275533235200.000
9541649989015715840.000
7779005819542477824.000
8414768049440622592.000
16701190977188661248.000
12402869068086530048.000
17297576126179780608.000
12883252616692162560.000
6689622103366242304.000
7093139372361021440.000
9765574203861772288.000
7751760953858280448.000
4688883426629935104.000
2476508909275679744.000
3115326684978143744.000
2600436998620179456.000
4107572604005294080.000
5704798190171879424.000
3141826425226598912.000
2599345639582671872.000
2414266636118492672.000
3018876709597060608.000
2796545556489546752.000
4065803017811803136.000
2495476025799927808.000
1330605259742248960.000
1761713824232597760.000
1268050708868030720.000
1256504737189366272.000
2626438159844594176.000
2168209666444115968.000
2790473808622478336.000
2435904231621482496.000
2852272713979301376.000
2240781722273740544.000
1199243626529072640.000
1371134604613915136.000
1145835302832981760.000
1424241997082952192.000
824577352482583808.000
494057601964475264.000
359933131889139072.000
467534068813224000.000
525916922689912192.000
372470040707543040.000
220571858166686624.000
117984185302142448.000
285674079847618016.000
420555099026092032.000
962954884343444736.000
1590647374423826432.000
1201035339992921600.000
654128738384087936.000
656403606185348224.000
377894416625740608.000
467712724589248128.000
698210783740436736.000
375461437675854912.000
510038029371419520.000
357581236676791680.000
410855009761887360.000
904274675248760064.000
1182628106290576896.000
721347992323081472.000
905019627899081984.000
1220472652599827456.000
2599446269847132672.000
1353003208552986624.000
2878414855632143872.000
3015252988112754176.000
3926231003383756288.000
9403463698177331200.000
8344747653726564352.000
8375779124966757376.000
8084236581516522496.000
9771265227987243008.000
8543207459188679680.000
4612519613007366144.000
5561559412372356096.000
5724201719468613632.000
5117769552714393600.000
2927735672997080064.000
1540502022733043200.000
1302850228242451712.000
1422761920652567808.000
775168507748545408.000
415788136361809024.000
232057109092741888.000
266264557483409632.000
136100859231919280.000
114737907858670272.000
137198105485948976.000
288788140050762880.000
412357851612133504.000
518657477351390208.000
696068066616901120.000
394862269664936576.000
492570012487866752.000
662436231349742720.000
644455528149348992.000
804217437549844096.000
466665793446994240.000
274406427695125216.000
292442951275967040.000
252626616618210304.000
135475241304785296.000
76148002898842064.000
39673647310548728.000
83391947314691728.000
83542677270715264.000
65951545529234376.000
39272572268919984.000
41378554520624208.000
43500218751512640.000
51913775173502704.000
27021461393517324.000
15447718240248900.000
12298444263915244.000
11834148635965600.000
10478210013579466.000
27735001000098292.000
24860665712755344.000
39512488089546424.000
23092483589429572.000
48307125219934912.000
50335467594760024.000
27583934821184788.000
14672076012821856.000
20261566277663568.000
11730305905920374.000
14899666233689038.000
13525448869609602.000
15032270044941948.000
10664632527481910.000
13327235446464918.000
12779923821505626.000
6444853050184661.000
7814871191480433.000
4056056262217704.000
4136735101404658.500
8312047719876117.000
4339159183727282.000
3553484890603518.000
2023898814712403.750
1246635605887668.500
2507687613531684.000
3654740330857880.500
4769873596680287.000
3754755683125836.500
4661868515927746.000
3638101372937491.000
4137897701437374.500
4196213591329323.000
5983026008874081.000
15814005730614270.000
11055929651732362.000
5790764678621602.000
15518491091476370.000
10717364333865464.000
12036703114877568.000
6839178715471483.000
3832094456985615.500
4257575683911768.000
4312951199981211.000
3208744868831450.500
3966111155394004.500
3255121687241490.000
7095743074720278.000
3866734946772664.000
3959783296643006.500
2352946438184061.000
2709388492955796.500
1819526914993381.000
1919595016604793.750
4696780834649376.000
3843114960565347.500
4312809985013017.500
8906257397119792.000
7459516188044923.000
7665067059078993.000
8677398074170988.000
8460552123892964.000
12056743587086720.000
5994591014773967.000
15666727370622650.000
20807937367730016.000
48972622303306856.000
66953404950447792.000
89191976581954432.000
89664617059875808.000
66342755637752304.000
78102303821506768.000
61324433367017064.000
36761362746750336.000
45220882076766624.000
36387523227791016.000
79279066761067680.000
45970036587369168.000
27275008158085388.000
39885059632538352.000
48994832804822632.000
46606022901695000.000
70239474719437008.000
161630479486159200.000
137054422368466448.000
130601917294430544.000
143780962759994016.000
150457017992971520.000
119920813956242096.000
251402854729996864.000
207338151669169312.000
464628100861705344.000
942128056002515840.000
1323269600912487424.000
1592943384833144576.000
2380603925546994688.000
2433066751757742080.000
2793111624235472384.000
2539524596061728768.000
1487436934439866624.000
1703376872848170752.000
933461994555381248.000
488127929053365312.000
737670887556840704.000
446206186273387392.000
944038487968136704.000
1470582693865524736.000
3122120237082165248.000
1624829300360960512.000
1761307158510075904.000
1565784563575748608.000
1742094325651015936.000
1413488635070864128.000
1751004082032026880.000
1474172728880703232.000
1498039518303400192.000
2424926771535249920.000
2148615542370719744.000
5223121511925400576.000
8492908764645107712.000
7170832780629214208.000
17939641494137886720.000
9679768533646491648.000
9333440571974227968.000
12314600630452602880.000
7065437662658247680.000
9081428811549656064.000
10221535237487620096.000
7280976309628597248.000
9020879583531307008.000
4949855053781167104.000
5590943352820546560.000
5507361646653549568.000
3165545789558752256.000
2567225997845706752.000
2852684234335580160.000
3757730829610036224.000
5186436514420920320.000
5681511238954761216.000
5180799941334362112.000
7285020821437194240.000
6666843530836114432.000
7527860752379514880.000
7149765791435908096.000
8499508532180137984.000
5108166673236602880.000
4461162700951565312.000
2483552848957257728.000
2421574222971169280.000
5434503354993684480.000
5565218170118706176.000
4830984119455797248.000
2688296836054855680.000
2716412921131229184.000
2246400363866650624.000
2550904920549803520.000
2184098405620891904.000
2743436277346927104.000
2139542113007365120.000
2374909315820022272.000
3136660974996862976.000
3120233245130331648.000
2788092028042297856.000
2784070038676352000.000
1501936128617593344.000
851703415973845504.000
495681517511614528.000
294665808477018560.000
255378897004935552.000
244125611554953184.000
148778591931715776.000
119129612034731408.000
142690303464635344.000
138474727473714112.000
83609194508796352.000
73531791896935152.000
89991558467196944.000
142204070815940768.000
149188814905494176.000
127776479440867504.000
156906099099333728.000
237717003699441888.000
303124145120812928.000
155613510049557088.000
140351543442773680.000
142485165328145248.000
129274904302927584.000
284121357731769600.000
196994609012229760.000
122719482998383232.000
62603769698912448.000
84261592717467136.000
71158337910838928.000
62640395995604872.000
70530240798108056.000
60963271358745648.000
166768386484018592.000
150621223247145248.000
149102935328439008.000
218715946781541216.000
119904590968077712.000
125757964515506640.000
273723656741520992.000
233786264429143584.000
209903982957278528.000
249487707479520000.000
125815493612525280.000
164321418991306560.000
248434534917533472.000
369101526607872064.000
493295101829629056.000
432154322105400768.000
233731677380417088.000
142713151416039840.000
128096939328093904.000
285439705243747712.000
211456025554011104.000
236667883807344000.000
121076071907501184.000
74143332875870112.000
40059107370922456.000
23776301481362820.000
24579774899193024.000
49213739598100344.000
26980142328632720.000
37512697906071984.000
50551898385792648.000
38368868133253816.000
47298320600860880.000
36621331765934384.000
85243654634603952.000
46989951080269344.000
75970550242491696.000
118454996950640064.000
62067959766025704.000
76576432839371520.000
63523049298461848.000
85146540743381536.000
50168914075663856.000
35547335024679224.000
18713992972517696.000
50118500992396760.000
37498399667931520.000
93399952106748592.000
74291835541100016.000
66829787017995080.000
38609504468886424.000
61627455863039368.000
127424084754586112.000
72621714054686640.000
72903390391412160.000
44572178561840672.000
42489104086344536.000
90810640937421248.000
77781924506230800.000
90112262699220592.000
65695695458695848.000
35302693161450428.000
44553165414256416.000
43449905071253440.000
49797153133156616.000
73917188666014192.000
88317270372553056.000
119450485903246496.000
285062560300855296.000
386817636120065664.000
879213279462739200.000
1260258835882415872.000
766320525955162880.000
1554513258154971136.000
2145948091209008640.000
2815624446979241984.000
1662662733082176256.000
1620276982865475072.000
2580813718204346880.000
3024545647752929280.000
1590833498252991744.000
893471623654694144.000
1318616194925605632.000
1715393757528056576.000
1534988946845601024.000
1694472684381651200.000
1206557134358322944.000
1232653703142699008.000
757617035459132288.000
829765151244078208.000
1296242934672443136.000
694430226350701056.000
406324272512661504.000
953165743486415488.000
1186704290346703104.000
1583388880642259712.000
817084720911913344.000
902331515523229568.000
660541252993943936.000
981687444289942912.000
655104242484784384.000
853393059690818944.000
1347480580157906176.000
1616958151284185088.000
2362586900961720320.000
2606348421108127744.000
1407163647440753152.000
786484728759312640.000
773308348916040832.000
434637867340664512.000
403941432411764992.000
456661719675759424.000
244793413304726496.000
286681692290442176.000
209535827456847328.000
259834339436382144.000
513761141199971584.000
716668425300226816.000
811463800455879296.000
901018701045314816.000
819357464995469568.000
493816714112733056.000
664776710795015040.000
1726600847841521920.000
2284883336131774720.000
4707865691996428288.000
5039746754012118016.000
2863025116229230080.000
5704008528493620224.000
3068978611414895616.000
2397530307724477440.000
1390182655457379584.000
1654089479073480704.000
1295969714906857472.000
689384844458322304.000
651311386273405568.000
859122824988557824.000
705036284460244992.000
1683144657432953088.000
1509376707000810496.000
818957353572625152.000
942420652533754368.000
948793954350605952.000
540826396296105408.000
655168478663612672.000
931373554682509568.000
708336377483203072.000
956951685749339776.000
874880269759686528.000
1362546938393795072.000
3130720310304076800.000
2489008402044135936.000
1256442501431171584.000
1214975706208688128.000
2445428004557792256.000
5387275032170162176.000
5699017496575324160.000
3012948150376926720.000
1593406731164329472.000
921318057000150016.000
502432774919387392.000
728047814718359168.000
959883374134844544.000
906873645972196736.000
690902108992139648.000
968719098606122880.000
647409391277722240.000
797898136699863168.000
911122865109682048.000
743099275395225472.000
966793059817288448.000
784415530968491008.000
1166783201823050496.000
656550186164954624.000
803498764683727872.000
483294487106752448.000
447651728954499584.000
646029915755111040.000
788607772783990272.000
471674693101456960.000
954642260309366784.000
1181913605705996032.000
1587992655906276608.000
880214254714947200.000
478990370414445632.000
253539911330786272.000
214501649031441280.000
198263819475000096.000
434738237462087872.000
659137582909672832.000
766645059153442304.000
1562443500676135424.000
1462487481148886784.000
737799463442201600.000
961321673944843520.000
663506434313506176.000
1347656637698373120.000
716666191278066688.000
949290667779310592.000
643181881821240704.000
971317650447904512.000
801728247001827840.000
663625519800785280.000
792533202583963264.000
478401483803075776.000
481384806874988352.000
443371917005714112.000
881121662618326400.000
959532837500362880.000
967672694290630528.000
1269022641190800384.000
1645217273513193984.000
2550951922309853184.000
3104342079627939840.000
1678566877430945280.000
924498417733356416.000
502208791327316160.000
296469814877862144.000
224730164263016928.000
132527643269578704.000
163800553152433088.000
245517692211773632.000
220723100024290272.000
299286302398980864.000
236167347208140896.000
291063574684034368.000
356763444209200832.000
971594537084235264.000
499892335424801088.000
804671589412998656.000
405954925504611200.000
429556410049055616.000
513732289779073536.000
432694277805436032.000
689635991215680256.000
690652658805477888.000
381069380729420736.000
223304043894519168.000
115802302950635264.000
138615020551023616.000
220332123105502144.000
130414397911075616.000
300640502473956288.000
279307075953620160.000
236907421099284960.000
277262829710485408.000
206433375016870208.000
110904234862415712.000
68299003686896512.000
34599433011195660.000
46038168266206624.000
36249095587097712.000
39893517121905704.000
91582779929215936.000
49988037976176808.000
42408328210938264.000
45058928597150784.000
48531269197193888.000
48085798871876912.000
50767213970479512.000
73998913652106160.000
41068630997281928.000
47936933705263968.000
72546851007489312.000
40169612670925704.000
23034359234642608.000
12613954822223928.000
6823798917551730.000
7567558956473467.000
6535472022108594.000
8390542169011693.000
7140010296172339.000
3925952400070399.000
3988944307602541.500
2365816504485038.000
3264199700929740.500
8208336350112325.000
7029853524247335.000
4223425273771683.000
6029184596478881.000
6893064295293775.000
3615809218317607.500
1936567756234247.000
4487643704483537.500
6680762034586395.000
6906595465693377.000
7984780809105382.000
8041257837570966.000
4803545052226051.000
3958289823053218.500
2193383511646018.750
1274725902657488.000
1319604555203092.500
2084487897551272.750
2694270052139042.500
2364515533473138.500
2029763992946968.500
4412813242297365.000
3399340930451305.500
4911364324447929.000
2700987871645528.500
1789231381843479.500
2536039505608339.000
2222449952878403.500
3197525236331246.500
8499722330202334.000
11347819287248384.000
6926954023666230.000
7136266331802273.000
6798994246541103.000
3451019554822257.000
4715539061533688.000
4237633406000487.500
2197301792683271.000
2332698860585669.500
3436673323908565.000
3401781984509610.000
3607452297228326.500
2082524795661828.250
2289783483951897.500
1855040833975017.000
2649502875466636.500
2134109885029435.000
1869208519006850.000
2623914703988968.500
2242242172868703.000
2595829477524060.000
1416488225502109.500
2086560201924183.750
1084667861105581.250
2237008349238745.500
4950146427454347.000
3529756033905815.500
1927696019178406.500
1166224346691308.250
1156537809833466.500
1082755429114033.375
1105555295982532.250
2395610575141767.500
2749401544737401.000
2035739859760698.000
