47.813
47.025
45.065
66.806
69.811
66.984
149.778
156.859
253.281
250.624
233.179
504.460
818.419
791.627
1239.213
1314.674
1292.288
1267.388
2617.444
5319.735
7892.671
11675.532
29939.491
28848.613
37735.217
41967.327
98707.407
124040.542
274226.209
407662.765
997306.375
1448164.917
1400285.015
3300799.807
5388256.680
10955121.554
10119685.079
10316099.128
9901574.416
14898917.159
30534050.705
60396966.120
57726493.125
58019909.029
78288131.697
87189795.917
86722585.350
92812610.748
206498133.538
208063604.848
326947636.989
484369478.228
1053874893.519
1028379649.993
1096703418.038
1753065825.462
3880577512.003
4854039401.194
11354778216.361
11480664561.583
16650939914.250
37464372866.577
54894342571.354
56511943463.664
53571010104.030
107612452445.000
165954650002.537
409917516132.599
519910417731.674
1393749772863.764
1978202278400.257
2063705166672.275
2096177034194.919
4457902827208.608
6391398617649.104
13688015795122.084
22286181742189.230
33927035078802.023
34133758357885.453
33338843273839.059
84963278475535.562
123466991572418.375
247290279101481.219
265246854253102.688
417130801017041.875
390227286741582.188
419934819488889.500
607133959059430.875
1332504592183926.250
1415488580918821.000
1427016576492753.750
1440444864847985.500
1402122277015257.750
1305250424177425.500
1906058342185744.500
4532631604183128.000
4300190094582145.000
4170579866800985.000
8676242094301774.000
8527943527820255.000
13148765414406740.000
27819590375892572.000
41825072532639696.000
51086912022140936.000
72974651186318080.000
76800164949768064.000
40715875334785704.000
43382595228508552.000
38780115946633800.000
79334347367470336.000
77487477369909024.000
87874893505830672.000
48611714577642840.000
65716478738929416.000
90628627944121248.000
87618490590196720.000
136498709979067920.000
126020797353119168.000
64889973547167040.000
89863187551357984.000
49620191451035616.000
25291605531164832.000
21299941305932600.000
48264162668045816.000
28326421149917132.000
27617868773744152.000
22732517964463360.000
29329767345391744.000
26244033634603868.000
28957393554034120.000
16185168738438574.000
11008237735075404.000
11000885942809116.000
6177593628910614.000
7047647368010520.000
8929559691141869.000
12727848261025024.000
11644102974770860.000
11918437407001410.000
14046542376443772.000
11781342164911240.000
6006491460304231.000
6373759813367559.000
15122243157448244.000
11279096900664986.000
11730555352789354.000
11404849189678900.000
26651051911056732.000
21502185111175568.000
23688218201100144.000
28838499277223760.000
23011706893427184.000
12315029396430736.000
11963921770658660.000
26416747724260192.000
13658471468621326.000
7752694035363065.000
4263909098599866.500
2245403796078470.000
2291564504588499.000
2034853045178762.750
1064190160146830.000
1222917298131966.250
1154639431408575.000
1202706825558095.500
714658516388621.250
358799748662061.250
467674210087000.438
246809796018017.312
183430206670606.562
219020451987917.375
445447390463035.312
728630184287399.000
815674716547914.000
414312136884623.812
224986399363844.375
123918266776919.594
138460700643608.562
205307849528933.000
413480354553335.500
220630264796936.375
260855971185020.281
142829057137217.250
188085397133411.062
112312053583228.969
254283770763872.344
239575288597385.906
185367072137524.875
97026375923806.188
100531697508909.781
106994518408286.391
119379424944393.484
107767796601642.500
95499024897156.641
142184670156828.875
97352809116439.875
235231946460394.812
306934948877470.812
429205137098213.188
465546151257909.938
399212418179040.812
207316656910711.594
231353314374030.906
134509738923135.484
107270849048310.906
223721024556684.062
222864783690881.031
459303910617177.188
315408556466015.375
362365290829598.438
845614051887568.375
670429088606306.250
1369563427146569.750
828325625484659.250
645084373704040.875
646600867821128.125
827328517798140.250
813009518383786.125
828256621976919.750
698240712822258.000
751816999057065.250
1164289856588132.000
997975229019552.625
1402128166270360.250
1998623455666615.500
2022794274679310.750
1067775447381660.250
1438520123735486.500
1078563994315383.625
631426888735441.750
689348718051784.500
369508735115478.125
810675141088364.500
1200136538560913.500
1352023997001866.500
738290493342681.750
407553691883018.500
555717021025323.938
1370595226360155.500
714665843916768.750
375330026803802.188
837295984354185.875
1060052298255711.250
1476184468849485.000
1287404889781078.500
2073942176105728.000
2089105054997380.250
2621393059467153.000
2305988969876678.000
2476415305123437.000
1321948215558323.250
699261494217143.000
1413711320696499.250
2191796521578615.750
2548867785676417.000
3965227048169732.500
8023181576306141.000
7288879818402834.000
10453175560001050.000
11426930856348564.000
14204219118554086.000
21964857320982956.000
26075044345609956.000
24764737617266600.000
23619970738671008.000
21480877849886380.000
22272384084153228.000
12130557453257264.000
27511367292823000.000
21382276382444112.000
24485466569545260.000
12501758382189500.000
14542280436667818.000
10519023351727584.000
21436117073904336.000
21046124207910604.000
19172089835682756.000
21797549673318372.000
19316167295921988.000
22303035296700756.000
21061874019009348.000
11973963201760854.000
27262365698070356.000
19572584765247612.000
48830200135126448.000
35567943299980668.000
76215707582721248.000
89651327504737280.000
87943972985376016.000
87327374077178208.000
113817618175929904.000
247432795751084320.000
533244145274606464.000
698703594402301184.000
364709334847166080.000
213610107218945376.000
113965818254738304.000
70652713907527904.000
37098997311115488.000
85204961533341168.000
77118176375070368.000
79679339161652128.000
60282879923475128.000
140451333733308784.000
112178568916889424.000
148709497232569600.000
161401034161028928.000
141776165400725152.000
110931906888330608.000
144185374204591872.000
117397503347194992.000
156000664816642208.000
131955181381701136.000
204967483762929600.000
106513190081172640.000
244101279712402560.000
279271927925113184.000
345685586707672128.000
346744011674785920.000
511653537529771456.000
477202087670866176.000
427743482793791680.000
529002233528339776.000
268351953346575552.000
154379466100003680.000
226883918941299680.000
518247104427333504.000
469583837010398848.000
244897307345614272.000
226819174279740480.000
482933419268210880.000
675167189503765504.000
849583508013857280.000
648525586096844032.000
391453898150601536.000
407987159401044288.000
613381942853010048.000
725839436708237568.000
359106660273452864.000
742722447505003904.000
688971681543633792.000
411034050883531776.000
458831932615480000.000
518966939329873344.000
276646858172218656.000
239772561707565408.000
250583009625180192.000
149956726211460608.000
106698657530056288.000
252672815892955808.000
361182366694462528.000
761595342767196288.000
655319433329870976.000
375466458937006656.000
446039493423099904.000
511028685222968256.000
268978226124223232.000
277194905880513760.000
207262370158987872.000
468072035843018176.000
375055294058196864.000
228035086906798368.000
115789520802496624.000
285828894306085728.000
340226271163619392.000
826319938406302208.000
1108515146933182080.000
2855152668904991232.000
1458908355510974464.000
800543832355693568.000
421309043531990784.000
439148034956350848.000
269926758029478592.000
230921071879445472.000
132446309099898528.000
136082857838825376.000
184579796970711232.000
269185384906954848.000
230930922901022368.000
130008970048717408.000
137001670678252288.000
146852418649240640.000
107040291764959104.000
125895646840179616.000
65666176246912568.000
35449880387372244.000
48831840553665512.000
42615996654478304.000
65112203707074176.000
149209765608383904.000
106327856137698000.000
66947122173830816.000
38455015643599240.000
22107309702673268.000
21503832444010048.000
22050071833398876.000
24183081884685272.000
36621543549530280.000
37335079385593536.000
22778244331628304.000
19089513744579072.000
19216458260349724.000
26801103418277544.000
14919211217651152.000
11936461520270064.000
14154339579836716.000
14301951710756486.000
7230644440283869.000
3888022894901969.500
4608866059041644.000
2627517306751920.500
1353374647167937.000
743710991832020.000
425236159637168.562
690576502106178.000
813041944091225.125
642695218776345.875
329753378630151.750
737486440094434.000
585970718312433.750
1424088774640623.250
761426010362638.750
443059889624738.125
625843528439059.125
563162727178435.125
691593946197305.500
556003532370959.875
690115026625542.875
633326936946059.500
654200817484722.500
581194289971499.000
318381509357195.438
183557549444650.875
238467277831002.375
359906564045056.312
815777065011069.500
556077966311517.312
670376365403835.000
665866580950505.625
389812707661871.125
397070360186745.500
791502665995280.375
613151104289510.500
322096945795681.000
356971283371252.500
406911063829738.875
576491444056602.125
587039155897850.250
312324770755583.438
405527270304723.688
203463993807929.281
165755818798910.875
95917795908934.906
229221622145854.719
204884342390983.500
109181526129141.609
172096108995974.250
425284830040385.812
237179104002139.875
176351092673940.656
95199121893344.125
234321111017372.188
242765231063264.812
192728339319004.781
249219081486956.188
174087550632595.406
106864655930188.156
59762403770971.234
55738001367218.359
54540240000545.078
55988597308123.242
58405930078997.086
59205218919884.203
35300674296255.070
38763984394384.578
57281975070624.344
34573779796479.750
39939689026405.570
20464482400223.039
19027058209954.902
18734968933576.004
20636696254046.086
12093476749418.703
10050887808412.646
11057048271140.559
23631508209123.863
16311028039191.365
22523386436596.680
20171486214914.680
10778158503267.965
5660670193348.422
5127235552437.631
12956737690227.457
16170920600888.686
36111651286901.633
76043489049364.188
107437059819335.672
57107369243281.602
54626268231843.664
134309944216053.625
120395537241139.859
120615148705826.453
68505439929588.547
102919846734385.828
125415236330325.375
72370402389753.141
105579346007461.594
115890611036069.984
166127766017857.531
230642823837513.094
246416981917754.781
300979798167074.188
305730864299779.938
684831392383421.500
386070969393574.875
430721632468806.000
321134108766253.500
791520810852789.750
450257151453554.500
379769312484812.938
191237862146937.750
172250174161599.156
374671167261331.750
326318808330828.812
703233691417686.625
591392071131212.500
325167945785383.688
441976462433936.250
677348693094328.375
1361730051451202.500
797269568395315.125
786176271884729.000
1033707450353214.000
1196976045002610.750
1031450509442239.625
595992578855841.000
738567504168326.125
380352964060412.375
386779402501662.188
407104470890844.062
383843704530310.812
426542444426669.812
318189866092658.250
314032089534325.125
724653400227487.625
834569462868407.750
552865563443248.750
1272962981767513.250
1769790821563245.500
2595237172321156.500
2634232070268096.500
1478272775031904.750
2032986077698979.750
1070147402495753.625
641243574378432.750
655535047683453.750
543249678244953.938
636559411147178.625
604366896038675.125
773514020032535.125
1048351494183015.875
1235712946987575.000
1152665728388483.000
571284021045425.625
314957557569444.938
389721825363695.188
832221033747992.125
791686382474222.625
1250575869855252.750
2005271598327115.250
4889816436354178.000
4576744279163418.000
5806063954117536.000
13270254075589774.000
14143713451597776.000
7771570253544037.000
8119142682148581.000
5903825400602692.000
15784277710843456.000
22271059118776112.000
21286886690621852.000
50051657352099216.000
70005232343762024.000
84011117768923344.000
76863386125904640.000
87467710309480016.000
77283416648087312.000
89853656758938544.000
63317769545971960.000
66023669302274792.000
139183473493501520.000
139072182791110624.000
79342081622530000.000
92246242011486432.000
51202065994957288.000
36860541381108608.000
20237378282086236.000
46447844577394600.000
43442832055795792.000
37493709038379376.000
42461193175517496.000
87938165254214960.000
110714487200719344.000
126049517037249360.000
64378427584613904.000
62941686637460376.000
78301374919967056.000
84397985572980336.000
62400585821197408.000
75999311472763248.000
82871998632776432.000
48597061079327648.000
77053379061486864.000
89024486000019648.000
125310266734636672.000
76975410860358304.000
64207596248174528.000
82651984427070256.000
81913628437641632.000
48525580305456888.000
61995700536606264.000
153929121482254784.000
91102008462908784.000
65945597684036432.000
37897270959263720.000
23191127769026220.000
46274745480231304.000
35984816392117888.000
18786612448824964.000
11186299861127202.000
12239223088753676.000
25913566303102356.000
19278666873707864.000
11294776350662628.000
6567231679200232.000
6274796505899769.000
8626809803191094.000
11511000576009000.000
26425177841936796.000
37825717841653888.000
81248070924690400.000
41493235126002272.000
22799856412084864.000
34933689012609996.000
19774623090832172.000
24785060208973000.000
19631037121743316.000
11649460862688564.000
13381550155263274.000
6711313088008875.000
14361146026767912.000
22889584948999116.000
12855720945716106.000
13550410452649942.000
14898836259461540.000
18679571983193756.000
26016316502927132.000
23044814708682404.000
47131753897652168.000
41368948768104400.000
21393172946251188.000
27735140377632908.000
43191393588622680.000
85923451095735264.000
86908096436684112.000
77394059222153568.000
41524125955062992.000
40181360929923512.000
21538943356982196.000
10892101531398820.000
15973596312353036.000
21866644141378908.000
12182710444088664.000
14214853866157644.000
22390704419515440.000
45532014560879016.000
46799180565185504.000
26948375819095704.000
18840306897438348.000
26897557481632356.000
35822238406901956.000
47575708250157352.000
37920567501493576.000
23129402498397308.000
33938125260624000.000
38630018620922328.000
49595358126971216.000
44569538988620128.000
23241687083551428.000
49311383815907856.000
37389667051185912.000
76589357849995936.000
77129139424269456.000
43886688863853920.000
43773651022675560.000
22721025989970272.000
21194760266021532.000
12294583932431242.000
26089594687116888.000
22390093230966092.000
27803673270134568.000
22675470852205188.000
27475115719383416.000
22101710585984628.000
51129290487397944.000
47724325471722232.000
24638653260952044.000
37963586966257192.000
50899251677284704.000
35864833779694512.000
73890180008154544.000
157106854735713920.000
84562279950615536.000
48878287914137936.000
28612771460970916.000
42440054310273424.000
51142240666720632.000
43518820210763976.000
87936135415836720.000
87552216204385904.000
46848327227335624.000
40696969768665976.000
89399079323372192.000
51641481896452680.000
62549159605597640.000
157485889737877696.000
130735202189081472.000
152703594759967264.000
213452532101385472.000
237994454544543072.000
381478035053784896.000
228588605573967360.000
114519942693810656.000
240129893390636640.000
508846165936793536.000
536833333144681728.000
353565494550676736.000
216689342560724224.000
129817804626942576.000
114423890473176672.000
157446822680897888.000
150791326769804736.000
157899189501875712.000
82502228614803088.000
126215988802304416.000
163808730285329440.000
130389632917647792.000
117243625300672128.000
156846697281335744.000
217078777748744736.000
122862799012222272.000
70487871071994736.000
108929071355041696.000
234061176449256000.000
542545090836211392.000
421356387653625920.000
251430093285179680.000
152017678872532800.000
119307370661932064.000
167545937237549888.000
164950283206404640.000
128254825840037168.000
154187314444665152.000
87297383895763984.000
93076514954680096.000
68958267797321064.000
63481025231822880.000
133161761823886720.000
284422141475117408.000
398266492174351488.000
214167533243039680.000
298967527515368512.000
363793617309831168.000
442525514861988288.000
228977884373361248.000
255751100428903808.000
259628045252608352.000
532552450876348480.000
292563471965466624.000
240311804255771232.000
126579230309137424.000
66740638196852888.000
86194709695512240.000
118067123298368224.000
142428727306064048.000
120435115440397728.000
73803450135464736.000
61694842925637032.000
66740778851729960.000
86375430292775392.000
48346561573435632.000
25196880162656688.000
27451234236067292.000
25434378763749692.000
27062191389714004.000
43272486273709424.000
86679594312397552.000
85195972103112032.000
62193337246743792.000
93340528295250672.000
51407975678834560.000
26362667315173316.000
23850362800204136.000
19014376927044700.000
11326869889495140.000
24943263445934760.000
50222871895481168.000
43896035562252408.000
38313778852452104.000
23383296851195312.000
19075268700528624.000
11770620942903210.000
25678311715403628.000
26248002859184372.000
36929245209427200.000
49246391589111072.000
27733349780071728.000
24268320740760112.000
28871480246666080.000
39167330734793224.000
36373120840858416.000
21473515345421804.000
10620291852239988.000
27074866836585840.000
22182938186117876.000
11354321896641216.000
6670780890889580.000
3949965832052505.000
4936074033968385.000
4719113523870215.000
3861783135577297.000
4070788226445968.000
6270961234673544.000
3565111568907547.000
1804697636041673.750
4179994192120278.500
2512683160143131.500
2747199039039543.000
4217339473012942.500
2253679215456178.000
1811072559066648.750
1956860992338917.500
4259823068066029.500
4033972549830459.500
2421410638064098.000
2118848044719827.750
1877449019467219.000
4889731369129302.000
3384052587903872.500
2081637448520338.000
2037570341573868.750
4553194760105903.000
2309269697180249.000
1260192289179779.000
760437722249329.125
405345960182151.500
402550890374058.875
397627587458892.938
330280742046883.875
433654340218546.312
674856234201243.250
399824545327436.938
466046618383797.000
746077020790407.125
1093331870765329.750
1418609772976951.250
1407526864999687.500
744914140370775.250
388537212026970.812
199322242160111.625
314866800171906.250
181966001287845.750
226962241659840.969
185695214302676.500
197158841139448.875
106754566413120.781
230896417429371.281
126490772460749.297
171983129319122.219
105668237020076.562
115074850950486.328
108241679238646.734
63799413025151.727
75593838604800.031
39302068127617.312
31167563157764.285
78875450558269.047
59537203689502.430
59544565010449.461
32071527493908.457
67638449539487.742
100776933665414.578
230988385947925.969
333071271522517.938
830648157384453.625
553797334657375.312
678707670590467.500
722189220691163.000
564742406131492.500
312317338592212.875
329836910539696.812
834355150193752.625
642582448306287.500
334629690374702.625
363119317354748.438
216367023913892.688
112316948910415.984
57316641742985.461
67896722369635.836
61489007481620.320
76953294781586.469
112913045675685.109
97841774025133.562
221863285144908.062
134424432047746.938
97969188161084.172
250200523171793.219
180418289046025.031
223382287603528.969
115256777251877.641
172256584712707.656
445288867604650.812
671767989567440.250
376248161260659.250
331751689617658.500
736447741171990.500
1482325295972719.750
2128695796644931.500
2737045221260836.500
2686520162681553.500
1923267084424005.750
4759937302581973.000
2650127324516188.000
2623228837408497.000
3678503911124844.000
1974419455092056.250
2046005050954426.250
2181112050684610.000
1129928592991519.000
2610427116842095.500
2374299202876180.500
3656031968087471.500
2062625227271467.250
4366154482108503.500
4663199515699266.000
2693201202709055.000
1519009250223666.750
1362175506553710.750
1006010358881684.625
2333972531000419.500
2327396498099953.000
1271948123318611.250
1923632124601353.250
4090791222047453.500
8181826872466156.000
11518827268366314.000
28698251911875828.000
42612750653641920.000
25496432403445072.000
22662145705373652.000
19495317917505748.000
51303829911864424.000
35490094988890308.000
46231857656611080.000
51614984133444000.000
42982528286807584.000
61502564693256232.000
65724553241706440.000
161239074223425440.000
229536573735821056.000
202062012147471392.000
223868597555755904.000
122078453598983312.000
155370391552783200.000
143220360252392496.000
215740486818943136.000
279787039684063840.000
263251065964881152.000
236724766948541728.000
255398482580615264.000
244936551063188288.000
236818964642205280.000
219084378970180128.000
275873073405648416.000
374391415148643072.000
202916930129222656.000
277816732420131072.000
227980614013681344.000
209105961752566688.000
211264155322938528.000
246490981293845280.000
205601023261971584.000
269996798324961856.000
215257279361967200.000
273568574332053984.000
154577346742387488.000
126092394710404192.000
117805898746734928.000
164526980950362624.000
162466914609900352.000
230941776896542016.000
129765850757451168.000
147357588123733728.000
202193951143887392.000
201177464865433120.000
518561559179073216.000
472259467676736960.000
663860756047446912.000
958733535860040192.000
959514090899628288.000
526289565754136576.000
292611480965896704.000
154320829904270592.000
89500722913966048.000
117156585436690448.000
152148698331828192.000
88614101553987040.000
47932807802476896.000
25621423420015848.000
35899987891468804.000
19873089255159228.000
24500587503662592.000
12355803215198724.000
28023465605454620.000
14254996254521796.000
8022373725871005.000
4557799530705266.000
2706252454314036.500
1998649274969362.500
1882995898878632.500
2544290014935617.500
1424289672796288.000
2169372134334309.250
2396551599844477.000
2132876499069694.000
4805771691225421.000
6081881139409578.000
16025704391766086.000
25295173335473536.000
14404884225788856.000
16009553084924430.000
12110002190304782.000
18821263796457456.000
28365076106776504.000
26171766303942160.000
25360650438511556.000
25353468050688228.000
20883890319729808.000
12581473726662776.000
14463828975800622.000
21299411950513868.000
21353887263180164.000
11358819114718602.000
7065778703653554.000
3887244077821934.500
2040389913398722.250
1116760798433480.000
1468617532864817.000
1958673213697575.500
995398065443046.000
1285815619331759.250
740839351051389.625
552884287998127.312
690353609179537.875
413621119994827.312
340758340334862.938
178125908345100.938
460077113252909.562
413745494671812.625
462890775209895.938
247541100226913.125
254720332575398.156
312107258230249.812
353623936377729.688
748582573091406.500
426788371424784.000
309925743024201.500
751698930125201.125
676851898954219.125
644838758928362.750
1335006561883466.750
1265400935832923.000
1850540725430786.250
2262347050267423.500
1228119928518565.250
1276606313922909.500
1114535930671286.750
606881109269564.500
1239010676734729.500
1123650651960959.875
1504865082573063.000
825669807262985.875
552645421496409.938
704473953155801.875
838810026665152.250
1142932367840752.000
572577274835081.625
600592489493198.375
816450824069859.250
1213565487677859.000
676112675263465.125
1496873232945056.250
1313264355370388.750
774320377717428.000
1184353785688271.250
697602030976401.375
685924244013115.500
358254626752460.625
416136935058072.562
604690414383956.375
1274873741409908.250
2660092942102762.000
3374774258925261.000
8436026802866303.000
6482813147574178.000
8578172695768558.000
13640719520139564.000
21058675613906216.000
18818247417810396.000
28806824152024132.000
28651616686982032.000
18692415176934412.000
21000812741032792.000
12925521386963574.000
27050194141007048.000
37233033761261328.000
34411713870793444.000
86037565179814368.000
44613350419167880.000
66040714459201896.000
38737755457218400.000
43052178730959632.000
23860425295280168.000
25568547991430064.000
15267583403284262.000
12369661942937166.000
14647077763142304.000
11994346606377020.000
7383976155857584.000
11865953197840016.000
6284272331370983.000
8055637051107465.000
8893059038538043.000
4770865057011495.000
6364919479426674.000
6666689995777867.000
15151682320181616.000
11000319418268958.000
11343998970280732.000
6430482420056946.000
8282409772069120.000
8140735996147512.000
12096985747448272.000
26845877362313560.000
40091527347595248.000
38524339588215976.000
87800051048959936.000
69936574542435664.000
83601477426174400.000
126437219212936272.000
76767888821554432.000
84338094293747616.000
75010626127801888.000
85320483527808624.000
78502617828869408.000
64135283490229440.000
132174196438563184.000
164036292724678336.000
126948114289095232.000
76543706159211712.000
70974409397506088.000
74934770095840192.000
91678877103353520.000
74651410586455024.000
88293140068998256.000
88305355923410432.000
45220678667623640.000
26778226886670764.000
22559932477732640.000
50365116119262416.000
45070222589235248.000
45578118568744176.000
51175443553058880.000
40982116219072392.000
41729871395393248.000
37955764239468088.000
42693593616532168.000
42024713331395344.000
24776197800500928.000
23701019684158108.000
13716758122431392.000
14709688969435392.000
13119705348555396.000
6815927791462984.000
3561174759486978.000
2004860489176847.750
4770183792107091.000
6625488059411954.000
3358712479759018.000
4209128899661153.000
4282902402193630.000
3329036174633884.500
4839418457649147.000
7093084885732513.000
5986138304448514.000
15576447653561098.000
22368132356054584.000
49931621558055624.000
38928524372649176.000
43596950253718176.000
34021351424765692.000
49637459633422792.000
25236048035705684.000
19044305453866328.000
11313597299947956.000
6321895899651847.000
7941506214994861.000
4419486952249012.500
7043232197796231.000
4144258520817248.000
6634135644358974.000
7738983921077242.000
7541347561022558.000
10759699627307994.000
5979717323840704.000
7435076924207336.000
7342808310399066.000
3981215657925864.000
6360599477980410.000
7499828911867095.000
11643392292063944.000
27971281027724784.000
42448556087571408.000
40468772854236032.000
39729722207509400.000
48351758167328112.000
40892678206637176.000
45730032951138160.000
68576810581371008.000
84401297725766160.000
86605757061646112.000
47592185210918376.000
27719902086693756.000
42043002306045680.000
24524861060827356.000
36175394064538368.000
46485822899577536.000
35811586536662976.000
38846628440713288.000
81686015169456384.000
70734855572190160.000
68014842414961952.000
77591918161486784.000
47510364687462392.000
39522594300846800.000
61645655589379096.000
87131977389049744.000
62332091438162968.000
73308849020575184.000
36748601931239080.000
86882336198440512.000
83046440408839712.000
62394438698809704.000
84776087491506272.000
123320343344028560.000
63445691565188216.000
91516513986077984.000
78066559555643088.000
40823225986885056.000
43657257740842800.000
45732765281288080.000
64348713426221112.000
93079592925776208.000
50111178985705904.000
33962430807750112.000
80039338988389472.000
76220296635642208.000
69268839940645232.000
82834401297861888.000
44437321892585752.000
37643006368472040.000
83773989334993728.000
46990867918142240.000
35342603695071556.000
82608065023962208.000
126582664299170160.000
157427074765388256.000
151435801430919776.000
237761131921121600.000
482503007240908224.000
643415516756891008.000
718618658969842944.000
441517380533970176.000
446372469909558208.000
965596219058434048.000
1291434827627707904.000
1519434285653672960.000
831235525020258560.000
798637834386470528.000
938900970038031872.000
976084013477506944.000
639407292609200384.000
819524496850373632.000
733900733725060736.000
367523878082495808.000
201198937426644192.000
236553837179042400.000
129775821392766560.000
79898075395952208.000
71394699981840480.000
36377627019303904.000
20841821773016264.000
22731470499708992.000
13620295099481806.000
14429807277684322.000
22454051123481120.000
12936156237489576.000
12430849352864424.000
6593382276680736.000
6870198942178133.000
5948456157906235.000
3251897896235177.500
7195884807714763.000
8165196668064291.000
11221649767500294.000
13204156804833166.000
13463387592281062.000
12738587331074072.000
6928368161382050.000
3585005011475537.500
4515999689242950.000
2393698864140772.000
1456623484775992.250
1839719420622845.750
4560528636028376.000
2472535485049235.000
2133122205477891.750
1259068518852501.250
1056397487547190.250
1229549426642349.500
1158174322798723.500
2359398389101604.500
2432020570317456.000
1272061474975729.250
1801862192175659.500
2628388126246203.500
1460358560409933.250
1050222929949281.500
2679791166977680.000
1389724801131866.000
730037591289197.875
663188397284370.375
818774995656587.125
1286077377241782.500
1017463579651393.625
1239356768606761.500
1457458491203275.750
1130476161115264.500
572899112388799.750
1270191264621423.750
693819910996831.625
709580534691268.000
387828835126324.625
337551703624194.000
184286136783913.594
429930103626877.875
260231479740487.125
232542733052149.031
358023788069817.750
725745435903544.500
1443083317963050.000
844066028260043.250
649635833706387.375
1334575418414373.750
1148461470818399.750
1447058167010116.000
2140723044605483.250
4345236412469955.000
4856656537372435.000
4949345120860689.000
4475279254005508.500
2472726395706203.500
2526252232234798.000
1350485829593873.500
766805229128720.875
454999448840920.375
328195531507908.562
324129919178672.125
458171961387853.625
365383698102585.812
429934551639515.938
418524155226678.312
625444444140152.750
1475786841814348.750
1226267380070516.750
651530309226998.250
351129801760967.438
375467745028088.812
379812976757366.750
204453254389602.375
195643275442403.125
119389668012413.016
104593497785996.500
132050991564884.594
140341645969825.141
135875982652366.922
78452491975257.953
101867101725270.859
247605032870609.906
174051515188671.438
449562697545726.000
694732262324125.125
1015977183971400.000
2601916083152828.500
3796992901774609.500
3211544816225010.000
8476734639021657.000
8785841230179283.000
8435438459879368.000
12117550665660636.000
13895963998740730.000
22355181126581632.000
26525768563213296.000
21243446396694740.000
24082355074935516.000
18953956364085780.000
41457238689316672.000
64130156618844768.000
161095812887420544.000
158219771481457632.000
114588943236834976.000
121706848954770928.000
255025944803867520.000
134596104207373072.000
155291150358628000.000
158560084456193344.000
90108900078660096.000
85413022423893184.000
68097870705569600.000
36430499155673992.000
88722205441964592.000
49130497122585536.000
64215024801811088.000
150425130295442080.000
121352659950528256.000
75233120187665648.000
150912057366194528.000
130643202052424736.000
78556644157424928.000
81922086470334240.000
129735068861565024.000
286938647731373024.000
160128090555867360.000
91527890879262416.000
50517033867379512.000
27196366278618952.000
14597975511794452.000
12874432885266128.000
19769681500510848.000
11958339112662342.000
24035054591326336.000
24741722173114692.000
24363219697329964.000
13175285153020138.000
13232616295764608.000
15224383827488800.000
14548177826148330.000
10723253925133796.000
15044401801797492.000
11265679697483166.000
15480684754064570.000
23819504159885712.000
12440078442609366.000
14174228338835728.000
7382521211929829.000
8532023302668271.000
4707056974196556.000
3830533564169592.000
2023777809635742.250
2196383602125166.250
1140125436272881.750
1242416344991444.500
1203855688056814.250
1276062641669727.750
1989693102187730.500
1867241908155284.250
2629562426784799.500
3309827678587086.000
3752828245315631.500
2162050463415544.250
1805838930537916.000
4512462313722614.000
2351248370243149.500
1378944155908336.750
1189338825963889.000
1821851028832121.750
4680936396930741.000
6781176822626294.000
6497543404296141.000
14764447138279962.000
13630981927833088.000
28384510736961064.000
21709524508839852.000
12685387872106672.000
12582225654866356.000
12392064079712198.000
25484219648306776.000
13864488305571916.000
7359835409085941.000
3971072435231295.500
2371910306745871.500
1421567218937183.500
808924648449252.500
652117607754937.000
818566613131172.375
711701406432806.625
355107529318730.000
756572024795738.375
1201008125316137.750
695100160824928.625
809404703269155.500
607729963384075.875
330654736619762.375
456988083771551.438
232794787081910.375
175649732563111.500
211046551475736.125
169598583779507.875
227359401939549.469
364601923911331.562
305693899607414.562
823684973977912.375
675423506317183.750
626285674715413.250
355854347927510.438
362039453558958.438
559630091064056.438
595576171497721.375
315050481767422.000
349082866451420.250
438684763106472.625
453626010890866.812
310268739827708.188
191030269164151.500
99952771984192.016
233140977092711.156
137612051375035.391
119737871602245.500
130330814578040.281
209055148400983.781
242586543476763.438
143774676639438.062
144650609018401.625
173016882020153.156
355405134425102.250
804990214409529.000
1138880264530953.750
1372700439443997.000
694387650837492.125
703298468671251.375
595882289706334.125
628950749711394.000
1320432916265779.000
2728486494058677.500
2711153793565987.500
2401213911524194.500
3577419102091742.000
4628942761312819.000
2562720613332794.000
2216505729244213.750
2683161212110353.500
2345170067047009.000
3607464300831512.500
2116225573061936.000
2139116253775802.250
1802757124988547.000
2029749553385359.250
1202860244663472.500
1803580946486154.000
3742723895726617.000
3804110385162981.000
8525741735241182.000
11631257690319048.000
26026880539425504.000
23231707771433872.000
21947990201498216.000
25602905518037976.000
22119641879241808.000
13158127607759594.000
11864718972159014.000
14595192370673902.000
12897575499837334.000
13810582940953314.000
27587659232476132.000
24757435959259988.000
15109678787820072.000
10405573128807924.000
6209212880438315.000
6765090376905001.000
4174502073361374.000
6466602324846301.000
8447972058444660.000
4928069148283517.000
6007849725913801.000
6542139724083311.000
6755509851185517.000
3500196630453179.500
3483786571052466.000
3303879942859378.500
7483381845279960.000
7298375448261894.000
11474509571209416.000
27106142920183832.000
22326151138643432.000
13441662744718196.000
7901030458648500.000
7411626355742618.000
8512094618771389.000
7602619744856842.000
8076242166394633.000
4291671568987207.000
2484223836862656.500
3946803999880602.500
2135550642566523.000
2027585704147904.750
1195623475694344.750
730061123519525.250
366765821316174.750
218640306084609.781
122819634764063.125
105706437318138.188
53506378556652.633
63909439514648.281
59250519910054.109
131086696246603.766
136636239409387.484
76326454338004.625
121167541038082.547
253002439265003.156
325309679726848.125
195917284574456.625
471202183344427.750
429061377557601.062
558801632401131.625
1289290812602594.000
729819243749793.750
692348412360305.875
549858129121479.500
591169793350674.875
716621218581480.750
587891803926406.000
650939703925801.625
1395528408157672.500
785114680885457.250
656169600725565.625
779475615970195.250
625163439385100.000
733239236300613.000
1154560245351922.750
1171298012218970.000
1339760917210983.250
1403470282633980.500
1204249207448925.500
700111045760522.000
723892721014628.000
437375236653418.500
250022195239883.938
176084059045156.844
182134782932792.844
218207842992988.219
256537638154088.062
226039791348050.938
201662216461787.219
320104159233240.750
743285009732517.625
589342121612260.625
1324555091046408.750
1995520567257047.000
2706744000089604.000
2059554657833346.750
2173171548869778.250
1788666186182924.000
2266559794990759.500
1141773551536337.000
1427934425233903.500
1298573364138194.500
716198019609813.500
416516613593344.438
381720311932836.438
826767717965846.125
567253555731411.625
678844935369960.250
638248375926275.375
819749707709041.750
673102563864164.000
717458261604841.625
424923274770437.938
674439522034496.750
690392520069718.875
1474412966849122.250
1203214619622817.750
1397445351098830.250
1503522604386796.750
833308016359669.625
781724706446639.000
790241759056967.625
1065565912155127.250
1190327401867606.500
1835549075399279.000
2466815411572486.500
2281739852417569.500
1391088451278108.500
807124529039844.625
663506681885060.625
1049857061517805.125
2195105616666100.750
2390531853005722.000
1280051932560818.250
765041682975322.250
753069351615405.750
1162901297299564.500
2611191340104395.000
1324171087043376.000
2140298697156237.000
4861888607671224.000
5764672089099902.000
16000733366706188.000
23996368582833868.000
25044041887627960.000
35939206620378348.000
42441617000006856.000
88742749682813952.000
45741381423176144.000
44184940823474784.000
49084074165210520.000
67963479395768744.000
147121468090284544.000
82997892855018032.000
61294545613700472.000
33791270758571412.000
85632885055214128.000
70728414809563784.000
79294706207255664.000
65483817671524480.000
83488519654422896.000
123031618482876256.000
115563197305822288.000
65690949914972800.000
64847805964382304.000
75958603258234512.000
66480673859453856.000
66270630600012904.000
78365840577431248.000
168397651101454592.000
141524995759118528.000
77180241663377536.000
42992156982536776.000
50836021768367952.000
26825255297276600.000
34168399552838472.000
48344559777023576.000
70888548787434128.000
36957694778493680.000
89118697079287216.000
84771358105830880.000
117214028196518432.000
251346176724115040.000
222445621515125056.000
240285546445411808.000
298796551064218112.000
153410160416460128.000
125013411941426800.000
77289720339425200.000
43931880612798192.000
36111574522816328.000
41312959001754168.000
22309502902557712.000
13007751776885192.000
15405078368947822.000
13399201381899738.000
14373734335838234.000
15910773224392704.000
8343635042900189.000
10374608098546704.000
11932798873318082.000
26309678696025640.000
38071763699035328.000
36115934871980144.000
80734822503020816.000
41173386314828160.000
21161494029591140.000
11667033949646892.000
11115786855192644.000
6752159725410667.000
8068303545352693.000
12309050636441750.000
28512234333110328.000
14593416958555274.000
22438816148255012.000
27409610595722928.000
24454539180388912.000
14629693782462382.000
15284079194678850.000
14299742945406322.000
14595643741682426.000
23678344052230776.000
14095002286817188.000
13367791392028684.000
6751176852421270.000
5798829691350441.000
6548183162298744.000
6237527460124369.000
15341259028206584.000
8639248100514189.000
7368410130371697.000
4059945708437084.500
3645959238069772.500
3689896574391915.000
3861232318846763.000
4259492292894143.500
3726522138865845.000
4332719969380798.500
6398887296196249.000
3391173788813296.000
4048727599980695.500
4576651895610431.000
3268606506012721.500
3972202618603942.000
3808941031534858.500
4821066983502858.000
2528742604448651.000
1840838770802844.250
4633552801552538.000
4604601922713591.000
3213007165407691.500
1856343979947431.750
1117352515924866.625
1051941782493309.125
1397129187064719.250
1870049547878282.750
2171615903275362.750
2409428744749672.500
1453137759161071.250
1196206322189362.250
630051998266536.000
779472569835612.750
840567870950492.875
1023104205641932.625
2520541875492685.000
1524341787692232.750
840930592070881.375
1195292154262669.750
1406274718223056.000
833353596536718.250
740201955392952.750
741103881467898.250
733505052572717.500
371899965820363.750
773648414887804.500
389933190812043.938
470919070159149.188
388308046080958.875
383691836981014.250
456377500655305.000
416532483157376.438
212354425273402.875
119254234813404.547
135951226832526.219
179170644826607.375
253323047487244.781
235732245149734.812
203437431412340.531
198536483676001.844
309207747716248.875
184531546165878.219
104917555342815.078
252770015443768.844
328412197860395.875
406293581903917.750
307321729048768.875
330053753949207.000
388822532154182.938
601116768679871.250
352164265896569.250
215057577652013.562
107556042520914.531
94890046913110.891
210502605873553.062
186094299470447.469
200148957666933.875
407942102483783.500
821909083135355.125
1167965733234097.500
2734258291026079.500
2356545352302838.000
1977483450321134.000
2484808182106404.000
3317196993876528.000
4070643240061321.500
2259976213001031.500
2595333446372757.500
4008404183896276.000
8059354044778291.000
7508876010514618.000
7626789128462206.000
4365720514538912.000
4029271940147100.500
8615250909472425.000
8327023140764248.000
4373954037116511.500
4604250009266331.000
5866827115396250.000
6745981432298266.000
7185069158325943.000
4200141717025812.000
6368021295997514.000
15213058066081430.000
20566906708829496.000
19321587293278376.000
39742486308534072.000
20738365896288428.000
27316376782496680.000
24728135607318668.000
49543696681468464.000
39488998747477792.000
46784547894586168.000
27316957830057076.000
21896083077952724.000
23978665901074596.000
14583716978660116.000
14679313229730162.000
12608767970898306.000
6971759568669081.000
14896356908136382.000
8162441406579570.000
12609582588293152.000
13914597682304346.000
28143431838219620.000
22017175584505152.000
27504676739302608.000
23819707426930588.000
12668538221778766.000
12140778236968980.000
7231884439377249.000
10747415633995560.000
14081764278268920.000
21556702793572368.000
11708965129968430.000
15581369675090900.000
20245354984841588.000
45974116035592048.000
36081574985427224.000
50908403367694272.000
47218289268872464.000
25682143741163440.000
25380828487241448.000
27694110088201092.000
41171385299315080.000
48480154919301080.000
72588449615498560.000
83481644150528496.000
92744276304617584.000
119942158044056464.000
153531891975226560.000
141762051502423488.000
141409520823257248.000
147588912020356032.000
124189294023532128.000
75817556809453152.000
43634346180994056.000
43934350075699512.000
37432645644928376.000
38167750524146360.000
23155875626697792.000
46766146543228912.000
69543594585276968.000
82625779165073344.000
92833586481361472.000
76892555641266352.000
65496173261854368.000
160295063074341024.000
109318447578606016.000
154826388436694368.000
149117066719967264.000
144022457077190960.000
155881791831305856.000
129175270619280352.000
77711286135295360.000
39463494766572040.000
86840169117642976.000
75321836708544096.000
84637914998261200.000
46788706875776296.000
38474443878420768.000
48128086253378152.000
24675108158592672.000
27628281082156188.000
22088106722424196.000
11495061699745908.000
23351544667698700.000
