43.751
46.162
67.747
146.326
143.798
141.662
141.644
135.223
138.513
150.606
212.144
227.477
504.062
787.107
1218.905
2595.798
3805.063
7753.844
7359.629
16593.006
24021.836
50311.904
69628.855
68312.095
145038.919
298339.769
416587.758
438609.252
435853.105
437252.575
433060.300
474231.835
471385.171
446846.686
443465.337
897436.552
1354432.966
3313104.761
3203785.571
3399412.061
4975312.174
4985003.248
4901640.241
4931478.336
5419927.287
5234747.854
7890866.442
16055800.345
24726876.800
24049716.950
56954068.687
52241619.104
50530463.037
52614131.606
79367794.500
203429599.328
299526823.771
292814333.190
471189474.084
483708103.086
1165801748.394
1804057437.760
1968396864.880
2740576039.970
6962025319.021
9064832728.901
9805149060.371
10796646706.490
17124152410.508
39012889557.844
59568965594.345
129017156319.034
130479000816.511
131621111923.252
160992780883.043
368237018595.817
580687675962.555
1158751380891.047
1762978791506.854
1859526044254.980
3902687141126.538
6260247987306.933
12869482955855.598
25545070263154.938
36437868312919.453
32895315577647.422
70702418569439.812
75731419919103.672
71352209411869.703
104120920534695.938
246784924036883.938
370377891967160.438
847264969013322.375
1393095610884672.500
1264128836892309.750
1252133057987805.250
2014785019520770.500
2230158605695267.000
2249514965804017.500
2223430186595504.500
4741512667556265.000
5015100140330032.000
2773098542000055.000
2140592941761964.250
4847570227416145.000
4868196583619637.000
4765027268043076.000
4575922754941935.000
4720546845173499.000
4483419167427577.500
2547163424295426.500
3640876728503752.000
4669509314798177.000
2619473874878320.000
1473411166290771.000
855402672437005.500
598101507274940.750
324749655812954.688
831696667720500.125
718482240100013.250
839483998706176.750
708326450818321.625
400220648861368.750
383564937232913.938
210601248904608.625
263389389949623.094
195625222002361.594
207755925860564.656
325279587892951.312
343883381909537.188
369354822825510.062
756098934025272.125
706259721932903.250
640139711403328.625
1496324321553806.250
833071312544617.750
575641681533670.375
784817102708947.125
714185862137699.375
771883504078738.375
408659070050114.125
427687936271756.000
643637922155230.125
1333352120509731.750
2713509796220775.000
3366073156302928.000
2000535983003749.750
1074337341105433.500
630423543115104.000
684319676751335.000
380007855811322.312
417199344570679.312
847238404639247.875
1099152401684686.250
1281182274394562.250
1538584931512681.500
859386526878212.625
796485463024856.875
435089861652672.562
463074592215872.938
258405513710433.688
134244239645486.344
124123536440993.500
63160682741457.875
79882305716873.547
57766294478233.078
141407458724540.031
200219143465942.781
234842115597261.094
126055169715815.188
107532929419107.234
119988873725559.422
184609179977704.000
193226494962332.438
111726251430118.922
125307938819094.922
99787844463052.250
58699687999767.438
71785111333834.031
110101163441038.750
67072946967771.414
38665583607865.805
22437505501920.969
18555670633875.488
9540320962075.053
20205556147477.121
22595997710018.609
23183854542016.504
33467503551479.605
42196948749181.727
25040168011310.684
21901475811183.988
16706735514727.273
19591690071087.125
20447023827083.340
30929580696675.621
37475694031753.328
41098297013525.312
42407878562408.695
66508993263739.391
56168305790088.297
58752209091325.898
59066895159350.266
70022885327838.789
38796543591111.391
58492178291612.391
121569309338524.062
257912295942228.531
344341558758796.500
791810824527926.125
1156077040856439.500
1341285966307089.000
1058293673316077.625
2254170250899046.500
2242767580870690.750
3183830609336269.500
4463204127344267.500
4322597144740558.500
2615428114652300.500
1494116424618637.250
1224225231638263.250
679847671657022.625
1470750186032645.250
2222266836385406.250
2128302810514369.750
2366114052640156.500
1223326061774009.500
1160998874304425.250
1407904117201927.000
2249865611644289.500
2330483125141669.000
2600393404272553.500
3268912704096808.500
8059098382810539.000
6583058252859681.000
13362844547086168.000
10429545178571216.000
5985724504667296.000
15652732374993868.000
19321070144178224.000
40311724106692904.000
90846005423773152.000
71534211264244600.000
39362036897795240.000
33179923215738180.000
49609100944626112.000
47292324081255088.000
74348539329103872.000
151597285090075744.000
210240622748358176.000
432557115978923264.000
401740063585959040.000
220275462501577984.000
262540282097961696.000
140804936150377488.000
120119660121451280.000
247682427901850688.000
262332262774559584.000
273585386560947968.000
428367349644656192.000
471788718117759936.000
962687704855308032.000
1253257451627179520.000
2608186524874065408.000
2972073756288162304.000
2154862555796188160.000
1295461136905723136.000
785865076094495488.000
442850880921592832.000
884408966502556800.000
650085355555089408.000
777351830547920896.000
892890617914537472.000
895117519984929280.000
1354458938032469248.000
781291913496510720.000
678626248618791296.000
1588709523397301504.000
847637414817802112.000
460774833324690752.000
466489425176356992.000
445114389664227584.000
924099666687290368.000
764107741136283776.000
721941936577791744.000
373310879455622592.000
481211350354850624.000
669084345852641920.000
821738276472638592.000
500817127250689856.000
632692326471060992.000
351666088814435648.000
194058205020307296.000
276308605923029792.000
348011774894310016.000
200982855202772064.000
117490272605667168.000
120265044569272896.000
254837738455881120.000
131760597336054832.000
76669532506987984.000
120172193185914528.000
111648895416037600.000
163508644430021024.000
153166975040437600.000
80666220771258496.000
68973715021883632.000
77997398334020144.000
45934487535544376.000
24493988863415328.000
19261384715234136.000
11162958707785584.000
13088518805002552.000
7729828913336592.000
7215145877553612.000
4339314822144837.500
3277503923069397.000
8411220416892683.000
12068825426015790.000
12148651109585706.000
13982759708754840.000
12764609547025750.000
10404162212996586.000
15475685569688092.000
20163732334110880.000
12108744863861932.000
11419180942977862.000
11870472010820134.000
15511953288830394.000
13893297118874966.000
12685211573117152.000
7483095743724300.000
5666238918721432.000
6643628289454316.000
3792594972416235.000
2039359815960798.250
1151840139571655.250
1143700068727257.000
649148157751593.000
725312254285807.625
372220982873871.562
441058421100739.438
224558638715656.125
299610033167416.500
186444224577264.375
220050646423742.781
302222734994408.250
184699594906625.781
247244033342925.312
138385759880393.438
95444895215696.156
90088955012036.375
245124819815297.500
134852781725156.781
199596575480047.781
105156936634796.531
61802129571828.250
65983532593440.633
133432836239303.812
71372770661328.000
65833833799740.141
51589496297149.375
75914366417002.109
41791367211277.930
21339844356020.777
17080731520226.459
17730462199882.297
27449643979160.680
71180731623618.859
58367540044954.875
72965856547744.406
40560466324920.648
32736774862444.914
51134353228493.484
60149326579879.742
66295679888549.039
50326132065070.164
71509270176805.062
74737450442075.984
68401733286490.219
73644668946625.500
118121382143153.453
68544488760180.484
54558570791828.992
51802102896850.383
49106878785357.297
30459433799751.184
17242602697599.680
23506789317951.688
23478930845875.230
15562878524603.566
35588975770195.102
74003232872772.719
39260807542859.320
27622185053740.824
62548090271564.672
91342058809987.031
199483973166116.031
171827662850037.469
409847116134595.312
536154557881256.875
741096376715860.375
943266420428018.875
1080484003802713.250
1201699367882555.000
2477952615740117.000
1361475066476229.750
736504221541166.125
1144803450393148.500
1114930418826578.625
633333003004236.000
1358850439892508.000
741915359139390.125
738487082448270.750
696491552920864.875
698255651969768.625
614681286124756.875
763120752576049.000
414592955847389.875
406582931675726.812
234094186330318.562
225691839561023.688
167490402415157.969
199292805707646.062
242201800095740.531
227769074011446.594
208545739491690.062
194940603731966.094
103491958715839.594
121314398853015.312
116738461336335.656
127050644768949.141
73592281713680.422
49500989472127.523
137326141583366.344
132841133561170.859
139156907297451.109
188238579882690.312
413384426211451.875
366909020920306.500
344507929519434.000
436830654016855.250
432533699386318.812
227134001875997.344
239512856563190.438
187735534287318.219
217541094967882.250
227282759865759.062
114745494415756.172
182957120743824.875
90931229925030.078
200614015804302.219
235383663605503.000
343116686058753.500
208431403691829.438
202903515671868.406
214077584713224.844
293292520270944.312
415613812858240.500
381341314254599.312
382192316697604.750
335333193163136.188
391046089296218.938
361400030670972.750
340137792571890.438
186447137019569.938
195519151618103.062
253220391529201.594
221542182242806.438
174437515693307.156
98066259547147.891
231929751031737.500
188209792377346.594
103215954978071.312
139634653866568.172
214345419653625.375
244878713444889.594
222324140427596.031
244222605313532.906
360502570356085.250
542498706313433.438
298711709401909.875
730538570977693.500
389127840978477.250
592665479338734.750
1264888454310147.750
1198097788029489.500
1157042766390884.000
572895560220538.000
588098783558839.000
300737113527633.250
181290826738312.406
218514760966463.312
434120771882133.938
380785083889402.938
198792190948105.719
106877347585541.172
122790067946426.047
96985534599554.047
53244513532207.875
69022348390230.031
51350216978778.242
69201576010217.070
60148171493784.930
60004151051448.422
31693546876831.477
71510326500751.922
142270525075959.219
107423323433297.141
115515141725639.953
125602883983409.906
91374089559713.188
98594505916224.188
231716115309731.562
210458081894486.969
444632581503503.250
378513288834445.188
197614275540840.406
213121420123575.531
221279702869707.812
317252162357773.938
742929681661113.375
594410253351242.375
732049587103486.750
379201469030827.938
360831685993288.125
367795048428981.188
360116532093278.875
751837083272064.000
419361568945235.500
439743052916268.000
452330359000070.312
452910150544665.938
360427912974531.938
435262036307533.125
641938680717138.500
574870312844673.875
814508406513864.125
614637679584014.750
336034497467190.312
738126586472612.875
397603089087226.688
617971198860667.875
1302183445858623.250
1390644053684040.750
1182623652377064.500
1419373858874547.750
2108585623826595.250
3157201004926934.000
3688615587344129.500
8097310473578697.000
6852397725170492.000
3506620574145724.500
2074367489404633.750
4179065041937973.500
8447935913924789.000
8049374205352323.000
6178574059431517.000
3651230004699854.000
8318663471334994.000
11364710444802888.000
13478352394572562.000
8038666197626372.000
11268376920488576.000
10892676299900676.000
27227508103608524.000
28052807329256224.000
20068064720685848.000
26964822009416440.000
23578748293840512.000
21142346263182292.000
12426100034653710.000
14549042591582296.000
21376439860737776.000
28656196351410316.000
23392294377555628.000
18676511784915180.000
21865662741939756.000
51603186726009544.000
33773215607974180.000
41486273744027704.000
61207290381757992.000
77711824332525456.000
124934512046388608.000
157782039502296960.000
111380220199008240.000
111122963524591024.000
284190521592032832.000
393584943610450240.000
371878658679994944.000
366962094367417024.000
371655414617176384.000
426712675484797888.000
253391045321566080.000
288715883397374592.000
298721395068930112.000
378747124165682432.000
543595097840460864.000
405222010453695040.000
403183783490154496.000
504440781593075776.000
354177767472529024.000
519230564123738368.000
402382819725137792.000
893798170156535808.000
1388925741047568896.000
741918479025660800.000
407660627546772288.000
241356878009794240.000
498652360226799360.000
714699658433465088.000
435465066175704320.000
973580751796547712.000
506621864863513856.000
656854537900809856.000
406229539163658112.000
244347880282645504.000
519974277036033600.000
765998990505582464.000
1630098863582097664.000
1260551212924361472.000
1474210452302946816.000
1157625434221347328.000
1332248934992512768.000
1352434524611547392.000
1345703462276481024.000
1407135862460667648.000
1472314939219685888.000
790096331191159040.000
764952089897654400.000
1597374817193580288.000
2065102006415950848.000
4210313539345152512.000
2576015633781138432.000
1498451872490123264.000
752293914267141760.000
1543628194736675072.000
827173603498100096.000
700404143695263232.000
638236863789158784.000
386980344403215232.000
884173852273178496.000
464121166974260928.000
374218007046632320.000
922740724505831424.000
490057368134966912.000
273153416070707840.000
152732754516757120.000
80500711265585680.000
69956536208560328.000
79230819525926160.000
43393243764898312.000
41500610448765384.000
65058907504076064.000
33565409003298628.000
41413965849841872.000
39884760975945640.000
21290719933702360.000
47949023648303168.000
25575978666976864.000
20605046116918692.000
24657286245440820.000
49832195295125944.000
34102644300379836.000
36980114008922368.000
21763470103971616.000
47553591783792712.000
25747824738428944.000
20953483444735740.000
10534642522482274.000
10571124294447732.000
25287232711717052.000
20234437906529664.000
23736319093346652.000
27850187013035960.000
18650226210187992.000
26896400973804280.000
14357785428614160.000
10932068675442766.000
12817190864425800.000
11044986037697660.000
14692790244478026.000
7603737058069236.000
4569799817013729.000
2416903903807189.500
2711481721184763.000
3937968609956952.500
4831108974861261.000
3967187163539625.000
3746410396871668.500
7539802697684319.000
10460546564924262.000
14923155042546956.000
13859051905337704.000
15967115930986740.000
20879120853332316.000
23670650936200660.000
13382784030831018.000
7261067428822903.000
7089960806744901.000
5980321853435421.000
3669897651384118.500
4610327225417190.000
2465658152749106.000
1471752550395210.000
1081890779870315.500
1101640085800098.750
2229922408268984.500
2111266594724715.000
2498793898210797.500
1353564776125331.250
1932368977688586.750
1046795355135081.250
2458033579354023.500
1423118895045699.000
1528144818511966.000
1469274351526514.250
1271073748770580.000
662811121591506.250
561510236262905.000
694389260319918.500
575370348296950.125
782418567190677.250
558668559712232.812
1369473854026306.500
1259775997249558.500
1880377182783674.500
4621647821713125.000
6749037076600754.000
14973888371258756.000
8854622492424401.000
4511035039973820.000
3465578925629246.000
8388761699648731.000
10580826252185298.000
23522491835057400.000
12830345836668984.000
28086145129825828.000
19151510511322788.000
39023340558760424.000
41118887675524592.000
23045744065009564.000
23593698336608016.000
12177924730999220.000
7257141065451023.000
6757867378449868.000
6233057932007876.000
6939181272172812.000
14255311839208110.000
12628435649745858.000
15202400054547238.000
18822975598789288.000
40259313554108024.000
51227410913818928.000
51543880796439048.000
27123416096861716.000
26924712597115532.000
40959619288639648.000
22445423090678476.000
49748954840890888.000
26312593455980704.000
22168518078340224.000
25640501043992364.000
19947715314910980.000
47180086464893744.000
42997564154297880.000
21946156559394064.000
20902750504718820.000
25335981807424076.000
37913386588268160.000
36507008150334984.000
22704093576778344.000
11971387262226702.000
7103921984204401.000
4068868911230886.500
2175124167310488.250
1115084791899079.500
2532483047714260.500
1400731014747065.250
828364651270795.875
603129369889985.000
699267897257842.375
770529871970565.625
1016230010184407.250
2593232128172271.500
1320924883739716.000
721119425533948.125
377847031770470.062
229560277915313.031
230913454993866.750
140330733927330.016
105409030487026.812
64082845559730.641
138422392088444.156
115972495973670.766
58113447465947.398
34087362746068.027
68652277526045.234
95782442363678.281
207745878732952.656
261678771370218.938
379106133701595.875
308220172764568.938
704315549630429.750
671274241105052.250
582759184920241.125
576597926888051.625
350185344786470.188
771844206033726.500
455449515200830.062
662702508801255.500
349550048898222.375
550697744461093.000
819241953218949.375
760658814301540.250
798332929734817.000
775585422605416.000
394136538271534.812
549110122624708.125
676356371277063.250
603787373561627.500
332828072517830.312
180911939379966.188
261617732036494.875
230455608479140.469
247985586714727.750
192327890616682.344
102316893538275.812
130478072954203.359
74698774191195.031
108720430734492.219
108869406237486.531
139577966633829.891
71318511017507.344
57116850885235.492
75049783223422.750
72804583663598.797
39238814695358.281
19784593037051.660
22429546653327.371
22745980277106.512
33877719481540.438
53813219993734.219
144616037617323.469
181833964092418.938
189342622224301.844
397440318331364.562
827611043063738.750
622446146601902.250
755801397482734.875
565464156246174.000
697823961446566.000
823263795461274.375
443920281161852.188
726020814090186.500
1465980486772320.750
2400280280755370.500
1998517217980951.500
4746797049914868.000
2629205031893488.000
2431562117081033.000
2682277749850449.500
1971534810034826.250
2485210105929388.500
1922591270750238.750
2071884967995742.250
1873843699219598.500
2067552849227724.000
1209496082212155.500
717099488512340.750
1049197474406789.625
2131855225020411.750
4486962682614269.000
6875505102498441.000
15243323019997682.000
14940358197048128.000
20612601221267832.000
11849125582945468.000
11338568270190012.000
27271229812275904.000
14720032299408012.000
12755897008143356.000
11556536328533850.000
6268091645089697.000
3845127046991658.500
8407154015831938.000
7968745896428884.000
10417677877023712.000
11614593967127450.000
10800570530234432.000
11016777257576756.000
12941155228722902.000
20383206824079776.000
28417642254616164.000
16031891869722086.000
15589582346003070.000
20514183111763656.000
26958350330196428.000
14883295952798692.000
12121017631478596.000
7093013910164576.000
3707292209579940.000
4153394782659057.500
4946905120582693.000
7211588674515147.000
6205969269739847.000
6118103333745988.000
13060833946357076.000
15426539905216264.000
21013844990335044.000
28602368107241468.000
44457952443159048.000
24775628551258800.000
19908958540858988.000
42183556393717632.000
41515654014315192.000
39869672298982536.000
39847440581323448.000
45929983582709888.000
26984493668309220.000
15153675248752150.000
22872162455090216.000
21203970351541332.000
12927656902936512.000
15693243195706950.000
24052511738626780.000
14495339774930382.000
20389296507630516.000
24563481168809268.000
39001265024297880.000
23315931992684836.000
37140281294894512.000
18859695830316092.000
40594673070468696.000
48829270225860568.000
40254929071430464.000
60612111283008032.000
142996228328047856.000
224603954785843296.000
273548621800663200.000
437710268353161408.000
248943663414308352.000
297774382872934016.000
215709065484095744.000
128526209805018192.000
137034921414325136.000
69385439505830304.000
42827598250530032.000
21510141407465112.000
11338674656621000.000
5867788753521268.000
7317179078836582.000
3857673658935686.000
8553213200315095.000
7058303804652729.000
6229911369620414.000
3369182701100847.000
1826120556777705.000
2193483493152410.000
4418646650047100.000
4437757301766618.000
2249322539499486.500
2537918073851067.500
1444655354915735.250
733652846281944.000
782550640033363.250
1001330398802687.250
2414800304196676.000
2313273773622958.500
3559328018682160.500
4042494014665471.500
3328598791921853.500
4143975119304179.500
4885146815912514.000
3648681687543777.000
8455374745607961.000
6892833836932929.000
15669976298603422.000
14474235792713068.000
12966635660376454.000
13305053149756950.000
7826518573423842.000
7715022656677983.000
12041115349359978.000
11127091895315958.000
6903038663478185.000
6195027700875540.000
3858374285800059.000
8687534814578558.000
13381953577953992.000
12617060195761114.000
6481853283641521.000
3960249362806518.500
2079890765297303.500
4539648430430030.000
6807343426440520.000
8353192800015322.000
4234055265885982.500
8586183844330107.000
7613639516852279.000
6881996400489230.000
14052760667497660.000
8031958727996868.000
6580864470132467.000
8401609943998569.000
5841941838097939.000
13696004773863608.000
11871656395756296.000
15251451974645794.000
11045519440014844.000
5767978524588051.000
7254595981822568.000
6669638001941513.000
3378786191493132.000
2036209556522893.500
4669555712337758.000
4434655923782922.500
4079491264343192.500
4637938221630455.000
5813778893574426.000
6386544348871494.000
7747309965281399.000
8388333292232691.000
8212396256568450.000
4459475135358260.000
3349844389480903.500
7731327320487469.000
6564643474198409.000
3819801777369489.000
1918828107503959.000
4320427239313304.500
2634205155194432.500
3760523159047619.000
2052707635444812.750
1075359593906614.625
632798534493848.750
385767734101233.500
314002112845840.125
371595033627416.562
212615407483997.594
129286817791537.781
138619771772082.219
79899770550725.922
54515038308229.359
60282414019925.625
65256896147713.891
136596792952669.703
190721666861881.500
207918143155245.906
214800779601528.219
219126991015646.000
180849258859503.188
384639103344166.125
230956563679021.625
119080086650290.141
140918666793744.000
185621284455518.344
413683391742292.625
243025803359073.250
140654261010227.266
194069251489128.281
172950208224702.469
103907356559902.219
221597768051103.844
329864683043753.938
682789128597650.500
791362637239514.500
427436288995647.125
570596889610176.750
312637422884077.812
432918195691382.500
255781985714569.344
205178432217090.656
243976537508156.469
141223307004838.875
122444718018775.312
107150959134255.109
138612258221675.547
226872091277133.906
173537037764143.938
469424506147568.125
470685459222922.875
688110230913173.750
408273338168190.375
577788308131368.500
648508459858004.875
700091405283600.000
710153276704766.625
843421297647361.125
663995186513983.625
1332308496543954.750
1984849133870697.500
2040930907795712.750
4912144053625220.000
4427879768773724.000
2472271067529661.000
1912426198883277.250
4413628981795105.000
3831421486780120.500
4437202555616110.500
4437581161393623.000
3502489661241906.000
7855534088447306.000
8845122436486618.000
4627574073234636.000
2558236031881527.500
1867252430004177.000
2624456008923598.500
1822253986122365.500
2650315007253013.500
3950344083702721.500
4390992408122159.500
4749292154051157.000
7441933045073862.000
15456938076785032.000
7983036126073291.000
7998485061560672.000
8578791524097780.000
7443549749957047.000
4045979520319665.500
5786766124452889.000
3585114324053136.000
7673975345600111.000
10388731265422442.000
28600797485941072.000
21434227229664452.000
10933027821285974.000
12882546402923904.000
13301184174581756.000
13744007505141654.000
10730783406845182.000
22208410604552080.000
27071662508431052.000
38376382670207264.000
41102774682664080.000
37923197954975792.000
39529995079632688.000
20218109884022352.000
10644488527254314.000
27766591148029992.000
33657028244259144.000
78437054604219360.000
167315808343386688.000
112172279002114448.000
254673868026182496.000
365174341700166528.000
220089722933248192.000
275179578995088640.000
290693199085766720.000
366937294976945152.000
826775422778646144.000
439192578683352832.000
367769005069803520.000
765323779801665792.000
1548569241542183424.000
903300669986467200.000
527933832391766144.000
436482292417058048.000
938955221560811136.000
1192132081162675200.000
1622725766761120256.000
1679283819757223936.000
1706508849895900672.000
1446604701893828608.000
1765626790887674880.000
1291368167115709952.000
719786238734441472.000
1523238706082264576.000
880598518924188160.000
952997858851217664.000
687769969004701696.000
1570974157690509056.000
1349861934789572864.000
1651138685686907392.000
2504379200131805184.000
2162323298175120384.000
3138947723780975104.000
2076272610830775296.000
2920377057843984384.000
1538529344583153920.000
825117896153085568.000
1658084801623623168.000
844240249093499904.000
1312432146052512256.000
771332050363606912.000
763402463696354944.000
1560143026527883264.000
1424778693089130240.000
1581906541198610688.000
1360562849706289152.000
769959637952859008.000
859154641997287424.000
897468638582072576.000
467537158007374784.000
380654896431165056.000
864831925822092800.000
464923139909491072.000
417269214020694976.000
209320383095284032.000
251725820230611040.000
368965115312369664.000
210979662866144064.000
117042884154074256.000
163782151061850720.000
213246757980678720.000
534548526857654976.000
413383154708446656.000
524142793566441344.000
434362636850237952.000
513268948418763776.000
434786632777354816.000
509402959838075264.000
723772200890610944.000
885501816497811840.000
706068377955068928.000
1560984063727304192.000
1437450138404681984.000
1560062419660067584.000
1240944770314184704.000
2582593065708866048.000
1525267178115014912.000
2109197417919278336.000
2928138763535099392.000
2307824011720924160.000
1335110082781590016.000
786100253729306496.000
1151731010114990208.000
1701830238752818944.000
1673696152261467648.000
2338459406062736384.000
1258840740799818240.000
656043840104878592.000
403332883147536896.000
202977320008587040.000
544445568948660352.000
670068504704284160.000
1378456801839523584.000
1268863024151483648.000
1315392795889513984.000
774627431833219584.000
641510868142391424.000
780409262071810944.000
899555955839308928.000
805633248771275904.000
417335731848056256.000
486527045946366336.000
693647698547019904.000
895062498481268736.000
860612741208453376.000
447557077117803840.000
495451917730091712.000
769782453909117312.000
426204814973300352.000
228866413606555456.000
298334688151449728.000
354731667289366656.000
810140561159659648.000
914493118551635968.000
669041107106344320.000
763651094942342912.000
389946708956755392.000
845812068115165824.000
1363356209733467136.000
798288396396918272.000
664567837082954112.000
967636859086845824.000
919267686110766720.000
542709832343831808.000
870397003808845312.000
1327322989990686464.000
1500379224660722688.000
1243764530292039936.000
1735336017256352512.000
958159209482114304.000
508177114120014720.000
301519609581854656.000
249476618809408352.000
217024470844776512.000
290302433795261696.000
278177107455717600.000
298526115669314880.000
226919844219447264.000
497891499110734080.000
301410602903277056.000
465071884604425664.000
508926066456111040.000
393792336935125632.000
971686413066100352.000
687588798079485824.000
828870920551398144.000
818619362974408576.000
442097170117997952.000
701199102170375424.000
718854644261387392.000
836501569417734272.000
424745830835754816.000
647480480856927872.000
359289018328355392.000
736796951074455424.000
961283571685640960.000
778784455961562368.000
1666443578500702208.000
1594214066880248320.000
1219719857093412864.000
1569583821258727424.000
1338470085366633728.000
1599956075836920832.000
1345046906322938624.000
1695449490629167872.000
1477752558308853248.000
807073470560259200.000
457109724676680192.000
529279497997623360.000
273048203421016832.000
195793696614792608.000
292981993525445440.000
414673749477083904.000
372617387347301248.000
201788825742343424.000
124557979895236112.000
136991977424283856.000
152966105269583808.000
131150546853767568.000
75878297699344656.000
69926778624690912.000
146445089728786752.000
119074779416667344.000
157019667880132672.000
159168374038526464.000
120637773575477120.000
256209850694249760.000
233515263233518272.000
545330308858050944.000
859506454297769344.000
682970695779593216.000
379751206501964544.000
443480427033267840.000
466353839540516928.000
702458745258843520.000
753517322446135808.000
397558128895066688.000
488949099291017920.000
279921729750229728.000
227803117149668640.000
484637750044234816.000
271457089981024160.000
148539846538543904.000
86135023317126896.000
82259769003817856.000
77588818692591760.000
44296233470620544.000
23778275699359556.000
26044346293154528.000
26315474114655416.000
21928117933280428.000
12332608729250736.000
7428576554048323.000
6586940317127948.000
3394901317808428.000
4405995962406070.500
4461056504346146.500
3610295114791341.500
1851089397377411.250
2021912733339575.000
2444763370582011.500
1465251939396661.500
2144352676926722.500
4847045983094971.000
3596784638236833.500
1803588918500367.000
2175912018040724.250
2607677877751264.000
2045384632148813.500
2172080215822326.000
2169410489934999.750
2264965155243753.000
1861095147225907.750
2576352974271320.000
2220885774929250.000
3202020260095740.000
7894558867441878.000
6574563447785052.000
7624215168983946.000
7216797688810028.000
8397370475821809.000
7651452303627828.000
6051173931850764.000
8828280576924414.000
7311342290241986.000
4068898854912751.500
3889496314447703.500
7962096247945155.000
4640317423304275.000
4358968335481746.000
2205832835113179.250
2120661535245452.500
2558548944798714.000
2624349189303093.000
2373437652333977.000
2012829034380673.500
1073719407196811.750
1310525568122334.500
1840720185664599.000
1108709020535050.375
1342007206335111.750
698216415134946.375
847588680233425.250
640307839549759.750
359789483718609.062
195789245328097.906
462151656042968.875
423257482969444.188
358122378636379.125
379361112092516.812
324241116355466.938
456797486313939.000
246176452722451.438
370937504925631.375
778242415357507.875
713980078358407.500
668944750959429.375
784103811698358.375
573248837769591.750
588057404570732.500
1342322439233781.250
684195321146857.750
780563794139057.875
458401676219956.938
471366564441657.000
424426623448867.750
239724672005732.281
231876370970605.312
186656660493136.344
256445859662426.250
224861886358791.594
330297592179274.500
201297868156396.281
205294890377046.531
119185617571546.906
179446212862832.219
363370566165658.812
447859894649780.688
688250992567609.000
790403601058611.375
430726396759245.375
430611859999912.938
417801266351163.875
588757165832943.750
1309525962635581.250
2732960333965743.000
3604399237988152.000
3605317989561329.500
8472789292668487.000
12342540383492582.000
15742304188182802.000
23241067471762152.000
51431302397965232.000
40490818041900648.000
38605924433302264.000
20976737302921452.000
22744390894506900.000
26410246225224744.000
26057609642623064.000
26792791128321928.000
20106762616248884.000
44846404178143760.000
26925017304711104.000
15037395092223564.000
13212278330175318.000
12738515375718652.000
6319533593772407.000
3790235981613092.000
4546750526930730.000
5833926367399052.000
15611916294250356.000
25153861784408584.000
21772973812061156.000
25452472713790584.000
14406816574541704.000
12458846399898292.000
14016712768091948.000
7370809859575214.000
3750578144021357.500
7826570449730807.000
6772577746272593.000
7021448703583616.000
3778509820200173.000
4729799153123546.000
3307660561825840.000
8209175191003872.000
8898714747767653.000
7167500362356461.000
7046538587335892.000
10692446380142894.000
24623346031395268.000
24566198525579248.000
19801927832311956.000
18853224150906104.000
11327991347339144.000
13261594459913036.000
12202992477517568.000
6313599944698785.000
3621572415158083.000
8458338688957737.000
4709801242993095.000
4832508445611000.000
3330013914668089.000
3765123461710960.500
4151984655438701.000
8780835254752264.000
5787443211295830.000
15409415777553928.000
8379648202320578.000
7989938844134847.000
4511843279901128.000
3608613014754810.000
8082429273474294.000
5901713144308313.000
3621011690707573.000
8410045301455207.000
11369922274076894.000
6062212120467484.000
3420389935305612.000
3287785249362457.000
4388726740365423.000
4154010667833672.000
4699695712318416.000
4870782543640751.000
4623351660462165.000
3999156895203622.500
3674105659656371.000
3348123260827273.500
4045802844950792.000
2190001483660481.250
1241582784401564.250
1025915480848628.625
2518538414027371.500
2526291862161893.500
3594912545190271.500
1997683340794549.250
2587396857306592.000
2092284402282224.500
2704457522127454.000
1805507432463729.500
4774157998997722.000
5857570675468066.000
14675133273206902.000
12590004996239512.000
16042976158513044.000
14536557601251096.000
11426942526617354.000
11883906590913472.000
7146683926165662.000
8559685356983698.000
4442394072559696.500
2658753923692902.500
1467053593931563.000
1042471065182257.625
2467664806485673.500
3692124251674647.500
3398726781142140.000
4918720976232118.000
7129491038634732.000
6442690904820551.000
3331137326502334.500
4599308335632370.000
4349511678771209.000
4072763321251756.500
2264960023743245.500
4887091190029782.000
7995306073170169.000
12635574686078614.000
7163142048216651.000
8313857578419390.000
4439091607091319.500
2684469940450893.500
1971766161433128.750
2226912311267364.250
4464473649477658.500
3643010393056993.000
1986425431185286.750
1969499282595533.500
4230347947480766.000
2415282530683425.500
2020962263691149.250
2106142725495089.750
1918687106279019.750
1058676745479445.875
1300058514768090.750
1112363810823226.125
1108452361666984.500
560693666770138.500
582090653570022.000
690951353151015.750
778654536003694.375
1235312560903440.750
1447363614587204.750
2076012238518829.000
1849350677609145.000
1148429639514158.750
2422907355255487.500
3414936913260817.000
8755582210655454.000
6084672784390831.000
6665404135732262.000
6846406776331268.000
5923187882951719.000
8090064992632591.000
12281187625749986.000
14933081633138964.000
8311867464076836.000
4913805194655903.000
6160648609186631.000
6403173305041157.000
14188200876789132.000
8217460979973731.000
4547536101543410.000
3916697787731101.500
3795380006644671.500
4576611996697884.000
2482061131348303.000
2268403799641307.500
4752344770352149.000
6210655858570071.000
3300826111603735.500
8493595556190252.000
6128582092601981.000
13074868813785356.000
12593118578716790.000
7357508703817593.000
7560347259211387.000
11835538234719330.000
13743616977686238.000
12977739086748090.000
28233750363832756.000
21659279788757616.000
12231384257880144.000
25523251423758508.000
21277538436249508.000
47752237121938416.000
41013711691470208.000
22108073377957516.000
11947817352400354.000
6448653304107838.000
3514548704417167.500
2154329707976091.500
1824205103633355.000
1141923484827766.500
565065481540425.125
317681566040089.062
426697436804322.250
601942621743358.875
1320395991686229.250
715341193431464.250
1504740978737781.250
1390886459775653.500
1935387903238441.000
2256217826917263.000
1337808083226153.000
1121860727182756.125
1146126186991485.750
1444198724134682.750
811554071389031.125
770210945469092.875
1017392497253678.750
1273058313848034.500
1367082529468738.500
2019841151743002.250
2076034191790555.000
1048373586283876.250
1361912800450475.750
731296399122984.250
1086348717581752.625
1472299219610486.000
1831227723771994.000
1996775693541459.750
1211954261656711.500
682914875758042.500
786743800031853.000
446010264271236.188
559415093796128.688
1380821605123186.500
696509798730199.000
676754286834332.000
828732044705347.375
830732352795157.500
1020209560542604.125
2634157300307852.000
1348034615482209.500
744026911033230.500
1084485862409443.500
2203287772772641.000
2121116486029918.250
1177014114588430.500
652200072998492.250
353236636387778.938
453377826355951.938
399070944237601.688
548252915054281.188
1501830069343493.500
1184961209068693.750
719644429307821.875
633126593263697.250
754044915143160.750
780499881121915.875
1046672106342362.375
1302012193062930.000
692673484324233.875
819945908130386.875
634162903046479.375
669809406693383.625
663974745012086.125
345136966857562.312
782808999744337.500
613041954521668.500
1402627118719275.000
1336668995695935.750
698060437134685.625
1005111705673764.250
1481019953943166.250
1497703273261170.250
1804362371179857.750
2068962868988736.000
1223683727079944.500
1196143185549855.750
1495819359989206.750
759492291632621.875
442146653892540.875
569310970021563.625
1202977817300962.000
1292842786747366.500
1006281155228021.625
601507247940161.250
602871715777412.750
365512619279773.125
224514994992795.969
210840682189483.094
173203649151469.000
106392169720706.016
60111761273555.547
69601929741863.977
98007204526771.516
247316952736084.938
363979772447876.125
333926121263942.438
806364208538980.375
732901571092594.000
1027637969040115.000
2478671237064939.000
2668119060925009.500
2320198478941248.000
2586224466997662.500
1507208982178988.000
2363852111800821.500
1937164901263664.000
4514340814120136.000
2321932034343401.500
1225123907564304.000
2743945568867409.500
2475352970658104.500
3936278664700217.500
4549940159788751.000
4696276165541721.000
5935720709853805.000
8535125212160260.000
6399759666897188.000
6116182539741917.000
7852505005625812.000
12276973636437204.000
26726743855976368.000
15459506314034664.000
20509111069235948.000
11641242374867734.000
5798816789570837.000
7149560159899547.000
7897605066149012.000
10965630054529070.000
24883940235630896.000
19391907109078312.000
43714759272612400.000
48486349914848520.000
38883178041703656.000
39349496656138848.000
84843266750563840.000
60998748199141488.000
136971135827056752.000
155482931192070080.000
80837400108037104.000
128089312130688816.000
126418326782780784.000
146555306879630496.000
87186567868736032.000
110055252684576032.000
121049583525948144.000
278611800760404768.000
289568753010352640.000
211296229841901568.000
302722333764933696.000
250618230097991168.000
288380767429176000.000
217414925274278848.000
199021872438344640.000
270368351305140512.000
157629980387022688.000
163861924721649088.000
87525548892946944.000
72243366422923248.000
77202910699093776.000
60597868508672064.000
37220955931449448.000
79869692872730688.000
128982970849099056.000
119934548510937296.000
160751287845084864.000
92879805881590480.000
81339468922329312.000
78590873988294864.000
83058154111329200.000
50167568035958640.000
36193523117366232.000
88867387060669376.000
62432381897843448.000
34075795301697572.000
88088342335476528.000
84614697594387152.000
46896173525667096.000
49839761679486736.000
66534515082296312.000
78927088221404128.000
68405877413655744.000
71810135428767352.000
83480619807271968.000
120731280521020448.000
248181327395655072.000
245022777668162208.000
367154811087885056.000
403410341012950400.000
499501358979298944.000
472051656720795584.000
981870106604724480.000
717201861717660928.000
886024579829868416.000
711587651892881664.000
386002800414826816.000
394716007805510144.000
220802798853947264.000
131190613209750736.000
77191333713060784.000
39890606445419280.000
84475063369754800.000
43031638405565624.000
51645238532218464.000
67308899943571200.000
79632651713711376.000
87887070291482000.000
51668914928002320.000
81063530704457952.000
80322273288150800.000
69202092955881000.000
35431015267257256.000
47899785997796752.000
37507143660849088.000
37497356841108792.000
48883717564575640.000
34471669042256688.000
45697763066979184.000
45372348333229512.000
24161977943467364.000
14524564489449046.000
11337214307763412.000
24757406522768420.000
20328019213213904.000
41460444835817272.000
84973763445751984.000
50562433739379584.000
49636702929633744.000
26215381124690476.000
14265256139216206.000
15729910014683802.000
12219171737117812.000
6368994895882420.000
3330893559097964.500
8178261188828312.000
4386877262900969.500
2505262813471866.500
1398406639074511.500
1039218114592294.250
2465067930111344.500
1394827719929829.500
1961300718644658.250
1202850252585553.000
1826816612151517.000
2565313895320344.500
2636685774230923.000
1788479205406729.000
3932610747841756.000
4459314932603998.500
3905527856451321.000
1945472841245142.000
2520276382056250.500
1795279567755988.500
4665132205360976.000
4162137805202224.500
8896598670203381.000
13117269199785578.000
19819739160162276.000
28581340659430492.000
44597772659308728.000
36462724577106008.000
81548348326213936.000
93201005138525712.000
48910737391880432.000
46398503177656256.000
26100499500395332.000
25403507732644184.000
13164502404339916.000
13628114090095556.000
14556757121943540.000
14449320551038488.000
12308150920934454.000
15255261637504320.000
8496263108841482.000
10809809086307898.000
15976197906515850.000
20836049136014216.000
22464830238362240.000
45719435129446968.000
34108788589844956.000
46924950794526864.000
41312859780790656.000
42224277545408480.000
49102766950001120.000
42351385658150640.000
51961968490953568.000
74874433503745488.000
91579887651644400.000
121815460256014128.000
68320797600582232.000
75919108915336272.000
87026345305279200.000
62831033945805008.000
88245286125455488.000
67349903275280480.000
66345299938536264.000
69316809266077464.000
165156309254659200.000
198752031141290432.000
209150629567200896.000
224776145621840448.000
117141494694117056.000
260069497441048992.000
228526848653678048.000
122860476951821808.000
140814557901569920.000
85591229844799232.000
81032802086838432.000
92206395520330944.000
114880726799334352.000
145782881487424736.000
204955861549643008.000
292180758553105152.000
263424005928190784.000
264421044535934016.000
146992135278390496.000
80625974799107312.000
89733644551189296.000
130893194543561888.000
133794847763775456.000
125999811954545712.000
74550102386529856.000
63570663558332072.000
37647659096860528.000
46853219398689744.000
27953564852968524.000
41391506290758080.000
62647813747264376.000
149474356651854880.000
135651503438298064.000
78831463290130160.000
45960272114866752.000
50086108668336384.000
47968994587090088.000
38921200201709544.000
38423760126402392.000
78695821121686736.000
162497303680964096.000
109656888857726000.000
68204423684427840.000
62051107622784384.000
33622271160129352.000
37797747368402656.000
43520758598560592.000
26625881772954492.000
41356646839734456.000
51008231325025224.000
43462876578368168.000
38129090784022200.000
49118647624009656.000
44819376526871664.000
27234920390661892.000
