43.417
57.788
57.540
152.066
141.330
131.937
139.719
140.912
131.011
181.750
476.825
707.998
1421.514
2211.241
2180.674
2126.209
1973.127
4835.711
6549.170
6673.419
13470.079
13176.314
28119.533
41137.956
45289.855
66645.176
135868.235
272120.810
287320.379
273261.647
434161.127
947754.182
1272383.626
3126055.671
4780496.072
4400631.741
10007099.634
10611625.626
16072257.550
25209279.363
23839892.095
24236162.179
25251983.702
27074609.949
27720679.764
27651544.263
27125702.676
28075770.260
43390775.848
48385586.070
105775656.450
172213067.481
161066963.456
153476896.106
167025875.202
169345293.518
258850144.928
283265096.171
615665743.819
862572993.816
1829029887.459
1714107860.172
1616968809.621
1496378918.349
3076799962.995
6562051618.891
8915348323.496
9695325499.977
21496276806.709
31480631352.073
30757155019.588
62274977146.559
67161873462.432
63640356595.624
63005823416.884
95953257939.763
209388487355.791
299819048941.668
331769904951.672
663737679451.462
678566324316.572
628247230081.952
1323270088977.166
1285513020358.769
1184444026287.026
2357531863868.965
2268158390698.593
3546037133786.273
7762564963810.485
7424940592934.865
11616803662487.645
11171581001280.641
24162982929600.637
24885972951520.973
30772539657361.578
68188898342687.398
65960389696517.891
141343363052640.250
139268972570721.156
143081799831228.312
188166433479203.812
104885095109721.500
111805249469411.766
131093702931405.125
259288142507728.094
384694302302742.750
377982266021457.438
767091569929327.250
1098102429534431.750
611427934376526.125
850387764750703.250
597831400433133.375
707647046191278.375
398499915972287.688
409116700182321.875
435116845626625.438
402035633994284.688
322232044415191.188
471986764609423.000
609074271254567.500
805887225725212.875
1071659266136008.625
1288181969820186.000
1086345411423154.500
1093228678641532.500
1495483044920552.000
1165297632713480.500
1434418019595098.250
1321688752881695.250
2126557753972937.250
2379913366099722.500
1964210148911713.000
2302963468394050.500
1184768987206977.000
720334162525554.500
1523824988678365.750
1283751234556780.750
1349435615872506.000
724342479410865.000
436839108278700.500
401947204201437.062
421661009608641.875
449063551883992.312
680476834515329.125
1434910972093387.250
1357412928443012.500
2116668841466470.250
2260565738377784.500
1828644019208679.750
1855444705216235.000
1145900812787035.750
1518443908678985.750
2260913616413236.500
2316598307451949.500
2206692959344700.500
4682102248819398.000
2718664724397891.000
4143240092441314.000
3460930530628031.000
4065111155347397.000
4826665104597941.000
4879579291943217.000
7136618320083581.000
15587452911696692.000
11629691442487450.000
15654781593480824.000
11520526045278446.000
26016310228200232.000
20754482365641252.000
11082407449450858.000
26763531592641664.000
22688835007956100.000
47180836699918192.000
76642941069735552.000
72872568993250000.000
83998835321545872.000
62813644974417552.000
36835264004410456.000
80696872314995584.000
64593017709222064.000
140685544128024432.000
291789055063225856.000
245644020985121824.000
540914215835414144.000
823367066458835072.000
478296318453495808.000
970034326057773952.000
772946383212474752.000
449402605213029440.000
929557291557550336.000
753670598167438208.000
1608287367452148480.000
1341600726117611520.000
3008540378563293696.000
2572725067717777408.000
2896540988863418368.000
2992623373275421696.000
1581966697790897664.000
1433872049347360512.000
1561204046458490112.000
1198134316058452992.000
1179031008034802688.000
2852201810615076864.000
1514132618114736128.000
1317078608431231488.000
670885775482552320.000
647012559566977536.000
394445621606213824.000
533631051362155392.000
645878575764512384.000
802276314956662016.000
404313839219084224.000
221968526374221696.000
533810222299321344.000
534643466458997632.000
865458899659902080.000
1180243129594274560.000
697557710145716992.000
896817362843607552.000
475232669463179392.000
413615903782141952.000
236889512583728480.000
301564409815236032.000
155292749250244608.000
247127724761432448.000
130651332024404224.000
77884544007273376.000
41822822886088968.000
42321797296287728.000
49436553855569304.000
25004354238247452.000
14129846191983274.000
12553892329621012.000
11746601883443166.000
23989002521270328.000
28819901514464056.000
15978485415701972.000
23645014041032220.000
37758220776346728.000
87634107954496096.000
82146209873036192.000
126429871072959616.000
272857774464476064.000
199492315198167936.000
273454299138578048.000
442932984093318720.000
515407392653914176.000
698695486427866368.000
381366843210277184.000
373714671457070272.000
971075424578480384.000
520590867692621568.000
273448224427988224.000
281517794690837536.000
358388188248523328.000
198516153121171232.000
469227211497791744.000
241990773098254272.000
122022769880889040.000
62595252716149288.000
71671179207998360.000
167682235598619136.000
140491711336426272.000
78469036656929344.000
42710361871089128.000
22894886800156224.000
12666823410516978.000
15356962820170386.000
10381699148449026.000
21993382160993136.000
19337882568731412.000
11227524747781242.000
6219323433249271.000
3368565703602305.000
7769231147347496.000
4710936662509192.000
2645948942886407.000
3198259979201109.000
4027667082882197.000
4481177212419534.000
3640239025387020.000
4520553584024286.000
3993159929681803.500
3541839061584489.000
1994613744905232.250
2032657248860967.250
1067010278888476.875
628935297467575.000
1491023972518128.500
1344717769779814.000
1015793742151186.875
1323591299314494.500
784511777302047.625
607673686172746.250
821266179668505.500
455726655206585.688
698038942820144.500
738204418698669.750
741394364251116.500
1118973050474235.375
643141069038133.125
711490700271925.625
361151776515185.312
778440610312826.375
448699557951506.750
733565343420579.375
764584699865088.375
1170739563551974.750
638864951330849.000
386930469224484.125
205754218881272.562
206384739344316.562
437558445876988.000
230376459377765.656
245457553150321.344
138070968372565.453
116452586292635.172
259052203441239.375
135853489941817.141
194696020544460.562
261497870199880.219
371132088167550.938
464717817428898.562
557120102695116.562
346990872662508.125
353091950515073.500
716772705198453.375
1504068967150971.500
2063104626366364.000
1057111777491453.000
1033466896972824.750
1140150034607632.000
622400834652897.125
642104447752048.500
782883798394900.375
613915727356162.250
1495311705954650.000
795925937202090.875
689289249563775.625
378711125690189.250
803315729597432.125
577971357468732.125
316878809618648.375
405245193345684.000
322861612395979.688
171766468422122.562
103023198419689.031
136636846697032.797
219147940128518.625
446819820859676.062
319013030431971.438
321171460750162.875
716748816601161.000
727097861461737.000
576116135977812.000
1257646523755691.500
757611361866910.000
1164357478812554.000
1244862706911398.000
2587328945897646.000
1884706706669018.250
1094155247588304.125
1406205129069595.500
2127664085703392.750
4342216571056210.500
6258051054755974.000
6018727773918935.000
7377690408263389.000
3717547615714303.000
4601861948439078.000
3682392593623567.000
3952256202502055.500
6135527712519410.000
15884629745870462.000
8408949836068696.000
13665964006595734.000
14257728949426402.000
11356929152041354.000
13695796363305128.000
7509560642261948.000
4205125177879270.500
2496016701242650.000
1908092171575765.500
2467821479831305.000
4899276511683259.000
6176796852157292.000
12579108333350796.000
11844197310693138.000
14829918384751514.000
11519080569644574.000
6611891891199590.000
3358247097179144.000
8712770661351961.000
7354805561840336.000
4263821353379368.000
6448570387567188.000
3544478806473437.500
7875861191298015.000
12078717418312940.000
6744845656362438.000
14215957454395536.000
14133428326606740.000
13977860864590158.000
10456536104420020.000
11475617050022558.000
13238019102523484.000
27980964219756004.000
15720255290033008.000
14645657789713144.000
13893512402549162.000
12665777235007914.000
11708994022764330.000
14620908690923504.000
19462769304359232.000
21112686337978296.000
20080470952772040.000
23389014415970472.000
13661782550563570.000
28091514535466352.000
21330759909193592.000
13033501592894362.000
10855882694845488.000
15915494135974572.000
12895083285263828.000
12861020888460108.000
28688923123198060.000
22857411027292068.000
26623045031988132.000
14897916211358192.000
20627547037869964.000
42297369154330256.000
41195889140668808.000
93217013149646144.000
132055183939455424.000
73266935732163968.000
41996911677794952.000
25003123253248924.000
37621611268183416.000
48501187467521368.000
60648892489284592.000
84435666462580720.000
45274336935090728.000
46723239424390672.000
24544020488534020.000
20161955306748092.000
43300911497386640.000
67128170627682560.000
80836874018933856.000
92750232709123024.000
73557075215913440.000
60812799650359680.000
125710000527689632.000
163603564614316832.000
263029255013472544.000
150671334084386464.000
109439712623887072.000
118889442815343632.000
70940905244394944.000
142729459787221552.000
74565033538045776.000
43671421387533672.000
66899334970811912.000
91718972622141408.000
66383919116214536.000
81479683392311792.000
90586794243836960.000
88307755113355696.000
69612866098359464.000
165795759662621152.000
90973961021298256.000
63762791864145056.000
63711928240639072.000
36526845872101080.000
21782741232069576.000
24223050918411412.000
19477243834902156.000
42266256535006408.000
25569648035724596.000
21713933756047168.000
47940668780084040.000
51105302386765784.000
47411378555149488.000
28541381109065492.000
21376561888532024.000
25465028019586088.000
28095702548038372.000
23793426551797236.000
25934217829555340.000
15039937624126766.000
8827641969063669.000
13590290321816258.000
28172811897312660.000
24680884743191236.000
21459863266472864.000
44813438080461200.000
37117052944183528.000
90484759536336016.000
63441333460302816.000
36563872581390288.000
93416055557200192.000
69774129498427216.000
167093998129759008.000
267106085235537472.000
207889944278663968.000
545582573838955264.000
284156043162610944.000
152510740434988096.000
159515166009037184.000
206712448349529280.000
465986942121558464.000
742109282728801536.000
1695930904591278848.000
1350922383837725440.000
688132677688160768.000
1549723028559604992.000
2449640718960798720.000
1353686995472581120.000
2814867743189857280.000
1526224843159399424.000
1710988056351513856.000
2797623081105459712.000
3147253348707671552.000
2761234042168647680.000
2166020453638809856.000
2112542372797857280.000
2567279890084518400.000
1455734021349336576.000
868485777095283840.000
893299727257572608.000
457199407863434816.000
521491507622668032.000
534889104319957056.000
296947748448747520.000
209442194938602528.000
218399308204724576.000
203886190834797280.000
469011504657050304.000
419048863130063232.000
227863254873143488.000
266203323655886880.000
224001670007397472.000
244708502595543936.000
529097244912614144.000
836200979793182976.000
418117707861627264.000
355616236299390272.000
543219131812659712.000
420059673992553216.000
248990014654474176.000
128179891286802144.000
110394725329259520.000
137774995532765168.000
165694177576164704.000
146939621389475008.000
207494493744729824.000
295147464277545280.000
290118735763783488.000
360425219782877376.000
455816976033358336.000
495100186606925312.000
758693981989390080.000
464549264829114240.000
237162167456930560.000
205498615880119712.000
110791764141555312.000
125881865436306144.000
269793728841922624.000
219446431674858304.000
132925825988903984.000
122710625099874064.000
153905291703627392.000
244932905864303552.000
508185705298946816.000
683479520058498432.000
764785694981695104.000
898578689215069952.000
791824380731896448.000
865897232358026112.000
971729192002055296.000
660896985086017920.000
1620697637879387136.000
2388861671055026176.000
2426023830209573376.000
1302807678075158784.000
1454058536005979136.000
1219891606161157120.000
694815629005041024.000
650109531519430784.000
645602244846100736.000
721389537846092288.000
398027885317931008.000
233472276512164736.000
262830084569611712.000
156813828076182112.000
120567666900569328.000
137722400570723392.000
80863083751032144.000
67601999290372320.000
70629498820281000.000
40312473753348624.000
22374212845502348.000
12442131600228314.000
7104935576338231.000
6287889943908479.000
8749166051920880.000
11084518211294416.000
27047036710394572.000
28310235997989088.000
19175622524881600.000
28875183647477376.000
25966904195135500.000
15066162166979102.000
12205918130184298.000
10946153102512726.000
15092173490856388.000
12873186001023334.000
26603840024690244.000
20302981287548916.000
41214538509643696.000
20841209036592204.000
27786799962348800.000
14849271334693666.000
8211415741015911.000
5803039539514239.000
13185181816760826.000
11726954231293740.000
27605265952132400.000
26965729877018900.000
42542600894628496.000
62791589729191840.000
72762394404533088.000
152871887485892480.000
139173934279988768.000
80149651623784720.000
162076216300428672.000
255673566210443104.000
202733903467797216.000
117902555175090816.000
278086319188215488.000
204671841411702016.000
302337484506733376.000
411055888897140224.000
211519067498972992.000
275838447242673152.000
413905537198416896.000
229642457414264352.000
257629845365750784.000
230041520899931200.000
232474685545376288.000
234829899163975520.000
135100634537895296.000
151873919189072416.000
120684177104537984.000
70137124201454504.000
41181432003804720.000
23152373861622368.000
35831189886954496.000
51019038606414360.000
28694040274408596.000
42446199224913312.000
23567731740755020.000
24426484137509680.000
37583239713445696.000
22964246851605264.000
22833872769709448.000
28666999721021124.000
21383756247788644.000
12797801111252908.000
12799251466643340.000
26589921994206132.000
19335871844480392.000
26981558558294136.000
14627503053756188.000
10606741834315966.000
10946296950934754.000
15533422436081912.000
8199770303261614.000
8305251165765346.000
5968784886933252.000
6813800718279186.000
4173715594685938.500
3563069743794430.000
3665154925797881.500
3836488695371340.500
3282981423306401.000
4088529235775430.000
5983754683237235.000
6372344674486554.000
14929532156187952.000
15845536546341244.000
14603525983993842.000
20390845295436844.000
12230733553566512.000
12012259357294644.000
14210204319326876.000
12123934196055464.000
25722663277345068.000
19792343250646980.000
41278309275304808.000
91904390671938592.000
127194857638047456.000
134427748705809328.000
143899083735780416.000
117681225201874320.000
62652615503360816.000
77869761864697136.000
88042835364368560.000
91116528389608128.000
48737389927756496.000
25768844529570312.000
14557845927553646.000
14903442284359440.000
12946199681486902.000
12733087444803438.000
14866250069624258.000
10838820324609466.000
13113617327972060.000
7164691764783054.000
6225177932003044.000
15771506207698066.000
13527569021899458.000
13886582483694630.000
13969306083469436.000
7060160629328803.000
3763113292143979.500
4803010185474711.000
3732805059802895.500
3842810069019187.500
2059886892254599.500
2527670193646888.500
1274351799011325.000
642729456008735.125
584588211812928.625
1442109382380916.750
1177356469225509.000
1039851560574041.250
1298949743678163.500
1840467479216648.750
1034939953237507.250
641252511403236.750
385887651858073.125
212549036857711.094
222266873772332.438
120991333987881.938
70071700833224.914
73445310841872.797
40089630553422.469
22220616604561.582
34052864420550.250
33187372722379.949
32725771854516.273
44329847825152.898
39436935229532.109
58230655967435.062
121431692860512.438
192897394035999.219
102430281658983.969
129564248130456.297
196755776578128.188
226696783937817.062
242073062891691.500
307685830062016.625
419428818378143.062
649128479169412.375
1001529204288448.000
1509326694448500.250
1331653494042386.500
2647954722182785.000
3476272502521575.000
1966296216786708.750
2478929356800678.500
1880974056732953.750
4676300651469298.000
2526037759824345.000
2456777475875565.500
1249491818154118.250
2490508332900658.500
3447388816700427.000
4742200923567319.000
3333863670901353.500
3372085971703461.000
1992805923767396.250
4508177748052306.000
4628937217016859.000
3738050340571686.500
1869383658375054.250
1042828495586493.375
2195127861525234.000
2745611746191192.000
3671851074062573.500
3363480569832519.000
4049503695745351.000
3701784220589001.000
3318883126248369.000
1935972889230868.250
997166875160650.375
1230673060918929.500
1493351763425081.000
1197194500148436.250
705072121318646.125
813473359343432.500
1047667290668170.500
2625417732049506.500
1383657062904985.000
1830032414191394.500
1046799830355388.875
1462299935974798.000
1440728045181156.750
2053270537251063.250
1872594355223369.000
4382148167723389.500
6707972575247153.000
3974398168072773.000
4378122796650593.500
3405414163301190.000
1892070388197266.750
2385871336958184.500
2449225965139348.500
1894603695405715.000
2264762628153664.500
1239721251884337.000
2529159097037173.500
3409708633996072.500
7463971604956212.000
10666706586764832.000
6566159903300474.000
8426382232495291.000
11146734892202802.000
26847380219618216.000
20714332886529396.000
22255035369432972.000
48459104372155472.000
51797656266534608.000
40233318355260016.000
47355528334581600.000
27364702732190316.000
15406097833780634.000
8663565630134554.000
7982964579824559.000
8318485986793647.000
8796517074751371.000
13852509735293612.000
21394184039371412.000
19303972550501216.000
19682657416029464.000
48892480726843264.000
68564583982319328.000
66184663332808776.000
87261957449857440.000
123731251805323936.000
274994211517934400.000
244569845634389280.000
125384333401877888.000
146478295137491840.000
121680096388898160.000
64929187057730160.000
157130546268703744.000
86284612691584352.000
77482206368982288.000
67928284044517496.000
72775598455915808.000
62115343092201808.000
35531550450182168.000
44911662348193504.000
51498517155038536.000
45769365597026096.000
33835822548571916.000
48070269070949584.000
41571694767283536.000
39882775448451488.000
45193122485354800.000
35287487121694740.000
49732960980981152.000
47081821241785584.000
48093698793248424.000
48437774544525024.000
37646951106806376.000
47990504660247864.000
25462411816096868.000
20381705216896476.000
45360743627578160.000
64360130224906328.000
33643501852733772.000
88986790064444368.000
70645189473307856.000
66356985890114528.000
72840155709245424.000
88305401865844240.000
79672680214820576.000
62067941779603192.000
163158388057572672.000
143646681732024208.000
289450440461803200.000
467973401917715072.000
425084570319437504.000
379181591965798656.000
485281794232099072.000
272654410771720448.000
148297859867571456.000
231298480629702656.000
127699849774993424.000
75255136602513392.000
90885546332372240.000
86798429971999152.000
61675669987209480.000
128387090861585936.000
164565125930432160.000
215736024536578112.000
258673283915396800.000
530685326809091328.000
432103509496317696.000
247292036943152736.000
229008143984088896.000
209144901409145632.000
118990586512410304.000
302385097098976448.000
213181350389409088.000
196901311148470848.000
274390380131731392.000
242117033086932192.000
360735999302608512.000
412689115457108288.000
228018954927266976.000
127543329736842048.000
156568096929681952.000
166434976556258720.000
125731270764949328.000
74093570139404256.000
37062460108029504.000
22871756383308672.000
36366514683322624.000
51564936519125480.000
75573606199394752.000
66766065122152904.000
37138747077110720.000
93190310810057792.000
90694057514003184.000
113061179840143824.000
259172261630090208.000
362383385869201536.000
402588138038401856.000
221365070765028448.000
131643790756722864.000
145482318580494336.000
211820009323980832.000
119726552789464880.000
141835079663425616.000
205915070995592928.000
121800551149185680.000
68286052613138992.000
36582674200062720.000
21544749139472844.000
48005580140569728.000
26700471095224460.000
21841469124157296.000
33951041371272852.000
49091917569111416.000
67001320771463464.000
38942560384758256.000
22746556853736864.000
24824124569894388.000
19550292848623584.000
21006211729180788.000
25596816454147904.000
22096419193877740.000
25736154483553696.000
13658051562986098.000
7730186344437723.000
5867088707568556.000
6579703362035686.000
7805049040757260.000
4387626576559822.500
4833146953144056.000
4458538192918224.000
8900071852418716.000
11768734816660376.000
5974191600948312.000
8681435559432465.000
10701874085903452.000
14970883799284334.000
12700603998178680.000
6390452227418288.000
6683588098433664.000
7783193644686519.000
8649219457301631.000
12987763500344186.000
26413595879533004.000
13631931638710064.000
11306580165636656.000
15654361364956980.000
12124655862985094.000
14847939381653294.000
12580244287660938.000
7278313481502123.000
10403898321561944.000
26591446748908772.000
21090195922985364.000
22568614073205064.000
47171462553170616.000
26335139684246124.000
42135822398962768.000
40403184083172456.000
45442774987101840.000
41051766471166248.000
35508583483369864.000
50957268977611304.000
27212381491732204.000
23352302841007820.000
19308146078653692.000
28240311094854348.000
20523005705682628.000
20774430482004704.000
22760690821144224.000
20378443900268572.000
19385225713842828.000
26992995608585512.000
19316568976042560.000
45958621314446016.000
51133303713375440.000
34289694661598172.000
20627681093718856.000
26862276097733508.000
42534931832640384.000
40601575522910176.000
51176371528090352.000
48217177114713280.000
34312273458241168.000
37538175286336400.000
85083308860209664.000
91592112263752544.000
63634296401985264.000
83130712541423248.000
46586358637476040.000
40993332468014216.000
60479269203896112.000
71632505706645776.000
72672926741968848.000
62059273050753024.000
86764631262501680.000
46017839845701752.000
48710620890782328.000
61562869110791568.000
156969646102729824.000
145906454016876128.000
83760395103910176.000
110966389368446400.000
64372828011632696.000
86007958135659024.000
80043966418120160.000
109224148664957568.000
223464610378588672.000
524239415306176704.000
464999853268008704.000
475666976700290624.000
389911271741397504.000
209676026435144704.000
291560463726933376.000
163102155069921728.000
209213827103226368.000
456828085640021568.000
916781391102990336.000
638462325042112128.000
1301730068784451840.000
711640538256051584.000
397072835404848192.000
218419258874637088.000
489792338653027840.000
701368849631072768.000
931137762054921600.000
1153432313592101888.000
690460692558389888.000
1474077633494778624.000
1735602878213321728.000
2551052114715515392.000
3022032386352108544.000
2091365406214465536.000
4885454289180205056.000
5589058155018070016.000
5016830495853724672.000
3719031364042931200.000
5173043193126474752.000
5594430198552547328.000
7331015843743185920.000
8739367325063868416.000
5291514007762400256.000
3165630424521317888.000
1626433060387451136.000
2419789966096450560.000
1431577520951335936.000
1625151366354074112.000
877661659618272000.000
528415746624497792.000
429464988499587136.000
979402660403757440.000
781913764795642624.000
452578987159951232.000
516209137857021120.000
784348243381476480.000
427156532389162112.000
438984932598085632.000
541105194399473344.000
655979839906256000.000
364264296813978624.000
772587016209082240.000
868685216809541760.000
666523359317882624.000
1501778673613500416.000
1257093467262768640.000
1417372036989378304.000
1159223415568704768.000
1337316644930543616.000
2867645477896052736.000
2670594363243137024.000
2809329945891662848.000
3961048050732253696.000
2289680230543987968.000
1275738467481888768.000
1722002753903489280.000
920564801507564928.000
802129811361234688.000
1636874819120620288.000
840518556630334464.000
944745004008460544.000
1189679730042588160.000
1382065788705330688.000
1383482784901270272.000
1160932497977925376.000
2908842005853952000.000
1744067528696356096.000
2346884424971791360.000
2810875549222231552.000
1705680474828941312.000
2485444513189141504.000
1320109580531531008.000
711628703940649216.000
887138478484746624.000
809725183686555392.000
695196540331831680.000
378108480304237056.000
964780075137510784.000
1465742484849861888.000
1312587640266097920.000
1646262178328832000.000
2478701176146733056.000
3724109549439264256.000
4539270282409394688.000
10287850559305023488.000
8250879630924536832.000
8237727144682331136.000
9460756879689127936.000
7343963962343537664.000
10200978402484740096.000
8847687546972546048.000
17689696504386093056.000
9929183398238095360.000
15557892866002814976.000
8731343642162383872.000
17394020723131066368.000
13763734864919193600.000
8310769640105708544.000
5017923039882300416.000
3013836555203572224.000
1539631421023335936.000
2385563015762386944.000
2390084261232678912.000
2386126363073976832.000
1197141125909122560.000
1744425941473166848.000
970709608316168192.000
509703001914404544.000
736830031208416896.000
445200920382929600.000
531557926432483776.000
281357574349580928.000
149690210156491680.000
111999667104265344.000
64377238884126688.000
38020784845068280.000
44945832728504280.000
37287339063778208.000
21705925053540352.000
46222724918579728.000
36222763551392352.000
48982138219344176.000
48605644609059496.000
51931245737155776.000
49730020755880024.000
27844389831365676.000
26602688059927096.000
14463172858946158.000
14164090133560528.000
13805761287358552.000
10741162287193178.000
12587463393710990.000
6235838307669219.000
15673594830294354.000
12552955142643576.000
14034163483262740.000
14712147708439026.000
23781710537450308.000
19129552012254372.000
24076289782023572.000
34747270901097436.000
48327007948931136.000
34351795793364676.000
19737430300088488.000
12172766240265106.000
10725283036336406.000
14399073121060672.000
7591362322291095.000
6579326538732201.000
7716123245926068.000
8361427331593420.000
12344256058221884.000
10818766407319638.000
25659236436118248.000
25716566998457492.000
15595226963894446.000
23229511944777908.000
12281772539685734.000
6174224346673130.000
15370610884410304.000
8474864910900963.000
7108449456833009.000
5709098633725669.000
15010273942285566.000
8776668464364399.000
7508121147664940.000
7667192883490993.000
3853160153671537.500
4458642920403801.500
6480454357287077.000
8500644044920068.000
12396137487192076.000
11331757449414372.000
14892116835754008.000
13828293331425308.000
7703701106486419.000
11306778949676226.000
12811658088431922.000
14279207147473784.000
7834276590636073.000
5834993228799111.000
8770114158758874.000
4478445273134088.000
2340197442016947.000
2631795863830886.000
1903163060257518.500
4410867059349229.000
3919660875003954.000
2049242819209054.750
1188838974371755.250
711878528033255.250
811512451709878.750
1052593499095236.250
1472287282788973.750
1939054345841604.750
1114310340937815.125
1247461854367044.750
1328585545211678.500
1451404653275936.750
1455434331246179.250
2270286828754194.000
2554026699971941.500
3881995601832058.000
3465661398978827.000
3843279523940759.000
4800974140972895.000
4847482085029054.000
7348492221981148.000
3934527732416012.500
3719797628159129.500
2209740846335001.500
4637616799992993.000
6733033929409613.000
7725201564514596.000
7665567542502459.000
15738068362844118.000
13199132013317498.000
7676284409981381.000
7198168140561129.000
4399400606985912.500
2398902245541341.000
1218460667886585.000
2651242466628294.500
3876275205779565.000
6214586899314572.000
6401087868537951.000
13178822300382564.000
13091344412030346.000
13435056581863356.000
12947924983351912.000
14665902320489830.000
12639265807889882.000
11542466125704814.000
14377713687482130.000
7693208024799217.000
8714610573697109.000
12452847568395256.000
10731722532638952.000
13718831261193552.000
11906236035476134.000
14456468601517618.000
11294595565141616.000
6362819201322928.000
14717220821442314.000
22448392954677212.000
26163639705125556.000
15127367397868078.000
22428810732578776.000
25678890424291036.000
14351943340356304.000
18846799790120812.000
24979615158946048.000
14507265407622826.000
11584956684831326.000
18242671024966720.000
46517843665521736.000
33016548822973092.000
70095096453153112.000
70415331995355584.000
87405099077331328.000
107426433239670176.000
59310408292065224.000
32397382456810016.000
46829593615557312.000
72410047046352416.000
37504387760670800.000
37781485399773840.000
85421787970512736.000
64552666492434992.000
78502361082712944.000
89195794703367536.000
45594507452818008.000
67965309497817952.000
84182401839669552.000
105623983997308496.000
279634418446495456.000
161955701974151520.000
106183446139030656.000
121226669077562096.000
115929806161811792.000
72150472175402272.000
40753782805268600.000
85488888360211952.000
117286528225208304.000
58871071816613960.000
82645753643119680.000
70124237691820056.000
59337868753221232.000
58591681134461128.000
137926684091982208.000
129211780938964112.000
144016152385658800.000
79915173449592432.000
43266303204347384.000
23438220303754360.000
35352013224320116.000
41547348953966984.000
39339963907604304.000
40820341087990200.000
88780605796083904.000
72017077275155648.000
42807054392057072.000
49353177264924096.000
49518671642157144.000
49694848090493576.000
38084432339775808.000
78069358328732784.000
45222855756282800.000
62898606300590400.000
144154165445159648.000
134974202531899600.000
157516231891964160.000
89428917954068736.000
48032077594080192.000
43595649981176104.000
26582779709257664.000
14587950172881272.000
22337501908103292.000
46428830669100792.000
44641674612324536.000
43605520771119520.000
59903429921273336.000
81639004059093968.000
61640322110075272.000
36906370064827176.000
35043382540344580.000
17600552968399118.000
40441304844647960.000
56956282676173232.000
64351683621448456.000
84207716722789792.000
59663665362076912.000
140242821194751936.000
159911336356177664.000
187606237556362784.000
110255102772116288.000
131422000621033648.000
68033706787880328.000
82483541840120400.000
65593912128233504.000
75319053142927952.000
62069074379204912.000
146824681241965536.000
75050453908907840.000
84927431402725344.000
74943073213369008.000
161789603146984128.000
129452474047924624.000
78099904670196560.000
110162629305350608.000
149042016588542336.000
83118735305958016.000
120214538061520000.000
154382503034607712.000
114978545976694960.000
140415980037544400.000
109803827931136192.000
131255824530709120.000
141589446690921120.000
114064887956242688.000
133678552407775600.000
146035248405124000.000
144595775690334848.000
77886410999836384.000
47105620054718232.000
48340428387117144.000
74988652646723904.000
88067605789388528.000
78588897594494976.000
39955078377622568.000
50488792027080632.000
60326223027396048.000
89939894104435584.000
76884732267457152.000
85142656522032416.000
71785947044816976.000
108582915365169360.000
147714715527074048.000
75908036087425104.000
109871917052879120.000
234725940994766624.000
259221720227728800.000
227734384284135296.000
112710398262704112.000
122359264245236496.000
61698082415585216.000
85296426670827024.000
44345732328856016.000
59426966067350768.000
36683982376045552.000
91758473527821776.000
47765297751378008.000
64598623941978592.000
140457799537278160.000
131143634563810416.000
75167096616260768.000
44749893474805736.000
42526964394465504.000
62306976223958088.000
76367144266189712.000
38535217747837464.000
34969461405702984.000
50861719551931368.000
50422337846779776.000
62626513124213744.000
76127904449139776.000
46579930293401168.000
75640409753155856.000
90784274192726688.000
78987473120678416.000
71955008452391472.000
39231262276389792.000
41842678499438224.000
66064940274580216.000
150608801955195968.000
198103257137888928.000
214388617153919840.000
267787594074815936.000
204197346946454720.000
520835258596311808.000
539717384654485760.000
358924490557333312.000
503339346934801088.000
448671327271877248.000
692068230907987072.000
771288168512190336.000
735807528660347264.000
364525585628565504.000
427036128139070016.000
432424104631564288.000
233767161639015296.000
138476975648819616.000
71555676683160656.000
39643245228048256.000
49377395980711872.000
71250693938887592.000
82509750108453408.000
85326804809478064.000
65477926454510504.000
39396711176407200.000
21978775660607776.000
28905092440487368.000
19554976243972668.000
42732433911895592.000
52151783703871960.000
46594679112990816.000
23619894756521352.000
20696528443040192.000
51448918731431720.000
27581584742784972.000
15232356310020402.000
14405312488884562.000
8424989174100989.000
7495424453027139.000
4349526835828538.000
2492296906352097.000
1482621080827819.250
819961297080019.375
1338384492298107.250
1479809914065233.000
1172592551967294.000
1094670434247127.625
1102469535809895.125
2852326275887343.000
4708707150820573.000
4389499223588713.500
2562234859304483.000
2036218578003651.750
2380803623309356.500
3707069388509736.500
4181476037484844.000
5042450900597499.000
2688930469899866.500
1463866104093767.000
1247837102368518.750
659987664178551.625
347067698569575.000
387421398703770.062
418932272727204.562
493674164140679.875
412727443613338.000
646587519727013.625
392170064017508.188
889446404786132.500
875961480601841.125
1201399857992631.250
1512902934040497.250
1602459350247397.750
1070561002154644.125
2833230030319905.000
2364567860728544.500
2565666433017381.000
2897996985863386.500
2324598826844620.500
5006363751701759.000
7135638353109405.000
16848696652427712.000
22956088782193036.000
11901586277385520.000
15422548294389200.000
14826054202489092.000
20573706708151896.000
29430226258585784.000
46234890921537144.000
39512256872158040.000
54655180582287528.000
83795373588863872.000
43891263349567736.000
50884797827842456.000
28160946600697028.000
26500678227933700.000
27176865582794016.000
28964146461382680.000
15119003863517164.000
11515070023300054.000
7122154178041705.000
16238901060812794.000
9440219789698260.000
4996701932914933.000
2881009442775926.000
2935134219241912.000
1590296899650981.250
885497048299866.250
615104815115609.750
731075127035380.500
1153760152934107.500
2489870366295454.000
3962913975271148.500
5284539801040551.000
7415647642150618.000
7691605598726216.000
8343192837551703.000
11965438844288394.000
25766755233699720.000
15110155787404108.000
9012776589678450.000
4721611502698238.000
5030415786212039.000
4585764084000890.000
4416605966988942.500
4183518100870662.500
4795064932740847.000
2440636984395183.500
2163599901880888.000
2802171116804866.500
1629788508948146.500
1547346961344564.250
802584393788586.375
482249298307444.562
670540131270918.125
1390747465385104.500
1373702572141003.500
1284218622530111.000
691314427002857.500
1555961649883470.750
1436482255474201.000
2932748293448248.500
2745956130995402.500
1571728381015303.250
806157542031622.625
480748989172798.625
668453076024031.625
1493120716763714.000
806232422264052.000
666316230710082.875
1426104919181339.250
2259467664598121.500
2584592806181705.500
1542568689442547.750
885290052435715.750
688574948226140.750
884268397876426.250
1229165761960188.500
1191212041035254.250
724683911173848.750
1499088943350881.500
1525847164839347.250
1298474870775357.750
1422807429871987.500
844263142019749.750
481534408466921.875
361972237143393.625
849914337346104.750
650267322413781.125
1302736457984462.500
789886927733540.875
712884877185904.375
1435298598198210.750
1150720490309588.750
1333855000601841.250
751325279574598.250
1596775501713660.000
1235568785254966.000
615920965707731.250
798879719333037.125
615478943361269.125
373059540323984.625
199939420623282.969
415127841820826.312
348234800501439.188
709359733807401.875
363437861871529.250
412231670552499.438
357867338335225.562
497957752792230.250
376235729141011.000
331887557968315.125
806473119589247.625
461743848846116.938
475357623781286.750
601674686078488.250
600048770270420.750
1551349405057749.750
2341185394074377.000
1984997600304196.500
4270926528714168.000
3808533763234223.500
9172510528388988.000
13668939190253302.000
14315025917839464.000
22120458096501956.000
49020019129965096.000
52385033447726304.000
38719234009633584.000
45610153725017856.000
25001366708840536.000
27804795367299080.000
15925546110461208.000
12222753356138008.000
7543999758810882.000
16099514283204546.000
16041308271248598.000
12512585652108054.000
15086337836677892.000
16130354888145154.000
24500420633317636.000
24396344352072024.000
51762437720059728.000
28271625746427524.000
41246794725270864.000
89935017112592624.000
49548786011435184.000
65607880846236456.000
87111261507392272.000
51557738794295392.000
50499461073638528.000
64975482491018736.000
138345440694830064.000
127212080328256528.000
78576364400912816.000
64951947732683552.000
155282821827985536.000
160667882304777760.000
214741856881457856.000
297325090745373184.000
447859234827826304.000
541635443753992000.000
872253408409260416.000
1796983770827725824.000
2750509843978405888.000
4028607896307870720.000
5326694613778441216.000
4484286819650317824.000
9939212380151132160.000
8935488348464164864.000
7901614495944930304.000
4389498733561052160.000
5751552060264244224.000
7210650905182442496.000
14712413842741776384.000
7373433790219882496.000
3945878465271138304.000
4459077746641324544.000
10130486431748063232.000
12845125634004447232.000
18142219494204930048.000
22637483801158213632.000
30027112650144141312.000
60615300900383670272.000
81914939328916570112.000
175490555511725096960.000
152020627969628962816.000
175529410775435476992.000
100672512551595081728.000
59658720928818651136.000
90601930713162678272.000
48224602196564697088.000
59082084383484977152.000
47935888324018085888.000
27915960185978048512.000
44766661972287209472.000
57433748911942950912.000
41490069804639608832.000
42590729461709889536.000
59662459294109523968.000
30776103658122473472.000
31161047301327360000.000
42081705166135631872.000
54620168481741381632.000
28775079141868732416.000
15639244113695416320.000
24116282475077840896.000
12726731035445321728.000
17857609870314649600.000
9050572198808534016.000
4682610914662597632.000
4180784374848599040.000
2440637346794772480.000
2493511092498738688.000
5637068338512212992.000
2910736855664622080.000
3975917530057692672.000
4593494877605247488.000
2474217925936513024.000
1282780866564629760.000
670748353429935360.000
761647729278777600.000
435240803438577408.000
262760452814929760.000
364848806171338048.000
542932693027933952.000
438258079258124672.000
981905940907390848.000
543803091863362944.000
287830562151454560.000
268169501871735968.000
201966324857649696.000
523854979741378176.000
266351608180816832.000
282902738263042976.000
219597323237413120.000
207794397851567328.000
113681511015904272.000
145631341354132640.000
133044480899797424.000
72494889800403792.000
72699026973302448.000
36169652668421944.000
75668317391321936.000
61057314529322784.000
36373170749863952.000
83155824140005360.000
60684780690677200.000
84220599772832512.000
167749313094087008.000
159920138788439616.000
86309293714331072.000
66473217807655752.000
152294823188818176.000
196263153344632416.000
279033300045005408.000
248226383782174528.000
252177061903302784.000
225409351331432512.000
120689108867070608.000
148927809882693120.000
163571212966225728.000
138861740902481280.000
112751486835661968.000
165978419313757728.000
87819997570324416.000
72392821895007008.000
38740022222139752.000
20130233322029220.000
27395068290140460.000
22706894802244452.000
24057069062311004.000
27686993734814064.000
20921074653798964.000
27413842646690280.000
41675776326680016.000
64248512815847064.000
87436120530034496.000
74727664933604352.000
91564308251664720.000
47633310668938680.000
36961955184824464.000
51557695960959592.000
46215241243727720.000
23221383346350052.000
13825878640950868.000
12342295382166660.000
15684542190067878.000
24437593836289364.000
35460960492070824.000
45841349968968240.000
46716369972172288.000
24546083122576444.000
14486350790143500.000
15095389811469588.000
8810663592039383.000
7096694258057925.000
5859540401830610.000
15814063394753268.000
14140404809353160.000
12822603553472870.000
25909848797078188.000
19595031343941656.000
11106641434845536.000
23331740996635908.000
21532095999187004.000
12088702465120064.000
13369395873362772.000
7433589021033033.000
15954301008208254.000
23550468391043856.000
14182908649050148.000
15058675873497846.000
22470949085346328.000
25548649662164820.000
50868232890814016.000
37283576062337616.000
20739752789096344.000
19153759440067888.000
51052689063895768.000
79626578072215232.000
39816154901968232.000
35939961553095136.000
33781837928197488.000
38733466580070840.000
21223824299592512.000
11094530270654492.000
12539756251616716.000
11780569723285612.000
28544322710300984.000
37723334244551216.000
44094476852224104.000
36835064194052000.000
35708251924334808.000
84663763445753088.000
47073681161761552.000
43398935795897024.000
89568045304077024.000
66193304621405520.000
68563454269933560.000
164079755505991936.000
235552322784672640.000
249090159651556064.000
215105736687758496.000
250250409144524640.000
525547317795803968.000
295802406095915520.000
243163629170336128.000
141072408451037632.000
162257503641355232.000
203486306077643040.000
462203735371924160.000
512235547290721728.000
371196781668282048.000
222708273135180672.000
129009033626420400.000
112998316594410560.000
254408240565849248.000
143546674887472384.000
140356893284193712.000
81441675506616576.000
90678283511625360.000
61991045388152904.000
75989402911224848.000
38912332457192280.000
60657788527609392.000
37157214478795456.000
82845945428804256.000
126495954373244752.000
146749898113518208.000
116855214941991712.000
119407623808502688.000
138079263159490992.000
82362356328874192.000
49414196251195784.000
43637216291826568.000
50743932303816648.000
36330370973536824.000
19728658528237064.000
25934184523969432.000
37532442599326264.000
45542514184339880.000
23436725496445696.000
27273328052370524.000
40158293304358288.000
63347269528769552.000
34244978992397468.000
41610649996085816.000
46741722461241016.000
40283658515898744.000
24235170464606392.000
23497338321044928.000
22405384016408184.000
51650895335624304.000
51259565414880800.000
80885559814884288.000
46986704564001456.000
37630831841661824.000
48239282850491216.000
25003433325552324.000
27322393766646892.000
22078337691533808.000
26285315319189644.000
39810895404035960.000
22222898787267852.000
23936970946495976.000
51383930575042368.000
81406808621674736.000
77057670317345296.000
40394243476363000.000
21035498210532712.000
22359710736624472.000
50655487310094904.000
44770194859801920.000
37292140441743152.000
20250312512856760.000
12399937256006280.000
13495078401632808.000
13121013509471664.000
15557402854345326.000
8654598662904105.000
11392656249644986.000
28353526363298008.000
41490823306411464.000
47788179547241152.000
51817121584294776.000
65088798596313872.000
84740668773581216.000
87922549691514768.000
48947661587152952.000
26267991723806612.000
20491603998926028.000
11576292457368592.000
23726639835975584.000
14277184037531148.000
14228102997124850.000
28687321652689968.000
14689723630225792.000
13301130649353172.000
12011006889532050.000
6959536686454664.000
4049392537758821.000
4271340985890640.500
