35.365
71.576
111.395
172.049
409.100
424.970
602.134
651.296
1345.233
1370.685
2187.641
4393.729
4396.943
8949.177
8257.448
12938.431
19381.952
19422.980
44075.224
61284.221
144540.966
211706.511
512305.424
503434.585
508767.926
660960.001
699271.133
1776561.767
2380591.451
5751156.726
8731878.430
18366250.022
29318198.905
28599235.926
59901802.413
93941822.048
186788275.310
238218705.720
241388975.841
264318597.117
544311964.238
521126459.169
1065296348.643
1465722676.746
1574175160.560
1563991123.948
1532059456.677
3407676802.036
3583305804.656
5081963125.985
5289526405.840
8481639297.307
18046614964.069
28787740376.752
26007964904.372
60308472707.352
61240192421.933
57634017682.700
57909620646.539
122814466561.697
125103189150.224
206765998852.349
295317863785.092
300155717942.212
637486803642.065
688046944606.084
733248467887.881
1170893453530.348
1087692291927.043
1060825854768.300
2330801494730.264
2868082319794.151
6906406269494.900
6976695412088.220
7167567294667.765
9002898806033.379
24458884647965.164
35386519324405.992
35278282112802.562
74643921982450.094
78167909453614.641
80751372744661.141
120204844097200.266
119622814325860.078
125997698022726.266
260935870456493.062
320160765736437.562
310680018679120.250
669333538290341.750
1064487064060286.125
2717085789948228.500
3514231937013316.000
3228249987363580.500
8004924038911501.000
11479574056668338.000
24558136031953284.000
38824393510178208.000
91604597507708512.000
129964151069222496.000
290237395268319552.000
411276257162053632.000
214073627947430848.000
114530868918464560.000
151970140996683616.000
138324474212911872.000
290859646989014656.000
242529090565165664.000
507061321876887680.000
269585805299368800.000
440041510872177280.000
234160165813804928.000
129296660603463264.000
287964263732001184.000
222996773953358912.000
501645925083979648.000
418598504497294016.000
216136552302904640.000
451914256220513088.000
539576584650279616.000
277858588901073920.000
200291056866677216.000
117608565722951744.000
154685493447296960.000
164880924531766112.000
223541836683035008.000
287258610331788384.000
402350525578852032.000
210451336019887232.000
272131212565587680.000
213112661086490368.000
109015223149448272.000
144650070364890944.000
116043806530726864.000
275784262632602112.000
144727551229542272.000
127011621832893744.000
68565672394475760.000
92334361283888208.000
108803770172717680.000
268732661507032800.000
297547015455100288.000
357687995855299456.000
533057252052426176.000
279526324059396192.000
277488580138941888.000
283013060467972384.000
403919271166446528.000
540826361917060032.000
499262492725095744.000
409947658422204672.000
637873588533102080.000
943135502080263168.000
691711183556063104.000
771612203794549120.000
844684313575977088.000
430157515624652736.000
438515599027373184.000
693681037614700416.000
1453915062545721856.000
1596488272121335808.000
1517098088496374784.000
900077296704512384.000
508807090803879808.000
503738619138225216.000
280451819924250112.000
437548875853477824.000
439135251698083200.000
227952275591221952.000
249441956783581152.000
244852640745834304.000
200407187088348544.000
263978591975327136.000
221732161245952800.000
536160629631403008.000
874661466612558464.000
762814087394316544.000
381278037681223808.000
445326865028392512.000
688851107032318464.000
817983671619990528.000
1699653910597461504.000
1691421713270415104.000
1322920826316953856.000
1254183153725094400.000
3135631605603384320.000
2296624351969609984.000
3024541864160613888.000
4353651871471418880.000
2292791615319087872.000
2912443145524853760.000
1639986162936031232.000
1194978582022408448.000
2813262804444465152.000
1624745703489563136.000
1190008939518221312.000
1478644818333516288.000
1708961802236011776.000
1204441055347314432.000
1543713848496821504.000
1254878352823872000.000
1516938952934305024.000
2211005921499367424.000
2098129329587584512.000
2609518139609596416.000
1369003880295080704.000
831498903379919488.000
436589394831849408.000
221012598545183872.000
488426035868417664.000
386341513899384384.000
798185181247997952.000
1715819979492301312.000
1384731008977177856.000
766232145885940224.000
425500335756956672.000
225655796707641216.000
204535593815725312.000
274667407602060736.000
142899190045912400.000
129669981656311616.000
65370539737908144.000
66372529320271056.000
93184097407408576.000
122618280302186080.000
162007403930690816.000
93160335154849552.000
64102329054721448.000
60757732362772528.000
75622037186136048.000
45262966259588072.000
63536013892494136.000
37096417776134464.000
21378661651777488.000
26092051141780744.000
23990572565352028.000
14545811129594688.000
21347905688946268.000
26043635469909032.000
14781665508244900.000
10967505159156100.000
14454136572185118.000
11871615852963360.000
13793894288447718.000
19186143150874968.000
44018610728538296.000
41148991037458488.000
20691159749018612.000
24225182204615268.000
34031317545346804.000
45116546340498872.000
51216108689573456.000
33608235666922324.000
19529078431451212.000
22680768141813068.000
33792496500973140.000
76352449712574368.000
75764064008540960.000
38323841770240672.000
43410054510829744.000
22664264170558048.000
49059131060591896.000
75963734884979808.000
81976314568287840.000
116293742709245264.000
270799061997968832.000
302477908262778944.000
429743175103058752.000
917215258554667904.000
931436637350822528.000
1430732459306849536.000
1229640417341542912.000
1713388078164603648.000
966438113344058496.000
638436881960214016.000
383441351603445952.000
465410946900099328.000
453986284653399552.000
253737266475912320.000
131080197582597056.000
76864591020989376.000
85211503112453776.000
91864098472849056.000
67493417629927064.000
147570820971072608.000
132232252040773408.000
159145100234570624.000
86262477584059968.000
47658048331484104.000
50576950079522008.000
34579679733929904.000
77128747637887936.000
41459269227200760.000
36423487619604688.000
83270885621947584.000
71991590398117400.000
43028963690482096.000
48188861739504704.000
28386831739695160.000
23379855917694776.000
13392099897883552.000
15517798071934944.000
13498000098150436.000
20132475703654152.000
10482056997247892.000
11026574961751620.000
11467520159595212.000
11879040792138370.000
10933718201526346.000
14935499526666468.000
12744832703064212.000
6730387157902876.000
3592816493827850.500
2005408656973334.500
2196133549891561.750
2264654316713484.500
3381177736638172.000
8375355104099683.000
4524568899127826.000
4865148177945778.000
5806778260963636.000
11923734664616390.000
28122278578884096.000
14372344134782480.000
12603412809551492.000
6463682809803196.000
6946923454826704.000
8759331216841635.000
8755630112508370.000
4821157976487389.000
4727835467016506.000
4326459574117423.500
4574775722728402.000
4487777834361645.000
4069486048628883.000
6437630263163817.000
14970169010819874.000
13416749545890734.000
6848589862414610.000
13836110426126108.000
7163724392296976.000
8234872708130759.000
6188903451624816.000
3250557597615327.000
4205656737139506.500
2315960764794206.000
4608817203721601.000
7227754712885451.000
8150712413399917.000
5868691436963272.000
7338103064807058.000
6214651755839397.000
7965184460167180.000
11142495653686332.000
14322559850144850.000
8384901199746714.000
4800483285029970.000
6780325966475596.000
6112112654972982.000
8732732800331135.000
8530483376567819.000
4484726982912967.500
3536670623323037.500
8022539280992082.000
7233430549390475.000
4368876648824596.500
2452242662330083.500
1330774044092724.000
718954721102929.750
715102432500597.500
816226195837670.625
574057429541645.125
842063406438634.125
1053012379985301.125
605841198227825.750
1320455276714145.750
1090893647029050.875
2404760737585832.500
4860980510086118.000
5972169812848399.000
12226755552537148.000
10786285891801590.000
11837400899622564.000
6924248713945347.000
6110034058514683.000
7613750590251809.000
5890032430390625.000
12733980103695710.000
13611253769383036.000
21521479275548808.000
27581930066218632.000
15742723116867584.000
24389953696944732.000
19982031606598640.000
27538828001134228.000
15099715177294834.000
13828929319426268.000
8078810897037392.000
8249391593396835.000
7471314710251756.000
11942618390795420.000
6817272909330357.000
7936193599669267.000
6701110745724907.000
6054833009051305.000
12808147286392066.000
12081033913323058.000
27871216039937600.000
39376870156821728.000
21665135826481352.000
12883649484538010.000
13241240795948958.000
13807002419482826.000
12732702911389738.000
12990419217662422.000
12469790415362178.000
6737045365370680.000
7455473086591320.000
11072713594144580.000
10864324709784924.000
13818603155765344.000
15419587322562734.000
10824009021188792.000
27377212641858140.000
20290063493955616.000
51967722425267048.000
51011478419644088.000
37327958988496872.000
40455932434222928.000
38230502303604240.000
40427917364929840.000
35939673303786244.000
85129064886392928.000
86448869253742192.000
46961035060294904.000
37153159744005864.000
43254148706551728.000
25352064129292184.000
27231914800408964.000
22125097584966856.000
20386739426178236.000
25451758746260892.000
20167781920560884.000
45862523904092216.000
35091703514261392.000
77235054860644624.000
88515252539640816.000
79565771742992544.000
71635941887339016.000
91213320001037104.000
78610789608086960.000
64434569412594992.000
34416748033866988.000
51068425053680264.000
46103580048829464.000
49010266099765240.000
49658696071863608.000
38608338003658464.000
37685566468178816.000
21799652098682324.000
44102311702052624.000
91440378339415456.000
80287467202586720.000
45634566556519472.000
38489338638627136.000
37359058112059784.000
39857664938088104.000
39172070304077736.000
89314740948110560.000
88303578803045024.000
65358279914845928.000
34258143421114476.000
51873049961188496.000
37139257399175080.000
34080856557004908.000
19858679314713260.000
11658101348904898.000
6154828441457099.000
8858249363724136.000
6310857884165929.000
7895514861849663.000
4004923882233139.500
6051418200905991.000
6659293730219344.000
3466116508584500.000
4162245664153714.500
2509669439910778.500
1398776117199540.000
2080392231869432.250
2716379971742103.500
1453402487371970.500
1399203462049202.000
1142577468150000.250
1313802422310729.250
738968080289567.875
1001697985921069.125
1057735812992350.500
1033033262049731.000
2704639551835140.500
2172186094902768.500
1320185645777842.750
2730268364841275.000
1997051741320455.250
2362501131100970.500
4755298696442852.000
4169916384124973.500
6257518906183089.000
3311641336448886.000
1864390967060205.500
1909033559868682.000
4784967842893497.000
5926474291131955.000
12141940836690284.000
13351884765609686.000
12349573612081778.000
19153936753163300.000
40024831368058184.000
49372519806071336.000
33844119644931288.000
92717485588931648.000
71242048477078632.000
41807475671884424.000
34875550051060544.000
20501505974940048.000
23541989603665140.000
13130389399433058.000
12978529270388222.000
15438691190283922.000
19687489876553204.000
40805567675445728.000
37532535957439608.000
22690661504992188.000
26881764339633240.000
37434147665393368.000
75424484749032576.000
44417202821517072.000
38891551102212480.000
37948131835161392.000
35940587067759264.000
46071996449059216.000
42670239125079896.000
24326885963658360.000
28700490450901200.000
19611198780364316.000
24110087002370640.000
21170977253272224.000
12099480253521432.000
13860645212476248.000
7568917514248742.000
4389711299664128.000
2284341376566718.500
1190773478418699.000
1817730310301179.250
2135154730891590.500
1194894530932164.000
2578478004200225.500
3808612854980250.500
2054321089369610.500
1849456091870727.750
1790603697655205.250
2680143687821288.000
1793288763257131.750
2458536705711025.000
2606049878947438.000
2180826746210360.250
2040022908497422.750
4468655573195979.500
7307193730025289.000
3844559270179317.000
4230588352098151.000
2383665041753578.000
2430102864914980.500
1926302967411914.000
2481397204515548.000
2622350903759204.500
3208760053949040.500
6962092701038545.000
13911055084244988.000
8193147161817318.000
4355943816083537.000
2521676312509643.000
2660243168561210.500
2220513780453558.000
3479625391253754.000
3298946947216975.500
4179510537222712.500
4080879713850964.500
4273291241562968.000
2554107661756719.000
1344202801904647.250
1939742518810361.000
1864688492587866.000
1099927344734770.750
1233744454325172.250
1256604456004057.750
657163117426822.625
1006027594910620.375
1087629913006352.750
614814581324074.500
738314080972339.625
1081703346928018.250
609861776045776.000
344566394054311.875
192065771529865.969
102110107246250.672
145504800097236.188
131945655337414.688
133155028127261.000
179715762339582.219
190934076611836.312
216446827184220.938
122281408292465.344
106445641964995.656
103762652611116.094
96236915488932.359
112204404890856.078
96336451703378.969
143325932633815.875
77195174852105.188
39573652342382.094
20211443099956.730
29190836346613.477
36118082951106.195
53790426640498.609
80536247475073.547
94957741322934.172
199384305311705.281
245936601926838.188
209913135231766.875
174224600269163.188
458485353499772.250
425834479691016.438
466533308946395.438
327853801770724.188
373902135138625.000
839246397431646.000
640720578400816.125
646216463243450.875
617069815942929.500
318378437108039.125
843196187667766.000
1350760183443833.000
704984557540877.875
391004075227204.125
232345992507309.531
170744606754497.906
412728085490972.250
234039606543774.188
367497413420209.125
551889461966346.375
1452758975709675.250
1369116825030820.250
1070707856350617.250
601172728357715.875
647914973116675.125
756763182870372.250
643644733100915.125
638288506708007.375
1424935966888929.500
2275200710790097.500
1358273088851809.500
714430589453474.875
362308234370844.938
330083594425451.625
459116455606045.312
697875348474645.250
360887733751613.438
213750125777052.094
212401132255577.312
335947021065155.938
803330067001218.375
1117491421194426.375
562541303267515.125
314312778291312.375
812683848382302.625
456029015257324.438
241257857573899.438
144735342476181.938
180196123466242.000
197933442968544.031
405491901968872.562
825166467763490.500
459701840388709.688
324998279134003.625
768992497804387.875
438651299874524.375
625068087572564.125
1388840579662956.750
1846002973172367.750
2047518403828832.250
2349038776679747.500
2160293865112973.750
2147607079140663.500
2581496928127375.000
2706956993200249.500
3445907202067633.500
4843221122767236.000
6495400917687026.000
6530819834399240.000
7424251715096154.000
3874293671516558.500
8713303616894373.000
8702015653892644.000
12808207298846712.000
28312649014733120.000
23915381142423516.000
13677504163336284.000
21667852893113640.000
24397380790354356.000
24944303091443368.000
13677655008518052.000
13445340279059660.000
11788205840689826.000
23557674194901908.000
22859694415495352.000
11971404672048918.000
6425466371209787.000
7623679905839790.000
7366765969152760.000
7349075078018358.000
6951784176469203.000
7848698259051778.000
4148613748615983.500
2303138457672962.000
1843716723237182.000
2335464968468482.500
1920227911278256.750
2535100564373607.000
1991381720633625.750
2645121865442108.000
2297888474096127.000
3681655508088795.500
2130855788413819.750
1207955300569843.250
621234195091887.375
777413017130830.750
415682862041498.750
820820876841417.125
1270436128564544.250
2524552780861150.500
2033552222105253.250
1149694412674888.250
1258220061881759.250
1299917972274759.000
1308685440438411.000
1084907563558092.875
1213838436118345.500
2447854611755747.000
1457515519633737.500
1055679833619234.250
553312053555524.000
609444135079480.875
784151753519216.250
813379811749592.250
1313037910480002.000
1079992351428527.750
592599698098527.000
1372959181327137.000
1238704192573190.750
722158575185175.250
767972808752273.750
718447591796455.500
769685689137157.500
778641377156099.875
395484142746571.000
310742908754596.688
643989167782017.375
704104523469646.375
709697097353425.250
780880847020011.125
687899267750979.125
414053234016869.562
399537351386431.000
401421035395002.438
470747042906220.750
554957493833976.625
568375818937490.000
1431505011355739.250
834942768450683.375
1330305008298380.000
706008013014968.500
378055822047602.438
408838865294897.312
225375504771267.719
173849386935604.750
450013087383036.625
386640921806001.688
317364438521364.438
411840092763287.438
812225649590067.875
683187474913269.625
1474282389353644.500
1918370114535690.500
1172196098939502.750
1211229060473918.500
630696749868867.375
730107712103861.125
579309804151225.000
1258252039215959.500
1441878897249154.500
1948079035245506.750
2324717841786487.500
2529013440612384.000
2173646010486798.500
2476078453351082.500
1295802002623697.000
1960553897617168.250
2324886004594492.500
2009941120417593.500
4543092704321656.000
6505565915797188.000
13263484758964824.000
14816866961574530.000
13253734599885100.000
28175527781687796.000
34907630337582704.000
75751493178736912.000
60803261062619744.000
61903915639922696.000
167610932486062592.000
232732307593147328.000
131371939765979248.000
297165053776126720.000
411662522078539968.000
218284321989090592.000
117638733191931296.000
139370955532387344.000
80453969395815696.000
71414915315689056.000
42682617682042224.000
24611623747813436.000
14594388845128738.000
13988938155828084.000
21580197916306092.000
34254640018751248.000
39903824286595656.000
42810430049217648.000
23677318245207876.000
13022653464169062.000
6621145771477353.000
7592185788013579.000
11364349237683510.000
27060389072871988.000
35567944091166580.000
37802167074189336.000
19815991753611184.000
27698124334270812.000
23701929699457016.000
49786895326896840.000
38934202711567096.000
84786986610460384.000
88576102120355936.000
47122173331119560.000
45027014684614232.000
25223150838192340.000
21188766397263508.000
20377661175043260.000
22717873840655080.000
19735790922071520.000
21273705265050092.000
47059948025162128.000
47016643779988824.000
93104730324619440.000
86073729288236112.000
84151930541917424.000
45509466553006856.000
26827368325131932.000
34810954823088080.000
75278009399278560.000
85462641726580608.000
50861038358635776.000
48683670572821824.000
47497626881487936.000
62444264971899936.000
36365395105497176.000
42906733661400248.000
46056567808738728.000
41232977495820888.000
61785136506518448.000
72058025116640000.000
73801275274528352.000
114874232542418944.000
264055981899068352.000
365746475743799296.000
510825001500087424.000
298753494440569728.000
259288455360973632.000
293534460962820608.000
252094948109090784.000
198519019080279328.000
286610460245205632.000
155815734600353856.000
79340287690335904.000
119881380818723744.000
290757219822297152.000
292979635144329920.000
207010750543234880.000
234894289260495232.000
132869613357168400.000
152389482327418432.000
128876198435731312.000
112673332496284496.000
288316155309598784.000
226013854589830880.000
129712740578125952.000
138548167474987968.000
78884477948108688.000
41016087411695056.000
49818252365719952.000
36340029081641584.000
22096238280251836.000
12520045097115200.000
15564523613320290.000
8175844867075872.000
8895809820123900.000
7697529569279016.000
6398945698903325.000
8471494435492219.000
7799716067220141.000
6470117126980620.000
3302194511562058.000
6868204257359997.000
7996499590526921.000
4595251034458953.000
4383297914812752.500
4195929209435387.000
3645262696067223.000
3995677186568970.000
3249576492438948.500
3605678960808122.000
8706692908649223.000
11411035234912722.000
12319139922161624.000
15047876654139824.000
8418422328610452.000
7031739983745713.000
10821546450328060.000
27471771940131344.000
34972304236579720.000
88531225221328800.000
47123832913241464.000
35812576257214624.000
45658954286505296.000
25001645465607360.000
35208406935141732.000
39041848524663264.000
44838186908719280.000
26140264651833984.000
20618162272415268.000
27290243033103644.000
21147528899720012.000
50982401238918240.000
48991014493856840.000
73361087377446784.000
67656939412873104.000
75596178077378112.000
110585153241548592.000
130741955896544528.000
115815625837481504.000
268847708019773472.000
162721088814099104.000
256201069137179808.000
225813946830779712.000
543346232807946624.000
777862755713667584.000
1739898317065252352.000
2770147844841406976.000
3089913218135389696.000
2082068415314615808.000
1199223881263438080.000
2808539234594995200.000
2814085878756634624.000
4521951806103027200.000
5522090015559514112.000
7263028088475187200.000
9113625335944507392.000
14167534372678780928.000
15896413996675024896.000
17868068417895366656.000
14075058455435300864.000
32643516286402539520.000
18381688796139960320.000
12734961129342789632.000
17545379132452100096.000
10053271591448336384.000
9873713371717081088.000
8828789531674490880.000
5032444140827131904.000
3871092095257974272.000
2322483343877744128.000
2737806809778791424.000
2723664473016466432.000
2569620127917250560.000
1383043056658191104.000
753972393397446528.000
1635696670177438208.000
901392401926576256.000
710203159267150592.000
1423221373802727936.000
857040941404029696.000
646698987927674624.000
858282833460038144.000
482891239506795712.000
541366281271428864.000
758195428463469824.000
1205951308049334784.000
2691797535813062656.000
4340194268602397184.000
2370648196336657920.000
1243013847925361920.000
2589829604415822336.000
5458735164993598464.000
4536114683096446976.000
7027738755381940224.000
8554284817271693312.000
6910456971462434816.000
4065345384914063872.000
2157638677438364160.000
5323157912752388096.000
4476231145921175040.000
9027886000107515904.000
5015028220132651008.000
5687534352903726080.000
5323845694340131840.000
8313171940161825792.000
7601434132576958464.000
8782796194715573248.000
8500014047509592064.000
4729276094844345344.000
9952042164471226368.000
7038631637987103744.000
4138554194574242816.000
9583558735011717120.000
8501807103168721920.000
8786526543333574656.000
9761370758714427392.000
5186469506630221824.000
4197296291764522496.000
2372433134050550272.000
1458305429928901376.000
2201757337924961536.000
2575249176091000320.000
1564796411698532608.000
3171447417541684736.000
1756322728378416896.000
2491337171049378816.000
1289318279640761088.000
1344728486176512256.000
1627067785106191360.000
916051958294667776.000
677347235338390016.000
960341596880832640.000
1565983591198368768.000
915240473575140992.000
872371620777095808.000
458321438742952512.000
246689297467942144.000
125105870214871088.000
75649930722317216.000
89019031289328592.000
112382250468469440.000
147618418294471872.000
161855041967353696.000
145872761252302432.000
84757381102791696.000
72849785306205760.000
61112759178610464.000
35988377755096512.000
45440934409015224.000
65351724002867360.000
93362297076034864.000
140924362874190336.000
76322528532182944.000
85468845383343968.000
61459812059582408.000
35266376693280528.000
46632475798337224.000
36991132114858608.000
48797527952344632.000
37154692968771360.000
51044560893597184.000
81528140032776960.000
41312241620925240.000
23480085194671520.000
50941016183739496.000
47259374394802736.000
24995094266573572.000
39816975648196808.000
21275927842333464.000
22093682945283436.000
24701600265586412.000
37043067328637648.000
34787087214629308.000
38879785476715000.000
60633780124535696.000
70321667735395496.000
77124585969892272.000
66102635346215344.000
37180851108557600.000
89746634160700336.000
49361294020930160.000
44355202036884504.000
47446994040698304.000
33737161296974264.000
48284152935845800.000
24825514907655348.000
14112491576170484.000
10695600746656752.000
23190017163093956.000
47417452632188184.000
28345089738412728.000
14947415054382566.000
12024519407383676.000
14519921434272702.000
7395861165106504.000
4133907243478113.500
4057492576239690.500
8086396468889121.000
7187798891314064.000
3834006124431731.500
4938911181090182.000
5985352867652206.000
3631733751232257.500
7628798989567544.000
6282615454252742.000
6304084111684536.000
8485724267570517.000
12239116806719988.000
27028201161271468.000
15917321337979430.000
14534467696631198.000
19664753716714944.000
11006987279377666.000
12326510178148960.000
28492734676169544.000
14803463913369806.000
23554529495560156.000
27253850563622576.000
38140816732814688.000
37758621356494088.000
46739338790390168.000
41602320561500272.000
42271212102598072.000
36287005293158776.000
34971044711627700.000
41973546339332096.000
41164297231041488.000
39138966774040824.000
48729407386424792.000
61999939084834592.000
87743359882246944.000
45774329946830504.000
37003564151958336.000
37820933948442248.000
79414799622724432.000
119629954977614928.000
121497811409539856.000
113527877864245424.000
250580100374428736.000
139446682484530272.000
119216135258450448.000
157622690201700384.000
133946973101335424.000
150011119398344320.000
296961533616655296.000
249383365148036384.000
128555413401155536.000
291756278070426624.000
150011348999865728.000
128872383547893936.000
66228838725975336.000
86608385690173824.000
92271993385575920.000
63712036264984456.000
39316809640094944.000
87372775924577104.000
60731484969297968.000
79316110053649248.000
92555876140843264.000
76508623941968880.000
65278270241242792.000
35388462849760000.000
93531586477281936.000
132541341198793872.000
159717529799182624.000
239595041346889536.000
517068314511054592.000
413232381453092352.000
425084131350602304.000
427554043211233152.000
259802785550281952.000
235144194250658208.000
490742270178797632.000
724291881055526912.000
445960431489679808.000
264337779025781696.000
281620830616091616.000
253345396885243616.000
370648334657147520.000
196125176836918336.000
197694328637121984.000
117133600866628864.000
291179703748063040.000
238545249513808608.000
200464990135801632.000
199664779306880640.000
437440256857317760.000
222517638242205920.000
132095306226435872.000
72176906748916000.000
66281395648881296.000
69000607181898912.000
87750110669718608.000
68290589541683576.000
67856896161166656.000
142967489664461296.000
135473620737426624.000
155837685063185600.000
111234550459933440.000
233167109447796192.000
206479992098708992.000
251579199727861568.000
260163992310706880.000
229769500566783072.000
290866352894155520.000
292515141567933952.000
166226255787199840.000
132713591562397536.000
151166997202040832.000
245215908384290624.000
301656082922604672.000
221262969429392448.000
466903155502116800.000
384229414885971456.000
523879227312015552.000
521106167410558144.000
284102008875656544.000
218619880891386016.000
133346894166155152.000
208486323768803584.000
114731300065647312.000
152618860148933312.000
243693714676975424.000
208672080598942912.000
472442001593045312.000
277830069653814912.000
392415465843633280.000
854250862266714624.000
503612408483992256.000
269277305565242656.000
144994451310434496.000
288676343068911104.000
245410944990753632.000
228887802370611168.000
138515479001155360.000
157275980859346208.000
229033732713562208.000
520296347930853440.000
373816284268242368.000
922001238198885760.000
494503898073457600.000
374755955324481536.000
418811506975589632.000
236296726479739008.000
211596334154742240.000
276874180432466048.000
420062420746692672.000
243220095159302336.000
247910480321015552.000
135021793008997392.000
143364388535385376.000
121814026285204192.000
244557982339866912.000
124972565418957392.000
254387228342466144.000
213857491182078944.000
262397269720449440.000
202182727205091552.000
254994670664628960.000
219737126358791520.000
119313320301279728.000
122639053390241136.000
150350210934077536.000
90842757865434112.000
76620662992927616.000
89093895125058768.000
70497635815185712.000
62066005541085784.000
138835306999433408.000
125539339191499504.000
116053446624852544.000
132689525420522704.000
157881282927160032.000
118183937411692320.000
125698658934203952.000
270142176731551488.000
272987275384256608.000
232999874488235584.000
117842008084035792.000
300968523582035712.000
385916031595445056.000
406236576432196608.000
247635151162206016.000
140072700499497184.000
109742871716303952.000
271823309095575680.000
156803609443299200.000
163726184876825184.000
224130952822402272.000
514419232265177536.000
665213967361103360.000
1577059406589965312.000
1380080418189735936.000
1652085958219514624.000
2336271977777147392.000
3105275638252642816.000
4415909184027845120.000
2451430752084248576.000
1374179900801228800.000
1591115707844435456.000
897236083041481344.000
752876206710730752.000
1559984168523483648.000
1295714600854536448.000
757722592483970176.000
728467737545545344.000
1607712713958874880.000
1767659962162479360.000
952896468482485504.000
780049179783443200.000
925116222549864960.000
535141578721761216.000
299645121706678848.000
251691353393164704.000
146059520989471328.000
143927648775656064.000
220274954028367584.000
109211263841796656.000
265522600885268000.000
226514595641788992.000
224477232790871488.000
272367178830599840.000
230760175445317472.000
285491205665346464.000
148272474709851904.000
216367017112770528.000
295709819424713408.000
245236910986999392.000
258115392844997664.000
406643563341317760.000
392850199804016896.000
234495390685639360.000
286495136900182848.000
277754727972447776.000
273017575375684896.000
212802540105109792.000
267293499334989760.000
156574512998863584.000
115241240901689536.000
147678873484490624.000
208076005800934944.000
301419034328325760.000
196526929744994400.000
492638910899461440.000
355781928813508352.000
197351157336244576.000
272624290695677952.000
258013590302644320.000
522904020304580224.000
486665506692461504.000
637607720092327168.000
750059101954197376.000
423711561713796352.000
887419378516032768.000
776407275384692736.000
968071713183690496.000
634644003754269952.000
355954954436631808.000
413955134782504384.000
253760369960883168.000
534352767577980032.000
777386695339730688.000
895211015125667968.000
1228226407902382848.000
1580226922575400192.000
935440777274795008.000
774376931175150464.000
388028644275787968.000
227163963799795328.000
214373578048878016.000
463003686371474176.000
271837931188954976.000
160164184921810400.000
144696639419665568.000
153650204410723008.000
168173139315579136.000
226003573375343040.000
134921919328224512.000
285655532469077664.000
165301786641985248.000
85477525115220240.000
109696820236102496.000
225446516886048832.000
543900102464890944.000
298701433324818240.000
160993241407318528.000
220406195798170912.000
236258483549177440.000
130505481428727520.000
68783809465123144.000
82394773579513136.000
91895097660166432.000
71853073996684192.000
90983338041303408.000
81681657716909152.000
91451246280377664.000
47660304209544992.000
73394480630259904.000
115974071509543008.000
68700756120961088.000
162423978688436192.000
143109271403724560.000
159521182218042272.000
116551713055213184.000
123793481694239600.000
286190553498791456.000
146497235438576352.000
118512842253522976.000
263014652392532192.000
141566497449330768.000
112482834323019536.000
299817863208633728.000
278825136885815520.000
144510036925637440.000
151411730601214624.000
160917496102859840.000
125838593777803664.000
254370957174822784.000
198685066209288064.000
263516362444946208.000
390383147310059008.000
525011378758045632.000
392014308614588224.000
461363788861776192.000
482935414227256320.000
253839486186735552.000
288864978425047424.000
224087208346898240.000
221385796930418304.000
300478602702045440.000
497176198120253760.000
639801202949329152.000
786761121692346752.000
1147042364215825408.000
3000799403087180800.000
2590172220403015168.000
2308452061790859264.000
5204539830444080128.000
4120273488219757056.000
5241321827440592896.000
5700512205958220800.000
3847941372177398272.000
4365862386817660416.000
5323080070802274304.000
3788899704011122176.000
9400583013736968192.000
5666942224116296704.000
8831456614297591808.000
7333570955977291776.000
15836256478895163392.000
8972368579752649728.000
5128608182377162752.000
4999151209863335936.000
4092453479824371712.000
2361555324259306496.000
2762116954244659200.000
2363104302775143424.000
2527707335196313600.000
1504743471620762112.000
2316349746537367552.000
2856584041869671936.000
1579012887549815296.000
901436099832039424.000
741651043288899328.000
876062335098433664.000
1270514373157446144.000
676015734613483136.000
1738012693880971520.000
2870847902711540224.000
2855018514039472640.000
2079675463289340160.000
4565935137972143104.000
4502767197381329408.000
2619150524390909440.000
2563676570309588480.000
2825989549560327680.000
2136661211291939584.000
5708669972874947584.000
4622659961230948352.000
9267509939541596160.000
14893095488531050496.000
16657582574804017152.000
9981185191332319232.000
5643067164536721408.000
5476585674038176768.000
8828769311791077376.000
5191664895856300032.000
5228858862616280064.000
4821660412891462656.000
5088706699712291840.000
2924044188381604864.000
2519580166701078016.000
1512703826609512704.000
1160292003241186560.000
1726079096974385408.000
956211108605686656.000
1521083048063328768.000
1168269384647930368.000
1741692892189713664.000
2758630267387505664.000
2168220851249606144.000
2964466273362263040.000
2224497012518352896.000
1167520845836263936.000
2538228592977968128.000
1372354299097261056.000
2879990595866667520.000
1647622968898191360.000
885380656573816576.000
1197581350538260224.000
637859542756618240.000
813093438870434688.000
769708825675854976.000
824645186519938048.000
800174183268183424.000
1675300548895893248.000
1320420136372569856.000
736109373727338240.000
896719731894949504.000
694472957334484480.000
413693324538316032.000
229959532317308608.000
263341054846694368.000
158258813624020768.000
223731070221748320.000
467011298828986304.000
417368376165373504.000
353827691180593984.000
976870599027085184.000
685309568778148992.000
403445372275839040.000
204996980310885920.000
289447544739039680.000
251855668020923680.000
221203037945566784.000
114032311208513344.000
162696447547716224.000
111004633543107984.000
150678844301824128.000
115961418913502320.000
153391142468789568.000
116009004188622912.000
67830713202990000.000
90570259254378048.000
81967984536610400.000
46306500619513368.000
65082678697898368.000
38695693277305872.000
49440850555676616.000
25948106552076580.000
38752606359078656.000
87881457707845456.000
142637663032062720.000
73126362726078944.000
76096846724322688.000
83857681490592816.000
62412055356821928.000
129224587827849200.000
117387972831062064.000
147093799701401120.000
85486136984378160.000
117924640765723968.000
240362946639540672.000
134633480852441552.000
112953073923609664.000
150649385987347808.000
296535288825947008.000
196898232226749600.000
109834595413312128.000
257048831532648224.000
142460346117544736.000
163958276040662400.000
223108533677398144.000
488504640395639424.000
517734190355103616.000
465444052543095616.000
392154775168335744.000
487955874775858112.000
395656068716506944.000
499927596791812800.000
280133877493463520.000
222076117814243232.000
517574029556488320.000
836584496483292672.000
1647484716478410240.000
1382748490886139904.000
1502736142177996288.000
1424770323386490368.000
1521479218020945152.000
1564405618166579200.000
1475590240307128320.000
1156322684939428096.000
3152125788222665216.000
2748093181851151360.000
3062187832794916352.000
3025239941547485184.000
1582357106133663232.000
930187642405868160.000
738867306943149312.000
427417962497537984.000
377630624741877056.000
492516786296573696.000
358251249633551616.000
839580550864744192.000
472546373244923776.000
753658155776167168.000
852331042477626496.000
816419537422434816.000
791292821028659968.000
482773390650481280.000
662221219099011456.000
395063185028916416.000
919286281202261248.000
1473172634852105472.000
1590846543774419968.000
891500771256190592.000
527360573157177472.000
677559948726994176.000
377232853849331328.000
490204265070114432.000
462353753533300160.000
491072422946042624.000
255321609327961984.000
239346441290476416.000
291716664273247680.000
149436175027756352.000
167325299867230848.000
144730005030743488.000
76432131616955136.000
90006975148280400.000
84259528442779808.000
82398469067423152.000
72322473419280432.000
90493209358276384.000
49942165301701656.000
76227895726400640.000
41553235977612200.000
47681704626792208.000
25186241596113084.000
22555864266636740.000
26518783852066264.000
14805035267041720.000
22579623215538768.000
19429901614014908.000
11653665291729820.000
25063579063004484.000
21120112673963664.000
46065837834297280.000
23961549093383308.000
50704474813257512.000
41385044289403632.000
34715499199320120.000
19936683404713536.000
20006742764872080.000
51278237460101992.000
46827347028889880.000
25305057450965464.000
20404609084480124.000
48758195894679976.000
24779095367077984.000
25957718912584236.000
13370175368503816.000
11616622339525572.000
26371526711383992.000
13708317478459714.000
15395046037084186.000
7855583778347601.000
6413556373693417.000
13391613476188526.000
7959008046276193.000
11754116476059108.000
7137311765309283.000
3617600460830314.500
4146060863509760.000
6537670813323061.000
7324679707700982.000
4073546419724442.000
2290148615948237.000
2598136717892304.000
1526514373564937.250
2413299524151140.500
2065575153054804.000
1836055137251793.750
1050190426886609.000
1460975309588605.500
1277944850111044.500
1270517104885594.000
1256770420638144.000
1296385250452506.750
1176914351561440.250
2659620106714824.500
2164720429714620.750
2397180899764000.000
1210217339951995.250
1416473856493560.250
1880660772503509.250
3959706564087062.000
5975691971955358.000
8533026045184245.000
11057588506905688.000
6460346037068496.000
3718260607894432.500
4364839786547189.000
2263872861595261.000
3597410543137264.000
4697965646924581.000
2415065530764159.500
3875784580589047.500
3584828194544072.500
8500982434413640.000
6759554402885919.000
6731679089119584.000
3593961269119490.000
4194891953436664.000
5895265451152073.000
15370032726476002.000
15222257954641800.000
12884225814472782.000
20742489340329876.000
28163997633577508.000
39368074603244952.000
63020462075928376.000
152948843675435232.000
146437812798007040.000
75169529015374128.000
108966587749109120.000
123862626565720640.000
150424634363643840.000
244939390180696704.000
130526216156243632.000
198155054267475232.000
452467934196175424.000
516915523001141696.000
417073805442578816.000
864771866237397248.000
650406537326980864.000
1406608609731415552.000
1752838496347334144.000
1617393087721472768.000
930567066361837824.000
677514761713829120.000
742465733794370688.000
408751085589004032.000
237828535135801504.000
216968171731445696.000
298434468397547136.000
166486828447589664.000
136466095002003312.000
196137228237117152.000
255861546657364640.000
291141633294255936.000
159440440091258208.000
195770622983431392.000
542571606557158912.000
459248754251954688.000
539823542497452864.000
794800770277227520.000
432059659192655488.000
223524375466642400.000
506676622245214592.000
662445724761087104.000
701893388309013376.000
914532844059019264.000
806810362688426368.000
1254641671184881920.000
1575741605949680128.000
2256954472974355712.000
1151182845632559744.000
667651419861309312.000
1587724780478678528.000
1214553608861325312.000
2841034698291202560.000
2952525477073118208.000
2165733412039669248.000
2546680144695591936.000
3016082905675321344.000
4355343607007922176.000
9595959671392868352.000
8032295569912968192.000
7640580984305454080.000
8784096545305859072.000
4585562759259523584.000
2406769424650279936.000
5035234693032425472.000
2883956562579472896.000
1481017186007734272.000
3047934357065435648.000
3000016593818623488.000
3729292794877717504.000
8861650783590497280.000
6695183091658035200.000
8670269507655649280.000
10064806267536474112.000
14467425514548813824.000
7220053551157397504.000
10140797815508097024.000
7029670204964020224.000
8063105366412429312.000
4601832505808611840.000
2374724468218243072.000
2361790394319541760.000
2521913631237918208.000
2880371572291591168.000
3921750412786907648.000
4783681360661323776.000
4213739272715904512.000
8556073427724779520.000
6751399201473228800.000
6823900165640529920.000
9472633754997590016.000
5493155335650613248.000
5478779960754938880.000
8135491629657488384.000
4969519181561657344.000
2842609373224495104.000
1578888893227032320.000
1550641703490663936.000
1758937090934995968.000
913633158671448832.000
695166374961957632.000
402362944265262144.000
213854491321553120.000
112111468928230480.000
277575649604695072.000
269211076214099104.000
232748698259689792.000
202012715169701472.000
123370923445372832.000
75729957528219504.000
117292106540065104.000
135500643303535296.000
163420590662061312.000
89887417177259696.000
49849006318222392.000
36031849616979544.000
20345085685922268.000
25804379086455984.000
20600861369439048.000
45281783156357720.000
71645546190512464.000
41033310779493216.000
85746190813084576.000
111896679615697104.000
258785823110156704.000
511709479534749120.000
461407508797358016.000
436662208755211584.000
232812030425173792.000
133107689372607360.000
78715112431666992.000
45966480066270768.000
65814047741535408.000
84420496117765184.000
74245437017336688.000
40444480279739144.000
47324069127644264.000
39781121074323952.000
62961722065234696.000
129761632598440608.000
149443445761027200.000
132015610444931056.000
297487388449060736.000
239378299411012096.000
141266330180347680.000
75904312938208512.000
61708049218770840.000
92665831015729808.000
134026013830121952.000
120807458939007696.000
66545314658841944.000
85893276177875040.000
51246372052617104.000
83087934316664912.000
43191305489884200.000
34326777910248808.000
51868386756638080.000
43467621639559496.000
24446309234646632.000
18879671297755264.000
39726653835039216.000
46639444668657432.000
63986479088990160.000
67891746075014032.000
80173568002502224.000
83925487455814816.000
84083282212307344.000
70725448953973544.000
141631494519672096.000
75199989717038224.000
64827238770114280.000
86645975971788032.000
77032673094388784.000
67879037143793032.000
39569325545927728.000
90303499362594128.000
79043136001017152.000
92201592375819904.000
76559869903425504.000
161381399603004768.000
236219517062953248.000
377833693239901248.000
977825898094648832.000
751345581566598656.000
963737964352578304.000
711087969798079744.000
428675078955192384.000
232488299580821952.000
298933260387787392.000
481375943938184512.000
267061752004610016.000
419870386879492416.000
436352361014329344.000
221813933194979168.000
486328324182758976.000
765759536061904384.000
1557202714951956736.000
1533295721985747200.000
790749873955235328.000
851359467353117184.000
675860292357155584.000
676892291106373376.000
1554481044426876160.000
1649736807314689024.000
955221354279287296.000
1332012806525193216.000
1674234848562063104.000
868696024375134336.000
844623515381566720.000
913271762633755264.000
830963384703769984.000
422544013663164480.000
214200152841237920.000
213473666021417376.000
534178856382198464.000
300123560093585216.000
352472229037298304.000
201381287657360864.000
287262491075278784.000
255857698771479200.000
288710408656815168.000
271928021456064608.000
163065839762963808.000
92787187471872464.000
83140674497809504.000
46450844603770544.000
24293829836281380.000
25943928904518092.000
27678652293771748.000
33614892577945288.000
80644611018052736.000
73347333806668752.000
40582397071588736.000
48376007932732680.000
25971559657888432.000
26057403503580372.000
22941964217529496.000
11981818096212026.000
6908942738899883.000
5819884186309254.000
8717401067925607.000
6705543426674965.000
3655860573670875.500
4651105387489827.000
6280201062833395.000
15096210211180170.000
13151205816556686.000
15008271401114568.000
13623869707634430.000
13636550468414040.000
20984619615953120.000
24629981330501432.000
25033408836142412.000
20290724762783960.000
19897299271649964.000
24799628501910084.000
14440614940075746.000
13091670162485756.000
13713362121071354.000
11487149794965016.000
6952304918379460.000
8226984996399665.000
