46.943
63.750
58.570
137.899
125.941
270.916
334.454
829.301
805.720
1581.406
1572.191
1584.105
1588.121
1908.128
4961.254
6192.411
6835.485
6414.416
6918.594
13864.399
27644.265
38946.419
41670.506
45572.479
41338.254
87161.867
87907.107
130887.861
138978.485
276552.284
554475.811
557121.895
840525.297
878031.184
1777994.070
1722967.538
2394231.399
4918234.384
10329439.926
14042224.315
31377167.102
46336401.894
45541943.165
49841025.367
106201880.085
147916249.254
349916916.114
541849504.579
525577522.654
539127240.744
1137755457.763
1055389598.584
1447416895.788
3144931577.196
3408093369.926
5434450409.571
11257731899.867
14949165830.786
37152096784.508
49537180074.608
124875322911.516
177693983176.497
172491532269.396
422972550358.378
663028720110.221
679151737988.486
687597242798.590
1118926095217.613
2434637160867.821
3169427614016.636
7761947210132.472
7376099458249.688
9578218230839.953
20870663633097.090
43771048544770.852
72020602654503.828
70155682688253.109
150375844185573.906
193177007788599.438
449445666878036.188
613237108914297.750
1431211450168392.250
2111357047106731.000
5164391873266174.000
8141220866623156.000
8052060786614253.000
12059977668317002.000
12967884566538268.000
14117086430897078.000
20887332065646472.000
52144388399632120.000
75360633910561040.000
154265934852578496.000
225908721322549440.000
218838578184879904.000
535008061783553920.000
749334518529770368.000
1786903288913488896.000
2876207435849652224.000
4374323635906013184.000
4666460748887620608.000
5456686605396632576.000
8382233708807516160.000
4511798266270750720.000
4217046440271313408.000
2271424395372638976.000
3045952512696758272.000
1731324204656237312.000
2554357626897677824.000
2881755368216996864.000
2774385882417656832.000
4466608784332129280.000
10241309496705738752.000
5491142410588861440.000
4631784168308326400.000
2358434191284774912.000
2387572526282273280.000
2223140232807187712.000
5936879430485216256.000
5201851624867511296.000
4202157363542937088.000
2384941300327496192.000
2390875869862347776.000
5332408354188672000.000
8544798584675183616.000
4627582010351101952.000
4387258158296850432.000
5406440956496366592.000
5658251148258766848.000
3160448715727142400.000
2602867442605729280.000
2490872699101322240.000
1492393366861273600.000
1512246512213226240.000
1682456512101143296.000
2530387218482763776.000
1396813583849754624.000
1231975879032077312.000
753925008058983936.000
420391842331434304.000
212317226240293440.000
298882641584479680.000
283485969007350816.000
261369355344468256.000
286669451299279584.000
313625808654450432.000
277410918652853952.000
157948090958137280.000
145418719312242048.000
288517539674208000.000
249095217210183008.000
266838027512721536.000
140503248170894080.000
121990486682080752.000
276756678299754144.000
309167467299159872.000
174567757105973664.000
141951044990221520.000
156181023344961472.000
87718665541454624.000
46466702288936904.000
23835197717619548.000
52650701437240912.000
28535036756329456.000
24389073048724656.000
23714625334015620.000
47324329847655312.000
41961703795024128.000
51276114655206352.000
42826026118218608.000
36680685800987912.000
82030775919871152.000
46395526601798976.000
36436065163765232.000
50664111683001832.000
29404678630444664.000
45375538224499728.000
24473205117048220.000
21919317598195604.000
27007989511516424.000
13915277987731412.000
7366856205395172.000
3810396703277671.500
4507042613517530.000
2374894092053538.500
2347842156795017.000
1337372034096206.250
2690910883746834.500
4375173779255967.500
3490319619413193.500
4173479854059125.000
2133780695427123.000
2820700063199979.000
1976429754275407.000
2014463655832852.750
2413462802520621.500
1434788899551141.750
1082803139187674.000
1389655024234382.000
743731874949812.125
813036783683136.000
674988187292581.000
381356432514291.250
848569133031760.375
1298772232515320.250
1299615032514033.000
1155203937828714.500
2452686775293330.500
1918510021859893.000
2651071657552724.000
4016537860640079.000
2294424508663726.000
2542736817324656.500
3482895757117750.500
4253345755877833.500
6146605949008123.000
12601634850126354.000
13748864698934972.000
12000936817724008.000
6986984880628140.000
3993909354886984.500
4301454633853869.000
8972349559209621.000
6439745769902754.000
8172711317372292.000
7955807994094769.000
16240492280438726.000
11364295752732170.000
28917423839830048.000
39867698512828952.000
23369444989126240.000
54103603984101672.000
87913582809384512.000
90004754880973152.000
66124807430573936.000
79482772476950480.000
171467424979285856.000
126805956314639312.000
138896262770694864.000
140343288669297856.000
218766084887127648.000
251124335508389248.000
226995807277411936.000
221955122366059680.000
259017454951102944.000
146593582840092192.000
122531040006743760.000
288215171995132576.000
301684289153765952.000
225292531331104608.000
306621252231710528.000
500583214262160832.000
494251049545368896.000
548501121622940224.000
287131504162905280.000
252057642113116064.000
378587827827222144.000
209130010556381056.000
124136123005607680.000
253851473807782944.000
502818063965642560.000
802864748275882240.000
935424997533297664.000
915109079863236864.000
758294438456645760.000
1791324455577206784.000
946212796904668160.000
678712135537299840.000
851185913611626752.000
511052468224327424.000
454479975808969920.000
542038024114989824.000
561912393830921728.000
428936001963702976.000
509794754878675520.000
769103764150620160.000
982321780789512448.000
1547308382458507776.000
842159678209506048.000
702630385893139840.000
718055333234805248.000
1638202937208540672.000
2326000326059528192.000
3011730930800982016.000
3046663842750327808.000
2961389973285844992.000
2964442984875485184.000
2669398961046019072.000
2226878951771526912.000
3071883203511553536.000
1773143466638816768.000
1776821546147834112.000
1427665444288071424.000
845059207699028608.000
1317718163206375680.000
1814031618825961984.000
2720649632424378880.000
1649281321106560512.000
963752947663218432.000
1519389678741721344.000
2326231249035207680.000
2797949077776174592.000
3032448900805720576.000
2532422334528703488.000
1370015831004868352.000
3301899906472959488.000
2623468394927925248.000
3025779911517805568.000
2497561184664262144.000
1371148468812070144.000
1539116725707862528.000
3171228610718947328.000
2605227967746975744.000
1567398449396197632.000
1332935878032998656.000
1806223906548091904.000
1219499646202745088.000
2633011913185137152.000
2285996437272844288.000
2504576783851456000.000
2422895325889873408.000
2322399589489517568.000
3065246440911883776.000
1584245953275111936.000
1371895441175023872.000
3296475494325041664.000
2459931112854224896.000
3178392982950554624.000
2590362492355752448.000
2205653401815178752.000
2218825568335489280.000
1303962767882984192.000
738587293329779328.000
1799316970652017408.000
970073992439377152.000
510338513124324544.000
287291766672393472.000
231062412962781792.000
222590946056587104.000
501481585261399936.000
279967728707081408.000
306366447014225536.000
450157743704383296.000
919288623793082240.000
482563929550477760.000
743231274580822144.000
959816237853042560.000
787769024460077568.000
762898163117596928.000
970663761371092224.000
557877906072864128.000
411708544076508864.000
888621744415305216.000
705213879045147264.000
687378048376070784.000
424351205998609600.000
550931171661635904.000
690209136112881024.000
1402730357615034624.000
1732745388819587584.000
1539279520733008896.000
864665586164271360.000
693163851058370304.000
695913384232044800.000
380194292207082048.000
454331660996524416.000
485624690464939904.000
286378806981201472.000
172341429300656160.000
282883819191589280.000
162094854777228480.000
126931616766117584.000
121146138973636896.000
163925993257550688.000
141024625654586896.000
74686548807271360.000
66181007605800344.000
38502528408679272.000
38730466343827544.000
51442052432329520.000
79386647479583136.000
41804409135907848.000
51498918170366856.000
35921708953468692.000
39068297781791288.000
37191519464674312.000
75907705261927008.000
96083093639611520.000
76302638948623520.000
93813286650486864.000
127503120374085008.000
123017526361279712.000
143343308232725728.000
140798758990431024.000
71172367318590728.000
38924965877418080.000
22083895626774568.000
21758381367311132.000
21927703337341040.000
25217574989150372.000
29583301109471872.000
23200690522274276.000
52652013697773408.000
45573460675857728.000
74119942114792464.000
43193959448284424.000
48233939112489856.000
38724028698390208.000
53146397581034848.000
79474603531238816.000
67365943620896520.000
75953872979302656.000
89697838915735392.000
122868922862375776.000
163163308570185184.000
83407049894281024.000
50023425570588864.000
28763866992116256.000
14706161931291556.000
29967151676490380.000
40498087997074032.000
37803710125398016.000
44005485479638872.000
90406635113903328.000
65065375935042480.000
79831798381930848.000
40389297593011600.000
21584496987791384.000
28554543149229284.000
24418574314005988.000
23080013538078048.000
23039697825142900.000
47662799509046424.000
42290470344717168.000
89780368085990784.000
141499048904402000.000
153071384709671968.000
119420085953374032.000
312460978867349952.000
285809058009819488.000
271970372634504896.000
154422939759476192.000
91689508395796832.000
70101587958355832.000
160760797367771424.000
136341418688599072.000
120231651485060816.000
149979865033214304.000
153713821088281856.000
79718350881581280.000
165520103096691392.000
92740475843021776.000
65377912540368240.000
86989123193532544.000
79578090377930112.000
119063669616549184.000
69407740327604576.000
38539637184192024.000
23333245321742444.000
20103517337499712.000
30022379276965780.000
42866529618453288.000
24411237483966772.000
25165073835247044.000
40464483042347984.000
47987372420293792.000
66056776751152816.000
152085338491299264.000
215166718636340512.000
274299583663979712.000
271369425700751456.000
138170215954046368.000
131101617231964432.000
151298248803609312.000
86467502587470848.000
82442676137825936.000
47465959580275064.000
66164006614352992.000
152624588616328704.000
88164680151254800.000
74275377533065392.000
119491178578467664.000
64629425518548768.000
90468938833196112.000
138332150171049376.000
282616373636194240.000
239723164479905088.000
133708810994151472.000
162802751594483552.000
86753280469488320.000
77777165302823488.000
76946646517342912.000
94335273463819200.000
88888696458112208.000
125037830231695792.000
267050320013963744.000
385484033033549248.000
841778052688891136.000
869097894983869952.000
473607652331930624.000
250939030255244192.000
286189015146396384.000
145542686449174944.000
87546875752029488.000
45154028653295432.000
93510747015037728.000
49023991841160080.000
53610513791226728.000
39259062657390728.000
44535236677459824.000
38604964794689320.000
47880675087684728.000
27011256372620248.000
15917689534988546.000
12425986848713502.000
26729414964741048.000
38372621401650200.000
40265342557255344.000
97094351465233184.000
85850429344906656.000
73174887015895616.000
70154146426652688.000
86502790297476928.000
51408274893282824.000
29986884799975792.000
21781799155795956.000
20009039904970512.000
45902096278741584.000
36509113451916560.000
50919403015050152.000
65225578688961784.000
155080138273214976.000
135301159607743840.000
118623259847269536.000
69463647755343128.000
37224737687907200.000
81510100286520112.000
70018975912784112.000
82258874720546960.000
45112736383278016.000
96757357768778656.000
120804565749530240.000
134748811527517216.000
74242794456683648.000
90178643967392736.000
76183406921957600.000
43092967638372888.000
21587098002872908.000
45075403691314680.000
47495792890722504.000
42037867593966720.000
42851231542765968.000
25735071521569700.000
14521916574975596.000
23155915394622264.000
12714161704438936.000
20076029200677456.000
48608270755126944.000
64563609564864160.000
84813847701114224.000
64993967574314240.000
75619740999916560.000
82868150983697696.000
167150107580234880.000
96110661249700608.000
84639161840939600.000
71822207851534352.000
38411585139377768.000
23459634332345780.000
26477711245526424.000
28593246551055444.000
41550896240380120.000
89342781304745712.000
51965724451049328.000
81889269246416080.000
82119637642564624.000
162671641453377600.000
127190740758730944.000
69049169375495592.000
165619727571466752.000
151338460346432064.000
136479832741483200.000
306891786165188800.000
173830627293859200.000
92226324705719424.000
50554306931377808.000
30095733425717976.000
44575503216649944.000
49077582762068008.000
73164398440571168.000
38610578185149200.000
85323273823440528.000
49810181920276080.000
81150419450581312.000
46461719821256552.000
53113615661157952.000
38246033053082168.000
22532553108120540.000
21119410471695820.000
21241436321045364.000
52705577382881984.000
44320401681549896.000
90189435086321744.000
125252456464931664.000
289916682021059776.000
161060005916036768.000
163712083988945312.000
117291434101164048.000
158411511680278720.000
139293908946342176.000
73788803856663056.000
65882124330180856.000
163234817614083072.000
248036662853019168.000
124847715339802928.000
150112913724558880.000
89020657654945072.000
124961676652317200.000
146639509895849600.000
164592350302287040.000
132303625793728880.000
267713745884962464.000
294628867686913920.000
313266674566935872.000
432698002763541568.000
529266984332500032.000
524433464328635712.000
431627443459942976.000
489891410843861504.000
435953859330973376.000
525910742401277632.000
471080953932326272.000
244962057466390720.000
123628358991455872.000
315180224740928192.000
303986380969071616.000
220560228348476704.000
264361902390452864.000
146371835665510176.000
229647581731304544.000
137194597345347392.000
117766391669455504.000
262056745649392320.000
557479223002409600.000
314493909775354560.000
212820577212258336.000
498529687194597632.000
725282553990172800.000
911048439415553024.000
1361875962220256512.000
681961861199125888.000
1423968002598110208.000
1564925676554094080.000
1487683581678144768.000
758662975915816320.000
1771354461792257536.000
1259503403940957440.000
1656170036962954752.000
1332268060534253824.000
1674960115277385728.000
1269624222548939520.000
741320508097090304.000
734213294807868928.000
429234376996951808.000
953872870547170816.000
553086470469131584.000
450813641828028480.000
681045095584590208.000
1788297953210923520.000
967568302253037824.000
910356823153882624.000
769168292928541440.000
398802191020603008.000
929242322836453504.000
742583369752517376.000
1814274814717081856.000
1435633994141844736.000
1801140164657483008.000
2808668605425678848.000
3218303331777776128.000
2898726574706142208.000
1662383664823902464.000
940524285715451392.000
1518641002425589248.000
2260669286218686208.000
4739714723886132224.000
5114829584362531840.000
2617882403779773952.000
2317346140938171392.000
2882967150654045696.000
2876426439136849408.000
3313610670230782464.000
3183415104491290112.000
1719301444778836992.000
1758955413858473728.000
1269175989023448576.000
1561948612604287488.000
1565932729762459648.000
2320660795245899776.000
5172813603441638400.000
2955316046326106112.000
2659400285121298944.000
2371658867481430016.000
2943624127911694848.000
1760720403547692800.000
2195305925974979328.000
5008953621505648640.000
5851878583029116928.000
4360569677651424256.000
2308940558861615104.000
2437485611579447808.000
3132867793113460224.000
1773494120744002304.000
945222928888150400.000
1014764557179547648.000
521934314951518272.000
523655539663014720.000
415715077694255488.000
225033455907210144.000
121841075382756352.000
136425657018266608.000
118958769006754144.000
149816434073205376.000
231696725011819136.000
269865227831961952.000
218188176235902304.000
480900086492664384.000
405793170394969280.000
486750613521270528.000
563797514019070464.000
388069951932040896.000
525854334110595648.000
690328635271007872.000
1479338748777765120.000
1803378933213895168.000
2724675761935490560.000
1474397269628305152.000
1231674474783148544.000
2730355196985265152.000
1580458406468262400.000
1607557573710361088.000
1793666509813804544.000
920951870051179776.000
479003765060451968.000
490647099980177792.000
559719980519395520.000
510268194781882752.000
565816694336426752.000
410542694481078720.000
215455403928351200.000
453226997028729856.000
510423530622986304.000
535873449762360000.000
533022614495817664.000
732606075409373440.000
381864189270624576.000
467147152952431744.000
254285952523909504.000
214446159539982624.000
118487194528464816.000
135887761438066832.000
283930578864302336.000
446861593937008384.000
439758361597698304.000
221885050079941120.000
482814705746860800.000
388247707673812480.000
535212325577977728.000
290127328929341696.000
439873908644834304.000
933890001076725760.000
532056048570111168.000
789186133050305664.000
880865839315749504.000
508885778189606208.000
440575489340736000.000
244281407328944832.000
311340335045957824.000
274294181791622880.000
142821326143456448.000
78876400875288448.000
157075854453649920.000
252508215566445952.000
153972576762578496.000
128399268590349664.000
74646673055201872.000
154547745443155168.000
233232438041682432.000
125881386150185504.000
169107184729721600.000
171783938890855776.000
129237013479425776.000
135918496846052592.000
147640989271353088.000
303623086791846400.000
165911625177553216.000
116682704311831104.000
251352867344247360.000
307056944363922240.000
211890978778279808.000
453517703669153152.000
274484809224404352.000
144484816686000032.000
83278943379229376.000
80885537900943456.000
96956891031018912.000
50420322889292496.000
38236197597585776.000
47777530223733784.000
43746351527506152.000
42454450052112648.000
24015600972923684.000
38220938002075240.000
94743641042846128.000
144266368188612544.000
147981456253303328.000
213671532042775872.000
120366581901051760.000
120667022940376016.000
254404507888837760.000
304573318944591296.000
253482101976984160.000
127305546206357168.000
73354215926010784.000
40867051059860952.000
46127401834316520.000
51072578082546320.000
37962179483841680.000
42438681400743384.000
23103831762196116.000
28642782827590708.000
23603401600758268.000
29821979002198104.000
15251218565225006.000
13448147880387992.000
8085922445187948.000
7648415954643303.000
6490495939763739.000
3499094894760610.500
3701874114142837.500
8919345310592456.000
6258579457637339.000
16562508442777520.000
23115462527541084.000
20778759749613804.000
25091020416032240.000
21476437263682080.000
26142335844206032.000
22895634765618056.000
47017747906546616.000
52453970203296200.000
27013811147740072.000
37322926187882744.000
96009776730766512.000
73010690116869632.000
70254719734838832.000
80917145887341280.000
77387540801902224.000
94967830868177312.000
95930566259287600.000
49097441832517752.000
44633999681120456.000
22912822566034348.000
20738236737287312.000
20961639193003492.000
25680572848901320.000
14393314081340664.000
8201524710307399.000
13087562551183300.000
7180143724841715.000
4161978898845959.000
6239477506410678.000
9137577879641512.000
7836191622646869.000
15546417232904842.000
13720891484023926.000
13780233516663164.000
7213007228335371.000
3661873397360967.000
7367121584153727.000
6738787894737250.000
3830507343842799.000
5031124872786402.000
4735666922592080.000
2620591788579185.000
4016395202099960.500
3501003451631139.500
2095080882049738.500
5012384812653608.000
4502487612853200.000
6187748516047216.000
8582266872635092.000
14021819636399382.000
28834325867858076.000
20603852409615740.000
20748247054385460.000
23892207892635768.000
27140834703868872.000
30064795242131860.000
26600664558848380.000
13729944051225306.000
27381021636147956.000
26109614719306680.000
38653949009322264.000
90973777732286928.000
47313592382261400.000
70996124470481496.000
40293934978362216.000
22126265525892984.000
21449158452395096.000
20031560910861084.000
21362970897819356.000
12866596902415620.000
7798823090537233.000
6667009458736458.000
6397974203290660.000
3596130661478061.000
8229608492030710.000
11616974282910562.000
15026129916768530.000
8849008509649773.000
5065650691837278.000
6572918538274191.000
14625807266177306.000
15631184541480534.000
11902888848671406.000
6580190984604192.000
8792162644197834.000
4943419079024804.000
7480234050826820.000
6644570092520878.000
4100388285972602.000
5014032093825315.000
7615006530614282.000
6627902555404744.000
6312478281521831.000
16549033918794996.000
13358656129562804.000
27510536302676868.000
27432543807002052.000
14008620443807820.000
7346627526593515.000
9145115654105316.000
7637792542211043.000
12245489975169830.000
13646268751163552.000
8303083974435463.000
9155608356471520.000
7844475340686486.000
8876973732997102.000
7298543579707482.000
7474508904944792.000
4370366256009265.000
2571349904121664.000
1404944368192851.000
1404224063605117.750
1084053131876373.375
2364372752095324.500
2816003258925553.000
2752897163123243.500
4162671955374058.000
3462975507531130.500
7419809558513546.000
11310079431019652.000
11117544074366386.000
14012171354658786.000
13501793261410708.000
21532615806400732.000
27190610808303228.000
41304642395396280.000
45129099407006984.000
27403211837912680.000
15685360317881490.000
9157088985027390.000
7656311372415410.000
8647261779746178.000
13202929863729856.000
12624853386555650.000
11820570682782960.000
14863631800443762.000
22407678689036532.000
21237513523129748.000
26328363270865980.000
26755515320174952.000
28460405098261556.000
22478919584573768.000
25328221634749188.000
37981631049324024.000
46958938292472000.000
28322052265696276.000
22253815943154936.000
11146627978321198.000
16002705075342254.000
12382899565248104.000
6420808021153229.000
15126062539571958.000
12568549290860102.000
15362019322245976.000
9033408425264238.000
4696837675305857.000
4847242960517581.000
3961006270315757.500
8093002060782089.000
4092505601923206.000
2338387761645544.500
2437556036171214.000
1963938825724867.250
4959603094856455.000
6693671030164629.000
16567640344982552.000
24664797030561756.000
24585521180542804.000
52356665275995296.000
79799902403053392.000
44606934008236056.000
90921147252817600.000
139457448706048592.000
158288585657300768.000
172727694861531648.000
96218863049408160.000
88948362030458896.000
136636415816548288.000
169961749719249056.000
90819259404325952.000
126053798166110736.000
66723061738764488.000
69351238801514104.000
42669226900798032.000
40635990792754832.000
50406282119132448.000
29998826297173536.000
42522527344052432.000
21498955040700360.000
25091918993890324.000
21763278679557624.000
44788626727717552.000
37911991887346192.000
44657536754020648.000
24801629447634624.000
51279400375837672.000
83182137578752272.000
88409731402037024.000
64489635900589304.000
37373146407032416.000
48814607999467816.000
40307444519884896.000
41640622010205800.000
52849183726802072.000
48502004911291544.000
26649947992111084.000
22805131062813228.000
20604937687194072.000
19915584283639192.000
51627347252637896.000
53216159098469104.000
69577195991528928.000
83741623550502272.000
66918565740578376.000
37599387480712576.000
79589521109906752.000
87560428651717648.000
72611871725934224.000
40914779359811880.000
52146042440220120.000
75385889269863760.000
95859747108284224.000
158224849639767264.000
140171893469479440.000
70856887981820232.000
96257658610742944.000
122147380952469936.000
274123613487147392.000
546169557808846784.000
802413920118579200.000
429016458254186112.000
549998970218510400.000
391160547275621312.000
873973699078027008.000
893730113922718720.000
741259534085092480.000
401500629220488896.000
396780756896236288.000
237478038572590048.000
226960575625327488.000
217828157576796064.000
310165076975085504.000
166892578837203200.000
122922814872433984.000
156633388731955488.000
211413338987851488.000
313477051422152448.000
408361052830131840.000
226818843808983200.000
134300204435455152.000
277103769328932416.000
165087539255846144.000
86338019219638000.000
76546495749992608.000
72785946498457648.000
158365242209977568.000
165215403864407136.000
121408524212829616.000
146125782280750816.000
289336556368462080.000
409360680920884480.000
931258509117133824.000
532950753865297216.000
400489349602024704.000
225990101004311136.000
131076358080100880.000
166203450023978272.000
165987408663098176.000
148682701696555232.000
170118678919313472.000
269002698147409376.000
157901653161871104.000
125771021183155696.000
166428461596934144.000
129660934862819824.000
289264109357922432.000
391438927125898944.000
461891860144704128.000
533329450416980928.000
504879393696672512.000
290269850909889792.000
281289878302239488.000
276786252114420096.000
425891847073999296.000
429055909590307712.000
250242973341123008.000
568225973586851840.000
495234356228957760.000
996599984185752448.000
777557049609559424.000
399818547339235136.000
217499699555577408.000
133156003645708240.000
70042946530651232.000
66172246543122464.000
84881147969064544.000
94048110946137712.000
124964089255667600.000
163933352734312736.000
268354194793207040.000
147087753640216160.000
85310653237244544.000
78046404396721776.000
43647021729974048.000
22482270416406888.000
49291631074595496.000
28585542709244236.000
27396527502316536.000
27487884271627448.000
14763941216406966.000
23988117238039784.000
14606911382742316.000
8699994814931455.000
5001338019494309.000
7141574585973122.000
8520706976155116.000
4577423134551382.000
2644880412675382.000
4202977294870270.500
2518487729420187.000
1906396672074853.000
2183677080265104.250
1260243205196198.750
738122782265728.500
695196001599684.250
404579332720353.812
461491523129316.375
235851593536625.312
119941437626547.703
68764649478937.977
74027643466298.125
60097635065429.062
81004372237290.766
62832726092367.602
66907944571430.234
34013139245997.598
32592141889025.527
66923406895451.391
149426346858265.469
198960122506118.781
440860210881565.062
486949328686722.375
601517356910759.375
339910821653160.250
191258039010127.125
236276275766341.156
204459567262179.375
113779772032203.453
125736898124741.156
116509135093005.734
68072561222240.648
63653978376732.758
145426850149930.688
124719877659855.406
249959816196267.594
144485274986709.094
236700098070181.625
196121070047625.875
100325415605800.875
60535057299944.789
34963551462713.836
18811063394199.023
41388986656580.266
21347652078977.859
43875881123381.602
41849844064855.719
45992636659292.766
62865623059277.188
77014444617630.172
68849047109269.594
75842313724210.438
73596815165684.172
42171402373949.656
37806688012865.664
19717526724238.031
11963281438620.043
6266759417409.646
7099157743513.308
6162114890628.851
12572381983700.117
20339215173417.828
32457771323471.027
31820702254979.914
17863009622319.879
18242585024571.938
46111454042036.953
23651967860774.535
18012088760107.848
22753588379298.547
18631685728944.340
17441851787966.475
45283171988639.930
56026631002392.500
144914520069033.438
148551266004515.812
77213181771829.922
45298629810626.883
37481028567449.148
20353019178418.871
23476887553294.344
32960549302986.777
84220907499832.406
107144712787061.719
115491645901264.531
256226894573474.031
150351785874499.125
225183524669042.812
466719748942550.500
588847541982820.375
1274928134569396.250
1437151100043153.250
1457499266052233.250
2319113670518876.500
3634667693779763.000
1986278489302186.250
2219111661161723.000
4541430260886417.000
7220867359193853.000
4204813695122370.000
4364477094570961.500
3501682544112028.500
2167417531544505.750
4423666724923396.500
4507353363548095.000
4472431105859855.000
7109509492940859.000
4330537568204473.000
4134636876543071.500
3993927127349880.500
3849534638717963.000
4038230061149474.500
2345522321927316.000
1920861589489765.750
2281092560486691.000
4668389081740752.000
4272893799113405.000
8811388928466519.000
7897598332310282.000
6836282968705757.000
7798068902887346.000
6190183144153165.000
7445359489546730.000
8288563582080150.000
12780553838268650.000
12035782668724940.000
15413181597424570.000
8697392243913454.000
12687436908819038.000
26618787246588096.000
26546936878785396.000
25709286316797004.000
25978071318167664.000
14495435310720692.000
13122545876221624.000
15557842268680710.000
24187235963669988.000
12462361530979286.000
15204222408716280.000
20768072134597732.000
45305267084549560.000
71352392003762976.000
169321443417709536.000
119842839490491024.000
296769744376912640.000
172448182902649824.000
161296832247625824.000
127035592513384064.000
170999882655441312.000
96387053278595216.000
74634207550889664.000
65641300346163224.000
133983627484784224.000
121774991839134800.000
145075102452395744.000
293412633621983808.000
406038315430634112.000
379277426184497984.000
481477189168202432.000
392415070276716672.000
527187132028481728.000
471472010715794944.000
246521393907127360.000
265201932497502592.000
541171571716891840.000
822787969332715520.000
715545011837119744.000
1786561657892655872.000
1311040328300239872.000
798839914726659456.000
399040987799342336.000
865238490806169216.000
1002967304626288640.000
556264430985033920.000
493863472360040640.000
463387478561774784.000
684317973426834816.000
1782112947776585728.000
936909338365473792.000
1239083514809206272.000
745745236951104512.000
399492695397427584.000
496939232843185856.000
408553315175969472.000
1006653254360569088.000
862416034557287552.000
910830276959540736.000
535273116112701504.000
421062516098339584.000
563348349493557248.000
461129936117350592.000
553627944648617152.000
868499537532923136.000
709473265363142784.000
968621159813059456.000
914221477937957632.000
1024197403698077568.000
703180283743291904.000
900447245309829888.000
1368925830110556416.000
1494538518425845248.000
1767021068891896832.000
2471055478822997504.000
1406592613975347456.000
3228419461690025472.000
4610570595448143872.000
2353788738594477056.000
4886393742744466432.000
10221945963104509952.000
10227845074679990272.000
10570830215849150464.000
15970660876749631488.000
33868373959352668160.000
18182666329451890688.000
14821808154574927872.000
18480878696214261760.000
25285054991081447424.000
31485447413325930496.000
26246503480613253120.000
15578885424342284288.000
18323068506633930752.000
15480349387705370624.000
7872756018920432640.000
4808768460074254336.000
5661883602696302592.000
8277272443539847168.000
10709152598782488576.000
15279165620182628352.000
7832331204680332288.000
4557065241143608320.000
4440205918059090944.000
7114171110739005440.000
18638989129265491968.000
28890661080148656128.000
33968765205427240960.000
28725158044138033152.000
33443032474631565312.000
49681359169681735680.000
24947938621892784128.000
30323982871345307648.000
17421825491999332352.000
13571961992623773696.000
8232218436549513216.000
9649597818719770624.000
7447120243432750080.000
18778120295843586048.000
27954898159269711872.000
33705661364665397248.000
26611359478870781952.000
24535654761499013120.000
33267643056803762176.000
26378420335078522880.000
34204241017575501824.000
33335703184190808064.000
23463641454210015232.000
34524409980105703424.000
26650343421230641152.000
42337693307565867008.000
61382415852245819392.000
49929555619833413632.000
25982581626286497792.000
14224604274960078848.000
15278510047184171008.000
23074717475095756800.000
26995429603070963712.000
33606722749130956800.000
25728411831628005376.000
33149586218866552832.000
25368077636431814656.000
23604391819545063424.000
58265504872106328064.000
29771112492417499136.000
15326864042333546496.000
30880506397582315520.000
15810271413599176704.000
15109878174123057152.000
18736748638240636928.000
9557177669043810304.000
13775392641398065152.000
7704907767612469248.000
7963037354245143552.000
19170998845252911104.000
10324353356996454400.000
8438180162651479040.000
5031823384596802560.000
4035553755074609664.000
8505620999581932544.000
17857465858608771072.000
9269335692886366208.000
4979829408929879040.000
5939094733944655872.000
5064795719206008832.000
5860001027258032128.000
4675559939644296192.000
5309094377942676480.000
10710028734454624256.000
7828277784452874240.000
9229172522944929792.000
7514110306660024320.000
4129238119055033344.000
4051047771728057856.000
2471424271480565760.000
1409039706409324032.000
1463508476293652736.000
1248464490681288704.000
682875019141435008.000
1593073300204670720.000
1240182907396434176.000
715961467251041408.000
1578980859950556416.000
3227774551687822848.000
2355581806632788992.000
1445068457231364096.000
3315492577345603584.000
1783325497086567680.000
987787676353224832.000
551671178046011840.000
451624362952176960.000
376407800091470720.000
939182743510415104.000
506495981398688896.000
422054182794693056.000
987959395995562112.000
1564820093915532288.000
1251527102233820672.000
1523615631257987840.000
875834963814054272.000
479617181683548416.000
687275766969926144.000
1544969033564003328.000
1429363951692887040.000
872329632656809728.000
962259175926845952.000
543729503554174464.000
306993778743339456.000
156544243949658752.000
141707407846717616.000
164980199131227200.000
228220024251975456.000
128600468186467440.000
121684635370813360.000
169815621543669312.000
217260385061028480.000
288341284978126656.000
235206004792154784.000
139924728014579248.000
165052790221321760.000
145435509016523840.000
76472142967813056.000
166994070061562464.000
96134384629598704.000
70523541191327920.000
89739656755598528.000
82468742156315296.000
72021815233858112.000
90091319887312768.000
48811279538575800.000
39272365340380320.000
53756228596893008.000
37032681857286480.000
37066947749916752.000
90305727250525744.000
116568467735836688.000
67629101440242560.000
78407899104345152.000
69797105027516160.000
40079675008934440.000
45261716715153800.000
24085141136382228.000
50606515164111816.000
39970590349661120.000
90212831862726016.000
89395951127697536.000
70319629797607096.000
169797993411943968.000
240989205075739552.000
123705549592879360.000
130805192491864848.000
74955997907769408.000
69641844800547504.000
141170716351595408.000
79740832307227968.000
172132792905870976.000
133604791324809584.000
125112405053235232.000
153970126931038368.000
138765016347856624.000
75170704528693824.000
163457139112843712.000
150436808616876640.000
135908967660863280.000
162107547145468576.000
118669347407406800.000
163469107902958912.000
129031865367598176.000
76092743643231120.000
46179533555993776.000
27162014834225652.000
14734616229102078.000
14942426859119052.000
14078396914742588.000
13021857430826668.000
13323817483495362.000
28714279996367712.000
20465803956687292.000
53932287098094456.000
42330747470158392.000
22588852741930512.000
23505233729562708.000
26800414952766508.000
23734947933135540.000
13344524429789960.000
12694143221701922.000
14959879886514166.000
21648121577441348.000
50786506496665704.000
67808180202909264.000
84750912993754960.000
71688243891573664.000
38187747470039912.000
78311570426330000.000
69669298467699408.000
40532798225895208.000
52925701130587080.000
39187876755579344.000
52668475363154312.000
50951798973652016.000
73666083368648880.000
39619771837056280.000
44154634634341440.000
48489807888859168.000
78753191522589856.000
42651139114935920.000
46544396876876680.000
70710018109376632.000
144782480819904608.000
73551617990704144.000
44265037343613096.000
26532005905370084.000
25342718674619252.000
25237922151408000.000
14333751087129006.000
11325536495903518.000
5870600913917087.000
3296814825604623.500
3313738211285017.500
4819552886947458.000
4278591558071953.500
6813903488684457.000
3828502373272355.000
8042970479481977.000
6590041721822239.000
8255355790206514.000
10394861387609924.000
5818169219007855.000
3285417507970214.000
3630879406343079.500
2128465880464039.750
2745741511150223.500
1474224115453749.500
2008327298568353.250
2336276999622729.500
1358892252972785.750
1404397492372572.500
842389186189617.750
566246023184822.625
1193322853289234.750
1050747268535539.000
2547705495346478.000
2173265359186591.750
1105745676105669.125
1262930206108111.500
1306706329662157.500
1441245893244493.000
1145943316728120.250
696730574979079.750
725785585537727.125
1144831510297732.500
2716783469617552.000
3504284448742531.000
4621904558871709.000
7034906690788172.000
8222162043982430.000
7392022390592027.000
8072725939249749.000
4177339235572601.000
2318764241101836.500
2391995151573718.500
1208289655762637.750
1132479406579618.000
1378970448361861.250
834771337408365.375
633700077853261.000
389132638266448.375
320199348131666.812
692915912954758.125
1030677795215297.750
1123472822503896.000
1236893907939904.000
2517693921098842.000
2387064997376607.500
3206112109506443.000
3522655522755681.000
4331797362980563.500
2554002933841037.500
1321068813081980.250
761028978793664.750
736310452493067.375
1038180490559919.000
1194729466144982.250
1444003476641298.000
1443006470893916.000
1417494338381705.500
1274893684505993.000
1464283022264457.750
845118972384751.500
631754400754833.625
748020136179838.125
386782376360230.625
418175877106671.750
249823351523136.000
171389572835501.000
355572419456324.250
456190361843824.938
253847121418128.312
187026184599262.594
419573539560337.625
237580346013926.781
376334206128241.188
315871317416773.375
779823115952503.125
440370135560938.750
465331959870023.625
596605620113031.875
715952013784919.625
360061958194156.125
353744798947495.375
347929202170189.312
370269644563947.375
388572380664041.938
792282147361764.875
1290532819335120.500
1419010988709440.500
2253145372022292.000
3487965320181813.000
8685056231730432.000
5939703451883711.000
6756665504323649.000
7891095853467231.000
11192668568260356.000
5873282293347746.000
8823407441644037.000
4851496647611019.000
3966808374482499.500
3799648537846054.500
8451618896051410.000
13049574727802934.000
27507119379733996.000
15259111289315836.000
23192920971405600.000
11589892200035646.000
15135949955670432.000
14767447298128608.000
21513987415478936.000
51497014642949352.000
43043728913696960.000
38480092018247568.000
48583489499241152.000
38553343566250408.000
49734612730307864.000
74089712543946208.000
93526765036463952.000
92877441081023312.000
81634937787556096.000
42859594706608488.000
68096014093480248.000
74720703078170656.000
66708821680558792.000
82049614117081472.000
46414301044859512.000
36308188811340136.000
18722974986359748.000
24520961699648944.000
13623524827114996.000
21389459094389184.000
20084746475989212.000
44221233301378792.000
45179050160398808.000
60633825560348336.000
134439593367100144.000
159970849238534784.000
255356536829636384.000
136719818232384480.000
145790450956930496.000
74279468028628016.000
43903731296952384.000
35329464320831920.000
75123394487820304.000
115668177696324240.000
135915508379625616.000
132559304008843216.000
148968625754167904.000
139812938737748176.000
74500810306248304.000
116989149120769408.000
126773039089726304.000
282603649273281152.000
413035351485091008.000
224906427477417216.000
198493443569898464.000
112780623140938048.000
266425786561074848.000
288587398386861376.000
254427366318396672.000
136258164533585760.000
299292364336870272.000
251293531897350976.000
223638110259129536.000
224882888375720416.000
533703503526554176.000
865057769204787200.000
733091219765560832.000
927244536278557312.000
724701654038189312.000
740583145081152128.000
422790498748762880.000
535161019596956736.000
508670742479742464.000
419819101322443968.000
480553931152338432.000
392915574627607872.000
366930060730521216.000
870697973960034048.000
969634961717793664.000
807929638299666304.000
1261382176907373056.000
3171060793836262912.000
3113242121955712000.000
4696384123191306240.000
6882555635747559424.000
9288201233234995200.000
5315483369182275584.000
2760454361596469248.000
2398856354297367040.000
2715787935950329344.000
1457437834177241856.000
1150593887835080320.000
1431113169481604864.000
854419079705336576.000
750285844440787200.000
1535636584788581888.000
1696920107590481920.000
1615993163982232832.000
1202441419146288896.000
2776810030361947136.000
1602976626110753792.000
863845384309292928.000
671610046611415424.000
1467462847427934208.000
1264660913088867840.000
2926183970332788224.000
1485490565007574528.000
2178936113066455040.000
2830229280250098688.000
1633637284292922112.000
1346793709252740864.000
741376880136753152.000
840030681435747968.000
675760167771375232.000
983011121369821312.000
511633395703277824.000
303059448281986176.000
415780338603513728.000
207596528735016320.000
438624931102659584.000
522723290347789760.000
710449946355576960.000
399657310309491392.000
533547872381058752.000
532626540707375104.000
282155911891106880.000
300275119964419584.000
246652908317933088.000
495870456657435392.000
268778399032468224.000
257388500284888096.000
136239113885957632.000
126455529315747984.000
148708696903705984.000
127822305077704480.000
153436357712636704.000
134059287242797552.000
271210272069384352.000
272802548485732544.000
396416142013475904.000
361016113385721216.000
485600760176557376.000
532499993247315328.000
470617316758414528.000
276633430567604352.000
392509971825677952.000
539393305487296576.000
722229267950461056.000
1575235895527020800.000
1752710585449342464.000
1641340554476875520.000
1216435657221749760.000
681812124161527680.000
750716827907799296.000
858541901978813056.000
1302929822460650752.000
756722869389825792.000
1543313271367531264.000
826263110753056512.000
874268269482224640.000
745771143557028864.000
965318301788727552.000
698684418976907648.000
1517376773601663744.000
1707827352430598144.000
976620422983501568.000
763999085237445760.000
453571302891222976.000
522699922173777536.000
759817927609077760.000
770998716492119552.000
976850752079516416.000
959535663810172672.000
487546918914849088.000
438781193864440768.000
484753837251885952.000
742843341917984000.000
412736975967611776.000
494033811323398656.000
399694258104981504.000
467575032661069632.000
525384603203913344.000
740063089433507712.000
880025164663643904.000
719412231339560064.000
807705763018892032.000
1659274472916129280.000
2136791951555918848.000
3065330358990573056.000
2211189891157946368.000
5477105589707978752.000
3149226664332455424.000
2179955402528724736.000
5618081865049793536.000
3247532434668836352.000
2247938490054781440.000
1313697184367073536.000
2886807126117736960.000
2563106924534844416.000
2239520513917425920.000
5763626996589448192.000
9317370213313746944.000
5614783149755215872.000
2885215296232949248.000
2227579503714867968.000
2554655585979310080.000
2472999442787982848.000
2996916676986472960.000
2646355179124199424.000
2544660912598002176.000
1313487644454031872.000
1263797819418980352.000
1564875945698826752.000
869483245639471616.000
752077652636328320.000
715475655426656768.000
1771810067136740352.000
1435964408637153024.000
2150981648429316864.000
1218051056912020224.000
1713693839833664768.000
881741327055271808.000
1296911085041397248.000
1678784294399638016.000
1733240727760828416.000
2834430412652173312.000
2583390011701378560.000
1524182324858838016.000
1226101317998324736.000
3209624306282925056.000
3136901817006382080.000
4210429944478493696.000
10615445667506034688.000
5778485018029379584.000
3271016918474733568.000
2647713145903375872.000
2308290321482163200.000
1247005019594433792.000
2794036817724943872.000
2347056073306185728.000
5821579365451577344.000
4868693176748264448.000
5541275009558012928.000
3224482917653218816.000
3933799746172382208.000
5359765466536397824.000
4025070277512436224.000
5552238550894699520.000
3061941836143325696.000
2616437775511298560.000
5250196877716490240.000
2854434197918448128.000
2953384470621696000.000
3064599512229552640.000
2752395333280441344.000
3217373922942171648.000
4477783624799201280.000
5490226064686782464.000
7766330843447425024.000
8371400648903101440.000
4898262292390282240.000
2875333500938356224.000
2241052405383686400.000
2521825295377915904.000
3251527471021431296.000
5284435327051060224.000
3183278208096084992.000
3069603217716086784.000
1568712351196675840.000
941928329947307392.000
870852387194671872.000
487672205642452864.000
446789585916887488.000
999230829832494336.000
530395131900331392.000
280735605413914176.000
168993836289488320.000
266615433986134464.000
212703988194432000.000
276129364456182176.000
222377661526896352.000
116603836929577712.000
