39.449
63.811
68.418
73.407
67.626
106.838
234.233
256.104
375.339
766.934
711.215
656.162
1330.435
2046.439
4569.966
9264.451
9051.034
9185.912
13023.862
12467.083
26789.668
24994.508
22589.609
52337.053
68303.835
146428.521
154841.587
227667.847
522210.879
506837.287
499758.139
535152.618
704215.195
1693279.308
1816015.075
1712610.387
1681723.975
3330301.336
5329359.321
5686015.955
8625161.121
9290819.219
10144481.231
16677121.820
15368149.066
23275479.275
60818979.968
55845169.976
86401189.134
183661261.939
177716253.045
287285205.152
608488158.046
656555601.980
813183246.644
1915283029.594
3815210891.727
5720219103.694
9219502791.325
9834130452.436
19577808374.288
40180318239.078
38264483261.935
40054225369.160
50255689280.442
128634616948.021
163901747825.866
383665981808.447
586750855341.011
571965201410.829
1311747566485.130
2080532773267.831
3082110495383.897
7608959207857.567
11176488744865.426
11029797612179.293
17597115067492.617
41894326658545.016
83421401970203.656
84270316911646.188
105040253373196.438
220035687604709.688
342406583327006.062
371047851969185.312
796425740620470.375
798180694859903.625
1251544431803570.750
2534187360402297.500
2669698585164492.000
3893862304585294.000
7858321213632435.000
7553239577653227.000
15141117814397554.000
24842582784723552.000
23789799619791616.000
37562515487748896.000
83916002869167408.000
124663250756504784.000
129012959006055776.000
266679543018182752.000
256702503363614688.000
283229286483670784.000
297403138191397632.000
295812592296613888.000
387967225642947136.000
501369977711295744.000
281226222530041728.000
388542906644083264.000
225782788025997568.000
135617543643844368.000
293946413568835584.000
472090733532143360.000
395294196431265792.000
467656349432809472.000
398795584391507904.000
475378943733729216.000
1015745428188136320.000
1356634358827628544.000
1507792401901794560.000
1408961679669480448.000
705793321192002560.000
1610673255138037760.000
3267675359124336640.000
1710872513274279680.000
949366266034313856.000
568502380824483904.000
568641569719017152.000
305212335872701888.000
221537513968635392.000
475225223471945920.000
455797898213699200.000
943658200387471232.000
496480549608159488.000
430999324331426880.000
1011321527987895296.000
1001455041032931968.000
1298144020322031616.000
1484601160490384128.000
1667887310047665408.000
2699720492142842368.000
3191040922832519168.000
4391978903578980864.000
4393024718902033408.000
2685545213072316416.000
2719663907540094976.000
1618950837320348928.000
1779691110441922304.000
2868232327218490880.000
1502002835528089088.000
785717852369988736.000
770608109815697920.000
457805369075818496.000
385069078710176640.000
841333885986315648.000
707301441766627712.000
396147760662786880.000
241165973747628064.000
268409873498630688.000
231554718751672992.000
223739394840311712.000
136115185745327680.000
80234867846461568.000
75205881356622048.000
162803820968137248.000
84798941811136336.000
95969680707081696.000
75871885821949840.000
38595469372340592.000
23410636427643724.000
23958649454977064.000
13042315401140730.000
15009221232849916.000
8738626446476991.000
6247539538094391.000
8688370203224588.000
12445240285227644.000
15877792434648800.000
14029983915218922.000
8071764205598012.000
13098230769873362.000
7151226016831362.000
9045834973139080.000
5000963296331687.000
6408619836683613.000
3780032609828418.000
3932826443671871.000
4417331155174483.500
2316447580059717.500
4617254907278131.000
2730758571276678.500
1502286280749172.250
2351663196372298.000
2040869991221172.500
2575615387483726.500
2736141257055833.500
1585057065647895.500
1270993322737895.500
1417120051427005.500
1388581419917670.750
1058649166682826.375
2189063816132595.000
1276260158666894.000
1212981879193732.500
1928369187548978.000
2511419132921143.500
1942089682241726.250
4858917985537014.000
2538884644841102.000
5049659143701143.000
6686281632612488.000
3624683240415308.500
4110372038904543.000
3431516890851700.500
2033985531608689.500
2499100716706464.000
2052555778294672.000
1190584500349947.750
608110375662016.250
326132139079845.312
743869053606456.375
1579416238664971.250
841552253041908.500
431691383756357.188
431544927321584.812
596504853153409.375
1206021926919687.000
1268243078810138.750
2627141947166849.000
2205805946756800.000
1950060318963702.750
4782023799909178.000
2707068183785842.500
2608411412952762.500
1495161293266440.000
805665448548266.250
834099099654106.000
483736562825425.688
370697472526183.750
226070461668362.625
185948804809943.062
244540634962185.250
208987246542870.031
197155560857193.469
421540541842473.562
837433259190562.875
767713165224010.500
661081685717378.000
877103037710654.625
1308746531444945.500
2761607033127328.500
4223562163057553.500
6325140768687936.000
3884379470990249.500
4312444193137407.500
3603119469628584.500
8920071592774292.000
13538037668289388.000
7594076503702082.000
8667563697892217.000
11319856834282678.000
11137476805740094.000
25829463552344236.000
51839979972980864.000
41135614167377072.000
87209512350048928.000
97049643313292656.000
54120656404358128.000
82119340287107696.000
76251559392185872.000
82700084003561632.000
78928939645764320.000
41904250471218880.000
85942328623431472.000
49773530442846288.000
26005000340671548.000
15226044090715982.000
8206823780756340.000
4762764368494961.000
7173070391197998.000
3678099261926577.000
8293101165569869.000
6385530165185803.000
15469252675623938.000
14090754518424732.000
13045078845048724.000
29836564739013648.000
22250560283590840.000
21981721343846412.000
11191992414647440.000
12113461983505260.000
24549474092524852.000
14830967354053964.000
8487585860307990.000
5067433038871558.000
4861812560868405.000
4844948779391230.000
3716998215930579.000
2048515210046800.500
5157561633601997.000
3544666903182339.000
2194050249818612.500
2078556023258173.750
2159999512555277.250
2428172701052916.000
1972714998335902.000
2327512072749519.000
2679002977284672.500
2789380063698727.500
1458317251494270.750
814791078248982.875
779067181742399.500
657228102061801.250
344167204840523.938
759017301355954.125
658171792005904.500
395863038171626.938
408878229456937.188
408139559749499.812
847557966658359.125
599285836698592.125
776303496211389.625
763855669339425.375
824784066272052.750
877585886683448.750
680802075522573.500
389688383530613.875
374385508579561.875
191762495168018.219
114290779966810.141
135990271996427.844
104134116487137.500
240680736345960.469
482363242478870.125
713745475670723.375
762955905701988.000
832949757886401.500
777703642060705.000
433841591768974.688
409247955591551.125
209269731206590.562
182611584766249.812
259585095154077.469
272685651154786.406
148409917927641.812
82194893512804.391
77762518516072.953
60456222668070.602
31046951250306.902
41146715498917.805
35709185812917.852
46332274492965.016
25981880546660.789
41908097434141.141
45710261112793.797
41346776475428.555
23906996947547.910
20704691774451.012
20348118827067.992
23253353529317.438
13202304804012.076
12790496224622.891
14095504413806.936
12536748869297.189
10038291488977.688
13912290861848.809
7200978803192.766
7827677729972.096
6923184653362.461
7481581015981.787
10805322854420.270
10663467250247.555
9688353670249.295
13782917670007.074
13534766067172.154
21630342475398.723
43955973043191.484
67241736452848.977
107249121059500.328
148469425402831.781
210304080663856.594
260712548211613.219
200707903418087.406
228521471426110.344
185386850550180.594
462408031112308.125
266545554101796.500
212509385378862.469
440446898764100.938
687748354530037.250
1458262007555559.000
778412034066268.875
811620188872152.250
1193201976165632.250
1264400735540919.250
1164197936781536.250
2768041187786869.500
2361315150064718.000
3544639614175975.500
4073459174549162.000
3517604006083107.000
8856923692946712.000
13062243489674410.000
29416574678310752.000
16196459830376088.000
8820894982200687.000
4939929356358653.000
2605976184911106.000
2809196097943145.000
3538764073801926.500
7492495859789312.000
15269072549275264.000
12700295515575444.000
12472509429074706.000
7351846812623553.000
8716713754715791.000
8542266488963811.000
13234687999864968.000
28345900065980916.000
20388437232598400.000
27396253716339964.000
14865865106035598.000
13716050079361532.000
13439639086562288.000
27308802310393504.000
22118092527253520.000
20681071107471184.000
21948451212232748.000
45706403713980752.000
45811717567091880.000
26980282726299060.000
16172372069638608.000
8608024398614238.000
7355039546150355.000
8429737610171720.000
8329622316888107.000
8893101610130424.000
8384184340661770.000
11532533704325460.000
25053488342426864.000
49992803853924528.000
25467784339048164.000
13615244170145902.000
14254225356957800.000
29102709925734556.000
28404858250760724.000
29371535931184744.000
22913479198899720.000
49462234054448592.000
26758277315584024.000
22339916966226804.000
27826705112693228.000
26582729809245576.000
20417573817429252.000
12268938116078738.000
16420111837341336.000
15160613270746274.000
9052178577745936.000
11122210354522690.000
15968108038928710.000
15270173768140246.000
15063537107008886.000
12720148841098030.000
7387543093170939.000
6403077031789947.000
9176595564669122.000
11263113101970060.000
24478555770384356.000
12650922776450234.000
29949696086069796.000
15434415866773006.000
22011309668644916.000
49344581639211928.000
40320193117992968.000
36865085928330216.000
49400866228724344.000
27241326071477124.000
22372790492115088.000
25598092190090692.000
22485981688495744.000
27395182394042256.000
20485870500333760.000
24860555344290016.000
21710430846272568.000
29928611931908532.000
15397667883690316.000
21100777731791784.000
11788773118476726.000
15885108401930226.000
11678496787841566.000
14559903614216242.000
23204133818472052.000
49665110432339872.000
43273316970396368.000
87831446296082496.000
129784915371188272.000
77307456833144288.000
87523515843765952.000
78486364966090544.000
86585895921687872.000
76581639636684032.000
38373214801311872.000
22002918973482176.000
30014668083075828.000
45157218711897888.000
90766388693446784.000
91915617264861792.000
150059123366802944.000
232298805411439616.000
119667704084299168.000
133741275079660416.000
170491598016227584.000
148534838113972512.000
148656501468429824.000
220030067674509312.000
123499398957371984.000
314138120141033536.000
172669778918972608.000
156831432862956768.000
119358719965058272.000
150947699987866496.000
216457533191813888.000
518034509014782208.000
532085415763142400.000
378913330455118080.000
493976056124198528.000
508579720737829440.000
768529348023344128.000
455088783067925376.000
419358167353515968.000
943806674953841664.000
950969991927520256.000
1242762031071382528.000
1774000537420166144.000
1420964537490277888.000
1478281452832586240.000
1367371779453001472.000
1258627043960395008.000
1471731542345915136.000
1842090738206378240.000
1573378856354424832.000
2519100353021898752.000
2380997670234993152.000
5829641023510033408.000
4506785533066879488.000
9789604370925512704.000
10052368600190748672.000
5111759910663868416.000
4619618847138676736.000
10572896118448220160.000
9262392465320560640.000
5446913458364612608.000
7239064270841871360.000
9066512412776613888.000
9145420690506215424.000
8117180414017314816.000
17639748531366944768.000
18886426237688582144.000
13068041002933833728.000
7713290983828746240.000
16254710350534293504.000
14747244175070464000.000
7711052668468914176.000
15509185933754554368.000
8055955057409716224.000
4367447924172936192.000
4955030558001748992.000
2546982017689416704.000
2793400062231284224.000
1426441204719756800.000
1407521776043223808.000
1678676503541903616.000
995833822844454144.000
549266796869229632.000
521480466918781056.000
288299204680918208.000
268743309208203520.000
141692899602095392.000
84998416852509216.000
65731663633932504.000
81913913489820752.000
48162085952089800.000
40704280323690008.000
23922872857882316.000
28959256284907668.000
39008182296896968.000
50430175276576752.000
50304000426048040.000
30067810433627948.000
26057035252589188.000
15256701012853050.000
11363349648647532.000
14207550984203884.000
8431010979825199.000
6924928147429997.000
4126973308944139.000
6488769436762058.000
3975096130906524.500
2067190982884743.000
2311373100570222.000
1242013436452876.000
1218859477692084.750
2446818615290794.000
2016776774989902.000
2735781885548818.000
2021655833491991.750
2241646100872462.500
2639152966025662.500
1433613627757015.500
1436267826413870.750
1127204970537524.250
599106389107558.750
345903046331816.625
714119789311999.375
808938629299066.375
1314624365277058.500
755619195720353.625
1196734877751199.250
632485816757180.125
367840334601059.438
211087380902286.656
259266566607307.594
151161563383681.406
141938022982414.969
123617741960486.422
102745455056134.297
215218825601354.938
123983441202356.328
133985345782417.797
214081599962811.531
256236308299818.969
377854516196463.812
460053792426555.312
416323278960197.688
211524828202474.469
461379162199238.188
464103405401559.812
469479159798300.375
377371100307702.562
490609488859169.438
260157884172036.406
140425382823273.938
144169243493045.156
76010358299180.922
44492277028325.977
32279128365635.902
70720864161909.219
73230105986873.078
57922225818099.672
31942498428103.438
19451992774436.090
18108202415951.688
24105780915963.910
19276780720053.645
46205872439601.438
34331630858451.387
42325574862439.234
44576052158227.586
31917814530341.316
83143746320935.734
62974446760793.461
56691917440870.750
119870322571499.422
100723032231169.672
267582796270730.219
259154211493150.594
138582651963119.969
206562733193628.094
459436213759999.375
652723421128713.750
1579936565640075.750
1424182323091943.000
1984871485798365.750
4860097325060672.000
4643695503822318.000
4311413265354504.500
6330965729846823.000
6448510804296564.000
14284699222740170.000
8020655790703339.000
7153154158287291.000
6995719854395636.000
3530781492162512.000
3878775885332207.500
2305195266435246.000
2639694265746624.000
1541393662649016.000
2017035677971882.000
4368084642220389.500
2528415496204144.500
3531675573700239.500
4665836586501702.000
5132769781599869.000
6505421036627586.000
8308890218973597.000
8526529727576543.000
6408778760948175.000
14195184524458316.000
28455277073134116.000
16631794040214190.000
23896798806834472.000
25936174324424520.000
20453310824610076.000
12420336311460848.000
7558107773636592.000
4539217140956901.000
8956644609280921.000
7406179440762347.000
16230799817076708.000
20060910841266060.000
22535038305383100.000
21059557214170056.000
46965124791347952.000
26501875046867468.000
19945562238205696.000
11868606490271124.000
29823350997324520.000
25069237640731828.000
22942566725402360.000
50934353406711480.000
71173669320156792.000
96805856307066912.000
137988103732407936.000
277649549100420416.000
153435130399181600.000
127226909826904128.000
146406332041576960.000
220791646418407232.000
210798213023227296.000
313124092618937280.000
252849324996777056.000
288692879302459648.000
231878116161224832.000
309913749426640704.000
381813255823807360.000
236216382872032000.000
551537456951825984.000
897417104422354944.000
707869416216289152.000
992679540461323392.000
1508732789415399168.000
1591993930792934912.000
3297847924302609408.000
3301110889616271360.000
4955763004360548352.000
2630413367178679296.000
1389942452929008384.000
1511937848390873856.000
915167455787801088.000
834361847183191424.000
856431398828887168.000
1223010550693121536.000
1705261049889952768.000
923808654399793152.000
708850905303261696.000
420851859809374720.000
561693801650560960.000
843780172659507072.000
431040429647961792.000
245222317758204256.000
142929353638266880.000
149860691794519392.000
168999329152843712.000
151286489919992192.000
128450768078910688.000
116240968135585936.000
125972088771243504.000
140635965608090448.000
79032149830811904.000
40492635979750064.000
22610188622917628.000
26095448576203016.000
22493710235619456.000
26543114750295500.000
28631301529693088.000
46427892584065248.000
52375973990738248.000
48865350260919040.000
38961779493231344.000
43111940179098464.000
21938892540491696.000
46804081198224928.000
48138704850973680.000
95025510755069680.000
92198829851501968.000
79831814907503104.000
81826539824813952.000
46823178642959392.000
51349463398763872.000
84024638451991312.000
94351716377572720.000
77179884421826576.000
69217950193027968.000
80940507624930560.000
72834723126955392.000
67601425413989288.000
37500583161991800.000
52385496456745456.000
45349823350945568.000
91756210549154016.000
75068250842096032.000
151755806510201376.000
173326493306786880.000
167342506043441696.000
272853344238869152.000
423786236256545856.000
536567865983393856.000
489431697914096384.000
393166859159273664.000
486025733343850304.000
274958966696128640.000
541875497577697024.000
488907862734791488.000
1009437490436000512.000
542342965333822976.000
805449029355400576.000
465770618898542016.000
397176012013633984.000
1015278039130038912.000
897018907673475840.000
749880308990940416.000
899045752998896768.000
769541711571016704.000
943141972285832064.000
1385406372833364480.000
1739791982846457600.000
1015463619753434496.000
686336341639059072.000
1529472613800615424.000
1232506484697099264.000
1395265776977636608.000
695967910445243392.000
1011904011031277568.000
831871323884637696.000
967279312535891456.000
1490925455326519296.000
861406768021631744.000
474370535571472640.000
393763664758774592.000
466408078119059840.000
235918350129079584.000
518409050672069504.000
307290698911976896.000
303043373088754880.000
261833810422510208.000
522082184873186112.000
527695866470436928.000
791486918778334976.000
1697596805512591360.000
2499673007483503616.000
5000931162662602752.000
5735032097656559616.000
3241260518558754816.000
3109850983363918848.000
2332449865356989440.000
4689733162976064512.000
5368439697252717568.000
5940355341731764224.000
9706824965653645312.000
14705288058971686912.000
23518437724762292224.000
55474267917207470080.000
31339300679422746624.000
25786230173126770688.000
13153592546426929152.000
13420345874033440768.000
31487580575525081088.000
25510742948153065472.000
23813982687618166784.000
54112335337839271936.000
53106231317659557888.000
59459868459030126592.000
43150899430152093696.000
53586769768744894464.000
106876710922287218688.000
86006840407299653632.000
49207299818949738496.000
51052680104543404032.000
57685752815647473664.000
54395924228254228480.000
79398798756801462272.000
95594106545477255168.000
150994934434748432384.000
172787540005192499200.000
162366375344149233664.000
95475770784572063744.000
143299648271227060224.000
142237107646076731392.000
167519745069131661312.000
85898444875413929984.000
47831646352525746176.000
55362810415751675904.000
32286043825992192000.000
26413182172447281152.000
29964948897833955328.000
27235393133864124416.000
61110853601901953024.000
32300763194642649088.000
26185621321508646912.000
34623405614277255168.000
25680334449326833664.000
15723021339918796800.000
19036217508178534400.000
18470091177500901376.000
15747840790226429952.000
19160141787483279360.000
17021145618484525056.000
9628988450461724672.000
5613807173325150208.000
3099161431280551424.000
3006018318559829504.000
2601649524205802496.000
3154871328414365696.000
2401484824895545344.000
5207683729145721856.000
5769250386208776192.000
9068872049612188672.000
7573259639944325120.000
9049623732980875264.000
10523670500889669632.000
7429073451382293504.000
4496472175401994752.000
5939798014059495424.000
3203890514829908480.000
2507182271958521856.000
2901612777239792640.000
3026567766244420096.000
1546260779589716992.000
1351396705450604288.000
695025033785402752.000
387055619311027840.000
990363765290521856.000
725101806662469248.000
419082137370136768.000
211696409250005408.000
302689201158478400.000
452311012272701120.000
925895373809146752.000
752164078108696960.000
964227972002321152.000
898500883196598400.000
980651822274507520.000
1461836512071753216.000
3210774686961703424.000
2219558599228995072.000
3265877305988812800.000
3029916074501867008.000
1672034403838489344.000
972891781328951424.000
503104225279166784.000
288456392266638208.000
169959038073792288.000
232506275002285216.000
256795711643567872.000
140904203542297024.000
163607544302328128.000
85876544504713088.000
69743798345714544.000
83286203226794048.000
42852398342525688.000
51539002974770976.000
38079805331062616.000
92427534386301552.000
75167064874064416.000
77538796376045280.000
154653853516169056.000
81725510622626640.000
70604194828794656.000
160003186578589280.000
121891937309923632.000
314900516171817600.000
215783981684906208.000
277875470932038496.000
153022607304855360.000
127282060685037984.000
65423022332159176.000
154535060189953120.000
304532779636654144.000
170600241780806624.000
263451494629127648.000
226775370875554144.000
274863180213758368.000
139990997016720832.000
75840513858314256.000
117876082193395808.000
297154642461032128.000
230864633197333248.000
216398793629598240.000
309792810319223488.000
309936627717735296.000
377226923817338688.000
227754410453004288.000
569027489695523264.000
311822033178277376.000
222518362580438272.000
481803520507704320.000
531995655803370880.000
847841032013501824.000
510621921767758400.000
269368937440047872.000
161980967173746944.000
233621729391963776.000
143595578108850720.000
153641204038080064.000
127267108797240160.000
72242971388946608.000
43253611248225192.000
44201807263118416.000
47692445894291736.000
69971025954304256.000
172655088574386048.000
95817005309361584.000
51460918981993072.000
41191248634342768.000
36211792955043760.000
44745209282534448.000
37672946885121600.000
22587845817301232.000
11715617730334672.000
15752770451907580.000
12700521886377266.000
20111317987963120.000
24562361653989680.000
24413442072258436.000
20006908602712984.000
25233910785448644.000
26402523611020472.000
42919764331902120.000
23304796490653056.000
37175030039221416.000
82259690855379968.000
74333857907970368.000
91661070705487152.000
138097422764420832.000
214060230304591072.000
299349761731790400.000
234247903794170176.000
302158979727038400.000
213408667637739168.000
291337863125264000.000
448329933671120640.000
515244281749894464.000
430740332944316992.000
382896116124375488.000
434538740447829440.000
247504388379859840.000
242138936519179136.000
239022173386961920.000
240562504935154848.000
260263811265978368.000
382190277544095872.000
892768897365524736.000
508159449475476992.000
756428511388206080.000
734425845193038720.000
409832066911871744.000
411151656013174464.000
518963087491969664.000
418284849465337536.000
426088250489475648.000
240156435171012416.000
120759419777440848.000
165657430314306624.000
95302612859410240.000
116277487127739120.000
141353094618815152.000
130506987207837264.000
162678155590462208.000
97305873841382448.000
67409457715784408.000
92664071348124880.000
76464604103191152.000
40526941343892976.000
94874938253682832.000
53325915973134224.000
81807944471124784.000
96795180068849568.000
76405234540646896.000
73646350129615888.000
85698474290692704.000
48484787701723992.000
28577894819115876.000
46482937571499616.000
94363829577852368.000
70100411866215856.000
36657682928961560.000
44038069977338416.000
45125854928112552.000
26288072401975412.000
37420407254250192.000
47633864478785440.000
43496859683717496.000
53795519177335168.000
52605124155778744.000
27758595293124996.000
24981151455215888.000
29026997475862052.000
25529100796295960.000
27560442323809800.000
26945016504225644.000
27278225838317312.000
22411541833144260.000
21953112722560476.000
48576860961783328.000
24922923040083228.000
25902593435011400.000
53013054463557928.000
50868700779900208.000
75747364875861232.000
96709825642192928.000
84818681306933360.000
168867146795439136.000
245519248324385280.000
306542064678405248.000
225586416875345280.000
281681235910753408.000
157379053430061824.000
147603959554365664.000
149918394122932064.000
124598905045052608.000
74454039107559760.000
97228938185106768.000
87687575704357712.000
128756164154731824.000
144121326161508640.000
175683827484415776.000
209347886939489408.000
294540952287309248.000
289296573043602624.000
209928182337984480.000
252755371570325600.000
145479433140209408.000
86266731090267488.000
51224752961074400.000
37919536346508320.000
22987614414285972.000
27295449970275452.000
24426787543915416.000
13627371645229742.000
15849500908639756.000
8658666510529605.000
5101190606403744.000
4055606414419173.500
4627987803051872.000
3581491140843712.500
9089606659621440.000
9268211854914204.000
14947525172014702.000
21542914220455656.000
22903954396642304.000
12800629446277386.000
15060469800389588.000
30097606768353000.000
25679405308073072.000
39900910582223600.000
81330097423258272.000
173073551189256992.000
152926222053674304.000
90256238826333472.000
132798732528693136.000
278365446451679456.000
404960212116344832.000
471039577325654208.000
489615165378411456.000
272987761038884192.000
142761454413459328.000
228162377957826272.000
134417217774394720.000
122625365932123184.000
157717823777484000.000
122699559387518096.000
70019747462875624.000
158885549134823488.000
81614131458712192.000
82012988060554496.000
45214584184761160.000
37392178547555744.000
22313660922791384.000
22597573195229424.000
28237516628223384.000
27478363638853628.000
36280337677294344.000
51858469444019296.000
26505604383151788.000
29205722316037080.000
35962940916407544.000
41136312826618992.000
37586293721651992.000
87624775539178080.000
51016293846331448.000
37550185178211008.000
78151217587130080.000
42823358751106960.000
39870188134022968.000
40146372218466192.000
23203107785654236.000
28258281326278572.000
20289953981315872.000
41134857736798712.000
45470466554498616.000
42793367419700760.000
23264202946505800.000
22209170706749016.000
27419175622594056.000
27357437248615532.000
28018603946361288.000
15713956519189620.000
24024981682705316.000
29266875618835848.000
16295449181707246.000
11393363888475820.000
6225324206090577.000
7214965197256376.000
8827474376727857.000
6675080107758659.000
8158528614954840.000
7982087356569714.000
12279313037971358.000
28450566797175628.000
21320456691319260.000
22423502009833600.000
29924304408822564.000
21322999864579704.000
29533845852847376.000
25097841004414416.000
21024397651316012.000
24149090237335260.000
27481229567541568.000
27457941874720556.000
14278436001769312.000
16728025616127174.000
24223802961494168.000
51141425418956576.000
52312091589234464.000
28735548075500636.000
27163650094258776.000
22460003733591560.000
29306065871809636.000
29423810836370604.000
22383478706456680.000
20154239673572472.000
42918377445239016.000
25364426631325440.000
15150357610560534.000
8688949042022003.000
4606671717359728.000
7258888042070910.000
4316540712416906.500
5054163207314388.000
7010578857899361.000
7594743323837489.000
6260854299645819.000
8846785669058115.000
7240164017195110.000
4268836506446519.500
2527395307623512.000
1278987863662509.500
644600522861663.500
1502241631923484.500
788568463737963.250
459900320341869.562
233740710238997.719
183506589939653.344
451411960013029.250
586640372726303.625
651782187053214.250
730706517753800.250
1099292150772667.125
2486121986934070.000
1286545314971254.500
1446466562026592.750
1428840021631711.750
842457694460809.375
1101334385813837.000
1132221322866546.500
1159415028557153.250
1318528345828397.250
1988255734362047.500
4806198781165206.000
2665657644491669.000
4153968259639909.500
3605505724610386.500
5129361400518487.000
7797462824422731.000
6835965938334412.000
9188995911336216.000
6971757356125201.000
6831748358433721.000
4150408840949631.000
8682873020813659.000
7300913824698750.000
4309593207007137.500
4429015990138858.500
4095973826766110.000
4233723613593599.000
8682026454769651.000
7095968424892967.000
8117814733775282.000
6609220693161510.000
7198999833629250.000
7581523305707399.000
12049435925897688.000
11898438143074230.000
14306583847196726.000
23082860001579512.000
49164049070939768.000
46218614280530304.000
24762791724071028.000
21352923966617436.000
49635382899961200.000
29030474008505824.000
40131797256771304.000
24314100887882424.000
13035400734744504.000
16048951147249010.000
12010879988139216.000
25337603630892392.000
14097088048204054.000
7880475618148935.000
7072220013874512.000
7183023905233078.000
8389040408413560.000
6348641100061938.000
9126209906603328.000
4758162228695480.000
4092232445868270.000
5120416264301099.000
4332759805539669.500
9260170005895500.000
14073854367948832.000
11745448479185196.000
6172285721497542.000
7496208428500924.000
7047532658392678.000
15717350649862124.000
20804142898279456.000
11704815374238850.000
6247901071864596.000
14743835377846590.000
7852172705632165.000
12523917740404044.000
6593823832804403.000
14636081355129898.000
23104600460808244.000
54133787035192720.000
53926310050089744.000
44462144949292768.000
66914036274348776.000
86060373911660112.000
45255611758266320.000
95182125474804624.000
79216972072555664.000
39729711177452816.000
46075102679453824.000
44248830671606440.000
41781969432759704.000
96248931541041824.000
94368642853960448.000
71032365124162968.000
163530047404014656.000
241310139373265088.000
555135340710926720.000
463551869009188224.000
532807308515138496.000
286197585264092448.000
444987236751626368.000
499109686295431680.000
291973549990479744.000
159984025684717728.000
218213093192514656.000
127672101224143664.000
126989160030336432.000
259830309196507104.000
234529811506346272.000
230848697631417024.000
475153947917409664.000
241178892314283712.000
131439278746855904.000
149479247648767232.000
309102821127583040.000
268187157883316000.000
135055745609866336.000
74965100811129024.000
65868676334312976.000
74033181906764912.000
38545586179778928.000
23434072514189096.000
24318968157121664.000
52253009489653896.000
46590087502495056.000
27393524528673332.000
27204478742551308.000
39131508906697552.000
41618559787441232.000
39602087929165168.000
53114514230735232.000
46643422566486528.000
24435179939324640.000
29423938662406232.000
27564814363500488.000
45006781647423320.000
27004102437324156.000
39688642775487272.000
44628066214826360.000
23548791293280252.000
12208875887579656.000
28009156633827024.000
42539273011723736.000
54002380514291040.000
46727439314830248.000
49063534669078328.000
28080114641823488.000
45427593227052456.000
71977469742062976.000
41728884606632896.000
51775848260629200.000
28018357358112632.000
40317075638116952.000
41426584366189712.000
47669192224983232.000
51260000805301768.000
41039258973120648.000
50992410584225672.000
42088005294864408.000
44787850662743160.000
39472833817091704.000
21340690807064452.000
23993639100527420.000
20960902141494828.000
12911482284940204.000
7296774045117429.000
7599018063207296.000
4129993273589739.000
6189201905060200.000
7556788093902919.000
8918505699120204.000
11973698670535740.000
13293013136068306.000
7079097842137689.000
7385254793715236.000
4205365680861795.000
4122910259172507.000
4656079475733750.000
3612911953069857.000
4604880621360194.000
6224922344738019.000
7641729727757812.000
8416313501694221.000
7038509407072536.000
7744207469277433.000
4510142010618306.000
3478741025024154.000
7292711445468316.000
4406160570577524.000
7080819312077781.000
6672327074276610.000
9233805088907704.000
13609179263070390.000
15952306777632254.000
8318848205101117.000
4232002618332578.000
4680458323597305.000
4031816505782321.000
2303085891101232.000
2518432369268689.000
1369421623150289.500
1135121726656386.750
2414241055847789.500
3754088364812127.500
1985610130843294.500
4854321495146204.000
6850986387082573.000
4016077331729209.500
3568009138027305.500
3465312341756362.500
1964077546627803.750
4191684122358129.000
4162102851602998.000
4766924626384502.000
2653453849433265.500
2238167482990237.750
5153293024452909.000
6155490514743381.000
7845818810601894.000
6941698216348683.000
7575869456492756.000
16730093494101992.000
24923784553274068.000
13283334646702226.000
15850581413737576.000
16730862877377806.000
23523247530555264.000
13605823603349706.000
29567128421978880.000
47498734415834112.000
24967881375801056.000
13011100479835612.000
12703283316118320.000
15944232350278306.000
22987862053116580.000
26398113995720352.000
40248163913393568.000
20735473726461344.000
11432353213939710.000
12588135054226510.000
25866705250569420.000
15490191107236600.000
12624705661878350.000
6400090133356153.000
8251474037244649.000
8489179356997626.000
8291084874476343.000
7154961902054756.000
4148434787665615.500
9230323442624838.000
6577347506937014.000
14848262869383612.000
12515646025990236.000
29671158264329348.000
16527641818152420.000
24188890893642368.000
29797426763186976.000
21493685083399568.000
29898204824531576.000
27689825475515888.000
15012407880407262.000
23612120386889588.000
14394196381756008.000
11323671154580962.000
25558217028204536.000
23643137552423424.000
22612156950307272.000
21129796033556080.000
28162861502113108.000
14599772484509346.000
16589611922615608.000
15153163359621408.000
14545141430553048.000
21880608747811416.000
23107708764033812.000
47638060695724584.000
48904560012506328.000
26108067304600620.000
13586793831921020.000
15791338696620774.000
8040569118219111.000
4681517699920086.000
3892119734634732.500
4585989311066782.000
4217283781728914.000
9129332345255138.000
4871398483300881.000
4152593214599925.500
9096286966632706.000
7989264759394309.000
15983530861450792.000
11259465364691694.000
15727637640444256.000
8565205032111451.000
7940155948670359.000
8679479963031094.000
6615971686477363.000
8592650039819506.000
12447469926836626.000
13289935226770938.000
28618311071068292.000
25363862701366480.000
12835443421563378.000
7483469271972820.000
7412010822670667.000
8723581983038783.000
7799661645364914.000
11861725079020770.000
13251626743124530.000
26888094252369936.000
42481292774009064.000
48366300972813872.000
68407965579921856.000
39828197583347784.000
39118040745701400.000
47679543335740640.000
36317457748838152.000
43920865118184000.000
52000708006713104.000
29202902280753528.000
40313706413232672.000
20211606016969544.000
26528911428287192.000
54077157754771344.000
41111525909839768.000
43029419516402568.000
24882666992571212.000
51570632795058912.000
37053533591849824.000
21063175809354048.000
20137440110330512.000
51425276557260104.000
84298233641155744.000
71643624760843464.000
41016778575937688.000
48258891935088584.000
28242917728032384.000
46215958645731736.000
92495397530568848.000
120902197291742544.000
153189151787789152.000
154804179592137856.000
91865778149982688.000
90659141298828656.000
53380534273763752.000
87420204344143680.000
92390413899360576.000
68153081006262960.000
168375844538043456.000
97518123742505952.000
75116025926795184.000
88814594699655632.000
69025017444101712.000
91407523416265920.000
84089507457593120.000
43203856058979688.000
51366554126051304.000
28882088419795512.000
24513631582238236.000
39312704082741440.000
35971578387228796.000
50830296678792656.000
49703150225314280.000
40290261965439896.000
46690154087378376.000
64645139911317848.000
68097002314898280.000
165499539565023168.000
118176048168132416.000
307625525960990720.000
166499648746914944.000
89069596936048992.000
87346305832943440.000
97415948477420464.000
94730711482329888.000
52504303047779312.000
69495284418607800.000
69789688947902072.000
153128589938388576.000
80937632328439792.000
78107665244022880.000
81617904975767488.000
42133982576183760.000
22429143401116460.000
53388136525503360.000
40799006980651064.000
88349819621386128.000
69782880743214208.000
96577315324852144.000
75250846501791232.000
43017875439550072.000
48791597779897104.000
25999588572817776.000
51315253092513472.000
83723900911284240.000
129493407145097216.000
146522306134683072.000
171383591185600544.000
135500418754143008.000
135048922244591504.000
167792271832762048.000
144719914372839136.000
233798489110593888.000
568520110136327424.000
709147790950110976.000
832641166934857728.000
481665714176982336.000
254771420257783104.000
299164354956408896.000
167186480821439296.000
91777945151511536.000
67041226790787864.000
38091107847420688.000
84208080214161984.000
129715383901145728.000
78524836378030448.000
47943772413157648.000
40183627778381464.000
53601893853624216.000
53847831342622296.000
48121218175970048.000
47439414027632664.000
25741601333495704.000
13154869450972024.000
7580468552876925.000
15260213030923784.000
20819486091184312.000
12820017070387120.000
16537462223417706.000
22951961291814208.000
49430694345366504.000
38733202129199488.000
20412434442219672.000
25715060568253572.000
26319222757516808.000
21487522361253248.000
50277529113865752.000
37749011464773408.000
21970644336758616.000
25734978237300048.000
29584113413466756.000
40173212625264320.000
43851742363812896.000
92075474900848544.000
136015062772034976.000
72023782565683728.000
69689773956589536.000
84522112920069920.000
68314179300385320.000
165660838717361120.000
149145270687041376.000
90463018305620752.000
53346742951285832.000
39872957401692984.000
92095763892279312.000
135586530473456448.000
169926829156471328.000
270186069307523680.000
158034957730982560.000
121228650008413952.000
294668222236262208.000
158800202641733376.000
149147096035216192.000
164857985682179104.000
97577302011573024.000
73004217387455856.000
158072360274054880.000
90009561781213440.000
82064682355137952.000
49689986116847520.000
50557269199460968.000
69368313530198000.000
70363591342833328.000
40144797123314952.000
40485740094028056.000
36763204082707888.000
49690308704298816.000
51547194531315576.000
42399013251730888.000
43962552647274824.000
90742441098869600.000
135821920080470288.000
216226877876503488.000
230911369966377888.000
119604600172555744.000
71761448616202472.000
43209741166997968.000
36829009473639608.000
49020101005820704.000
28198897962720564.000
42160879822362384.000
25230332805815064.000
38244589022261256.000
44743408410393672.000
23474691082375072.000
13474532452018716.000
7854675191926737.000
9147757040384868.000
6362000303590248.000
14501188669830988.000
8574229265948035.000
5065230550738281.000
4590710379819951.000
3983438982871785.000
2139570871719610.500
2482922007884209.500
3934750327372461.500
4118780303128691.000
2490761568146765.500
2284722922678313.000
2265081274551599.500
2813544460646070.000
2828426340802008.000
2206268382320505.500
2754671524929192.500
3967104975653777.000
6320391654077983.000
7840389002112715.000
9178918938211138.000
11562894335208756.000
15268335051163604.000
14801722509521626.000
23203259336040840.000
21476726027265564.000
21788453149145188.000
13206686033175366.000
8076698575413207.000
12862358604490692.000
15201097049906278.000
12934058388724006.000
14364983298062768.000
8051204212822723.000
12530042877661012.000
16321637119246266.000
22730609939486464.000
11845782973426532.000
13493896131680578.000
11106787894553814.000
23778953140651752.000
13001402773133144.000
6755255045521859.000
8127815535598882.000
16036300790013828.000
11169809207227988.000
13176702121198034.000
12177255182214078.000
28348354284024408.000
25757469984612560.000
21301499982691696.000
11650565105560362.000
6482753068929264.000
14103437635546212.000
20720433215066972.000
23588305431470480.000
13682498556572780.000
7613040189697434.000
6814581308237388.000
3477655947212825.000
8018576238660762.000
4512897021635727.000
2670705774201508.500
4079298416384650.500
3905872008475462.500
2150865950089616.500
4391187597061942.500
4884947475073666.000
3777052821109428.000
3737822579882898.000
2210809126136602.500
2314713336632215.500
4898301393867693.000
4319267774150868.500
6798105388825654.000
15442149662523764.000
14385773091661162.000
28463069756595516.000
14558293359607690.000
13762985753857208.000
15946583456041928.000
14608883303289932.000
8246948331242115.000
4192141810226618.000
2260990064909985.000
2472089580145501.000
2613059926863538.500
2434696155459299.500
3919396906550318.000
4907379663170016.000
4493377385846771.500
4852530355329364.000
3975497277861830.000
8432607591412596.000
7108824491383176.000
4041178807073200.000
4221281424590829.000
6532540791010091.000
6694804354060406.000
3434656393790076.000
1957536255014247.750
2207795034402656.500
3517151040889426.000
8496020071857652.000
6037708942239222.000
8279247878178649.000
13487865503084468.000
7421413648199263.000
3884553760172339.500
4159424823031537.500
6631762271027559.000
13794981208095290.000
13599703537970812.000
8194215625606244.000
7948318858724852.000
6156051700144936.000
7656404866417830.000
6025911314011102.000
7271102269590873.000
3667829045880422.000
4946510470346632.000
3947825872381153.000
3525853530723941.000
3651574166831113.500
4451937050368566.000
6334050939886194.000
7033567986021469.000
14391976616646150.000
13196311152519428.000
14875145200954122.000
11289532095579514.000
6778268418128811.000
8105469895840962.000
7848201623012146.000
5919601713734781.000
3215597023931073.000
4247662192311940.500
6311100200723741.000
3239106158631231.500
3870410504402772.500
2299091188350771.500
4698521080971707.000
6576075163515231.000
7453702643679481.000
6011571679932845.000
7590610754995384.000
6217538886247221.000
14165499410831532.000
15954810855708108.000
14404306308277710.000
15870741799264896.000
23262525218522488.000
21096267223603056.000
11395368833719820.000
6782291581328826.000
3613223412124691.500
8266689520984435.000
7987531361129510.000
6437843623542759.000
14579220080755614.000
7925610553408948.000
10405557871648172.000
25718657353691136.000
21236292250132056.000
44849217862032648.000
43895828230516096.000
51471955540521208.000
27587861316111192.000
14340358783973952.000
21223539936869396.000
46676033005542384.000
47345559442163416.000
40914521936749488.000
50297740589883432.000
45825732220168936.000
24681289340542240.000
39109843884669296.000
47588644535085624.000
77003873134743408.000
79855820841603408.000
42344808185832744.000
44790033951228888.000
41993491144052168.000
43377856654856160.000
42997617214455584.000
39819402230433648.000
88990856589043472.000
129617879809343984.000
74439762259728896.000
44182605273459408.000
38812637159748560.000
38320563688634136.000
20360299239415632.000
26209970217536916.000
14125450065547026.000
20776902710705716.000
21790651357784972.000
26756391472724316.000
25202041683361240.000
23676509529113872.000
21299716196639572.000
27751518542950440.000
15091705193587626.000
11300995397564208.000
12682720082719834.000
6424238041124526.000
8529181873290582.000
12541831652192558.000
13099760982235612.000
20977791830249688.000
28435589097985816.000
25831879983535592.000
27020043432051648.000
42624444298896016.000
62482080761356264.000
82899705731814800.000
42517347325881624.000
51775719341414960.000
39654426113124544.000
39344294841057800.000
44022162671887392.000
36764179585613216.000
46488071740678976.000
47672279194386976.000
40682325711437824.000
24708258548620196.000
34314301372967236.000
50364609865110592.000
49935138807087800.000
35152485772448940.000
46988106591451104.000
42977204133485560.000
34041435039154952.000
34174707641028772.000
45319321377467888.000
71828287850625512.000
63788698590972944.000
37504209751556096.000
