36.881
77.512
74.946
68.211
149.084
144.416
138.541
209.447
193.686
446.852
684.065
1464.683
2385.605
5220.006
6650.603
13572.800
30737.033
47439.991
43069.652
47131.467
48300.972
49576.887
77080.307
176410.230
247792.886
526849.868
838364.948
908425.627
1811525.905
1899763.361
2579304.887
5768649.418
8033055.329
7609645.055
8163308.189
8200276.495
19705209.331
29070378.621
59715007.500
80534983.817
164786571.976
376078346.293
366835358.826
467377455.590
1079940086.966
1102630164.079
1024704245.388
2169143664.867
3522650980.377
3639549085.941
3803157022.452
3891887706.481
6042659431.194
9456942974.886
22386504107.061
35436311560.805
50433754321.171
52130567895.074
106026660797.169
168703214157.001
356021523763.728
535932246914.707
1121752804307.851
2284725453021.529
3101665026722.329
7985767848511.340
12855095631579.572
20965641900403.418
46021883954330.492
59788017770496.516
61632558349069.844
151249530693637.594
189742829000976.375
440556539641582.625
678219695682899.250
683908694594067.625
730300635422405.000
1604432571522176.500
1515206557904595.000
1479482507807769.750
2318036317816856.000
5119652351405924.000
7137712669248273.000
14546809989730716.000
14239919597241728.000
22708772729201160.000
24078713966107512.000
26372211343427468.000
25459093369655468.000
36619609126170840.000
80147014338907264.000
75323110996700480.000
73538851484643712.000
70313109161236776.000
76359058804070720.000
171560764190007168.000
279990243945701216.000
271146481518364480.000
282163428420765984.000
282368342158310368.000
421062723517268096.000
259329960745291744.000
277518466104946560.000
565556283310714368.000
375405911333239424.000
391604225658348480.000
985066286485751808.000
715960241499584512.000
782403758104757376.000
887132971591024768.000
688365497664581632.000
813541295349273088.000
409545912003542976.000
229425599147695744.000
124589546665732416.000
145030555515667008.000
117436466246569888.000
154660351378380960.000
220565115045732320.000
525740298329518272.000
708151680408892544.000
1693647528539948800.000
1425468005487489536.000
771774034170181888.000
941387039356387328.000
711069608239884160.000
932401046088924672.000
1240643567122331392.000
1687716625097604864.000
2719915394295363584.000
1561446152041285632.000
829642222803552128.000
680906309985498368.000
1671653706350599680.000
2554665888532998144.000
2462758897942000128.000
1435186344614302464.000
865433498614995200.000
482070463042415424.000
244526696186248032.000
216527589862984544.000
131954034484577872.000
135284863609535936.000
153202537931458432.000
168238804203753088.000
160129467211546976.000
147943910985107232.000
87112871939235392.000
51644465017158216.000
53075141124498032.000
68457396466271536.000
166841544132703968.000
141404548552931728.000
78319847615001232.000
63195435733466344.000
72991705570909088.000
43463880086926392.000
86676234128584656.000
70430015083659872.000
35419408644494772.000
47200016624392760.000
27284383979987384.000
14384730740880540.000
7363651898239272.000
8478040055534073.000
4323170425242336.500
3854408737038652.000
2065931523898907.500
2608416859302676.500
2256829154007443.000
4492548590125357.000
3336753175593064.000
4994472510992737.000
3624361138723784.500
2234163268402538.000
4893252625802469.000
4824092250693037.000
3289233305270567.000
7717381167418845.000
7965399656465403.000
4721667291981767.000
4295551891811334.500
3484525379462881.500
4171072899492804.000
8490567263344159.000
5931107477920284.000
14390183467516186.000
14828389517188074.000
15349122383450248.000
8815996306307248.000
5920641498854217.000
15924844498581956.000
19867379211342368.000
43833592633984024.000
43199690656189248.000
22632003183916148.000
19305207761674088.000
48944042847869448.000
44713470766456160.000
89175601258665568.000
51661396859763400.000
50186852237682288.000
78685966531392736.000
46819852625790312.000
40792087735567992.000
39575818850715256.000
22240186244513236.000
11830515441463246.000
11377319942953298.000
13742853514077112.000
15394496484947462.000
8519210713536169.000
12682348339463470.000
25312707979213696.000
37646685643920192.000
45614817918083184.000
41005644702909896.000
34005680129996844.000
48786709442499816.000
36508768052741184.000
47211994068694352.000
25288740630244984.000
13957119079144276.000
28602567654467352.000
22592715471293460.000
26771302426789788.000
23772025154681952.000
14364861106248714.000
11054889162860074.000
15944827511774460.000
14667761939863310.000
14040898331497902.000
11034383877987458.000
13633096441829916.000
15974270893105238.000
22050060705198968.000
23284510415464396.000
50519635441880736.000
46840838704321488.000
47935821608043728.000
24200629744737932.000
37564355077090264.000
40061746349400600.000
22429658174208000.000
12021984763520264.000
13359994445429402.000
20161773084557496.000
43716449770270976.000
40715546193091736.000
90351439021192560.000
67135703427344208.000
88607073734510080.000
80101080212300656.000
77335884175612624.000
47384464210860496.000
40923207700740128.000
45260327816023584.000
38977517321062072.000
50562999685307912.000
64490253834684456.000
39520700366323408.000
88191650654277712.000
122794856321324960.000
265745424444311360.000
136172693168354704.000
204701727395492640.000
234280106637298752.000
506760319694707968.000
273967946808989600.000
165340021478557344.000
144023929165831024.000
119484174988883536.000
168346672587902176.000
120724510568164384.000
122312622817359696.000
73041259748687488.000
66903055785257920.000
39548057135701952.000
45042738504924792.000
89687174547075648.000
143936480408038304.000
120531115354426528.000
148514930404189184.000
78215417581957824.000
68637413843970944.000
90868892460662832.000
47230651711473128.000
73138862628559104.000
74732700588274896.000
68121286442161896.000
84248480649163840.000
92982204532143680.000
63568359973623848.000
33846673983341292.000
37095716140735808.000
90377698914824704.000
67842592046909472.000
37524987902864424.000
91777090493960800.000
73030133698794304.000
66152801201855832.000
70543456156309640.000
90944713090554544.000
143726309128200128.000
76388040073228800.000
74149362883550432.000
158462290689358656.000
158855010097040096.000
197160294546772256.000
235747754460931520.000
273475680284869280.000
421651520174111808.000
514495703241592000.000
388099590883694592.000
210685689135563456.000
122934924050833728.000
149071112169706208.000
166569375044462176.000
139887267301184080.000
112288535424534000.000
148347138931030880.000
239492139219958944.000
223693810166551648.000
271219188908691296.000
202494061686850496.000
277988136461050240.000
147441964481283456.000
144571867500205056.000
85005348845178192.000
60957834627512064.000
125319571541574752.000
197394696773355520.000
273244299355268064.000
228779232447767040.000
268629838084908704.000
211787545197224448.000
481894058751998720.000
385062215408367360.000
837619023309796224.000
899826768040140160.000
949409610609836544.000
645684097985395200.000
1482312043424799744.000
1355722912022640384.000
1301300515158321152.000
3023078145252200960.000
2242505624766425088.000
1243064440575433728.000
3008696761118601728.000
1696995054814816000.000
1164381332843186944.000
1748129387053305344.000
1298522624492283136.000
1183738713095448576.000
2498435588157116928.000
2936055742465868288.000
2834308352205303808.000
1528257175123872768.000
918764455269577600.000
802099631997071360.000
1219880275103767040.000
1679551646035053568.000
869012823391096192.000
671430053290045568.000
1500208571469020160.000
1206479731585490944.000
638543673358013824.000
378064019099404160.000
806460998712464384.000
1262490189693934848.000
1549967120528868864.000
1706337092310574336.000
948083531221112448.000
751434901904962688.000
1615001371526614528.000
1508269970026823168.000
2058244211485412096.000
2229202506713117696.000
3001189657167852032.000
2609202109016280576.000
1365877200630896640.000
1751416819453514752.000
1581925226390162688.000
2138634016973005312.000
2487352101365486592.000
2946195874270829056.000
2801925759361118720.000
1576439438964368896.000
1601455075322176512.000
1593017779175208192.000
1394653630803906304.000
1215858422693924608.000
1618710085382406656.000
1766292221127070976.000
2626010567853917696.000
3153070668672970752.000
2669465672827364864.000
2563062643882644480.000
3173978152645167104.000
2235125333592432640.000
2055144147413886208.000
5206232486160001024.000
2819570182331255808.000
2188636675479816192.000
2346620303217171456.000
2108482118570618368.000
2678114498353813504.000
2802459215120349696.000
2168237285888055552.000
1261860077656426240.000
1603456078614261760.000
1272379134964539136.000
697851287345862400.000
867409559821626752.000
1714027153870529792.000
2090128831309760256.000
2667712806347372544.000
1552295502482862336.000
1363986837761862912.000
813518670772189056.000
482896197759198784.000
393794024621809856.000
803046174559652864.000
414858475284596672.000
479786206145535936.000
280965148856068512.000
260899684036624288.000
239285495923363424.000
240284726391963392.000
144687669069017856.000
78996251576064016.000
40404231422677008.000
21659068382882396.000
12000359668064030.000
15605993539271928.000
8748989106688424.000
4809602084204041.000
4163277412348700.500
2510492379737966.000
3847093399494642.000
4070015381414791.000
3562690238515703.000
4253517401287636.000
8723672046731311.000
11697483127017050.000
6066693008959951.000
3758556607213378.000
8760931537598251.000
4524095755535631.000
6538826444270619.000
3929685284672885.000
4413835138819733.000
2345812992736801.500
2131591196032566.000
1243425441520305.250
1099107090294253.625
2238763947626937.250
2100452985947994.000
2006594933684149.500
1025341400541812.250
1385485491683964.750
1231460922612822.000
1357152136436379.750
818370522087134.375
725136757806880.500
620831724453492.250
1413915511286082.750
1871898127789559.750
1110385175308090.875
676899770867384.375
366308198966575.500
443449562358160.938
572923623520286.250
736894550539661.875
539348337687212.312
1472291035311153.500
1266454350528857.250
2561343792034578.000
1345313962660025.250
689651683800785.875
731097366286868.375
553791583309274.125
756283892875380.875
620956386094877.250
820372286405398.000
561078600791195.812
567371983844328.625
1165258900678707.750
2557620292503790.000
4158522322944483.000
4815779220465138.000
2561836944472888.000
1983075573284341.250
4138416084388873.500
3659547056901966.000
4221315615661352.000
3180907356901315.500
8301075787074451.000
4732264345109673.000
3980731158246792.500
3657905094704419.500
2061261928753210.000
2154205925541019.750
2492056629892375.500
2561267705553394.500
2571117580816494.000
2297512061504331.000
2362118112871092.500
1245148487793231.500
2647203495237311.000
1473117611854101.000
1066354706332752.500
2447279035505991.000
2148588518327613.500
1891431198766762.750
1169758161140773.250
1424629988044605.500
1478230838108534.000
1056852799100223.500
2253348843110760.500
2223520610243343.250
1708872342023030.500
2250348371313507.500
2091943320555424.500
1077957048837725.375
1034211400758005.625
975919220652079.875
1031019334764886.875
1142480479265241.000
1705380861746855.500
1925956806731704.500
1999458553734951.000
4596626227637042.000
4380965379749342.000
2250349843518224.500
3517623962301153.000
7724788890571394.000
6776301782294633.000
6034744414502307.000
7523002876679664.000
7627521993889096.000
8391417724010275.000
4619291743230133.000
3752590662296835.500
3137520677073879.000
8153165550057131.000
8521135914770323.000
7155014783937078.000
7335778346744963.000
6151783709900728.000
13340568229862086.000
15294278813834226.000
22181870333932252.000
21787633506090656.000
48847338259788056.000
27633532520090984.000
20212153977467900.000
19339204863418112.000
48070606237910328.000
44006472415289560.000
37585828724440832.000
20407768021938956.000
49063573784320928.000
63592189270468512.000
81176719567383200.000
73015287315638736.000
63136488723018592.000
85859734102661488.000
127856318866388016.000
117950113108684320.000
265509419317553792.000
137248925801847840.000
122390736643835264.000
62372888022275240.000
82731990893782192.000
73883069049441584.000
39347275075171424.000
22675221087465176.000
46274576163811648.000
74444909690018400.000
66736460745084112.000
38669368691341936.000
20463533864872996.000
12552511437466158.000
6753817632507987.000
8202337243233790.000
10874150310664832.000
15177588542911326.000
13618876101153288.000
10888816084205438.000
5970404617113316.000
14059174909661196.000
12448145348894730.000
15348199017267954.000
11458633372699690.000
12941065181462142.000
14529505468361538.000
8040654207283928.000
7845047141556012.000
4678416887132766.000
5682488669089103.000
12775965052336536.000
11516173474624340.000
13454929973531040.000
13786320387062280.000
21760358138813104.000
11061958620460164.000
27465418698202492.000
44864492027074944.000
22630623965543040.000
23321155298717776.000
27224173767782900.000
20125327673154244.000
11028666925010254.000
12822207278663750.000
13183460803728324.000
11733469644874610.000
17990535506297922.000
26079443180376756.000
13622505536563846.000
17972989146111828.000
24066689656841876.000
21305785584950676.000
21540604834265212.000
21320657942821192.000
43717770044442960.000
87464763249430128.000
109079870233026912.000
280691372653222368.000
247794435145396000.000
233833443149722848.000
482155440662184576.000
259603360563307616.000
266188760883535040.000
351869704478067776.000
192868171062415136.000
240819379823349440.000
137057100813209728.000
136190148739010128.000
68078106504618408.000
66165347349336168.000
89516464477265152.000
144672314512177632.000
126971600275966848.000
63793620434211320.000
83777910568473648.000
115788683495533200.000
157655171581668736.000
151069652941042880.000
85885434633675024.000
46207283515602792.000
23457869906947524.000
13360147982664092.000
11992939024639914.000
14496664565774192.000
22702305942439272.000
17998262076604702.000
40484333401074912.000
35886610797854428.000
80629270510434064.000
49197570273523952.000
61295639083070440.000
34280628100745968.000
49598926586633088.000
33884213860681192.000
47175896187110648.000
27536184517727836.000
14169107630320620.000
8335365071272159.000
13151664702821818.000
14857825675860566.000
20781221465999976.000
25736137916022008.000
38678406097178128.000
46807656242504552.000
35193266239722452.000
88372106856745600.000
88539338619704816.000
67651112887126544.000
57988620859493272.000
143771248052527072.000
135012162314400368.000
149083772687472192.000
162805669018426848.000
197821166657527008.000
287323522194391776.000
256561439704898944.000
286512788916648768.000
154028974503428480.000
134744252798198080.000
192326017590758912.000
246771276805911072.000
215621224256538912.000
125899869746178640.000
71446660942933272.000
37167973908076168.000
43406744678253832.000
41668501061239336.000
42940700825134224.000
58519246226642648.000
84646264527412320.000
75387691538611072.000
71331364639070112.000
87225885416978672.000
106760093500401632.000
144727478403661568.000
154576572153346144.000
118872316314156304.000
65115156415762928.000
63809917662435000.000
60132275867846640.000
33392856180552164.000
45990333288279192.000
49458884769757664.000
27271453808391896.000
40420453071500640.000
35418921828561000.000
18330104186937528.000
22935485304132000.000
36052958209001800.000
41267060966489448.000
25312514280053796.000
14367821215655810.000
20877145962330456.000
19889968215658668.000
26043185224549192.000
19799296539058072.000
11246466407954586.000
13681502641939528.000
8210883038118403.000
11258095278818244.000
5845116118306616.000
13194067212336856.000
21265236860642348.000
11371179807724662.000
10257359480135970.000
5859943052174041.000
14333707257113406.000
21992494803409336.000
34927074489870900.000
75141835194944320.000
85347745393580016.000
48919094712674016.000
25240444720309800.000
35549770860930156.000
22055256086004568.000
12643091617983998.000
7157515604651448.000
15616577190927008.000
21994466492372996.000
44105475675789968.000
45041986120594960.000
48469528041857048.000
46545277291170168.000
34734586534389476.000
18925896681248240.000
11798580920319474.000
5927918564748394.000
3405608584005299.000
4801782220496109.000
7456915371390021.000
4446086255782792.500
6180094784870543.000
7582700857454627.000
4594192571887818.000
3780383651976022.500
8341997413220806.000
12216669008132892.000
11524142374466902.000
6724256336256345.000
8231493566256945.000
6512619966196015.000
8512324493112484.000
7601326813041541.000
8619942535206280.000
4809864745106546.000
3234989783561126.000
8657138162390589.000
4413013865058137.500
2637381154907212.500
1469669125625348.750
2335596708444118.000
4733149087716536.000
5848182726578213.000
7377548344209941.000
4334609231083187.000
3523712458662185.000
4378205089988854.500
6110275792279884.000
3232479583171782.500
4816604914198014.000
2480612201007332.000
1433564564623233.000
1880989624605412.500
3815995512410864.000
3855648302621265.500
4707080975176765.000
6751452825927282.000
14516709965557520.000
10586177132135164.000
6205104149762700.000
7513926670475698.000
11387508873166750.000
15603211465930258.000
7958359402412667.000
4117955305322889.000
4356342101980124.000
3700411637203128.000
3406377028424407.500
8373568964314009.000
13337158469732144.000
19595547473514504.000
12153707350037808.000
11230375437566158.000
22789411074377020.000
12467758224816312.000
7419500519791904.000
10447727062131156.000
6306985418186294.000
8701062064238990.000
6531376984276124.000
13352135109791492.000
14561525476248272.000
10757966197490162.000
28877200577923540.000
14924559071906582.000
10373700297212074.000
26744660494106216.000
14298981519945046.000
13318423256835750.000
15265072470805502.000
24108024006478360.000
13309490222383272.000
15126955726333174.000
14903829878320018.000
23092885397439936.000
51094418979274392.000
39344995676529056.000
22522417635942312.000
11696548908589322.000
14298212886080586.000
12632454524949312.000
11895448104862780.000
12073406450888360.000
6721417089634181.000
14699327949997774.000
22021038113283512.000
34504603258269552.000
43528086505876288.000
38585104593233512.000
50833565337074824.000
65475455874785208.000
135331922056412944.000
130757648891539888.000
156901550183791840.000
146985347334629760.000
300153216793996416.000
406654495236947200.000
418636155407167680.000
541347604363594944.000
474110893172789056.000
498952399597999872.000
440514521242471296.000
370376360994576384.000
751402925545885568.000
869027676134434176.000
955281427345137664.000
861217793230350336.000
1372303659301589504.000
1479574267706009856.000
792989347417430656.000
649205279466874112.000
375477520396378624.000
454873616110078272.000
257571527846532096.000
231747934115538624.000
116870570005295584.000
150680440527378816.000
161197098498076128.000
221096416375932736.000
236499361882425856.000
287760709328838688.000
158598785148942624.000
119771997756592704.000
64804580834388256.000
66099642131126496.000
75437033773559488.000
92831597760496080.000
66434127214422864.000
157230113231934656.000
90924568818095088.000
135930880878229152.000
133395048649103280.000
78933714143176784.000
44640232834192136.000
67436265794568264.000
34816426350421076.000
42356011878863072.000
25835657903473852.000
14000465766297832.000
13154601487634562.000
10826535570248794.000
6597650048738725.000
3294028142556621.500
3380725316337593.500
7195489163564741.000
11152004249405892.000
6954438472118938.000
7669564465041610.000
4642844086339115.000
2554678929282762.500
1822885597439119.000
4044470584606198.500
4461563882676123.000
3759647775556369.500
7701338873316933.000
15252095763860788.000
12376971038490698.000
11044786204510692.000
6379643534073734.000
3236178906478436.500
1778740891295298.750
4364389027210951.000
2648249990680517.500
2225287333104276.750
2427150867101741.000
1909812692656555.000
1002594239743257.250
2420723483703625.000
3231687566132380.000
4338671506205316.500
2238596557172043.250
2164852297912076.250
2467261716454237.000
3256476139064159.500
1964128167641377.500
2419868858869389.000
2071645325585948.750
1876356269374751.250
3992559801051637.000
2428830873596089.000
1231452776053872.750
2638318044487420.000
3399045290398927.000
7842138290066836.000
4719820690524145.000
2530288667949620.000
1991124765430602.750
2492790985667341.000
1956701811792669.000
988716663723925.750
1185304459127643.250
1451099193837401.500
1976288376173146.000
1182953640153975.500
2404253286449266.000
1998094495143817.000
1163261852956218.000
1062691522980222.125
1462658159276872.500
750724917272618.500
1065901597675596.750
549347570122558.625
669675481564585.875
563857971677155.250
312144400182030.500
172120622741869.312
100870451564116.609
135691749726557.125
214982045256004.531
207783139106603.594
174819290027854.500
425329269767846.438
471168065759238.938
741869560506884.125
1525475227936582.250
2463375355221351.500
2730210439048401.000
4325048467608428.000
2449741894901261.000
3330360064873873.000
4101788278283390.000
6171729228408048.000
8540422553489919.000
11913478565956096.000
27346643473966192.000
14427530325559044.000
7483756798594072.000
4243992207817866.500
3718263757945871.000
3908681048649905.500
2316840337251024.500
2234088598018469.000
3207338970897012.500
8233425791409469.000
7263328273294562.000
15917845813567104.000
8610610538771277.000
11934963944518890.000
11262449974861604.000
11230729180422510.000
14209982046098054.000
15541324293592202.000
15368228873469958.000
21032743591206244.000
27789748454730324.000
19766501822253872.000
49481581934162952.000
46325031126296808.000
49146373710985328.000
51321660895906256.000
27993871865698456.000
15974285535469702.000
23544850570581048.000
12874645406524866.000
15504323682419846.000
7926260043599491.000
4020555925100465.500
4179475944761458.500
6754054739394966.000
14782680039452260.000
20401844122677192.000
11369101701945714.000
12307601193660392.000
15840438772598204.000
19974620463574408.000
27067362749510776.000
35970161685894756.000
20273505494974784.000
10955307001614054.000
13583503916632948.000
13385610794563846.000
20675132308582144.000
11277377996077072.000
14204640995033988.000
15167468714794122.000
7936512597774075.000
4147260618967707.000
4449104458483277.000
3427606229307014.000
3772961955046029.000
8263027822703154.000
4535310368620158.000
2677840722995580.500
2125377707634436.000
3258980623376593.500
6946025245210051.000
7928742872904315.000
4285951244547096.000
2327773830771414.500
2354021623338324.000
1264923632346065.000
1432578362283219.250
1054604104759105.875
1080357184158246.500
1481257457771096.500
773657982891928.625
1257384393799027.500
1144800855978641.250
628836110586420.500
571693005158707.125
323627968375793.812
832155286593226.125
592129973189967.250
334422278994618.500
773468286159450.375
723596049609562.875
1503444629383163.250
769470612687328.875
569654284280358.750
1268790034935764.000
1427001918224079.000
1199781993027376.500
1340374591384356.750
1491280616683118.000
1123376688472676.875
1269681785547931.500
1073565807624087.375
1340891805831735.750
1855072287021497.500
1114990758833048.625
689900408807932.875
406595113131372.500
458364381045490.625
342114115193432.812
207656428484045.875
455559660071031.625
559879975283696.688
1519235692946782.000
1170871103373005.250
1248934384660845.750
2540163355770747.000
2556945032958559.500
1842709447709979.750
2187821286475780.500
1159982197325030.750
1475227964789105.750
2131365288340073.750
2742145679796081.000
2608623618042928.000
2738806549924777.500
1444552737220930.000
1374066971710474.250
1781569783961608.750
2207915780910847.250
2478787968879811.000
1833524867622025.500
2521408765219342.500
3279177776608410.500
3343088729851528.000
3469987421879859.000
7586861036895843.000
7592815608619675.000
4567639978758014.000
4548416479325015.000
3592873317565051.000
7860685925119296.000
12040265892404716.000
11347785851472552.000
15668488281518244.000
8549982560937964.000
7194724335900488.000
15982265642272170.000
25132870281431468.000
28349650712086092.000
15602215535778644.000
8665753637311332.000
6974335954818603.000
6231229852727607.000
14301416214757344.000
7549607612194953.000
7791612725771306.000
6809027376659522.000
10834198923116262.000
14785850070502246.000
20956912176959340.000
18921941975708008.000
43076965731586112.000
64753597356872912.000
36148138445815048.000
38890536656597656.000
23379417189313948.000
33588298241109448.000
71737754094888568.000
84812156303351472.000
42911278993983144.000
51258911930472416.000
34111203831687768.000
71218917974332136.000
67039091042531272.000
136359560261440512.000
196939702130847200.000
287812812229377248.000
168118039639368192.000
252789873907340992.000
126253556074720608.000
137524622483674144.000
157973623388215328.000
150559941166674016.000
136848486748824832.000
298937146314418048.000
286977563836388768.000
204190312893709728.000
274873789522298784.000
271886605433425664.000
159230551653845600.000
221815757222824384.000
119530784319406896.000
287776958711147904.000
216162340587643936.000
126160066714129264.000
73770762517653680.000
36708586313918072.000
42309264676049440.000
24490659362692624.000
21512109550438584.000
26667634105418732.000
23775580440206520.000
19766535139435504.000
23963473399489008.000
23618753439003348.000
25224159733701912.000
24324337814754564.000
19737091479234048.000
11783913024674182.000
24591122576497588.000
13090018929279970.000
7855419831635197.000
8856129617679035.000
5896703313823269.000
14002904191178120.000
7352640730987449.000
6906793912091938.000
3840018806280918.000
1923105517388419.250
2060513022684364.750
1206122082963516.750
1348124871575543.250
1048921949788645.750
2605762613547670.000
4050930198472015.000
3930935533959915.500
5991930618935324.000
7519341110748900.000
4357290447456800.500
2504955237834574.000
2126094940228074.750
1818328598148769.000
2422497083899216.500
3366950248509987.000
8761229629692453.000
7769621321281725.000
11865669609543940.000
26456527835454340.000
35989052643711088.000
48447998050930056.000
40160376307323136.000
45688795358962624.000
42489937008920680.000
24693937118414664.000
39326046337934232.000
21397415279185908.000
11184243415925728.000
12574854655381230.000
14320670266214246.000
19232843623874772.000
43456595147095544.000
48230966556746448.000
66721129133985144.000
77118945973216752.000
123619075619190800.000
113575543727527264.000
135676821718561392.000
160702018719146464.000
125389372963030016.000
109448756855677520.000
119236153562139872.000
168165335331176032.000
135718791489274496.000
135943684954879280.000
300407857210534720.000
412179129845369664.000
489340703978096320.000
287395741610199200.000
253153600126263008.000
362882971200719808.000
487815340065714112.000
295198018445618240.000
196269063936512704.000
200939330584725344.000
278341703347716704.000
165129732240136320.000
148204954812156832.000
153532636427384544.000
89053851635063936.000
144648140426838208.000
216054626625898528.000
249028977930489152.000
256615324757080512.000
542541810214158592.000
382631553214432128.000
927352162909027584.000
540089640977696640.000
481030899366649920.000
725959040695612544.000
654974891278397952.000
941109236511957504.000
1163971601273642240.000
667480354370134272.000
831273497255138176.000
835375156405517312.000
1299699329555537152.000
1213515058417651456.000
674435866988225152.000
1514799328961912064.000
1761480376517078528.000
1342867743517402624.000
800635720342726528.000
919855707110450176.000
670669364676816768.000
720597212221682816.000
1141870027835110400.000
2842734610941266432.000
2267305855747372288.000
5675766453693814784.000
3952647891946227712.000
9906219266105012224.000
14631854082522273792.000
18276965536361531392.000
13155691818574018560.000
6684258274467382272.000
14628022686822447104.000
23436151019995299840.000
52285886765186416640.000
48061739897121660928.000
97702318349288964096.000
151530502381332987904.000
76296696389996298240.000
41777419579837431808.000
48957465514479132672.000
38896414505037611008.000
80461765464965971968.000
43936747351567802368.000
54893165959224541184.000
86149891658555654144.000
183736346962910576640.000
108103635891086409728.000
89101955620412686336.000
103299369850012745728.000
79499100073606021120.000
102808724083776323584.000
55230197103226904576.000
46546424263973150720.000
23824524633405267968.000
12455182552872884224.000
15610694053648283648.000
17540266032878395392.000
15536619827997442048.000
15958918570377154560.000
17212626637939269632.000
13166275017849061376.000
32686176682189144064.000
40205020469534359552.000
24017882782450683904.000
31564319154799955968.000
16807084752510189568.000
8961456440645524480.000
4729718138247782400.000
2895401650053118976.000
2378741088190103552.000
1437382858526329344.000
2918564726189851136.000
1556758830931636480.000
1154058539237025792.000
1685982039133049088.000
896668461787658368.000
843585100838870912.000
695577066440006656.000
875443147507962624.000
840686824137389568.000
979317625042430592.000
781737109420174592.000
902098983761061760.000
1312088782047871488.000
736405061144454912.000
410143291056926400.000
491900014889339264.000
526896188567788160.000
286033188282436224.000
400656605216750464.000
246090513653342656.000
517636089679915520.000
411429910020219136.000
930609514410969728.000
943093382237162624.000
716153920442721280.000
819869629876488832.000
423376167032332224.000
656283988794083072.000
975101575839367424.000
703110701975767040.000
890748629988100096.000
895712422338067072.000
486557832369075712.000
265059371520972480.000
384322481080350656.000
507264623895018048.000
256277563315517664.000
277626896959789856.000
158750846232358432.000
168294633970211808.000
110505754194083760.000
232126135639295648.000
227580731525955488.000
126397157269679440.000
164699244615701216.000
113631050892756208.000
250116052016588320.000
223884284572090912.000
129425295149137360.000
129300966288040128.000
76158898558520416.000
46492438837396656.000
26292591107219228.000
13615790204113976.000
15891636550810700.000
13763196629733202.000
15858795103007688.000
12646188189549180.000
6635634024896263.000
14733647290470768.000
8370807006748003.000
4255782335297031.500
2450956320867157.000
3958986927601691.000
4659918628906531.000
2660365170583544.500
3612787105538564.500
3198698895248611.000
3840213499378302.000
2160708813398362.500
2668774619281244.000
2453952607137123.500
2025117841142873.250
1219278613493203.750
1051805034326417.000
2745065302787375.000
1434847602593179.750
1166952492248090.750
681433288561257.375
397647447082334.062
600490851929392.625
330564485317230.375
678249812246537.000
725112344865541.000
829498218889443.125
579599457967111.625
719461505088915.500
665659449070888.750
702352869339603.375
605055632018420.000
732091592267743.125
411295639418769.500
414030017558421.438
471338829603771.875
650447024409884.875
718483554940969.875
1084664879435011.250
2339854176356675.500
2696726348475186.000
2669151666081828.000
1361069140996195.500
1887612832368628.750
1089053156135139.125
1320303882545115.500
2665051794960549.000
3752538904887106.000
4213594828456637.500
2194244202521064.250
4381385174170758.000
3531512103513885.000
4549985407711436.000
2323808893466641.000
1327989755918586.750
1369267497333369.000
1271001446883163.250
1433606924548924.750
1471708382520626.250
2279981157281706.500
2011097631387491.250
1886576168909312.500
2250424605515717.250
1315524470512176.500
687160829631755.500
1381273805524913.750
1208896204922375.500
625513563734777.500
559657141356411.375
321860493563734.875
372811088614516.875
470635497207570.875
310967948869598.500
699446322256172.625
715215955118080.000
1471786985379552.000
753308844797491.250
456118371640575.062
562456030161755.938
1488584541439915.750
2273735377523037.000
2114121647543315.000
1132324787962729.500
588071501874484.750
1296800874180548.750
1906673380531526.250
2570958124739724.000
2006666085612285.000
2405497508698254.000
1374545952281139.500
2221865085541864.000
3527364429418345.500
8732315249430826.000
12937562339148960.000
12041095244063042.000
28432154083199740.000
14554679883521054.000
10520355325228472.000
12590542885035520.000
14608323375395636.000
15602356456228234.000
12820178183783124.000
18751900931930120.000
21060322374845236.000
19615846028439512.000
28679786450814700.000
22493125430571308.000
20872900526839824.000
12754739716013320.000
12183439320312228.000
6186799079160295.000
13367362205254226.000
11973667887091960.000
25873451883974348.000
28577935817494448.000
36872042842202656.000
19210501684709268.000
10372227677733886.000
22079042031156400.000
26595839429361972.000
35963578248526716.000
78635485060166688.000
40713590688428016.000
37342848225034208.000
18992126295063936.000
49368885330894032.000
44136391954096896.000
23385775266791492.000
19872539701361592.000
51741810263773224.000
51228506847104400.000
28136306493372212.000
21094528904089852.000
22296673412199812.000
50800134565518104.000
28028559561911716.000
15076020389716186.000
14471103262726218.000
10636860744339952.000
5802904936374384.000
3567624601656814.500
3492944765330069.000
7148338672889018.000
3692360025599685.500
3581569872346829.000
1874733223534924.750
2235872359253364.750
1817257597024405.250
2679518480993302.000
2680589333737750.000
2161234527370741.500
2403201483275175.500
2032155148153763.250
2228327637431428.000
2308540852083022.500
4644448882226873.000
7155495854651848.000
6229784827768928.000
6300762047457583.000
7269820508606826.000
3703038467979537.500
7750494330602371.000
4293877500367695.000
5949687733369307.000
6362987184867131.000
3496566090867642.000
4698008046657222.000
6174785773178279.000
6083859032340907.000
12417751484811824.000
16038520684895658.000
12568172138303704.000
14990309764848754.000
12470845696603012.000
26475470633426308.000
22494046609260260.000
46721232490513440.000
46532418863994832.000
23982737816608484.000
19558790588083488.000
11661158667113362.000
23491279801613632.000
24275962648087884.000
22618737289231208.000
11375348459462544.000
15884217531255380.000
8906941508906241.000
6835762568140580.000
3445339201022523.000
7182856163466872.000
8895393616092651.000
5796426224319017.000
7742907829731355.000
4385321747859626.000
6679274214732274.000
4051532549632331.500
8871518708989378.000
4789287453804390.000
2639855412463999.000
1493092292972000.750
2292697896993827.000
2570225508533197.000
1914156625637477.000
4018549373186972.000
8067247647717888.000
8851932793449830.000
7687024135125718.000
7225867965785259.000
14877741772082076.000
14432537595577814.000
14750968986404688.000
8748400288420719.000
5943269252220540.000
6724312312673163.000
5927912420046428.000
3407494163084944.500
8545887865433686.000
11000850033110358.000
13516361653742942.000
7232407387661862.000
6064778735583855.000
8549209835199115.000
13042738108591574.000
12094463277444798.000
27580083603592816.000
23742264555772484.000
26334623893410252.000
27204088592872096.000
15568172970862638.000
12017318386405322.000
12403094262134206.000
13376591845715332.000
15354414441935172.000
15593110697805406.000
10701402083232328.000
23973712429534980.000
23772165115282908.000
35327517446414292.000
45380508447883624.000
45011216541571680.000
61100635141306608.000
68990586937455704.000
86374279690572112.000
91691164313493216.000
128344807148426448.000
120413101671700048.000
159791316509992224.000
137925830269908240.000
77114662192139280.000
122498117103137600.000
73460946066677776.000
42238454419967800.000
25916101243957820.000
27632819324679120.000
39962163906804280.000
48082834317301768.000
35854958105845352.000
22366317156073764.000
48084694225662760.000
25154771454606820.000
24922334274531544.000
13048812486878970.000
18894040218077848.000
11574041466616746.000
11206379082729216.000
25426764944339088.000
12774778842522794.000
6719343417716162.000
14003931159220052.000
8514215426762557.000
6841947539947975.000
5917225582060818.000
3417591002186888.500
4819656264294714.000
2496137383028296.000
1852099139401943.500
2237116341880152.500
2116315789621229.750
4922234793537468.000
3406911323223810.000
3342641172438398.000
4519255990402988.000
4727306586018427.000
7515890693920219.000
10366982841926732.000
15808199460394718.000
24322166989176800.000
13284271093677382.000
20594324138399012.000
23695713823923932.000
12632842754294198.000
7649393121007674.000
4576524841468953.000
7053637843024548.000
8364601158158058.000
12246791507822172.000
15781190240363652.000
19020382808068340.000
43086856775747320.000
42203725386443928.000
34758551062305116.000
19032089337555412.000
11535155287141978.000
5949473276456010.000
7318622249197625.000
3745724257319150.500
4213999349002641.000
4351375944701238.000
2564918959351497.000
2347050752856822.000
4684884177950936.000
7267350427562427.000
8305920762999309.000
7522048207012231.000
4322143261335379.500
4380241199730236.000
2449129001703699.000
1985519058098756.750
1087862978812953.375
2671267262335176.000
1400475230909217.000
829999997401444.625
610129685754494.625
602666119093860.500
359538295374351.750
186557657303816.625
257947324686281.312
405214498793979.938
412179282032423.375
226632326424493.625
305646829793507.312
792259278103060.875
564369933780071.250
1212014397881176.250
1390494095711541.250
1175688823044487.000
2388977753158018.000
1341093362680520.250
1505644434014195.000
1854686771680407.000
1032166461260499.375
2278146421820338.500
2626016881368829.500
4085771464910910.500
2290262161703961.500
2430426426841942.500
1429401281207109.000
1136856965003739.000
2676932744661192.500
2104959492263544.750
2085890620255425.000
1928365330582164.750
1933030253443237.000
4632151483955003.000
2645919205096402.500
1455183726558519.500
996546562239066.375
990737259293009.250
600083797489198.500
1240784564368132.500
1355429141262551.750
1867382614681809.250
1112301473837219.125
2358546603366979.000
2571190391196928.000
1803878301691950.750
4722695424528676.000
4426657993378515.000
3371327548172290.000
8275817288795199.000
6830896764926546.000
8121326244760350.000
10545542310806860.000
15102053284678164.000
21024500232654400.000
11223199004738030.000
6215371923753117.000
12840941498599614.000
7132425234408170.000
3649959331652059.000
8769514296320242.000
4818663166452817.000
6898895949497751.000
3542154924352194.500
4557754468703446.000
2559507474154610.000
1374803876789833.000
2733194723641765.000
1852494583308208.750
2288390675917445.500
4868743181220448.000
6491388913751877.000
5922451480790762.000
3238688765785552.500
2013317528169952.750
1124756159923364.875
603888786751344.500
699389538529538.625
409464745608925.750
389324093886432.062
214464413539191.844
465048596442201.938
606112662670333.750
1399448737635387.250
750589086573036.375
1067435248688759.250
573847353781628.250
1333185949864638.750
1865270106897877.750
4528451069636515.000
3798806184687859.000
1958147624087498.000
2294292307491509.500
1903141371185482.250
1784447082417360.250
3991482479338956.500
5778405718368144.000
3527166019416206.500
8640020721607168.000
6508947873919121.000
15546318791815412.000
21895654036387108.000
13408196043981336.000
14134137187241492.000
22735663448052764.000
35276620403534848.000
19296206847677908.000
26320532189928340.000
27594331546674756.000
27223871184450484.000
19100736791362992.000
23975607637169484.000
14599800602783896.000
8660461274056379.000
6451457230466871.000
3716284855136279.000
2033100611402549.500
4116382674227936.000
2135105534914730.500
2609359461180601.500
4204601599792389.500
3655153943418498.500
4096125478544609.000
4874655174984309.000
4791355827137956.000
7474865810488809.000
7868619339394787.000
4359557867057146.000
2304608418591148.500
1243185720384552.000
1140778616993927.500
2711068161505383.000
4341882991408041.500
3573182573504091.500
3205965418812135.000
8175846017264758.000
6695180572350437.000
13447244340320196.000
12570692061741538.000
7604745177881555.000
8301664854746300.000
4279443706692625.500
4224178372039510.500
3469105008874776.500
3273134315844958.500
3968259811535687.000
2302889571489146.000
2515416817201386.500
1990503836388715.750
2302464805363520.000
2623399263771598.000
1404071522538838.250
712639789911196.000
822868154311415.875
560896161271700.438
1524665736606731.750
2260145613507980.500
1789594793740529.000
4294925951997147.500
4552627036022297.000
2335960395298846.500
2510787355801432.500
1335546764482277.000
2165582456004492.000
1132214286625689.250
1124456933062477.875
2635921899270545.000
1784244241553774.500
2343013384801561.500
2006689859878359.750
2731623802276714.000
2100686438264410.500
4640578239798487.000
4367193284698375.500
6219800066847858.000
5830740563774574.000
14051397790582536.000
10740972394100642.000
24896571905774412.000
27104982627500708.000
40733902726912784.000
21668663389121268.000
12641805013738132.000
10857385068624624.000
26713736612444112.000
14593848717448852.000
15545298465379686.000
8664813082001041.000
6765162123207316.000
8650197577600033.000
5998284795771598.000
14644761865660274.000
12275456106833128.000
10869582617082042.000
10775462013331252.000
6322994325735183.000
7220698857976321.000
7550618840804684.000
8319441396528295.000
4270167138074934.500
4727806675518540.000
3999558445135953.000
8754909023723069.000
10655979183040216.000
13505030198587504.000
6821617296020329.000
10829637223791082.000
6302300607787525.000
5977352088240105.000
13623022441762262.000
7457638182962666.000
6118866229512731.000
14791121491151200.000
15628620721483056.000
13035062236480034.000
26602929594143264.000
37400515672139912.000
20871390683918448.000
21467387175044628.000
26894187960475360.000
22862272714860280.000
12660083313748974.000
6693123656758173.000
4105188969391430.000
3771760808705906.500
2071375663818447.500
4647759126325299.000
4340969850113500.500
8819495248756669.000
8700888334958032.000
8870844638969212.000
4585147802389419.000
2601327141042263.500
1386565399008028.750
1268174383785000.500
1426363256675466.250
1135427622897596.500
661451451555530.750
1471283789746015.250
2082600978178318.750
2017696392916362.000
4216698127784910.500
6667497229797529.000
4015829095396097.500
3805690934593968.000
1945593074242241.250
1786320403758730.500
3965241051877577.500
2124127389153988.500
1289929282212248.000
1008192322747231.000
1027694354122751.000
2133386684576327.750
1253474019658925.750
1513101851606848.250
773946821111253.000
403127436778342.688
245629542900937.531
186778552852439.062
452669832241015.875
417992921961513.375
436547509949922.750
445269354331833.812
390681035944370.000
812615615516809.875
1193696835870476.000
1039049764197571.875
1438031900051639.250
1283391974173854.500
1043769642756565.125
552098004883945.125
324705135147604.000
455377774829169.062
744835458606416.625
447405394758101.875
442409236354277.312
237774701769182.344
142465633457914.312
80361382015516.844
80024539421749.844
41159759153783.984
41640163000826.602
64194858482809.742
73892546721893.219
44822304979890.711
57432966097680.117
61012048691510.508
142898963620990.719
112353606334315.344
60385086580317.898
30734193477352.906
