35.949
71.887
70.884
97.860
260.546
253.982
254.876
252.706
402.901
375.043
754.888
812.223
1154.027
1141.162
1097.639
1196.481
2752.397
4374.291
6572.490
15014.556
16069.328
25228.332
25523.558
27625.690
26625.653
43646.300
44431.841
69909.613
71194.202
168601.072
167985.686
265734.604
544312.328
853058.005
775171.991
742472.440
1174492.592
1273004.844
3037719.595
2936694.141
4095257.962
9662883.993
12264404.709
29658497.777
30766978.002
40174530.571
87441322.459
83714324.042
179549469.187
173439748.536
279239448.585
585911452.124
555698556.777
818278335.093
1647935457.668
2631458573.509
5754994057.109
8959246708.410
9162608243.045
14461227215.610
30986738343.917
32820014394.000
34758093038.263
35521310726.987
46771439064.245
111854733511.513
168141871714.764
171467034312.917
159498763018.278
395438229322.639
513594923170.840
1160416648291.835
1842636094214.286
1864924077070.576
1795513231562.052
2863543609625.616
6927005892589.258
7094719540572.521
9426741180134.092
24660513286254.324
34174121709639.648
77942927127148.531
75743197037611.875
94120832840376.453
213471722079546.812
320919555966179.750
333022083124078.938
363561391614623.312
840634041093465.000
1289808189871973.250
1993925714324909.500
4156661014533041.500
6681290513275196.000
13920200142466708.000
15096429521108168.000
22811649200036740.000
21131488805888188.000
33810738260233596.000
69052104354652776.000
168333090755489248.000
212339213442179296.000
242831394671981152.000
354546354368390976.000
471971429932823360.000
418321716721710272.000
397262470799416640.000
937570672647071872.000
1209756638597950976.000
1467021267776244992.000
1444295843226827776.000
750786133770410496.000
813569197811161216.000
718886541416774144.000
726425869155777536.000
1553328630661175296.000
2279502963800756736.000
2937904321277317120.000
1656176203165656832.000
1349750886942346752.000
719270596150378112.000
1591194130944772864.000
1410511207710142976.000
1451583883712975616.000
2962466679706281984.000
3054885599284788224.000
2313205258240075776.000
5377832338677662720.000
2946493544937148416.000
2830931955089186816.000
2196563439451063552.000
4672314115103647744.000
2790902268033040384.000
1607239207024508672.000
1378482638262714112.000
1342373777675904000.000
1316469655929391872.000
1732342422209056512.000
2404021191424957952.000
1376737520877033728.000
2843922645580663296.000
1563856531094468608.000
805702814613170176.000
441382543792088256.000
502919388996863360.000
505045169927865088.000
293204726091324672.000
229038668584903488.000
208936820791874304.000
112529935944237952.000
300024151651606656.000
161568692332709664.000
125211688743542064.000
115605821420124896.000
152330210684114592.000
87165172422629664.000
72382093845318960.000
81517845446110864.000
93139822902930624.000
150728348935488096.000
124647992649601984.000
69354512579775720.000
161399646691949856.000
229214881719627136.000
205272820600640288.000
272669803806289024.000
151613064914241344.000
127708134534149568.000
204132131757187392.000
213940240050744832.000
278997025846173600.000
252116879307883680.000
131914451992521664.000
77203596089558608.000
155400289957933152.000
245435968294285760.000
278946246319180608.000
244977806048213376.000
257163836817027360.000
135691540060178656.000
150026087235535680.000
164424424665593376.000
109626359907934656.000
241189322594168896.000
282233031740656416.000
208118670266785920.000
124686068203514560.000
269634598376569344.000
252746919053514464.000
278755486445266848.000
162917477840790688.000
86821824876942336.000
44823376080034952.000
26853845329079652.000
14501612657266828.000
14112272214907614.000
12418718739449268.000
28335020573826764.000
18764963329255436.000
23474383918976548.000
20490447421377228.000
24697652922242040.000
13697157617338296.000
15354116440922606.000
11467236611070960.000
13289057023918928.000
14220281480303552.000
12315558832187328.000
7366538054191324.000
4377422604981288.500
4470325699542092.000
4639782017616329.000
4696874328981036.000
3755941756275020.500
3665226045570838.500
4827682810957357.000
3766142277303026.500
3259997203589781.000
7617471925279089.000
4064100189765699.000
8142804022629802.000
6918662454276916.000
3750935441356455.000
7520799037095469.000
3863448428476145.000
8249114745995474.000
6976549623258736.000
3731540296205411.000
3549410026269449.500
7231695045814022.000
5911913212471821.000
7298164626026140.000
6754863388317800.000
14625879799467658.000
11221909966791558.000
11630607753252954.000
10821722715315458.000
12782502779194456.000
7807880342599880.000
12404635328610074.000
6477244084334351.000
15874625707164212.000
19837899796001996.000
50945928988356840.000
44655624048480208.000
68319712555124432.000
144999227304619360.000
119912587770527328.000
258796055804677280.000
415668016613830400.000
487341582636864640.000
759256425557030144.000
868639309016998784.000
1724630889001900032.000
1281136597318575616.000
2647522324731803648.000
1490390054031226624.000
1225513265290296576.000
1612936609671930880.000
932753722170644736.000
507869377138710464.000
504132796753079552.000
362196220292767744.000
418133372804774912.000
953237914107276544.000
797371570096559104.000
1171492539926864640.000
1732878147563913984.000
1335055782119597824.000
2687711977815685120.000
1360990398563352320.000
800663932162199040.000
1277685845437823232.000
1204378339290990336.000
1736242249371272704.000
926535396418575872.000
542427454034557056.000
280094541170071744.000
380195984594767040.000
956296557028171776.000
730388780522497664.000
939372292616690944.000
767150956815457024.000
938219955094969856.000
532226331431870656.000
425920236802052096.000
664152748078933632.000
958773513028962944.000
913894682820731264.000
716719614922546304.000
791002498822896896.000
1192986683355997696.000
2733028393943499264.000
4139194301569234432.000
9224910633776601088.000
9107889230217496576.000
5449005641426382848.000
3997564723360512000.000
5419474896760626176.000
3730719931557242880.000
4395237076893281792.000
2259405696376778752.000
5604030120435645440.000
3994813405145903616.000
5063652209232052224.000
3817523640533768704.000
4069122039036987904.000
2214684597003111936.000
2436661795297478144.000
5143375378713287680.000
7349180665386162176.000
16434377158362466304.000
24823378744196898816.000
12498338239536236544.000
12810470347895044096.000
14396954908948688896.000
8606882111749656576.000
7481912507502637056.000
4442030593432497664.000
4851677684036413440.000
3825417953463016960.000
4637421843362472960.000
10147641857206544384.000
9167263528506068992.000
13241148519393734656.000
15162609469572378624.000
8528959048655137792.000
9281595029843593216.000
13053186230685880320.000
17339426950074116096.000
12152998045248878592.000
16556198540671600640.000
15155205641412827136.000
9224206906107097088.000
8321646577190586368.000
12693478274832789504.000
29805623487720357888.000
22378381356170055680.000
60108180081650581504.000
42336585856462872576.000
103258834069127823360.000
82992355051296489472.000
70445992207692161024.000
106715215950264893440.000
94414731828824129536.000
104208201202522357760.000
59258872441438183424.000
42729764147823099904.000
51431313788634923008.000
59678895438765506560.000
49185034004035903488.000
29149750610068992000.000
17414382863025334272.000
12828014880055576576.000
18464538171875655680.000
13555978960543201280.000
14364936755307227136.000
18221647325246724096.000
10183610546252955648.000
10209295217359122432.000
15367853820205119488.000
15539025518385115136.000
12749411889601816576.000
17271103138013560832.000
14008981124387770368.000
17526011620494684160.000
9308686157416433664.000
7912366559520405504.000
4115995927338800128.000
5126831943428803584.000
7131392211725768704.000
14713713265274937344.000
18258686223258408960.000
17906348125682872320.000
9879373333220882432.000
9101353093238888448.000
8287443759088033792.000
8128336392616615936.000
6788930447673703424.000
3897056301781799424.000
2126189708131856640.000
1228087974100991488.000
1497187952895503872.000
808425728945694464.000
799767285560369920.000
413950067645851392.000
492916857977446400.000
368303780882155840.000
846627752469994496.000
503901996479694528.000
739209378391596160.000
403424176472397952.000
225846290360517760.000
279903578656826944.000
148502590841427072.000
148979515582061472.000
135632509295048992.000
163205546066909312.000
140053113343290992.000
123770108651122848.000
64659344023120776.000
63923213225754104.000
89209476724558960.000
75350590122635952.000
42402915967477056.000
33651243421538120.000
88516631425543472.000
88066803472438672.000
87298526150301088.000
72039607833927832.000
83251697704750224.000
60956110457602104.000
75990075772923440.000
83200194102440128.000
122408410176385520.000
140315094058346272.000
207394614316927872.000
293526885797867328.000
474447786308056192.000
448698302503347840.000
257305304580918080.000
210919118887421664.000
283918381716154304.000
152412996161188224.000
80443829116711760.000
70422878771456880.000
157256622213191776.000
212278154058279904.000
114437717347757488.000
63728534258615760.000
86964329712478528.000
67539108011316312.000
139661655008018432.000
133677851338941472.000
80279803305614080.000
44600648669420608.000
26221065440727372.000
21207804363715688.000
24907669259160012.000
21432292119462908.000
12199892972961518.000
14582409210556352.000
8004838410461418.000
6499966658294002.000
8117907057914802.000
6303419647412514.000
13259915200527454.000
11000826991258244.000
13894528761742656.000
15571106884614440.000
8168824053040687.000
8516895369923797.000
8060696581980331.000
6906932327440118.000
3643638388570045.000
2242989451264275.500
3495174534607129.000
2101473600933223.500
2313456104715999.500
3620526620861652.000
2114071544724357.250
2012682973312929.000
2349552968417302.500
1860710448124943.750
1022942677290967.125
1471378292816036.250
1888133607301158.500
1021358956036661.750
2111580644511770.500
2616486241750286.000
2297289473260462.500
2556001665370781.500
2326919995434393.000
2223152203428180.000
4520939779618100.000
6378245681652145.000
6911457296084191.000
7294060632663785.000
8712034430254540.000
8298315229640209.000
11075969704044504.000
11044996477015706.000
14950295293767076.000
20281238971358112.000
18845809839356920.000
49040552716510216.000
27992097804190040.000
24866193709302216.000
13103974453269876.000
12156456006379366.000
15187007824844788.000
21302726114315012.000
50977991003646096.000
38482999005936200.000
88503355160319456.000
85406010924393552.000
127807575429083216.000
162052359071910784.000
108845663821454688.000
60481418257921024.000
138938127214901152.000
283144113189081792.000
216362114545561536.000
240918447974263808.000
363981317019737472.000
216338573323019520.000
297591944635123584.000
388533078650200128.000
841669600629203072.000
703351519055835648.000
842393072144094336.000
471785781897725184.000
540723635092547968.000
877253001886476672.000
669591203767789696.000
847121599141800320.000
653466630267196800.000
961124550950288768.000
729326458599149568.000
1610915560875278080.000
1535278600859016448.000
873096506676778624.000
963670985025532544.000
902691567269269248.000
1287259283285350656.000
1468366637392994560.000
1642565483263856384.000
900248455211386240.000
1261051399226840832.000
1396904301279230976.000
1660811916484813568.000
882564772550449920.000
479661108726336640.000
652728354444995584.000
1428774318578084096.000
1320527745443636736.000
2837928699587296256.000
2099405823196925952.000
3149010840658875904.000
2659303279578388480.000
2524484580516928000.000
2111832835917405184.000
5618185357621071872.000
3709386723883546112.000
4750266579997302784.000
4189935618993884672.000
2324268636747870720.000
2681799873696950272.000
2379338691605825024.000
1431767133283922176.000
1480026862607841536.000
2377661886554862592.000
4764859041859982336.000
5484919320072887296.000
6809320867745972224.000
16598784419682048000.000
14410773942939344896.000
13610613587546925056.000
30996580871522689024.000
24368724154146258944.000
56039825903518302208.000
78499127670995501056.000
47247804146166964224.000
26682317333725057024.000
25287071393074393088.000
31944037809993707520.000
22715482009696829440.000
53506912998319251456.000
42390280885973491712.000
56701229037661315072.000
50761080252460572672.000
28628228216844152832.000
16407078500712130560.000
16118632776849963008.000
13264863503639861248.000
18542164728880177152.000
24601247632358830080.000
51102871080740339712.000
59599464535086178304.000
70882667898527006720.000
103269490441756770304.000
97650950898712936448.000
87947469670479855616.000
50085263032192729088.000
73714074935330619392.000
88614339998505893888.000
82356230543600205824.000
49219413148944883712.000
48974101846486245376.000
51646882998325370880.000
42911189417502179328.000
23661184739286773760.000
12811841510659653632.000
7926432119363013632.000
4123932221948182016.000
9272757432358778880.000
7202845307335495680.000
8372841554463287296.000
10230065966457292800.000
16306073183573874688.000
12856800764394022912.000
6714481153703294976.000
8971689631727665152.000
10261937427599337472.000
5707309688980940800.000
9315867808584263680.000
7975928867322487808.000
10017639809151956992.000
5364296343404162048.000
3096473337455590400.000
1637627064046443520.000
1739836836862829312.000
1410643237193447168.000
1168038800359669504.000
671543276490011008.000
817399519981493376.000
721563596398444032.000
369872710488874816.000
476475185464484672.000
357886882162439616.000
899702510425677312.000
824430336856628608.000
921285910102280320.000
1376037390931100416.000
701151190884215168.000
396477252652592256.000
473052016901941952.000
446445687988845632.000
497379303218896192.000
492670107503947392.000
386399590281844160.000
856176010650078336.000
1386500001739391744.000
1652349446601713920.000
941534531375361920.000
1302154982858056704.000
1533544820670407680.000
1329168195005977856.000
706331905064601472.000
431037318116329856.000
880525696508407552.000
972011669637278336.000
846713734077762816.000
719879375294807808.000
422120923593804096.000
473456996759237696.000
476805211736470592.000
361627806925433152.000
224653189515614240.000
221213762466718720.000
487800565773145664.000
381475890492397952.000
220347202172901216.000
109088389659605024.000
150748135244226592.000
88015783973022784.000
61550133309635640.000
155431393329851968.000
137486287649731488.000
74557609524029168.000
86680985578416016.000
75568404159379392.000
77619390269658000.000
163760313136727168.000
270275440831495424.000
240435798487715872.000
297512381916490368.000
215534962887931104.000
121880749065093760.000
155106131961127072.000
138454813797620112.000
297627068639101440.000
420670976465738752.000
387548134505022848.000
206591498793856960.000
265191178210588000.000
302521783398408320.000
164290211142651872.000
89954417619680048.000
68003635735191144.000
86496186896267760.000
129117674802965952.000
111887657576673312.000
278245576008848960.000
250067539754297120.000
140078995070544208.000
145274317184178336.000
142611196702582368.000
148976717438426176.000
150883116452986240.000
119458697770600336.000
114729803639184144.000
272577977274544352.000
353691081939314368.000
750146499734342016.000
390623009375629248.000
216948264814283520.000
281132377215496352.000
221368202866670592.000
301622910051184320.000
235720267287887104.000
511115145719395456.000
376015094112365504.000
540263795281362560.000
867196024811716480.000
775650985968760320.000
661645032165746304.000
860540862703685504.000
838685806474155904.000
910721862956907520.000
877932656703997568.000
1727033792900039424.000
1369506784560239104.000
782460611356153088.000
766280370361199232.000
680041721357714048.000
396142061560208576.000
896656589600500736.000
730484935250587520.000
442702282124857408.000
245603450698034272.000
255603025293998624.000
146833398222838304.000
121354120915613808.000
273298503802221120.000
433744337768970304.000
251916981663196864.000
361487109275778048.000
430002962848129280.000
864102847683774336.000
740949902129968128.000
411244978836870848.000
521134518183654208.000
425276020268345472.000
448193439747196736.000
379126852434021056.000
475846606647654336.000
275359452874013280.000
441951328321318784.000
882775688701138304.000
450362486989155776.000
231131257526907328.000
129221055484384976.000
152321546697200224.000
214741004894068224.000
117922916777851824.000
271398005104112992.000
223487642028920480.000
244395974257994976.000
226813298839725216.000
295411920257954048.000
208714980541571168.000
434740989327634752.000
420382543725903552.000
239330865855169344.000
529773845977557632.000
416684083116600960.000
494097898024686336.000
443533831887560320.000
459094758440414144.000
265340386634303424.000
149148284770346880.000
198583942922483104.000
113952668117706736.000
162860877642749888.000
132887132365960576.000
153597828674455616.000
115247909871713136.000
123049852717829776.000
141914650124380704.000
116066372117689232.000
159787860397332416.000
88242913203486192.000
117578254756576208.000
300583733304433152.000
228015906190910560.000
270816081258594464.000
257504296867004512.000
393174955067282880.000
238102484483895552.000
136106786804117856.000
72116190860804976.000
61280219795399304.000
77363145903818576.000
91248116118399216.000
88739573597754864.000
92970365675161632.000
112882664167748080.000
119303507543492000.000
253071961112024736.000
282369921238770112.000
261702775966506048.000
136370488509424144.000
74225675260815664.000
90317610780047072.000
108977237036665936.000
222369749281143744.000
117678971767886240.000
69449850829777136.000
40055528368606368.000
47264099745145056.000
25009903314541016.000
19706001806228352.000
11487767389064438.000
15311520908709032.000
11762122320849398.000
14906384037672882.000
12706124573369640.000
26500581214691612.000
27826726929457636.000
38418601672071984.000
43430910455310624.000
36177397696921520.000
88128628642438464.000
119384653816152592.000
150660089031591008.000
223834141572864960.000
196951346355554176.000
241167437673168544.000
387489158226514560.000
895114134117735552.000
971037547184660224.000
925728488448151552.000
531746468803370304.000
277503113666863648.000
202391718214215872.000
423277151001355968.000
525314956176874496.000
435414566031234624.000
484502491367708864.000
249214489730254304.000
261929213924032992.000
200979165999711872.000
235323494128093152.000
224921341676481632.000
277858998016430816.000
165811084148280992.000
197182224233193120.000
278317696155536960.000
209151122180235392.000
538052079497190784.000
641220974100905984.000
1696341428415541248.000
1310824883763687680.000
1699681565169370624.000
1746011272575831040.000
917379084223857792.000
545165601141264192.000
666175075695603200.000
1389439294504509184.000
1613600882803368960.000
1339028250019826176.000
767232147534151296.000
808760461770137728.000
767747113811208064.000
932288673087868288.000
757484976436180736.000
672472544847838336.000
779495322114013056.000
749152525448501504.000
1175277803956858368.000
1176970288130944256.000
1575573673366609152.000
1492672480790628864.000
880415772838758144.000
749728276242287744.000
404887881160797568.000
241105077716310592.000
222529869857915648.000
270234111388331456.000
297659474229729792.000
219460321320556224.000
463075921667972352.000
259001139710680096.000
139010839782302256.000
117451841770208544.000
60734230740863304.000
142281693064785088.000
156685622261497216.000
213227535683314144.000
430603077357187584.000
887615538974306432.000
644292293916067712.000
902666702433155200.000
458946114439759616.000
444960873493173632.000
470205916478603264.000
402506759047293248.000
838591775920860288.000
476818369619565696.000
358286936738966528.000
806086972011061888.000
1683348256935493632.000
2267625982908306688.000
2926492015010531328.000
1556070369165014272.000
837463100453820928.000
1245637925925657088.000
1354301445104900864.000
1419849314230537728.000
1249345400576502528.000
2926788513967565824.000
2608320917265745408.000
5523517719530223616.000
2833989721576540160.000
2465219271604872704.000
1314506550873687552.000
679263647468234112.000
873732046034017280.000
828224649747485312.000
502504174210727616.000
280184912060227424.000
247737451747497600.000
137798606378821456.000
69676981561823432.000
92538413050949488.000
48605190905934872.000
34819679922291700.000
49921041552212208.000
44201641412396120.000
33938794725436412.000
80270859722812464.000
164883532142887712.000
268405671512794816.000
438529485599009088.000
228690442428114720.000
296298719081670336.000
265301673092050240.000
144259916161698112.000
73536420436825696.000
151957382854111648.000
140512013275912944.000
80354945714173248.000
70540091194934824.000
144262791462986400.000
80743342466098272.000
79217478123851776.000
70538182819672912.000
80715872594519504.000
66769758636712392.000
79685401329086192.000
92323006062480800.000
67353685640006664.000
79994503336429248.000
44827856114930336.000
44836265271166584.000
62006362983448392.000
142406032348405984.000
112296869554310640.000
64345886408493280.000
79226465242091328.000
42431851674901328.000
66615822872397768.000
71282947249084016.000
69149766936579728.000
37627385648181728.000
22241898236277980.000
26335943805865100.000
15158366572885142.000
23968621858506456.000
14589555938196694.000
13413552069529072.000
7265522016260855.000
7489401802598822.000
7958348459720068.000
4683192718898941.000
7287013756815878.000
11812919561658142.000
26396181757586552.000
22793591978013504.000
28074426216460308.000
15680596396046976.000
8580670722924279.000
13639659922077408.000
19790841570695616.000
12181454877020598.000
11654008993158042.000
13280712520863746.000
7736907144476231.000
3954184859885790.000
2385007561804230.500
1438353566122191.500
995726618540124.500
1435867874307217.250
1344393547351558.000
1324959611236261.250
2702801902351609.500
2277424949442382.000
1198585154789370.750
1125236960044431.375
1276576248460497.000
1136286098411318.750
1505007950958182.000
1220534439950967.250
1502365073999437.500
2287276360126483.500
4725924385311075.000
3606492299633185.000
7470318201102387.000
6950810544370584.000
3652694365112226.000
2137589604761181.750
1256843026028203.500
1485193083709380.750
2347837304305098.000
2680084845297623.000
4148116065518755.500
4467979779113016.000
3459528512003298.000
7382361543140030.000
7126756915101779.000
6679923198787418.000
8143795689604179.000
13040347277835982.000
25786345563641136.000
22259425515270436.000
20868244431611792.000
25103796552221396.000
21476823525105860.000
25650746246565620.000
21386356951998840.000
10955423427012486.000
14515148573805190.000
8667759994015029.000
4672934738747372.000
6692183069004304.000
8425612238888160.000
4417778955589549.500
6647501419812062.000
15677628366949276.000
8138159847108272.000
7713256711161759.000
7113380190627228.000
4325581825138427.500
3562406125481245.500
7163915698360356.000
15091238047787632.000
8555126552717285.000
4647950940094527.000
3539594377541787.500
2100717518239152.000
1227771283342078.500
714287652795230.000
431423513573899.688
411919802251664.312
657855462558793.125
352872239795349.250
183587732326000.188
98116441283261.266
243697930005880.250
130268709926735.516
127359906051604.328
70543964462860.953
107631180332402.578
229902679434025.250
214773687329287.375
195184223119555.844
114842382913736.531
121348257957702.141
104049080660680.766
257740764009727.062
421452692811651.188
435492210051699.812
669781006388354.625
1469023666678488.250
1451782985731166.250
1016506047787846.875
1171044538015070.000
602170961246844.375
740873840437624.375
446937259385639.938
701378399557616.375
763537512128435.250
594586760623429.125
840442155761211.500
781258530077244.875
804794885806025.500
681764487902548.125
694339331556498.500
1071666692812228.125
1193575713619491.000
1201370577152912.250
1340366628376713.500
1078201500478159.125
2349868257622964.000
4726325921006994.000
3530905681055182.500
4173329936499595.500
3939427606208206.500
6130767139896739.000
8318844878845376.000
6070642836232684.000
7261753404948952.000
6427219306908022.000
7748416302664895.000
4110700323987910.000
2425016377236151.000
1279364855775234.000
688382703004559.250
658969844859287.625
1052728023722474.000
1126688528445218.250
1161452143840506.500
1365702086005089.500
1050613428990406.500
1473768113628642.000
823152002533884.750
1089979173989801.375
1456711560964839.750
997839127070923.250
1116089229353115.375
1129147064978445.250
1517735855632119.500
1044623351239571.000
563366926574959.250
761645539293534.125
1139061027981966.000
679086004594942.500
844619971243461.000
733637355011298.250
393740598627981.375
631550976658721.250
761485799592878.375
1069640598406139.750
1008567516983080.375
1157121436479366.500
623787249698958.875
557318464122690.125
840066955712794.375
715452444744483.000
656016502323123.750
1305205708294136.750
2693870039893174.500
3727261325733250.500
4371257238292146.000
3698147085126183.500
1897668803327781.000
4852021729830272.000
7491849346757818.000
8372832589700392.000
11421618357596832.000
26808388441380868.000
38558580938108464.000
38756483706843808.000
41855861321979688.000
34330535409865560.000
79553189969062352.000
82555173004280800.000
164535342580612480.000
119788183008396560.000
274281390652837024.000
254238954605701408.000
239830953244231744.000
205006614629952000.000
264696126409633952.000
414696774822410112.000
835834122386312320.000
1186870640679521280.000
1152428084243756928.000
704204199025595648.000
964039944096497408.000
676661387588725888.000
677650419255504512.000
368668511569153280.000
434562103572251904.000
476372276318926720.000
523648805384564352.000
267798569785333056.000
537698940684420352.000
475909684954883072.000
639774355941807360.000
921240740660884736.000
1457434481994796288.000
803810114835970048.000
465256127200915392.000
490734655590988096.000
659634747462986752.000
864419266459342848.000
1715250147696981504.000
925934834778685184.000
1233200695351330048.000
2954927877756043776.000
1701835855994302976.000
1262503858157756928.000
1477761516780485376.000
1647364911575930368.000
1412869525959893760.000
774842806639627648.000
1750316019426108416.000
1210932546137339136.000
666829701668710272.000
889014815392137984.000
662260746027040768.000
978045913532961920.000
541064913837803584.000
803489938105982848.000
1636752049825143040.000
2663648258900059648.000
3772987423232005120.000
8682917701127943168.000
7168228378295447552.000
16200469890922739712.000
15667373344260261888.000
12715329390646515712.000
14231494978137516032.000
12333986928360247296.000
25649595966142312448.000
28371822317631152128.000
22512642787799146496.000
13066855123224997888.000
31967451536779644928.000
31260817367462162432.000
18364279393158440960.000
16583610558263306240.000
23870740965713612800.000
13639623941743249408.000
8086283610265157632.000
12775471923304421376.000
16160278148044695552.000
8944078647437758464.000
13014162339349739520.000
7679437869194278912.000
4116961834983436800.000
2368501032051031552.000
4987119915970381824.000
4036167824174317568.000
10216979873565284352.000
9494401371473119232.000
7602004857046212608.000
9124516948099357696.000
13911820768566796288.000
7543751829842797568.000
8718227255139902464.000
6760516848846248960.000
8505614255403368448.000
4772598952201636864.000
9848603767866523648.000
8998067079640267776.000
5222149556538898432.000
2972116761591588352.000
1694490584750988800.000
1225009951532347392.000
701789691766749696.000
1459908503151294208.000
1570185256666678272.000
813397220662126720.000
475415043250134464.000
695429661782808192.000
778875580447260032.000
640275892951513728.000
381128094938916480.000
911736774624639360.000
1390116173457063936.000
1694300556033766144.000
974011071856675968.000
764222525849292672.000
451790090628848512.000
229037229214236608.000
246928364710401952.000
225450741651373248.000
136667953130195488.000
118135237931807744.000
117312636065615808.000
265637927533703552.000
201364759161188000.000
216860819579863648.000
131833167436344304.000
204280097823384256.000
231117613636708704.000
122735164339117104.000
69089561869360928.000
36836875090865400.000
20695314320439180.000
46990523887764128.000
62411293257002192.000
142139968568296304.000
82624193909461920.000
71311077581459736.000
41642219163138440.000
45289554745987304.000
26520005963014480.000
22191353345708216.000
45320020114924528.000
25795258424623892.000
14186823713477788.000
7583419407010098.000
8897204868985712.000
8261269716064171.000
6829515105247519.000
7692940038659200.000
15349603700263336.000
8732784077037472.000
4804735523114982.000
3827568400407336.000
6162196068022859.000
7809877251088862.000
4446253702060860.500
3685612159245757.500
1846710295467271.500
2541433336609924.500
1935963873966912.750
2399909889407947.500
2459324132520393.000
1810943604707013.500
2427227634968286.500
1278342275118991.250
1421708556628351.000
847657619060985.875
451429238449372.125
459848122149238.750
346711829784978.375
782743216524314.500
1246336314255898.750
650196421823315.875
844110778717998.375
1295602847325137.250
1300171607364959.000
1450484050773957.750
1066314389456212.250
1139553844036600.500
651563774249893.750
583733063512259.125
624718648282457.750
667132772140140.250
367814310336207.562
308251124146992.938
438806008124148.500
695354659676915.875
788998568618585.875
705062644859296.000
599081636720801.750
618149401398351.375
317993087959555.250
379557710411151.688
464574178155755.625
645251226598094.250
571050066328369.125
821222004683742.000
1342501763233278.500
1443436142364324.750
2117850113891788.750
1882383839178504.250
3979931528167968.000
2061099178161875.250
2268497959837599.000
3447337582251922.500
8899861608635382.000
7602041200717908.000
6383548627711293.000
3738091867452591.500
8171770919390428.000
4375617550820808.500
2528516655165967.500
2103686560549780.250
4614058532205595.000
2544693533727109.500
3224508381139812.500
6935139939909283.000
7473442486233099.000
7216553831553149.000
7152887547415163.000
8582355827311221.000
8813588595684820.000
5978201634083369.000
3295878709060407.000
8318044531977041.000
7674209520404847.000
6436156523460503.000
3754458622227823.500
3709473711026604.500
8349161006021746.000
7875144721157157.000
11619311230083550.000
13834071010372110.000
7661675828674513.000
8560591741696932.000
8075837766949220.000
5956388161798090.000
12731367111466478.000
27517139637514264.000
36736572599105304.000
49744467454649624.000
37917881923559120.000
79082330910202496.000
78028176755149056.000
83735246517878112.000
93130491314257184.000
123079760966204000.000
70243403454554664.000
87102493270023840.000
79058003195377888.000
159727989559849472.000
166266834421034048.000
151509965689313184.000
132778632620739696.000
79509817522920464.000
127505341065115040.000
160918678206710112.000
245627503018586176.000
208782634591154816.000
118653050537596752.000
143959991780294384.000
225033602090330912.000
115173564078826144.000
150270257697307008.000
217266909004406144.000
128957561347950800.000
123996179484506224.000
135946915098915696.000
139433032849528048.000
114223899034107200.000
157671713146936256.000
133418351165403488.000
283564743930145056.000
159949586818463008.000
133187835209675136.000
129157318788610496.000
68470278444174224.000
37617385078890224.000
37041238769132984.000
83990393269593504.000
168064281363070560.000
237734813763221280.000
528927058509220032.000
737845636607213952.000
400064099802587776.000
490746174605937536.000
378404337564437056.000
544181469662933568.000
362743442429732032.000
495538372441265280.000
524550974704047168.000
639138858630581632.000
971807098648233344.000
717336138015119232.000
829502727420030848.000
474667031030992512.000
268695369337810112.000
151136825046395200.000
216339996307630944.000
115943672667188000.000
135962423848952448.000
118607776124690256.000
129858489949066560.000
202557506037434304.000
238946532655684928.000
145042851633593664.000
163076283749411136.000
90898043696008704.000
91326936606826496.000
70719319433565304.000
161534998718786400.000
256411166982703200.000
140000549094795776.000
72356011245828656.000
115065427133480384.000
160236608264525248.000
86102828869775296.000
129482689116505408.000
281382593102311232.000
285467554798379936.000
158308411136202432.000
252000952680192192.000
144941542767919712.000
204515759455605312.000
231447910145113920.000
251985270626889856.000
301863440973495360.000
460599051339099520.000
936371214859410816.000
646369509509220608.000
706168353611691136.000
409592536034533696.000
246103920228000160.000
229605459092590208.000
122232852490832992.000
129990850236793824.000
66854969370348608.000
38623807090269856.000
21663837461385020.000
24354480021315192.000
19181564819303816.000
21665633686257660.000
25109637032345916.000
24423628593184928.000
24707811711336132.000
13895829944111944.000
8042159749276119.000
8540804469158568.000
6500851533342348.000
3237919409113494.000
3914887141854105.000
3991420486565395.000
2007074952515120.250
2385596950907241.000
2525174048909002.000
2055597017314976.500
1248293761438384.500
1027373728443894.875
586778254572029.875
1178483284501921.000
1352553624674187.000
771702443060177.250
1219434760232081.250
1453482859100211.000
1301461876259636.000
1247138205175529.250
2475545315825447.500
3385217350157559.500
7550487781387269.000
8656154887005551.000
4817238714854581.000
3304157940842824.500
4542419897365603.000
7412744437557105.000
8528426822884309.000
10392315870266262.000
23705254562350188.000
37677066897839704.000
86904616550172336.000
63976709159842752.000
39037654019030336.000
21627088848529908.000
27299395522275656.000
14659459472458742.000
15586202178818934.000
8708022963987327.000
4615929483209564.000
4079972198404584.000
2086747163070715.000
1041072314196489.125
2698787176353247.500
1489840957729527.250
1006795301001307.125
1189290432741920.500
645345381622566.625
1395178566120127.500
2097706702063463.500
3218948934158625.500
4803336110823320.000
4489647598530757.000
3518152787641274.000
1922526874940558.750
4260993983556453.000
2412191671090596.000
1909998403279799.250
4793132285879501.000
4120688700027510.500
6417234444733558.000
13499425483927496.000
11434359102523664.000
6527289113911257.000
3333074925346401.500
8512911625225435.000
8361439088848999.000
5976440295175799.000
3208223704860798.500
7600508908804808.000
3918609858464772.500
4585163544938203.000
6608964528032852.000
5972254577473823.000
3549397290839481.000
8260072947156669.000
7175076168376013.000
4363590486743175.500
4208317079583583.000
3201723860715273.500
4886170725062798.000
2724766985396806.000
1422932240544186.500
1520514580223925.250
1434565602255401.000
1316949661430448.500
1371497291646887.250
1383537933653547.500
1885931651181683.750
1875470061356955.250
1926068355616615.750
4933588200975135.000
3923564917488015.500
2102507694098475.250
2604571403778448.000
1497106959604912.500
2363980195272864.000
3416682509637143.000
8075806112376278.000
8702371105917585.000
13184718581429130.000
11785969459360278.000
11033842650239422.000
15677028859641416.000
19366802674764212.000
46030638919432800.000
37421361675739872.000
39089962967559544.000
47865123871291624.000
46826714492840784.000
42556849641343360.000
41884704532628120.000
46786910988473800.000
28189776152819960.000
38321067064117280.000
19314908864774320.000
11169096149341424.000
6867587755348530.000
10596607769441878.000
11896593384493518.000
14934957703368834.000
13285072941020702.000
10883904038532188.000
11302538623838982.000
13245255448447734.000
7615352789980840.000
4594491797188199.000
3585211772901865.500
4412644930639797.500
3729421792194828.500
2280235869331034.500
1153356887698480.750
1299688285255586.750
1306945909845121.250
1963783176312185.000
1044825402137657.250
999337377701434.125
2620581443254679.500
3905445204228608.000
8833383899612210.000
6177620099534614.000
15241468282565424.000
20833514607986584.000
28401957242034032.000
38157349339488568.000
48537870389829784.000
40136535555905984.000
83572337915104960.000
43208147861112360.000
22299993545947872.000
13460897355561588.000
12108140174804862.000
12876722837475790.000
11074398051829826.000
24036016559408024.000
19716425483737600.000
45968843091875208.000
34412928409804060.000
51317410648931616.000
35206711131762352.000
47500122957900168.000
39884690039353256.000
50289099726606464.000
79353361010168720.000
112363895596586064.000
159693139591994016.000
151884330970001856.000
131307038115986112.000
271367151553183392.000
140959664912110848.000
199490017589330304.000
275900968229432672.000
201109898221788160.000
477472467371302272.000
712983342105193856.000
424487970683919360.000
518906695078518144.000
735572023553896832.000
747314219147298816.000
412041892512701440.000
216425017501599072.000
459345255090388992.000
906993978787527168.000
1470523246230741504.000
1487547865525950976.000
1513147981824747008.000
1373416151303590656.000
2739488538629872128.000
1539873723710899968.000
2417525874707765760.000
2227143886325208064.000
3150598754037089792.000
2680180741913878016.000
4097473214885452288.000
2463415632880741888.000
5033228707148731392.000
4525343807137908224.000
5193744846993722368.000
2820481779403662336.000
2872722941366899712.000
2600383359846333440.000
2969442870447111680.000
4042978527449216000.000
4761594499122746368.000
2692324988400769536.000
2166440908898372608.000
2468140045142327296.000
5226594369391055872.000
4068844503285706240.000
4169420010491258880.000
2401212020277768704.000
2362740642349452288.000
1391845987893679360.000
2177483545361472768.000
2793998088567432192.000
3009263540291892736.000
3132792374008108032.000
3052052709642841600.000
1742330390225191424.000
1476335901912686336.000
814600488260753792.000
970330668800713088.000
717203370485108992.000
661156377658480512.000
923457279871847936.000
1474678521835726336.000
1360392188861044224.000
1755904230816422144.000
922130939868599808.000
717323291069806080.000
1491132381737810176.000
1417300202408195328.000
1209252016910183168.000
2847376890520299520.000
1619144010832320512.000
2070156259337238016.000
5062470684694692864.000
4513424843463490560.000
5424964420290722816.000
4012786985305997312.000
5519412575917974528.000
2934897214739637760.000
2255426076552753408.000
1246572741009412096.000
722641647645631616.000
374536191474744192.000
228041434894217792.000
281528994442111776.000
371107219610601472.000
971925235184624896.000
1520374412995370496.000
1250007166585106944.000
1181898556914443520.000
1357242827729987072.000
1190072791399175936.000
1340883416287159296.000
1575590822810315520.000
831030391439172224.000
725721496704817280.000
855407162261018240.000
733568121296641536.000
818074417115359872.000
738022702485879552.000
927788997854481408.000
480833834644141120.000
248679481805612544.000
494317597798037696.000
364518948054550656.000
470981464377571968.000
656822783697449344.000
978186989307108992.000
809787399931845120.000
457505651675472064.000
520788588364262400.000
353312222117108544.000
760386884725251200.000
981317754382262784.000
643427975603639680.000
1312666407939686912.000
2754573285619318784.000
2628067703531833344.000
2222956936770649856.000
2763699205043419136.000
2290932078501173248.000
4995590358536438784.000
6923885013153091584.000
14775954437136834560.000
17625225529170845696.000
22995624339995418624.000
12879070342710820864.000
33180740516034764800.000
22660607041050898432.000
32330255521473576960.000
25099556890672525312.000
57186566467721469952.000
31293799228804395008.000
18339294080707936256.000
13487852467950409728.000
14862413237739896832.000
15945465319291527168.000
14237876974061109248.000
8217253437734611968.000
4330067096329425920.000
2332814936175830016.000
2461337321237531648.000
3063030628315400192.000
2579034291191272448.000
1436411681164525568.000
801001645053899008.000
841654880347295104.000
819127178757343232.000
789929320180009216.000
1617695216368295424.000
1248400528988103936.000
702063780321458304.000
646565612926313856.000
1511745912211780608.000
2460830490938923520.000
2240274403836745728.000
1183232729495904512.000
1246220188308385280.000
684812767689446528.000
800255767403096448.000
1668570297440618496.000
1377790546623551744.000
1586215918200661248.000
2434019101567883264.000
1415850227898826496.000
2923383432497751552.000
2146804417800459520.000
2797411873279681024.000
3913382383047898624.000
5330012229434094592.000
4829964966851689472.000
6675612981461698560.000
9411325898997479424.000
8177770924800288768.000
4157923095359648768.000
5372613595088630784.000
4266414367388978688.000
3717429347965553664.000
9162842425229778944.000
5453045469198804992.000
8900492214552680448.000
9000794333163209728.000
9310734759374628864.000
9657188896722825216.000
6939113978232568832.000
4244562261985906688.000
4815720017512547328.000
3888235409409271808.000
2163714087902000896.000
5491941908992422912.000
4036363101324990976.000
5439070515980182528.000
4964033252494776320.000
2608678882753092608.000
5579923538021040128.000
4164239684737964032.000
5077081581073922048.000
2898520377902037504.000
2196791798125394176.000
2552375925546476544.000
1514081289847057408.000
2334993651097631232.000
5183372217655652352.000
3042456178291630592.000
1765745718936336896.000
1473695922396316416.000
1250212039877413120.000
1406565797246396160.000
1605691103000130816.000
2602112460592887808.000
1532029521094157312.000
1349525895495827712.000
707981679447551104.000
409995549652001152.000
472540649499830400.000
245393611387507392.000
138093082028864320.000
213211281074495232.000
285489980492822048.000
261167051104322528.000
144328185006536032.000
75817547320377840.000
41626089402062424.000
46591035239461008.000
24888870137069552.000
22033574439982516.000
22911771215438016.000
12885751601661964.000
7202440652355507.000
6008633594523866.000
7636743154439069.000
8587897911818178.000
11308902219138668.000
22888827800263576.000
13578984775578720.000
18649116734574944.000
45950008295735568.000
23691946754562912.000
51594876669285008.000
82236284773651104.000
111972414830744048.000
244764009906832000.000
210681049566777536.000
247841587207395168.000
383416324029529088.000
967870025316931200.000
1403985629944623104.000
1444457572130547456.000
2129950268763176448.000
2387424487386302976.000
3071673389918541312.000
2995490625079145472.000
3178195607195128832.000
2460575327086853120.000
2838592904045960704.000
3824132483908940800.000
3819565845932206080.000
4189910538618092032.000
10247838327875153920.000
8053131706603532288.000
10011178049216589824.000
7559649527473534976.000
4423420776137136640.000
2340338441630942208.000
2450151155623166464.000
1485432334558261504.000
791213866923666688.000
443296066956396160.000
504813398544380352.000
291874352072542784.000
226571585698872928.000
288313723148424896.000
245389582243452768.000
199050206312964928.000
539788191836763136.000
438528838480223360.000
223420630702230176.000
287648000387821280.000
251516457470630368.000
387939989842682304.000
518113258025288448.000
538831105220877120.000
635601697856259584.000
639361791290225152.000
980965627873827200.000
1359491019099147264.000
802029897872530816.000
446109303569775168.000
721137854800935936.000
830240207167793408.000
446635199803137664.000
497714643557309312.000
290543360951466304.000
298042683340135680.000
164984854713194720.000
128479284306798016.000
164751671113408256.000
165141026425432064.000
143234207190979600.000
126162269706091984.000
257876449255389472.000
140936809441168224.000
79886330254372720.000
79827032605834880.000
162008982987489760.000
141048731586945232.000
157162930879598784.000
90034075883827456.000
46467892279666344.000
26763091178753724.000
36043307461762112.000
44980745935159096.000
67756219431433320.000
153712490205751680.000
124734590458384128.000
198849837913238144.000
510437477687930240.000
374194981381622528.000
435583387697008832.000
383587159157424960.000
933839194931477376.000
1187478310599209472.000
2663872239161838080.000
2181276968991022080.000
5302778873316026368.000
4454533876491870208.000
9418580505864323072.000
9496449740646727680.000
9684063342913974272.000
7874058772899702784.000
4664060670027446272.000
4008744955662444544.000
2281996931506369280.000
1315165170679248896.000
1404148889327378688.000
1262513766884006144.000
1692631530281052928.000
1748596026953856768.000
1199126756230270208.000
1409799964009716480.000
716039836699157760.000
967974779552735104.000
802396863203961472.000
463355406316227392.000
245763553036843712.000
134673094351263712.000
154893004085882208.000
157470406827909376.000
122261469195124256.000
166445820391649856.000
