43.376
45.873
42.351
39.156
35.461
37.847
88.562
81.766
133.965
134.233
127.596
117.629
253.397
237.473
475.404
496.689
518.954
780.718
801.727
847.874
1335.396
1381.413
1362.631
2907.579
4442.610
4750.392
4527.339
9881.789
15142.854
15760.250
16429.215
23408.303
25569.498
56024.131
89926.523
90223.896
86588.187
80271.353
72536.647
79566.030
168450.401
154768.764
159828.679
154475.471
324050.298
488771.338
442844.832
947667.440
1333779.300
3250277.864
4917971.645
11000909.003
10185559.212
9634525.188
10333483.346
13848441.146
32761981.739
45090007.627
92456836.743
212460581.553
200708180.153
322142805.216
667737206.147
981283170.174
2164155082.652
3501054290.545
3652822252.853
5441655386.799
11423788655.338
10609708062.057
16232888896.478
33390541219.765
33206033603.531
51003456571.420
111161947963.472
168979134071.956
389276567538.370
416530376712.471
640409010674.481
966850901077.775
985985022626.186
2386458043989.981
2419338558225.906
3878750839043.177
3984034226948.665
8043097305449.477
12708692025791.777
18158104338803.746
42139248229293.500
58244935848907.008
64449953645584.898
71000717130069.219
109072147987035.625
243287920240650.938
259352133776321.844
368861503869145.562
818454437535390.000
875314485183048.875
1420460598663444.250
1524919189515538.250
1465199826939446.250
1441704058836533.250
2877761661046830.500
3827006115202853.500
4069394770397913.000
4192270157274829.500
2192359746771758.250
4518644072826903.000
3932815959064778.000
7931669062786764.000
15975066754987866.000
23164356535657388.000
27840265211885280.000
29950786351752716.000
15729806243863384.000
23291003061529412.000
25300756721083388.000
29064095858567736.000
46655738674497056.000
74364845122252320.000
42815476654637040.000
94608911406934576.000
141383783287467648.000
161456111871864768.000
82078520320595888.000
117910625033096400.000
127325883821739104.000
143371564945100320.000
167959353256256192.000
249363971993865216.000
561356446961909184.000
306673393641377088.000
411715123685567040.000
541363691788145728.000
420540893020502912.000
1001061743962306304.000
971828551754991488.000
1479325194006412032.000
1429478871351785728.000
2192296687994344192.000
2612692823907508224.000
2757495033054484992.000
4429137789863263744.000
9908000699753691136.000
8037787171685257216.000
4089528843585903616.000
8869527838732631040.000
4835200991144716288.000
2838036032947640832.000
1716674210507814144.000
895802943887320064.000
757157230359562624.000
697892368897590528.000
1781290407612201728.000
2896265200214235136.000
2254246016865894656.000
2714710335622556160.000
3118482310201956864.000
1678197437649400064.000
1487353975076249088.000
1412648256742828288.000
1774234525068821248.000
943235261753080448.000
836861678180780160.000
665562662239396352.000
392006392407513280.000
992467079819183360.000
776185611314459264.000
967959118087950592.000
1417576196796480768.000
1682694915996181760.000
888479359443770496.000
1790699429480204544.000
1558693383525530624.000
895919115560160000.000
693598516811036160.000
366357990151930560.000
929299830244434688.000
492630966801082496.000
278685015831006272.000
288325475948436800.000
202736997003190528.000
441688864407494784.000
365187947758001024.000
747504456178220544.000
416122282805414016.000
507604226144211904.000
289184042315020032.000
228831713705880800.000
128769492162171456.000
200462729879639840.000
466800010298468736.000
237980497715257728.000
142319051511238624.000
144428777635876960.000
113496237447019712.000
150908687080085760.000
220188797085603232.000
126456643286763488.000
289287721044262528.000
290437483225436608.000
296846975103008320.000
207837342110620864.000
121948902806877632.000
297939699232471744.000
479304395317684096.000
741960440517971712.000
398575589508035392.000
203533316644679744.000
302793511855302400.000
167135263544015456.000
111571248735720528.000
63076243161606920.000
64794466742528576.000
168374543614332320.000
90370583227144832.000
131300431616141488.000
147279041000733344.000
88330731474136912.000
51766981721452560.000
71080501255796352.000
36406249195972064.000
19347670586502524.000
10434632368376032.000
24639636151684428.000
19578617102300288.000
45664948822338872.000
37831195999116672.000
42861706083352600.000
23332000820928160.000
28560369351736488.000
39293238464253648.000
49645219449316840.000
37892917118259488.000
48899767324981008.000
40434299167696200.000
62328624549759424.000
77209869631641360.000
76545618992879568.000
66651665792663768.000
84685961368093728.000
82215508128914320.000
63229017802929496.000
91110922311952944.000
65567649257516696.000
165207862655736128.000
146969065103319008.000
213505914821035296.000
215972086033297472.000
496709486761966208.000
529610181474728704.000
288727092676265216.000
271912724201677312.000
215459335201588512.000
277059888103765376.000
211686187217980480.000
272555004944603456.000
224856983232926080.000
231810094466605824.000
302305349607340992.000
381024659087064000.000
541724505738673216.000
512574835905556160.000
434197391712668736.000
511506477204798848.000
688045516377976320.000
809382039886023168.000
464951708711054592.000
281276782868638784.000
142599980134596272.000
166939076650381600.000
210124361372303072.000
249500022534681024.000
138816960787527296.000
218718805826565120.000
111018333098683136.000
232035738993511296.000
138136171357351792.000
297059783892306880.000
360664915918713728.000
913361461471125248.000
637162317922207488.000
923454093436848000.000
520314981508883776.000
423516836428062848.000
376198711037787648.000
207093045563717888.000
445434013641411136.000
539636848765782144.000
663243502279535872.000
812566431612948736.000
701558472677887872.000
688583361348728448.000
672261311959883904.000
683146679664516096.000
394796119535285632.000
471571349704847232.000
252228943033254304.000
518526157417595392.000
276365331775018720.000
274543570283377440.000
293337843512011520.000
205727338785317856.000
534816297333585216.000
293654252963896576.000
200505491629660800.000
285325221176879680.000
298182874408327552.000
452458238274280832.000
400048444983561728.000
972500147102152704.000
638714090754429696.000
1652227847357485568.000
2161424995342350336.000
2615686941439415296.000
2367746212139356160.000
3072482825186661376.000
1676772378387523328.000
1627017192874051072.000
2430706025005608960.000
2904579704278702080.000
3035550504541136896.000
4790990796310748160.000
4584285971938609664.000
3898230693249335808.000
4981851694408231936.000
5632026082671898624.000
3955511694749120512.000
4485659725277280768.000
4736118552094202880.000
2483774620869464576.000
1496573593669502464.000
1194920086309521408.000
1608563374116745216.000
1221851587542200320.000
1761670076895074816.000
1279196484893696768.000
688196956792677888.000
1595820530095844864.000
1222698248942505216.000
1435868438028037120.000
1527800448895751168.000
1706582706033461248.000
1529935116423904512.000
1276914323328523008.000
787569732699305600.000
399630235615632960.000
207282330125994656.000
435535299313948032.000
520205679825733312.000
477788499144149184.000
490091619139495744.000
702605457633707520.000
982072910725499136.000
664575970874431616.000
969078928074271616.000
521170395056359360.000
363968184944482112.000
921632985926855168.000
808214285379262336.000
666228090166593408.000
833015115895184256.000
1745832418005589760.000
1566361553833587968.000
1202576482944388864.000
1467527863799275008.000
763240285602117376.000
814740571735170944.000
1634266586957126400.000
1758628696665241600.000
1558192174200317184.000
826182908033791872.000
467198557970822016.000
710584894412275712.000
879873784653579136.000
1376827183054476544.000
1182845848712147712.000
3029607754709826048.000
2368020760705625088.000
2076449124222487808.000
2766039458735612928.000
1458020110321676544.000
1752071213785584896.000
2535740127209991168.000
3037494818843499008.000
2994129761240179200.000
2964803472466537472.000
2512182183972208640.000
3055746390614690304.000
2744673910285384192.000
1661789121997981440.000
1189325858245109760.000
3170688688133713408.000
3081148887045465088.000
3007207405179915776.000
3955583135460929024.000
5439179853731406848.000
6962197505252748288.000
4328935301679217664.000
4664628770201256960.000
4981296728683665408.000
7249448892306991104.000
9246622072015282176.000
5425609441620746240.000
8187029448704305152.000
4719853648014564352.000
2630404688942392320.000
2709441555301251584.000
1589884691356353792.000
1388953083424561664.000
1685945552751242240.000
903227523309599488.000
458603958911851584.000
377667172855095040.000
496088418538537472.000
531686709683638528.000
453549734558709504.000
642526183007403264.000
1481070642975589632.000
902390013455279360.000
524713870065689088.000
848619630445278976.000
976636365326825472.000
952259431523681152.000
851975491701908736.000
448217643625352704.000
263735699179593216.000
156768127097954720.000
91652862848253424.000
129455388610443264.000
125623819221453360.000
116818237220555040.000
162269617646721056.000
129316283444277728.000
74057607718649808.000
86672277545776928.000
69207284850273864.000
154218652610409184.000
130406358300278288.000
69090528216220752.000
92767113734182256.000
145584693921054848.000
127759581129612720.000
70021546422654832.000
80625026217598048.000
75531946803514080.000
110327120762745392.000
242479677833949440.000
207248251573905664.000
113204119416765440.000
119370007942504512.000
126174691717136672.000
154922978257043104.000
90370985114926128.000
73046440291089328.000
91888307172328992.000
84768516073732560.000
44241045925846224.000
49392254640721440.000
34306571381535476.000
46158284578844376.000
24095264259873036.000
21382668006646204.000
11774863929989676.000
5856280451117560.000
3675385634011334.500
8247544197973666.000
7711489880589797.000
3889188158175927.000
8106366445266368.000
4594324106979844.000
7298214803511441.000
7655019418188734.000
8791159260125310.000
6760704687044812.000
8684424122722486.000
5827093181279313.000
8625224710052709.000
6761585671813933.000
5890990047517851.000
3400298011095881.500
3462975518605371.500
4782524438982363.000
4069835170256755.000
3369307259559760.500
3709340534448831.000
3774018765472254.500
4707528937202106.000
2681638730372054.500
2161316096731546.750
1947434996458518.750
1043600148905828.875
1425650306497813.500
2127953581796457.000
4943143156010367.000
4228648068296617.500
2360385731092969.500
1348140038496698.250
1259469031161658.000
2737498610421568.500
3395881511565214.500
3869750969614735.500
2021904435794404.500
4554255314507021.000
3221925674697052.000
7227821526495822.000
7806281197657853.000
8098384393725920.000
8803297021341426.000
6814405020509097.000
4080944824163801.000
5879000741788679.000
14792973887174390.000
13104079448412192.000
7911076091662860.000
7903670836873703.000
6681752827638195.000
3992029739309057.500
4790781727702918.000
4785497298044904.000
7475642730348129.000
6200817750694655.000
3714464898694498.500
5884792361268109.000
6793375867876436.000
15630997259220466.000
21201725890066688.000
20512025385661192.000
48362710351457408.000
24733222229494576.000
26794808613935088.000
43015112256971440.000
21921717942466404.000
18879566439005488.000
48642548591692496.000
27375019452970872.000
16009922767032886.000
8688002011119783.000
4853067818798874.000
7522448225624457.000
4421010273746946.500
3394400472253018.500
4558828849793055.000
6418182686950596.000
3956924888379683.000
6259293707728749.000
3802276548194103.000
4704351170188164.000
3852555612079619.000
8149050886911052.000
7596949735378265.000
7817849358164916.000
6038871236033080.000
14123032801334952.000
12562501601615728.000
6924405746553494.000
14893278890655680.000
22434748386229652.000
18698680093790348.000
11543382218743900.000
6384391804599244.000
14153901633029420.000
16037299416857478.000
25816929425180192.000
26696512852692484.000
27836242643245648.000
14166642810055846.000
20631327915366108.000
45080049868393056.000
23699676743951772.000
24561234160514132.000
14957553416589734.000
16029768508639878.000
8776893052593330.000
6688767513609874.000
3727854558761930.000
2230009997601505.000
1226928651541905.750
1003583887483377.500
1267228561806899.000
1135066057553879.750
2429888907152304.500
2184864930833560.250
2528616742176930.000
1850812708932630.250
4747416784368002.000
7492282592682965.000
6206734823756406.000
15171975210048542.000
8046980094319295.000
8594348428323330.000
12197893187871476.000
10547879895218868.000
6550693632765015.000
3314355738293931.500
4506687303283608.000
4590458512233333.000
4895010844325710.000
6833645307841468.000
7715470351273150.000
8879983283441187.000
4820198119548165.000
7686817945161739.000
3874221924530287.000
4767368137154521.000
3748106555720255.000
8819406155960179.000
10447002233993684.000
24556902732910356.000
19428155269240324.000
43747817757639456.000
38512380210938832.000
19277070224279548.000
28157215041279772.000
41853429883990440.000
63514276675404688.000
91175545610200640.000
86026157133615680.000
48210333013454832.000
68371811924623904.000
35000952441869868.000
20504023603113716.000
49975180688510416.000
41540669966889048.000
21500364306160284.000
11472991615536486.000
15297865195562204.000
23337569727649540.000
13333472457701822.000
12735354323936912.000
14022325193636790.000
7377094118831381.000
7109596080178088.000
8588725424398717.000
7125621286597155.000
11168715258304736.000
26054607532287584.000
39077340847041648.000
40460305447273872.000
50793464270402472.000
47840429875719248.000
26710917009597748.000
14594388186821088.000
8099513771496807.000
12383824104292018.000
15941119366317718.000
15383281452831702.000
12581879639237616.000
14477347270416134.000
11872533458627772.000
24986845037886864.000
24975984854880492.000
14198905688153374.000
11434191535762664.000
14758408612544768.000
13875979097135536.000
11177093313365158.000
15313795620739980.000
12112345096872188.000
27108341284411508.000
27098564789582068.000
15722300761019594.000
8880774214893822.000
6369677014271785.000
14697671394096916.000
14972924344112962.000
23439915568475408.000
20209162975948448.000
25020000122784876.000
27244926061596804.000
25197133635091696.000
51333923111491632.000
78162690958481600.000
111562811433121488.000
129145654511025792.000
118639586983114256.000
302594391320362944.000
420783110474746496.000
544906795171131456.000
417565554688568512.000
940715155921407232.000
687614793040505088.000
417767757173166976.000
224809463004505536.000
263767682293838912.000
136454629592029360.000
112466218824534752.000
62298028506281808.000
84636974630316304.000
83414772089246448.000
111275580936870272.000
137359035614101488.000
112905972722991072.000
276221259024329952.000
276398612183084096.000
141758716271544400.000
205455289430341056.000
462948640491823936.000
248948898274726304.000
152883945980016288.000
82119817340344320.000
86707723553208624.000
68707208559500544.000
147429856585342464.000
125739453963122240.000
67289489295957968.000
86610388852993488.000
70731057500466728.000
36458886823688680.000
43779602561949952.000
35798630521822156.000
40480946189078040.000
61439726004672768.000
35722482205227740.000
40949160317280008.000
20912459660592360.000
11827694096379510.000
23998799181799752.000
48738612799340336.000
43717666925071448.000
44374136215477024.000
45957582749022792.000
24428688923481372.000
19164506881922268.000
19394547858462852.000
43771300594771920.000
36621612949782424.000
19713023556364144.000
45095918858793112.000
48415536087507664.000
73188231026204624.000
78564794094452496.000
86236365955859184.000
46362545529022568.000
38548410214304184.000
48860655790934856.000
42932362071391560.000
51187617943153152.000
81368433493248464.000
45569183780843568.000
48588995990391488.000
63291556808431872.000
164275435978166560.000
252975873596448576.000
291464290506538240.000
219047881255426560.000
209509171358482016.000
262377363030216032.000
133683349555756576.000
161069896847873152.000
91849415271203552.000
149915071526829600.000
142817551800780240.000
158593034366901504.000
86368539891533152.000
82168134109089440.000
43693023963972592.000
26158810793446088.000
19782035179164888.000
12094867539101012.000
11192517366177422.000
27872003189656688.000
43654836647024096.000
35913080036643900.000
49345608835409088.000
68049432810365432.000
40083639477456136.000
24479467522392984.000
20412263010128244.000
50971256937157064.000
71611011834016104.000
38293393963080032.000
45973755509456176.000
34871379679135296.000
41237210507192616.000
86332707280241200.000
44605201353871256.000
23474704795604460.000
27756473472916224.000
14369972113345908.000
12727223856903058.000
15448862591009150.000
22013606316528876.000
24437236347219344.000
14446677760251772.000
14348414848973426.000
11576068179307248.000
10486979657983676.000
14606873679116578.000
14848016141841834.000
10969537908744802.000
12481309131475544.000
15733038909686478.000
13194445724352596.000
26978414728645852.000
40858886801342336.000
35023598473612048.000
41174894910125168.000
83827842117501536.000
130341309180977520.000
140058433078530976.000
138060102095826368.000
74251364581952400.000
84878757237876288.000
50095061607012688.000
65331992448131744.000
77032363221300176.000
39003763170531120.000
79983159520613264.000
63102038055302176.000
77472230856384928.000
86459776534015728.000
44948374398187624.000
65578729943732160.000
91500211609045280.000
93413720861053584.000
152432785749020160.000
133330416105604144.000
160407357960681696.000
144545287830933888.000
202094634015950304.000
427929604566237376.000
972306071232859136.000
673387351032076032.000
680612697092843904.000
363987657603363840.000
498190981094280064.000
764047726269678720.000
929257284041889152.000
1208121033289983488.000
1554897432545295616.000
1610496946489923840.000
1698811712140446208.000
2292813888259024384.000
2628411154750553088.000
1403558267329868032.000
1716417335671092992.000
1175262757235545856.000
686650466121015936.000
1629818551955279104.000
2642004869022123520.000
1575476900576853504.000
1176654010090429952.000
682933019019876224.000
415842589939285824.000
355282506942697408.000
834412426834332416.000
924331314988748288.000
921093143582507520.000
490242657702238912.000
537861800103060928.000
434927952451924352.000
893053492797386368.000
646986964024504960.000
1447594798270407424.000
2889615364511468544.000
3787707058285918208.000
8073821072397385728.000
4527016410120380928.000
6754604600624612352.000
18186416449399037952.000
13564907471627081728.000
15821441491904577536.000
13590296024578555904.000
7133881691614569472.000
3949938097165508096.000
9181960008214514688.000
14744367646921019392.000
8277556056239560704.000
4775205871783533568.000
2619582671463517696.000
3914036585234942464.000
4567288571518168064.000
2409689854001894400.000
1478656203964525312.000
1208639341557628416.000
2609449666634915328.000
3804737027909467648.000
4515300378091351040.000
4812974770313553920.000
4218394645667728384.000
2241322152126161920.000
1376053473818144000.000
3070644668161826304.000
2939942337059860480.000
2780407103247718400.000
2144057618040506880.000
2294587553019323136.000
1147962311985941248.000
2685945063035362816.000
2195374155616942848.000
1321639874561729024.000
674146412521446400.000
388386051064364992.000
534464702192487616.000
296048728356048960.000
268823717674426560.000
148722692987710400.000
166604731921930272.000
109007623488626496.000
223515517469000448.000
220196344039359936.000
456897013526494400.000
522465483217925760.000
681900396103319808.000
363099675326570624.000
204399407704917440.000
526681339182503872.000
371364031653679808.000
425790200557007808.000
530096198529269952.000
274219292596732064.000
393221872833983680.000
200017460167274784.000
235439720738895808.000
373136146633548480.000
541281705785568000.000
492456378510246272.000
289122778948571520.000
229873172636245568.000
123215502120627568.000
72206810313789648.000
40226681600569240.000
51416447443746304.000
71570262675773664.000
63970569796206744.000
82499292445963696.000
42842202307745416.000
50470260648787816.000
44447147170822768.000
36138237399853608.000
81373817518538368.000
109124619998214000.000
153856937040634272.000
93047170099666464.000
87501537547180720.000
47515834841443040.000
26681378854088268.000
39965390335177488.000
22244960926512060.000
25552306478658924.000
24979371770845212.000
27684483906440336.000
37133590732843504.000
80158563545399312.000
89482953265431552.000
48255973144437160.000
24265754459171552.000
24581329481213836.000
26766523376512320.000
42511285731607712.000
23867931933180276.000
13886585755510404.000
7324558809155272.000
8373900515496322.000
7350583299300528.000
6342631209590738.000
8701900558026275.000
8755812099474882.000
5927794021353641.000
7084246192338288.000
5815097430378194.000
7594349011234555.000
3819639372655644.000
8547302997252981.000
8510168409477545.000
7640061035070583.000
8769876710015457.000
8076860448031338.000
11031426696389104.000
26306025330677232.000
13390179464087596.000
6669007228001771.000
15016823178560706.000
18945503929506284.000
26559161179967904.000
14818089368474838.000
13197717901388558.000
7087583724315528.000
7776853575052975.000
4647943520685069.000
7501815911750758.000
15125829582591174.000
11370239075847742.000
28397978063114536.000
34152902145783080.000
40064440974120840.000
37439169713731696.000
81326138856500816.000
49499210159778752.000
40322607060583480.000
89292555082985728.000
120358957579382544.000
263307949239390848.000
208718535118457664.000
221926714432806240.000
255927155290749088.000
381909948507424704.000
520483187822860800.000
289624038791561536.000
167153808152194912.000
199115605580394656.000
113861594087826096.000
146519433982925664.000
74315161943489760.000
71525550786942848.000
66504380737710384.000
40176859878946152.000
21111446272589880.000
10627389558227586.000
6133064074716858.000
15297237481679246.000
13151044718670578.000
13162519433346364.000
6563696877866396.000
4052530174244395.500
4713099248835188.000
2419593076095445.500
3810772949672659.500
4360316506521289.500
8809871143325780.000
10869385444247280.000
26950426862338956.000
23458713866081384.000
26479630920564636.000
26057806485198156.000
13806098838706226.000
12411667951092448.000
14623581707259856.000
8144148628872835.000
4161332515754356.500
2553591751991616.000
2104762931585281.750
1268080034700293.000
1909345710924602.250
4073453762793372.000
4269843160922905.500
4096695276761892.500
2500426107644808.000
2503544321847203.000
1919221291897475.250
2062952982551328.000
2499876133247949.500
1362349110464940.250
753838511090030.625
450455168025242.875
433168464324590.250
412715732616897.000
419182125732022.125
630593031311699.375
334590690669270.125
329436977628149.500
358574780979145.938
726965024625513.250
820124697573339.625
468329704438681.062
368474114275566.250
218923958400137.125
223086064474076.312
246623880458211.094
181635374366147.781
253583078146760.438
130651925619376.359
120444281976418.062
136867389297410.500
130181736443737.531
103319228930213.266
61666983908596.242
66043454257169.070
36019724361007.586
29094540303032.113
59828901048039.109
63144034073628.500
36592399762471.523
41364153750426.812
30423936954149.133
30127937550299.699
18735697806617.652
18701002912032.637
17749118670869.352
38300813892584.734
29577898152774.609
39372057455249.102
32777679383667.191
41747641212604.328
23552416065568.586
18793255527068.844
44263906423663.898
22679586865483.762
21889918922213.766
24390123595969.137
20142674340460.832
16316767838337.709
23765180535560.168
18465569214481.078
37240122504399.352
32051703195095.051
40024652322581.406
29680774158427.738
71489694038469.719
77538975609228.922
43552695895857.719
42954739073883.383
33586980028610.984
34600973934973.895
32447294078277.199
69335520567390.281
100984847663535.109
104607820468655.469
100536349635303.594
111063741883450.891
57676296685799.938
76372818004690.266
99580620505854.297
261615315925466.062
422034209176740.938
335334821653193.062
344117763877934.875
200312432741128.188
112648645761135.500
64249116738891.289
75634201570227.922
58688886449799.586
66654491287620.281
75679661166263.172
74803707360205.594
109708464765124.516
226373803735020.688
133651363564497.688
198303620623574.188
447126259004364.688
709009554949268.625
827486913802311.000
1284733942550346.750
639649170597690.625
366080634409438.562
752690232697875.500
1160545222589822.750
2471047799373404.000
3463838691242847.500
4441578098290638.500
7026589544940821.000
8529501328220468.000
13243504792148818.000
12155219820179154.000
27634473521121268.000
44000786575446888.000
70199724312272320.000
67405734173647656.000
38875907918960472.000
41647510016729576.000
45193817902369384.000
68553577311731624.000
42352129563094680.000
47722818038849928.000
67270858812418120.000
41901247885340464.000
65830690566099176.000
165994043424397184.000
123434438394727248.000
144473078247799360.000
167417444879994048.000
217869077467270784.000
467742054757898944.000
272242851559277120.000
287607032639700480.000
254840334717828096.000
279997148653913792.000
401215904235113984.000
844343276889491968.000
690090598353880704.000
777870302385865088.000
800610195987371520.000
725004740916826752.000
363493167722382400.000
200504265523841856.000
527197420087323136.000
539371237201418304.000
826631211904093312.000
905832656155866752.000
510449760608812480.000
270947452770472544.000
158196362519732480.000
91917565884931872.000
68738492305742360.000
65010513546218496.000
35864061115182920.000
21154219524649464.000
22386525728097708.000
21746292177629040.000
12405144534624036.000
15902957665186386.000
10882317673095254.000
15554224559106128.000
13529987174079440.000
7472964456402388.000
5988464713833342.000
3439304271032655.000
1855569573541703.500
2728077071440188.000
3810120832523170.500
8310632163776442.000
11798111853964048.000
5972881833627811.000
6265920615398020.000
5983796763143967.000
7818629600018501.000
4199427669802597.500
6423559399935767.000
15540757619451826.000
19317717000598000.000
20284355159123204.000
11611538054290224.000
14600054100275418.000
12129007660490624.000
5974953960778002.000
3585644620647591.000
8815627586077188.000
8334704507172084.000
8116155259593228.000
12427507233834456.000
14751172459916356.000
12788800570047178.000
11341620354540668.000
14955483666979928.000
24055977878852292.000
20746728898965028.000
26463851471561184.000
24312836413885348.000
20810187794068228.000
10558993759149000.000
15100200713784180.000
8079511074012510.000
6823231481528826.000
10819041071398800.000
26973725317834552.000
15412044951913944.000
11559203230753998.000
15859301477073690.000
11017352052816732.000
12990062511414578.000
14717430978456370.000
8368680366106348.000
4339336236333389.000
6302756612367861.000
8310715662304944.000
6348362954222023.000
8443659532052293.000
7700125883751069.000
15291836536553684.000
24221448244626048.000
38838712778346672.000
50042810683684552.000
64521368093264992.000
37623877838837016.000
49725605392840960.000
80503250379858992.000
47808911186650464.000
27378347928494072.000
23704195714064204.000
28210349520759432.000
22108225047049428.000
13666883121142268.000
10719074731809282.000
11497127425047932.000
24217250353637140.000
12274953612942464.000
26976498765974424.000
21249277609992664.000
23921185055480120.000
26740544442893608.000
14104041443096020.000
18803017704264152.000
49960859477834952.000
64080985688583472.000
63223859051263496.000
91854650417963600.000
85584210126559792.000
51205022027276392.000
66429934873858064.000
162566958332923168.000
229802053591567616.000
473448592539876864.000
670347945902342144.000
357700581820858752.000
399431164174700224.000
865234613875495680.000
946224302274179328.000
1497565068607252480.000
1525481234127488512.000
2333712395846403072.000
1393516368372359168.000
739055415463350272.000
859150110705577088.000
449387202395775168.000
473042118568501248.000
365566424500858560.000
854280876653419264.000
827660588079561856.000
664225013410867712.000
360394255530734720.000
450738207041183360.000
383257349874889728.000
393928453547424384.000
904224800521887744.000
844953728457387136.000
460033768962309504.000
447474667918996608.000
249136050088194976.000
142105827553213024.000
125964255440216496.000
298342963340993472.000
475710947020717568.000
238153694457371680.000
134640952623294544.000
204586896488563040.000
197355750643297376.000
111251850820408176.000
246577429059017824.000
221810217675830240.000
109889446670912368.000
164098108246053056.000
139993139739840448.000
165123107185315776.000
86308229106235824.000
69662802461386080.000
40962768618919304.000
24765173535260116.000
23173705937516240.000
25914382021220588.000
35934402630182912.000
41585519801526376.000
83193906136968512.000
47104469692255808.000
24659678045575768.000
15069695042141606.000
21261444731687652.000
11856438499953930.000
15466538554458810.000
11084845645438566.000
12761080312016614.000
15210688942108046.000
21556110391580588.000
23440694111521840.000
26684391884743440.000
22499269113043312.000
28762892936070476.000
20822760160254548.000
50201913833880384.000
28161213488052292.000
14381498797587084.000
10511058525238068.000
12593523020544226.000
15605738504895810.000
24807485001885416.000
18853048076276856.000
28308975918007300.000
33922544539759964.000
81932628151011840.000
41397473605080536.000
20833218410709576.000
25000105311867876.000
22786365537220364.000
27042606954396236.000
25836258011071420.000
23141064834513096.000
50102149794931248.000
25674440193111960.000
20160200814906060.000
10506135756223700.000
13715547122814938.000
12757599692347956.000
6686442223446843.000
3723757221938225.500
2241778271806877.500
2461942801839841.500
1968244938242960.250
2009775667346558.000
1900806374971440.250
2684552174981217.500
1402731249434287.500
785763012612965.625
684465412563931.625
351814922498527.375
381244261935103.250
364008227334222.312
434667557292386.562
416386903830263.375
341463503868360.875
794230022664153.625
433024816324706.250
641586593535091.250
1329910932147636.500
1525066863653033.250
2271740332783318.000
3308761554559318.000
4305992370346579.500
2418709598745748.000
4833156027388353.000
2612002741374807.000
3668223035637768.000
4888290063271637.000
3587390663900136.500
3696924874669246.000
4622108606931377.000
4539919147113943.000
4243229928819642.000
4661881352085786.000
4425441476927048.000
6508217497054781.000
3369289732263064.000
4008349302591470.000
3351892912518510.500
3409488682128392.500
8138034439812139.000
4116065288723769.500
6535990544367193.000
6215433488271626.000
3638359200763968.500
3959741114811352.000
4049815150880566.500
3609511740781208.000
1922105072719462.250
2312936527866949.500
3328680962814638.500
4403265657605581.500
8752707292887119.000
10899908620004038.000
27768527085154084.000
14745911256125994.000
7818410336524961.000
6826429852313471.000
3952384464623789.000
4043421580078718.000
6267667700675545.000
14855366172956398.000
11068227300003244.000
24923030897240932.000
19549386984671608.000
11766145632041150.000
6894187799336291.000
6028056708619408.000
7600005899848314.000
15938490323662118.000
11700193493946670.000
13695039373260122.000
7159574492179567.000
6341806726490080.000
3716530894126998.000
8218866806967397.000
7445663282357279.000
3773705906715991.500
4212109456332926.500
3763247382042981.000
2053190089927492.750
2582413608583692.500
1480476493823586.250
1302946799664900.000
732767883973146.875
1473196510453888.500
1829581056377456.000
2127847680292532.000
4753275227019274.000
4120485464504866.500
6058795667072460.000
6949898039177793.000
3723748972013190.000
8165837880791937.000
4305133095305086.000
4400667061395147.000
2401655693427709.500
2180876255406335.750
2268212846101050.000
2033370034037582.000
4755938367633434.000
4593754749422348.000
2502529200589909.500
3304596703850691.000
7620344282086965.000
6584287298009608.000
6125386819880771.000
14631922690923060.000
7963664185169213.000
8563161931550552.000
8455496097526053.000
12535606622239328.000
16020771202532166.000
19185785985970388.000
21886500457394012.000
12879150317526708.000
11885863096261298.000
10405333242056540.000
14817349033170202.000
12880458956250084.000
15218281696522278.000
7966892590470818.000
4172985376776022.500
4349555094934841.500
2379873659280059.000
3826270688482540.500
2248054202834550.500
2624421512596657.000
2061359863172766.500
1887084329291231.250
2655532812441849.000
3449682423815373.000
3350382617833909.500
3398286326679862.000
7816457470300215.000
4613137036281129.000
4699232908201806.000
3932204610659349.000
2297116769891237.000
2379044442428452.500
1390768674470137.750
1928707941625811.500
1168719204240142.750
1124808841229731.625
1029634011060413.375
1161354868161044.750
2592949000423093.500
1926886462608979.250
4725876214285998.000
2465398569720917.500
1469260637596851.250
1001914187642993.125
1389166041337180.750
818081870247188.125
694470851888682.500
662832769149367.500
593175339706438.875
713140299111147.875
1505603851997215.000
2180484412388635.000
2600239341333840.500
2150466623619837.000
1143944962160387.250
595825340973917.625
785534315688881.250
1244493969567580.500
1979031459559021.750
2387508053285345.500
1195281238521335.250
1418419022289179.250
1062028623920780.000
1487107098084926.500
1918155190925532.250
2500380791972255.000
3291285658357712.000
4099537559096542.000
4314513239670355.500
3880079492458882.500
2375683432893761.000
1214084832640233.500
1831158755984185.500
2616043482955111.000
2659265753366675.000
2211339244718921.000
3333343878397953.000
4156663753032577.500
2449157482159351.500
2006120048087596.500
1153528318371104.250
713922948096595.125
409066910131713.000
215229712477245.531
450461037045765.750
345385534538132.875
308836417295166.875
822782571718972.375
1262166255706081.250
2546248866136013.000
3202598406764555.500
6605293675733929.000
8127646830323417.000
10476871047538914.000
27288849314818876.000
23107183866578364.000
20149804439243196.000
23936538675410464.000
35155862622298612.000
45247050067440960.000
68425130650138904.000
65347773144692560.000
134397383090406976.000
156486257827631712.000
128902993233476016.000
108953571976569152.000
67923930295300424.000
146695846160929600.000
200564791451551840.000
111957049378549056.000
144500696276205312.000
80232175597304688.000
44919861623283152.000
91311285855963648.000
83413666034856576.000
135154205634193088.000
203238577346106496.000
111724310494612240.000
232016140131321440.000
292920522562162432.000
244629040188775392.000
244735265966720192.000
283968538524678592.000
145869769439388416.000
290593755184995136.000
433055569378841664.000
364506695155471552.000
378815547855368064.000
409710877705010624.000
233168677988237376.000
223951641534836352.000
491442620179344512.000
694244408632814848.000
390887874799106944.000
969963502543672576.000
1304624248309328896.000
3075852696091518976.000
3829262002847198720.000
5123629071752443904.000
4054099457547966464.000
2187255450554550528.000
2094539986410665984.000
4331270206624240640.000
2253865902603606016.000
1234885839355001088.000
1287356958929947904.000
1724786011279972608.000
2695242038267423744.000
2466135640674606592.000
3045786457227821056.000
1688931814006932992.000
1276414829759463424.000
1601627382147699456.000
893318837223126016.000
1262513236342425088.000
1165024624640040704.000
722944445238108288.000
377219864102011072.000
473597891482093632.000
530576648948328896.000
826884202444192000.000
418233533969690560.000
508952328809064000.000
388304951751689280.000
202117886594825120.000
298085344364494400.000
164030144873740032.000
116960254581493024.000
240200880469556704.000
253057109821522528.000
246118313747664192.000
237604189283339680.000
133204076299985568.000
69044035859381576.000
145643191166127200.000
84714488980534256.000
48253625357738200.000
26813164697756732.000
34683725305827116.000
21728067927522560.000
44232164335343640.000
93213254407073632.000
90291507775578624.000
109008688969046704.000
61234646251479816.000
37130196335107864.000
37923588548432112.000
20332230127283132.000
26411044541574860.000
13846715824659084.000
7667017974757160.000
6012596668490070.000
8265572173623822.000
6386494155680925.000
8903912260839106.000
5913321691059487.000
8628464581926878.000
6106015314346433.000
7318947880746475.000
3731619293195142.500
2082858578150085.000
2025357151963483.250
2639689114020253.500
1408037661848149.000
1271713519961457.500
1450549374783061.750
2095038288995584.000
2461214304983307.000
1350195807996099.000
1370691120161807.500
1513673600850880.750
1519246868151811.000
2318878995451748.500
2640725566074654.000
3675930552070456.500
2069226242463060.500
2739967193190723.000
3959715133419168.000
2049421025051555.000
1176221816866739.250
678482954152184.625
638898658006032.625
841152893216978.625
818382762129688.750
428747753030079.188
260342035243218.688
224881916256109.750
335942447314565.750
751814860180624.375
738587594530020.250
1480952545493623.000
1306120917577433.750
1006756897335474.875
2471929610632830.500
2026677881906872.250
2363262978081879.500
1214294383233247.500
1394073216696910.250
1150823122766726.750
597663420315810.875
1354218121485406.750
2082820396325155.750
1096082782293383.750
1140398909994368.750
2340046424258023.000
2478192642544997.000
1843930457828338.750
1029100552079380.875
2464837484655573.500
1305952021360765.500
1299324845271463.000
731893579791406.750
437754524118849.938
400438324155466.625
215471296091229.188
204405293557576.594
217587864667509.031
332158149408618.500
173512631900697.906
101669645728646.828
57832748702563.578
135311922659073.938
79444984096489.734
54040300993378.867
121303330891976.531
61699351428511.516
140848961815415.250
73363261708307.656
64960681974969.969
72043164773479.125
71544593360455.375
67947795282243.516
66803715768980.773
139626070216662.047
125028273243070.516
248652128139458.094
354638526391328.438
368187567085096.750
203990894667316.719
457485877656092.000
232962761068488.250
118957608193991.125
112828871202173.172
125841227490080.766
255093939619937.000
365340022583436.875
324646369362589.125
693375473418290.875
802992201858406.250
1008619731146649.000
2110278248766952.750
2354294539326733.000
2721482295892252.000
2378358307550981.000
2011983614996439.750
1030990087887037.000
1377096460317219.250
781425658069641.625
402216965921280.250
806958768977011.125
1000689131680202.750
2123699180787595.750
1785159666239325.500
4404526650492058.000
3211609909965352.500
4098155484300708.000
2111952549736000.000
2664689846024591.500
4206936819649156.500
6174176733596108.000
7139273378593003.000
7506699937131151.000
3812027218822354.500
3365320674139095.000
3825284924221039.000
8833271259802203.000
4814729784654167.000
2510537653527169.500
2408083804065675.000
3554083828551815.000
8019244277908746.000
12327968618303732.000
13913049927749024.000
15043351309225950.000
15176610524682834.000
21073992307561000.000
28500996726253076.000
24185741023193288.000
27347264318804092.000
38535455656908056.000
22370865252404372.000
28345667777823412.000
19930026610310108.000
25930566801512580.000
14199999626312420.000
8668758088877580.000
8271494446760192.000
5853830549080975.000
7290623076029404.000
7647850974985869.000
6294885744178493.000
3359980521151525.500
8511747488441365.000
13193611881546390.000
10626132565503406.000
11004705324534724.000
15089551926828632.000
15783950025495542.000
11137536978817770.000
12119947786648700.000
11718675953499372.000
28605077387085728.000
26717809578072864.000
28815338197458104.000
46236624138554392.000
50771970252840360.000
65504411167900584.000
92957331960201728.000
151503254405283808.000
238104863804115552.000
531033759789184768.000
430633210690213568.000
404648211005909120.000
504749925772003200.000
410168421720436224.000
637253115796423424.000
367063254614950400.000
963772483728240768.000
537313254729792640.000
855548814058176512.000
899726212633472640.000
938629138050567808.000
1485524248744964608.000
911690530299895424.000
673570430217185152.000
803483085141115648.000
437488333979787456.000
454359691154081408.000
655213104043333632.000
892753389992566912.000
832525656635987072.000
1226230677534375424.000
3179977602054269952.000
2709077223992588288.000
2180328703621524736.000
3166128022804534272.000
4395805199147161600.000
5611013666892015616.000
5058230952491101184.000
4143926863352212480.000
5392712249421360128.000
4717712091180039168.000
2484753085992441856.000
2178921201779488256.000
1197695065675566592.000
2814173764758604800.000
1463589003870720000.000
3048689691279242752.000
4348750612942361088.000
5315625532570707968.000
3792114692207773696.000
2256247751380123392.000
2810141775717799936.000
1702199010995587584.000
1357360577901811200.000
765028624014472320.000
838653853680435072.000
503621437777120256.000
418101695943692672.000
525789709980219904.000
417405901104500032.000
854184975738997248.000
1361382138706136576.000
796025202497186688.000
915231080366987008.000
690608624740737920.000
751465026445078272.000
1725398504807256064.000
2260110227009094656.000
1302583006486507520.000
1586675546749092352.000
1346871712027593984.000
706490626514604032.000
1707014628331100928.000
1582135181279258624.000
1307928275449689088.000
776427442807372416.000
440654160214040064.000
252365780636000256.000
219846867305984320.000
235366123217484864.000
202295760326540768.000
296488858364159936.000
260109696367142912.000
541457131823502592.000
536294013931953920.000
715346979000733952.000
934193830854212736.000
831632750111009152.000
1669730409891482880.000
1174727203780910336.000
1305049950245541376.000
1554759779283010560.000
1375390494938452992.000
1650346047215621632.000
2403069597385234944.000
3124924164789774336.000
4178269201459554304.000
2137960104154912512.000
5050873246103138304.000
4792538412352720896.000
2864263982015444480.000
2761708305426339840.000
2541761026139853312.000
1470638142193279232.000
3142296775895304704.000
2203555256679407616.000
1274858084351904256.000
772965787552480768.000
977936537837932288.000
505419950704280064.000
411143151858498240.000
973734906416786560.000
527836960752918784.000
424455581157289664.000
533484422977377600.000
865402298666414080.000
488046908707083136.000
466668136883698944.000
404225386025266816.000
418089222311382528.000
463763307200379712.000
400671833081521088.000
445327619425729920.000
391517973823876224.000
231505003656785376.000
527284814305456512.000
817558587750738560.000
704309065071056256.000
429493932322290176.000
450733484907430656.000
223877089766465440.000
119286894474073072.000
68434279280736816.000
78685138341460368.000
60494245583210048.000
73390828559113568.000
86955665075115840.000
50486267978136016.000
26862918948713716.000
15822067620228760.000
10810130477478324.000
26717385786931404.000
19140151034847188.000
45911467068954072.000
24106455492687744.000
36340650239503600.000
50515466642382408.000
44946549179516736.000
24821316688852500.000
20716245741209396.000
23141072722432732.000
12020215189827208.000
12007660417053288.000
13597183857424490.000
19624511085072344.000
20951759986446196.000
46677146423764544.000
41503555933013256.000
24298744267299692.000
14286148794244218.000
10867176500050392.000
6123844444879807.000
12990004375568670.000
7633661566594965.000
4242566616267172.500
8703724981516218.000
7214078829882002.000
