34.729
35.833
74.424
74.530
98.873
215.420
226.985
343.671
695.597
654.245
684.416
1105.793
2315.047
4829.984
4430.041
7032.276
14030.865
18973.613
47285.116
73108.722
168139.462
241209.564
525164.584
522842.384
795945.177
1665532.726
1550394.615
1456997.067
2905292.498
4508196.015
4287464.421
4546988.233
10318409.768
9556149.114
9291094.364
9662947.180
9445912.499
9448761.551
10076070.852
14859573.886
30941143.040
30192755.014
31525043.172
47905311.420
96574478.398
153792153.293
336009387.348
472877479.750
1116267736.388
1092710841.406
1658330030.412
1551416276.406
2430930686.642
6046192262.429
6176542581.848
7898919710.632
21213412957.594
28714178032.600
31174815038.413
33894988103.213
47531916193.672
96279830488.491
146957103896.982
332212752601.744
326957278789.389
349544355025.118
376615955456.907
613527560202.873
651669606250.795
1005739387940.872
2169345460165.901
2257514408277.804
2212601929732.343
3159844210737.333
7647948821575.337
11603391308911.285
24111446970536.898
37067216168177.594
76069992016383.109
119811757700098.328
256748545820462.406
422566506079434.812
613922118376700.125
681464421089753.375
674148065957842.125
653756312163239.625
592394829055598.375
635552044797117.000
651121393934105.250
622118711476674.750
555622637630907.375
609265863365501.875
559894185967315.312
1247243139783249.500
1255088751951962.000
1267014076317926.250
1372475545252972.750
1271099852412043.750
1884174460227729.250
4208261895177537.500
8426469181011030.000
10615068116571532.000
5943981730217676.000
6642722548325253.000
3886287634829683.500
4502842775025319.000
4727504470016513.000
2586158754834829.000
2117779023789855.000
2038630475403458.500
2057056855946016.250
2307449620327095.500
1961372022648167.000
1108043779157553.625
1167944861420509.500
1019303248877375.375
1415261918922239.750
1288914043844516.750
992994339652658.625
1497557160089715.000
818093289868220.375
691878390597396.375
789483941945764.250
1108613146504156.250
1279023913862410.750
1414259046455256.750
1929417803421716.000
4179468747796706.000
2394220919873663.000
1343316371497779.750
1440176266860035.750
1791551192814930.000
2255613215502702.500
2061156931619772.250
2232659147474764.000
2207338022258105.000
2303362308665992.500
3404870000871273.500
7527880730185818.000
8569140897286527.000
6905293934588899.000
14458749562248860.000
21194107690491924.000
26729072449044660.000
23875280699843684.000
19687003973368216.000
24844934101145224.000
27836149097153400.000
22030142575163212.000
50824212775981736.000
42750330367203320.000
38508326572815208.000
47147113927095544.000
34136385439429764.000
77370585803399072.000
67081190351882720.000
93318791291864448.000
65796293230756992.000
70656130388389536.000
72659993210037328.000
83080002666208640.000
43567257945794136.000
48512471801728104.000
43870358137658192.000
60448772869186848.000
142854490464804816.000
156482771582224416.000
121642986672758448.000
263439735507954368.000
217024629162722432.000
271895040317461088.000
414942982542217536.000
428881319636778048.000
260645210420419296.000
131155690505632912.000
77086544729712608.000
45859249228092944.000
24478041834233424.000
13193811463673370.000
11668382983391876.000
14158593764688634.000
7825467101576047.000
4524885055843726.000
4789709589679093.000
4452756844381720.500
4495292071999563.000
4796335233267441.000
7791067981467591.000
11432114145948306.000
11450740123167518.000
26199672722451720.000
34288109161366824.000
70415201719537144.000
81227622369385696.000
81135325981111616.000
112764751521983520.000
254023538217673248.000
524171671334793792.000
461584580494414336.000
373559184470977024.000
199020618198977056.000
252479466523952096.000
248870343433280032.000
268595891866090560.000
401495142230499264.000
467778098042930688.000
724178894578044672.000
678305535697006848.000
805035391829902848.000
1192134469357764096.000
3068596831721954304.000
1639811232065822208.000
940288425879149824.000
1455184087423348736.000
1481957853883113984.000
822001543213029888.000
719912365678701312.000
405306436946252416.000
216964886806251360.000
116398028813757616.000
110839322920784240.000
142143219610898400.000
72258428872941744.000
92428287057206848.000
49707407860964904.000
26764097536465636.000
19607942757398336.000
25783087728021252.000
51954155268938240.000
74131101467767296.000
71903425225124504.000
39162984329871176.000
46210227658114552.000
49425070727625136.000
79244638434112480.000
124672095840110464.000
293902266378364864.000
222350023560552576.000
302248997502099008.000
206755057126537344.000
278061200708162016.000
165683123267984032.000
143292005734412624.000
159096056009048576.000
144835787115629376.000
160089603375431104.000
130344954457027536.000
111261269021967888.000
126999138743721568.000
150778768737402336.000
122639942012922304.000
113338771691718624.000
145882845217695552.000
120085961485078576.000
157975024609128928.000
112660392719453856.000
137460809091334672.000
80320969787564800.000
167931502490742368.000
230339567612219328.000
264672161266517184.000
270917072703403616.000
138619850397616432.000
70317612052606584.000
42875268925195216.000
23519629940587008.000
50227778260664424.000
36665547166911880.000
50658273628618880.000
45647099998242048.000
25803440160562640.000
14716261016742886.000
15977656543966628.000
25251329665454784.000
24133022151885940.000
26056051224720180.000
40098584488971720.000
41687204622164760.000
90965789121252752.000
72136015292678144.000
38879715218582736.000
84528745817724368.000
122364286724217056.000
288548286115961920.000
426781969007318592.000
972673843236001536.000
932123760938272128.000
729719518842764160.000
949370873479945216.000
1186752300706861056.000
1348671942919577600.000
767194087661059584.000
392067659995307520.000
506530720741050624.000
545063521199711424.000
472353374049902976.000
274883998057001632.000
154014656763881472.000
92223097887974432.000
76999807379008192.000
113801447125673312.000
67997390692484144.000
141957928608076464.000
302745981616032000.000
207585585130895712.000
111164012796933856.000
62701386816007984.000
130584363863623984.000
155064811624657024.000
129563217927372432.000
79374150117690160.000
126237919393343264.000
134612226395862368.000
152831794649960864.000
144755702233097216.000
135768657012489216.000
150220273281542944.000
295844954222632128.000
413679611628555968.000
953906913604456320.000
1550583159227193088.000
799649105039389056.000
1171313959491675904.000
1449280924692978176.000
1509964918981941760.000
2417275021611951616.000
2756559645151275008.000
3035849271468670976.000
2498687708050870272.000
3129164586635276800.000
4843696635303574528.000
4912798858593674240.000
5522482196094740480.000
5577628399104856064.000
3782364459447369216.000
2297621567473873920.000
1252392609041531136.000
734277476218601600.000
448168290917573312.000
519863094319525504.000
277888957902113376.000
263522447417256096.000
233711535737688288.000
203693225755787424.000
116941522227458464.000
140501533974169456.000
108866013979968160.000
152744813882747648.000
89996854170308064.000
81260611444964064.000
41456705742376896.000
85254748964178704.000
64847709253945952.000
39223554344057360.000
23417313391002636.000
20078570444264624.000
11820860430124504.000
12749932787400012.000
6862060476570961.000
7948742851216452.000
4294602823492667.000
5765136281777595.000
14970589107938628.000
20911582673498900.000
51703533853708024.000
74690906828037392.000
39351347109781360.000
34162192393482340.000
45557052478409240.000
23549940810355252.000
47256701991891896.000
45123941809337984.000
45589077428295256.000
23243712181273932.000
21121935721049292.000
21528645824210428.000
24905330796459752.000
24798715336863216.000
27969693454053184.000
21173552786494224.000
49906475277657480.000
28270038708320008.000
23354425613002732.000
13103445933074640.000
7156928859187601.000
4082457573505922.500
4473739905027348.500
2528519825572188.500
1824758534385344.250
2223007897217707.500
1156975165535621.750
1071672034640425.250
1020237537529229.000
1436202754680068.750
2025050018748992.250
2501482032242917.500
2332872947455100.000
3267036520513594.500
8597026609144711.000
5856601272136548.000
7036556853925113.000
6822718573414948.000
4028465497895089.500
4822288139516287.000
3627221329089464.000
8370186195980401.000
8052153910311308.000
7209052131203431.000
4328103950521029.000
3583038896235917.500
7461319521569162.000
5854956915190559.000
14190957562609834.000
11383916721387782.000
25278714992273556.000
23664339476705320.000
20910586025793336.000
27467992688744868.000
15065388950277084.000
13637273071258496.000
7623955947588353.000
10654891428083516.000
5838588346225328.000
7908842558787714.000
11855053819588234.000
14192678407164286.000
7608656597049870.000
6235258257392331.000
3489563273480302.000
1826693335365505.250
999516246926276.500
2135887333794370.000
2478248945833625.500
2412405417991146.000
1777794750565432.250
4315691552964523.500
8736252557167921.000
10892997176162894.000
11176661857139274.000
6377782590178860.000
6118504610225638.000
13487976000748260.000
7360317409709418.000
8659350183215934.000
13525004739428958.000
7914706338899906.000
6462409546745945.000
3237225402529549.000
7724991751059952.000
6115848992074341.000
14257917307489904.000
7683563326228464.000
4458809655460673.000
6378090120863653.000
14478624505305142.000
11435860225424464.000
11802288862281472.000
25890938915683468.000
28238070358862228.000
14496695342014454.000
15040495126507782.000
7900018041118229.000
4309426249924026.000
2213286269338653.750
2593462822217111.500
1516936620668582.250
1496025517700538.500
1183130245303259.250
628700773298383.750
1297872067038259.250
1139080556503153.000
2711215399594897.500
4302487774172203.500
4291831105716122.000
5937193453657955.000
5992136552591376.000
7784789180046366.000
7150232976571354.000
3618668155033552.000
4913732146645255.000
3407348382025009.500
3359040383328699.500
3860614571952251.000
3530653407930981.000
7706374536842943.000
8061728097261346.000
10828363105604208.000
10528155162468174.000
13051625913417726.000
6616676435272520.000
15251126209936420.000
19136824693794076.000
47266657950601488.000
26383588779208916.000
20418236709983836.000
25266434016480940.000
50489810121559400.000
38207127456387104.000
45558200758221528.000
25245129866897832.000
27656126557152452.000
40574020542502488.000
61673144448451440.000
76254919212879872.000
60976942857176720.000
35133943656448104.000
38086937282813768.000
20249246692133104.000
42951273149853320.000
22418343320606092.000
19282613983757664.000
25048728246718344.000
12936980795724286.000
7235388368765540.000
8409783749681461.000
13042178844476708.000
7931190485986070.000
6264557517412380.000
14189512245780124.000
11969666902901356.000
25170239782413888.000
20615493416715564.000
43850203556311128.000
51189827240700408.000
46453511197101328.000
25511538296051244.000
35577581179453768.000
46376060605701568.000
71988774472719848.000
164862720228430016.000
161908549446998080.000
89202870923017120.000
74445165876576464.000
147887779443661344.000
77169193806926016.000
91072300602499920.000
50389458341016208.000
43832107582347208.000
90860522103522368.000
90238307130876080.000
111792067077423984.000
126881038828713440.000
134475099943980704.000
76395547494662208.000
39455220832089312.000
36409349087555648.000
47784271021087296.000
50678353440816888.000
39736740438925760.000
45753230259255320.000
27204114538844864.000
44042102183561176.000
63835343412430872.000
36716357145497560.000
50906443824311408.000
27137358688601336.000
41273517030302144.000
35738284058948880.000
90746179688561200.000
120743740359075536.000
287476342284210624.000
287329265199689376.000
412631335963686656.000
923311367652844928.000
529841408456012928.000
508822068537016000.000
730509766878879232.000
636419758093163776.000
651010077017543424.000
764415681172154880.000
380791213112316480.000
525135691747939968.000
434675146294087488.000
918557188176307072.000
519510123747292032.000
664968817747243648.000
949523215778649728.000
1483798499424073472.000
3031844971995362816.000
2128102392918780672.000
2652315494600578560.000
5417151876037364736.000
3728786558983593472.000
8433187380991113216.000
4771411179936755712.000
6875049158544822272.000
8084855400189343744.000
18115853282533134336.000
10113655630986358784.000
13525281879242037248.000
16432399462700992512.000
9286553521474754560.000
7282451548560259072.000
15228822262486097920.000
12453208364751495168.000
16265005021510365184.000
18458349078083125248.000
14082336578061246464.000
7479638732471216128.000
17850167007131584512.000
13122299312749180928.000
15147658119847561216.000
8864023020187342848.000
7343278525995228160.000
9732601431065833472.000
13688956056786743296.000
12663852632951906304.000
31806632329020780544.000
23412067162253090816.000
25568857071570714624.000
29834086463470583808.000
16260996543784531968.000
15963346826637330432.000
21591309002873581568.000
13218097427674568704.000
18547815873185652736.000
23499461632637788160.000
27788500098180939776.000
24558020857525100544.000
13569319300386824192.000
15440968253199697920.000
12447058313913657344.000
7121399882506347520.000
8879072418409998336.000
4493856633336852480.000
10247859649313118208.000
8104891667603288064.000
9736739420588650496.000
6723007669059356672.000
9333247577573355520.000
9544571093602809856.000
10007552836227966976.000
7263794959553491968.000
4122757495420170752.000
9119432680679943168.000
5416613541367639040.000
6867251656326786048.000
8428950004902052864.000
10133313229433382912.000
9287595321413249024.000
7454674707191269376.000
4450721743830709760.000
10075452539273369600.000
9284321691836682240.000
9958997563589836800.000
14478653427584444416.000
8447609523904482304.000
8388526905822569472.000
9627818337886531584.000
5068617932997550080.000
7050325934558409728.000
8729975044381164544.000
7362689597500634112.000
7162912121128069120.000
3819992381012274688.000
10012258638200901632.000
8673893158365063168.000
7545915790204150784.000
9774976991690311680.000
7192602226675126272.000
10287916966796058624.000
13156613670203240448.000
7538478995025529856.000
8446584528456153088.000
18372714901944735744.000
29042585409561260032.000
17118316842596495360.000
8932272636794333184.000
12707935273805848576.000
14944780636201265152.000
15305098454883076096.000
9057192423848102912.000
5302497207073300480.000
4406583627498755072.000
4092614917211688960.000
2314631086705377280.000
1389359932469948160.000
731595095830027776.000
439290905872190976.000
528696579126495872.000
431987010141271040.000
492129332315291008.000
269948297706092128.000
142842977957727168.000
217933553723127456.000
265651189858698976.000
157748736957593600.000
85858598728162480.000
88003245449266096.000
74936438389721680.000
82841833551477216.000
76001540875013232.000
38935660952111704.000
22946538438708868.000
25502997194389732.000
15049117975179604.000
7942582590952983.000
8842940008624627.000
14346924541068284.000
8049922027718841.000
4490625364886789.000
3369721402336437.500
8333020375383586.000
6801887527625994.000
3387275896735627.500
4750814492565384.000
4794199999169013.000
3394122429449041.000
1970812171439961.750
4349689110286053.500
2356735951007852.500
2403949403301255.500
3476407636937368.000
1848752892949927.250
4714247953653630.000
3491450202470536.500
1852901660772398.750
2649326888237916.500
1967417814003245.000
2002944851459290.750
2689018539415449.000
2405954601308122.500
2194509370060045.500
1953475693456398.000
4535627717695460.000
2361705301711173.000
2132443986303712.500
1192073341083214.750
705284210497419.125
420687231286479.125
409933990802557.250
436520772204611.750
253006162695745.438
325152907419745.875
442802566442964.188
713660275947658.250
828113899619809.750
445398679404076.812
334928462100164.688
740732698759932.500
437824602456999.938
634064310855798.625
813457874639110.875
1089578501902730.000
2730850385361626.000
1515435423394842.250
2402687730541489.500
3274505199576461.000
1998887549369844.500
4315850736758368.500
3610854682689504.500
4538612612809968.000
2340655962119912.500
2252007005723424.000
2026509614676377.750
2653366667229075.000
1792022807704189.750
2327008717844187.500
1182994262026250.750
1054544951650013.375
1401710492319287.000
716330683977324.875
722028367628611.375
399126946267126.438
461862666109493.750
360908091409350.188
323049317612784.562
744351050359195.625
439565404243996.250
340547685526888.375
305340808089014.688
322241985533249.938
317132938502535.188
185861689666766.625
401913429925680.375
367154011883676.500
357238162807578.812
744067332214242.500
1196175497594974.750
711218337937347.500
424588367216807.000
220446437316290.219
313473371139695.438
836874594540815.000
582668332392047.375
772737981001174.250
1208115692782680.000
1942537128178628.500
1983630232024437.750
2291691973136736.000
2679134897560075.500
2511538060809311.500
3672559527397433.500
3704201616045402.500
4361957673383253.500
6283970504231681.000
13286943773857978.000
6809019721377456.000
6044436563394860.000
14706093089032264.000
15856535622562554.000
13903975399894780.000
15590762385498250.000
11589623205212870.000
23639132750545712.000
13987870698190950.000
27616952316908804.000
19242109960219768.000
40787587444491144.000
24257982640447500.000
25680789262192856.000
24562662071506548.000
14098448959733874.000
28337824094843628.000
21167595884687388.000
28552213018410104.000
41731807234794528.000
48778086404663856.000
41140922127332680.000
89183997811332400.000
49543320869502472.000
35735932874693088.000
79308211952614608.000
68804078501523872.000
79961545691801696.000
78429874755193040.000
46072204842694944.000
62061339642988776.000
64637781261396552.000
60806772451074152.000
127132634133864752.000
284689282416276224.000
376830388046677056.000
541724529158102016.000
280604512870324704.000
163079708230811840.000
143313809281018880.000
144944085259057696.000
167563718684276032.000
137443180691250400.000
144042823652565232.000
159104430153225792.000
134549806121791456.000
111385656265201376.000
128489869706819280.000
303106980516081536.000
154568559496098176.000
92995015977267168.000
114891345322650816.000
146475735656943616.000
74953174988346240.000
44895371829850808.000
43121593799388208.000
46968282587364888.000
74154920893677104.000
89960747804538016.000
74140603791320624.000
82683253576884816.000
126496495226990432.000
66602523666673744.000
75436308109288896.000
167759748655963680.000
247594046192536896.000
539780864063993664.000
296646221857671616.000
160907844084440544.000
204385909444115104.000
231348487347144032.000
533059023972015168.000
487104867849825792.000
957514392933779712.000
1393742416611847424.000
1289920838242941696.000
1290906318431640576.000
1707633999060126720.000
2671197554751665664.000
2708391032208353280.000
1455619372658828544.000
1755463144305620224.000
2217127752839851776.000
4924092885435717632.000
4520265518921727488.000
5638993538509014016.000
4930917162508843008.000
4375622628780710400.000
5220430984294925312.000
2964543861067008512.000
2350431709476621312.000
5181738543209412608.000
4694802238313864192.000
2764178563071780352.000
2632652384203034624.000
3014752388266817536.000
3852828817131784704.000
4993720712306167808.000
2989484537223133696.000
1669982208199119616.000
1733994192481186048.000
1260028539764970496.000
654281573261555840.000
1340699007813906944.000
761052977618977280.000
955981275116939648.000
744497629047064064.000
415360659717817216.000
400493947197003648.000
234445288983186112.000
302049586156712384.000
237379599451062368.000
475092061918770688.000
441302023364011392.000
453321324911974976.000
488122703590596608.000
424903538825155968.000
240055932431450016.000
138456224117755168.000
167469668878487328.000
89512928794165536.000
70209116063894432.000
35021759291454652.000
75980048794307136.000
93438113662790192.000
49652653982857160.000
26175040027555420.000
13960190357976636.000
15177658552384576.000
14067921900585296.000
7542668293937378.000
15553038756311006.000
14256005205873796.000
7589726769878250.000
3995887046608911.000
2195640659244730.000
1782394833401742.750
4556764028983170.000
4845389543404285.000
3804360472740963.500
3993191770963441.500
2338985951904837.000
2069614449366169.500
4426222870699788.000
2304766027141247.500
1963420731580003.000
2478397317869186.500
1435739719547599.250
1085478095335944.375
2295869768010021.500
2288150974411711.500
1985681530048611.250
1205548964807150.250
1194301285567076.500
1780400255722777.500
4713874904009786.000
4847835840576096.000
4356097967392584.500
3237981979729882.000
1929232677274620.000
2430364909888695.500
1241583220532007.250
1169814412739390.000
1346959736120402.000
995777883594973.500
1301598508594172.500
676379711840109.625
1345250954859830.250
1803790233977895.250
2684793266930987.500
2335175232970434.500
1178292375413130.250
716565382491470.250
428497912350724.500
241675509613338.656
309658361352216.812
660756631915125.375
569113255098367.375
689714267893333.500
1447365640525888.000
1412728487534365.750
830256938700722.625
661532023507487.625
738527758843702.500
753151143833118.375
644393330130110.500
345463277444731.500
195247355015551.688
258493652531395.312
366532099554512.375
200256492366460.812
108304497519314.719
62168353025912.055
129840067841807.844
136969730623440.812
106653197406265.406
60093541858459.125
75813577015806.562
79325719599859.000
101467000440088.469
108510202691674.641
95881781682645.453
106024983901764.594
133163035144648.703
126034742293202.047
109806064944513.297
67235807076767.102
107314262891592.062
216823432316980.375
326920709787484.750
378941237800414.125
440644868554080.812
358678142764993.938
813199392191658.875
1166337603853239.500
1155749354161940.000
626640043243099.625
679324315957630.125
1508036598437390.750
781830124894818.750
735258147882696.125
581140061163784.750
1335667525421760.500
1140930141601302.000
617995347853627.875
637694568421791.375
568982339787581.875
1459343720356976.250
2391170281056446.000
2394396834032364.000
4889329675580231.000
3572261867608751.500
7334336969177544.000
15467953289134224.000
23993949651485112.000
50462704714162376.000
27197319400082876.000
23790649068480172.000
22323595140284700.000
28742564413019460.000
43310526397328416.000
88678392645655792.000
65206481125618760.000
37034203275821784.000
38251339679479224.000
19390284312719860.000
28791473223022296.000
27632595873728704.000
22836086540433324.000
28187445079469976.000
26061127432948872.000
13954618708166118.000
15187199765139958.000
21768937551909968.000
24656615749101972.000
20598359588055956.000
19242631864212864.000
23782278560807160.000
26846836612237664.000
34765750971763336.000
43963630393514472.000
43554888790642904.000
90175676439534432.000
50516345577421112.000
40508537673962248.000
50135874405032552.000
47390919856865320.000
36497021387672112.000
46281633899679688.000
25331201379923728.000
15375568158475906.000
14076182918803656.000
22839846710944072.000
36538633553143320.000
37221089218226896.000
19121748118707408.000
28760565072531124.000
20700911675802500.000
24227240731809180.000
27315311929675040.000
27471061816453040.000
39772441178781632.000
47796353978471768.000
42112104028147680.000
44017535107477592.000
50061480573154656.000
71302637951900112.000
74434177864419440.000
89796593314756320.000
49760541188010224.000
48136584561675592.000
50290515078660152.000
80177898625358928.000
93054173757789200.000
129367463595724400.000
147407152482587136.000
214843210342450720.000
113127988454490800.000
234571987495512480.000
284553951512884832.000
391421710040568576.000
223373845887161952.000
502336010588619840.000
292608597091270784.000
384300117934511808.000
223473527668107744.000
216039934341607456.000
115274199888730752.000
146331303202548640.000
109947295068382208.000
61895434214971296.000
88417482712373792.000
45408176179732096.000
25757446206924504.000
22616990971008312.000
22684836270512556.000
45759310970513408.000
61871900537203520.000
91505845886310672.000
113075808710170848.000
296874977726499968.000
224126209871775072.000
133255973464705760.000
164026195667613696.000
167798718515831712.000
207524869513779936.000
218195550118168960.000
276911304825220192.000
212005119091474432.000
472654003900753088.000
266025536630100416.000
151033548319675648.000
112968866449210528.000
157883651605002368.000
90914490435863680.000
51755769459425536.000
66451705452328680.000
85946568587357328.000
78588831431532144.000
43154292602702200.000
35352089988960860.000
43017001668083616.000
51211740001643200.000
64215521148090744.000
70971805608104352.000
63299241573365160.000
77972158150368144.000
81458664638433184.000
43264004846734888.000
38292968777851432.000
42004882787023344.000
85976343677566880.000
127676198761775792.000
70871204391387336.000
37764197350038064.000
50103085944375008.000
46319250164991376.000
26312593992780264.000
15925991295767546.000
11475961119323270.000
15255168674110356.000
24434922906777296.000
27219072089100756.000
34875792605355244.000
20108417369829860.000
27509062347664448.000
37687543517554136.000
42590864714952184.000
24617753284407424.000
33617897188836804.000
68873280966382536.000
167959204642106560.000
114915261634418896.000
67119751780348160.000
63777160676659632.000
60982318419218976.000
74475307015763824.000
92626654416489056.000
47385850470481056.000
27202698950228276.000
35370586658271376.000
19325619153209784.000
25893763999607312.000
20340094062620068.000
43518357159659608.000
39210323236682768.000
34010548097352148.000
38049666564385112.000
20025471102956088.000
41811863104894320.000
85312632057720320.000
110819602935400144.000
167952052556341120.000
115992517992666864.000
70604718899443616.000
60941033572243528.000
37567886009454800.000
35437378716409024.000
21038756098878504.000
12883585256547278.000
15358895515140630.000
24424345436440172.000
12762919668711044.000
28628376943832844.000
21034229686742644.000
21921323447243632.000
23222046272919936.000
49097632681326048.000
25801437185597824.000
21740616052531624.000
50989940469777720.000
44089635240633592.000
40197256784995328.000
36754509560414296.000
45856454888962056.000
71475780101391128.000
40397011673940976.000
47213514098280328.000
25629696697502880.000
14883526075121406.000
8075681049197940.000
7063248362253659.000
10745454304308094.000
13830220416925370.000
18662769717976704.000
11135689571582818.000
11031601028382912.000
15025170513390366.000
8493161723926519.000
5815754314340402.000
12637569439275110.000
11922530915032192.000
14696079070224966.000
8691444072211434.000
13816987192075034.000
18778662482038284.000
28805362262110400.000
15979568256580356.000
15420559871221544.000
15141341086789986.000
8425783894520428.000
5925193154559188.000
7780158354086155.000
5981353154146896.000
14721999872419274.000
22186217369785600.000
12432253777478008.000
26736297008182216.000
35937715857808060.000
19590045887958904.000
48541292245083640.000
40177492105904168.000
22158905794296608.000
20801586855201844.000
44242626939643984.000
35089057397758364.000
39013241908618904.000
42059641066269608.000
87349755430556928.000
77182260089677360.000
42844865878447384.000
38536588940723272.000
50401313572164992.000
39320775223365624.000
37485240692217440.000
21275054303573600.000
12495980492110982.000
14337758914369518.000
19643365331417168.000
24242350465496732.000
26862857450904688.000
13798025404985120.000
15249251246272702.000
22696793373769736.000
20436280886287096.000
22026825696224884.000
11979334992064800.000
6256557112517523.000
13935119181479906.000
19712858244417580.000
11992282768964220.000
10821262170531924.000
5894204938484486.000
3451796130016285.000
2093699972602183.500
1154533055378327.000
1496898931287642.500
1411908477743624.000
1425861285601628.750
1149634869708008.250
1279978956803056.500
745556962694265.250
630426891148318.500
804877188843731.625
817829063256197.000
431759380047061.000
468497689391041.250
712673573307944.000
1052270146858593.000
2158856921061211.000
2602433822496998.000
1481189329541761.250
2197780130170108.750
1920069861496455.750
2532840716862169.000
3291334421824879.500
8777350870432218.000
6672183230693785.000
15872308139143804.000
11929726660565408.000
15548819541276234.000
8008229749985879.000
11372588200392554.000
11664874852317630.000
6166678770945997.000
3748715827823821.500
8736564460424316.000
6540388592372957.000
5848356926054488.000
13486081535606634.000
13751912157426592.000
7698884797055331.000
6353347468331007.000
7626060343869985.000
3993604370374019.500
6205707424953125.000
5997357949452900.000
3483869369150740.000
7564721082093770.000
6350361179573842.000
8460287542843245.000
12702587529768114.000
14333632670656470.000
13072588552041480.000
7707929106414180.000
8837868556616398.000
6609260742567627.000
6764598356001108.000
13684427403880042.000
27845435215853052.000
28592469715169584.000
23234520851886484.000
26595209875686276.000
14744553647832814.000
7502940440665595.000
3996679066155045.500
4143462381612363.500
3513744822376697.500
2006664536008991.000
2086271391948022.500
1846616441606938.750
1044672243076883.750
2421547258007486.500
3361512609353984.000
3786481119261124.000
2325243568605758.500
2216692179721292.000
2058865126109811.500
1262441151034860.000
697608639596755.625
1076006650002777.250
577048225169720.875
313021167539710.875
392848145837756.250
356260095937238.188
781895275331077.750
1132105371370589.250
1267927636311014.750
752105108255553.250
580968259537161.750
343602042830817.062
728463135597481.750
819917017971294.000
458390726020570.062
429372351712630.375
449049008565181.312
689952403426999.000
1062367209809052.750
1359034989594622.000
1139850420357157.500
2557033579124698.500
2737464172497897.000
3867313467427524.500
3946855382307975.000
6367757306850794.000
14859099264803684.000
7867286482169092.000
11546563320409656.000
10609640101865920.000
5861139069867511.000
7573259536890868.000
11160447811170422.000
15161367805471596.000
13790753282304502.000
21400025027254032.000
44286786809003664.000
45389693075133200.000
40657661909472656.000
45098150688928392.000
36696360542242368.000
45772878472436816.000
46152159462888304.000
37769242378850472.000
43032044803571040.000
37538930637563608.000
22650261084982352.000
13481082522067654.000
7036582707379959.000
3658641151787898.000
2155682626438586.500
1779346370532058.250
3739280739108066.000
1931580783582127.750
4011432491573049.000
6460133632718926.000
6968746048829433.000
3617334142732232.500
4269415949661597.500
4133767801342372.500
3243433846900584.500
8236148437852782.000
12920605742922844.000
11466275896651094.000
13316152350928100.000
13269272327296076.000
10526534837416352.000
11013031488166148.000
11572075855683872.000
13527557389878082.000
15463577303168014.000
8658201137239320.000
4520596333374960.000
3973334907418039.500
8851231206680409.000
8728534458906462.000
6529831042435350.000
7983776884793514.000
10369099368661064.000
15287395618998864.000
12763370850668598.000
27450394930190332.000
19239482066507148.000
26861421400756368.000
26752777106754832.000
42503768868609040.000
41631641475151424.000
45213280210540208.000
50597717584850832.000
71694329226554104.000
76317617404806176.000
43204984313302840.000
64736774604051440.000
35085161931662536.000
21694599835032672.000
12057723597093020.000
18985727098877280.000
43469462859456072.000
41289597228698640.000
38763977192830680.000
41912212170717336.000
36313132504884784.000
35454519463019068.000
34548383693935212.000
41385360726349832.000
91704798296085552.000
75904681614528928.000
67439903424469608.000
38922784197508800.000
35702074421767772.000
49584490107398752.000
72313690617443296.000
90925575042600960.000
72325468357920320.000
167952047071561248.000
233631112004942048.000
227941357840608512.000
202935405853043968.000
288847005562126464.000
151487726741665120.000
79185086211531840.000
66588886166176272.000
135350808334663424.000
111391823485770752.000
259478408746224288.000
197469027331010208.000
115139527380435888.000
118759160210104080.000
143202373408465808.000
132863686473305120.000
269094812437502144.000
221180382449103296.000
130680920626650752.000
65519061190919224.000
38872933840601144.000
33799197309899284.000
41625940552509000.000
65211758871838376.000
84781692956278720.000
63413742661105552.000
72716594138428992.000
44274840964558424.000
41351521122805736.000
47154086558551440.000
27674060095789308.000
24027838957488244.000
50206340671439512.000
51907797051178136.000
84496120696053344.000
114745792328641600.000
263430999671887776.000
220626524398602592.000
126880460182542064.000
138605192701945440.000
78199942625833616.000
65966515894070544.000
61199792768382056.000
142226422872469600.000
165543121588751904.000
168398486421390144.000
135395263718966272.000
165121999025928000.000
112906406322622608.000
152894949304691872.000
116930735030082144.000
271567352553784480.000
154169426231774272.000
228630602007210304.000
534421962467768832.000
423986849525329408.000
537665137125804992.000
520631303896784832.000
484634821377238208.000
355186896744005120.000
214102357174292736.000
512022044597846208.000
450039599808929408.000
380767998659202752.000
543548964046408832.000
393079312299569408.000
216365341334412256.000
115145561040496800.000
132589783442624576.000
74073510202920192.000
116378736893026608.000
61118193017906168.000
63685499633396512.000
145000967945517856.000
123983986960148752.000
72730758733732400.000
144821235935066432.000
212949373684594784.000
120563342552542896.000
123031535034383952.000
115795325503843296.000
259405226643625568.000
299439087553502336.000
262477475230161440.000
244084052275477504.000
220262540229588992.000
197433244559568032.000
255978206660674464.000
382346100072475008.000
791136386917723904.000
443659346282682240.000
253291768429494560.000
131306673260981488.000
114635351166699504.000
255674814642939200.000
392879261408315136.000
513089184143357248.000
438557541633911488.000
232597834835080512.000
141451353247373168.000
125724075633172064.000
143601999122439024.000
133206773572620000.000
75541217211716464.000
39203726917515536.000
36154719151257688.000
85366238945794384.000
45897346662426872.000
26110153133379876.000
21033156697058248.000
10630846699224494.000
15822497289372544.000
22284182932230600.000
21404961519572208.000
10903461405364656.000
26079998433847848.000
14907951192007890.000
10418076657946128.000
27227534439351344.000
26381952654869160.000
36686354837085600.000
47384843735680424.000
41651892311485408.000
21795008272201244.000
28530497595834112.000
14894205635448922.000
8372713538353250.000
10741957231600510.000
25187898566032948.000
13876900989761456.000
20115394806201468.000
10933477924413768.000
13390018305875762.000
21599431961039992.000
26035627163556124.000
13549941126695010.000
6890465532718791.000
8108668775448061.000
12327478826865886.000
26120105395272448.000
26222349800112540.000
14159882915225372.000
18920633441787200.000
27621884782105616.000
22153684926673512.000
46280603894507560.000
24973026966090108.000
14729553120883800.000
11165858028457968.000
13215809814132764.000
7994022861081660.000
6012301020106173.000
12375951418769028.000
6989515315670621.000
3906578711675212.500
2364431668349448.000
2036764718849762.500
1981695865904281.500
2165175968732596.750
2575059962425341.000
3330709499245075.500
4515951864076000.000
4947537514766021.000
4048204201621272.500
2254725046779710.500
2513096188612832.000
2559614017917022.500
3480100338738447.000
4475266479648851.500
7008941324324461.000
3696080498731567.500
3509609115050908.000
7498489989908922.000
8677222645437344.000
4663751282926072.000
6739416349729059.000
3539867256696871.000
3949316465779828.500
6159652560950113.000
6703683981197964.000
6656201562995060.000
7404716843988340.000
4393614589825890.500
3245020409099268.000
8774624067002761.000
8853566095189161.000
11125294744219006.000
6763390492664399.000
5811236125198252.000
3474896268681106.500
3414682082512393.000
7994946014219490.000
7948730003346035.000
5859355336343051.000
8540928138595412.000
6976618223573578.000
8182544907689550.000
4275118774468984.500
4504929308378295.000
5857180471955973.000
7140157675548828.000
4252431977528844.500
3984943993933377.000
8442463967579889.000
8408943502289665.000
10421544688061572.000
13648066389142712.000
28442408895638352.000
27251390322106676.000
19937001848614284.000
22159517087011368.000
19242213019812312.000
22679863454092408.000
49074897837684648.000
47248232747456440.000
34658415343245752.000
91256599440692912.000
51229528816226432.000
27470834996019140.000
42895056280352192.000
23044022085207504.000
25912161412680484.000
14680066289491560.000
14606092168218194.000
11985124008368908.000
24791297173374280.000
39076866843073448.000
34594492314933664.000
44911920033808680.000
43626816190002608.000
36877452432197616.000
34128969426345384.000
48408607053050304.000
27091481251261252.000
23574268169105640.000
48732255508857056.000
47451332633794288.000
25650302965077020.000
13764249838992244.000
11670556518312828.000
10839878912037422.000
10517666003737380.000
15731350858235414.000
13832426573001488.000
8093227104459924.000
5948007914178561.000
12424594103424542.000
24891003462916320.000
14342906594952774.000
7977727310520194.000
7488373401268555.000
6622494179942616.000
3645543762496690.000
3329420310916354.000
8580908851771529.000
13417959790534852.000
16036836918667726.000
18813359479734868.000
43064429524608504.000
22415532331503732.000
19227125523075904.000
10794834363289622.000
6290112287118813.000
3779821400336116.500
8685373769536961.000
7462952013845623.000
10512441371668004.000
12516581949277138.000
14873548555216986.000
7718544782595052.000
8122769937148282.000
8159130743043517.000
4864257183590633.000
2526865723329677.500
3399738793959593.500
4540191830572612.000
4808468084416360.000
3644057699930856.000
4515884280942218.000
4695147672779974.000
4689332839626529.000
3807842120139589.500
8886860896161395.000
7632596688834331.000
4030112271948826.000
4245948861103287.000
2437360836473564.000
3867733311190249.500
2299304542314328.500
4682365511085986.000
4390277449054460.500
4898024148070992.000
6467131210374645.000
8423326182772890.000
6356731782386364.000
3226632028322059.500
4772866176315123.000
5853598066054684.000
6241786029420522.000
7157964508091344.000
3571877107793284.500
8145024828752164.000
7736578498392716.000
4678719143651666.000
7669958597599252.000
8656597234175069.000
7759909355773998.000
6274730421830903.000
6574063054364764.000
7396979123292019.000
7175119367010732.000
3593410682303192.500
2171845691370442.750
1168252254488984.500
1225224354112719.500
1413540809179279.500
783123954759375.875
1061921785321590.375
993293639179197.500
1123827694380183.125
1786035195954696.750
1064000560173066.500
2147330382886181.750
2214128723922965.250
1147417016466408.000
1526705508649447.750
829113899906189.625
431101804838116.062
245698545875863.438
312464143659257.312
446975171148989.562
469218994125609.750
423621458425276.688
870239816786639.750
725233877254419.500
630560278685065.625
694225442019805.875
713087785914988.250
1051839001536216.500
1475248365039074.000
2289766701682499.000
2490318093007407.000
1309485840349661.500
1112045446292649.750
1055891789822134.375
1520380112816563.750
787462936304512.625
475193572092234.688
701314687417249.375
711941063696672.750
1438825411261300.750
772677545970915.000
1144132415846194.000
2702945457220089.500
1406568541026342.000
777303481071798.125
866061358540869.625
761907245271690.500
389888082940985.875
402857516562984.312
471385625262020.688
719011223863250.000
1440930783163247.250
1961822006580753.500
2410609473822965.000
1303568211218109.750
1564865997769773.250
1414310770124529.750
751308669680073.625
1188728622252245.500
1263759694483137.000
1287664459086825.000
2066339924243665.750
4127866970285696.500
3372373691080880.500
4427381120987556.000
4239790247855867.500
3397815758134470.000
4360936808496806.000
8854909759232350.000
11318164399222522.000
13245079256105588.000
7631001744414531.000
6600650716311522.000
14759138745210528.000
15918387314025536.000
19744196624884292.000
27301161205266736.000
29015305711024012.000
24577174248421424.000
48590087914394904.000
26931495406034720.000
16086120362473294.000
8732394617792470.000
5042580273318671.000
8273493807508199.000
7069266571078106.000
6102971232598583.000
13223152569775176.000
14672413303899798.000
29644193831985180.000
22415385031329912.000
23463058272511580.000
49857569242450960.000
41861208039989176.000
47450658277707392.000
37495467345939056.000
19990870929894912.000
45059444912199408.000
22663510353899520.000
22214802730748940.000
21913225161979360.000
23971708587107408.000
48451876185091496.000
45892738164330672.000
50649979616766552.000
68856981233763960.000
40679044921903336.000
38558389757728160.000
44916626007225952.000
35075403516295124.000
84656682998979360.000
48957686419581256.000
66683737869760152.000
142868179147751312.000
80860523510121392.000
123986171360832720.000
265162068279700064.000
250749745219590720.000
302607884367320128.000
162555396533449760.000
224866888368383104.000
122156202447238128.000
75454446528354432.000
86745485040556528.000
49565705586063744.000
78945358882036464.000
171779113691645024.000
145451699821431232.000
82704176729087120.000
45750553812160248.000
48828482732623320.000
77698863346491888.000
93990125580198336.000
131759846758837440.000
158743147337761728.000
167112723266162976.000
160491223410219712.000
135641570011837312.000
302668132070528768.000
203289808825041184.000
482345067080903424.000
245268347383893216.000
306520636526445312.000
488945173696603584.000
481770716660035456.000
413811937176177408.000
507683586941666816.000
494083638843266368.000
758436308878977664.000
923745939063527296.000
716430741705882112.000
859477671097087872.000
734985696965677568.000
368044304734444928.000
760216242739329024.000
919304309442685184.000
812489893716251392.000
1286545555811272448.000
1490379013876168704.000
2289681828397835520.000
5604893843158086656.000
3135172809131047424.000
2686884400425588224.000
1497866122863778816.000
883132431830710528.000
1330421693564393472.000
711675710400594432.000
821764646096594688.000
689566819464381184.000
364819416949601664.000
532326458886508800.000
831635695041552000.000
656174814008412288.000
381974552278043392.000
866235255481855232.000
445674320701075328.000
491628072673200128.000
761973087785220224.000
940792009638337280.000
806696170065449600.000
864157739984172160.000
1274213356114980096.000
3079732218091337728.000
3059969373970788352.000
2381150684161215488.000
3197586968407037440.000
2490527905215251968.000
1313440441670150912.000
1661456647677033216.000
1249122820924784896.000
1617966330354606336.000
1476021787006223616.000
899533564151561472.000
984879941482059520.000
672617110746729728.000
868028654241228544.000
1158107633104273152.000
698503976906082176.000
699102304516434944.000
683135439599841024.000
1664496448968411136.000
2253440002100588800.000
2651142264278784512.000
2567818936619599360.000
3041455733490989568.000
2568268379153792000.000
5506821855830409216.000
5392048908594214912.000
4691938936444748800.000
2659980295047422464.000
3041838248121579520.000
4345594781753450496.000
2570400702052741120.000
3096987988127555584.000
4093000766796025856.000
2512570238702275584.000
1339317182433543936.000
3013660987582751744.000
1679541877360888320.000
