33.624
31.788
33.178
36.502
37.324
78.891
108.503
236.226
376.109
836.467
1332.315
1850.916
4713.562
6216.491
15251.202
20484.505
20368.072
43085.454
85272.668
86367.347
115756.051
261671.998
263440.249
359716.962
926201.207
1445413.372
1336165.507
1471863.486
1468082.890
3185693.537
3079179.904
4776157.585
4471531.345
4338116.125
4503897.939
9337647.559
10111114.893
12802970.814
12381045.267
13191530.939
13752727.236
33371325.197
54132106.912
79019327.383
177569158.208
169119343.494
272825232.106
556610217.242
810832235.843
1701868843.588
1800829026.347
1924008088.321
2599777951.409
2856967154.297
5834897308.811
5569575276.729
11838972726.655
14980855264.511
38357166181.896
58326134792.674
120988758715.355
196470189078.809
285772746706.301
672403936496.717
1055790457683.036
1157850598134.196
1099076548456.390
2355741683969.873
3555958637827.308
3597697966853.366
5578924356423.964
5372202491144.503
11463236254538.961
24155307968806.707
24804830603076.879
39226005182044.891
52695052487493.828
122941171918721.359
126552008244268.594
133144061511571.125
133361129589309.391
137811354594664.734
206420533724959.562
455640158521667.188
613350240290873.500
627483506437896.125
1264269386808420.000
1145871989086422.000
1055741244632250.125
2573273922463791.000
2603720250539378.500
2537103494986108.500
2470844006329509.500
2274629632581002.500
3503699851176836.500
7281435734561503.000
7365932350013080.000
7696793543756707.000
11400897069410496.000
24762657540209760.000
26030238579503212.000
26794171922192448.000
42798436264789000.000
40205757973632680.000
39593281924054904.000
35052473725185292.000
21428784491909964.000
27387424476519568.000
21401567743636196.000
24776515680020284.000
27189107118835412.000
23429169165853972.000
26531781056760108.000
23714281115426488.000
27218899647270124.000
15169637027687528.000
23302340605502620.000
19554733212791648.000
27656152032917260.000
26558598184362572.000
22724030378857936.000
20289193108142344.000
22326632414618620.000
12612188307281264.000
7097058120524676.000
6091070440510056.000
6717997707443736.000
7282709465484210.000
7868520823775973.000
6470219619211017.000
13726965552606200.000
11174122110392040.000
24197922504834324.000
22194872119680288.000
20168667298925872.000
12267672979137060.000
26679144936101172.000
18648228683392984.000
41217438789080360.000
38692872917652288.000
92055530131055392.000
47353265608516896.000
26431984998470204.000
20891757099258996.000
12345401182353492.000
26425719418468688.000
23764350521232240.000
27450716651906224.000
22218311062542800.000
13325658522947974.000
20663656705214516.000
51421598720744512.000
43315996394988344.000
42955223661610152.000
23563662456472776.000
24230036514726296.000
13290539099108140.000
7023555394422802.000
4015171422077029.500
4633614580794175.000
2596561744257194.000
1832851739770894.750
2692647341661856.000
1459212689751748.000
779391335775297.000
771282158532901.500
1167444064480356.250
653787165616007.875
360598900151334.938
815246055273959.875
647643151995290.375
1433073090168239.000
1189652206335061.000
649292781007211.250
998366384331227.250
1341027118390054.250
722684975457211.375
569584061416832.125
1451562642492597.250
1904039261144918.500
4137204730293319.500
8194812501570689.000
4336513153638505.500
2346904349758931.500
2100710175066186.250
2218798312436743.750
1149933194373924.500
2554429258320560.500
3879810768689850.000
2222997048161938.000
2291010868088521.500
2359243708414549.000
3661424039483404.500
3442321049774425.000
2121060155266843.750
2392330570860085.000
2250542891499667.750
2232144502618722.250
2684607394830829.500
2081400263204818.000
4357470795889125.000
5973243142177488.000
3253807356396392.000
8045125384611433.000
13175013731972856.000
14567479743629650.000
14196540097883478.000
15706077615942748.000
13106208462278512.000
7502695861076738.000
3940682020109569.500
2273761997786280.000
1872191679770978.250
2607339521017890.000
2341386794565088.500
2539296296164844.000
1875359171991973.750
2207757870323483.500
1187476967713881.750
1271238844552523.000
757697267237379.375
432283837965214.625
705923062538177.000
1518397613348830.000
1860757587934723.500
2700488284050262.000
3781674083607205.000
8694115423335097.000
13937682255789020.000
7594059127346247.000
4157894387871391.500
2123213115609885.250
1873436693761960.250
4900568324326951.000
8107568214447606.000
8772769729917106.000
4814691942576312.000
4210212035742907.500
3685027958106327.500
8671660943943931.000
4938016076002526.000
7230797230531080.000
7390970032431218.000
4242958793250692.500
3924568794506705.000
3355768763516859.000
3829935771533325.500
1962913439128851.750
2731272013107262.500
4394141770689138.000
3310550620038236.000
4536592001899813.000
3586380826695634.500
3842325207375130.000
3692602120181262.000
7600619783301958.000
11754882817735282.000
28248155817791128.000
42366961528740736.000
36320788289198352.000
84879567925920208.000
70884816985943264.000
38386757443915872.000
42445577949009296.000
88817561833398320.000
145693652005983168.000
85558100043202336.000
108921001869485616.000
262438022292960032.000
209454862845384192.000
284830454180898080.000
147302879206055168.000
109177744235986272.000
297975199098453504.000
197513722650797760.000
240163173738385056.000
477565144246408192.000
274396295864014048.000
199843222607589792.000
110669850323031408.000
61294529395729344.000
36973322565411392.000
77585952343194592.000
117586822863041840.000
62967395799525904.000
66529670605071496.000
139938861721162144.000
124933209329868944.000
160064047943333056.000
147718940506149856.000
226925579474362368.000
221439753371626560.000
110070662964022608.000
288243784106980032.000
446632520317284928.000
238955175829364960.000
243470120463273984.000
527151659543618816.000
481897464397206016.000
266186168190482752.000
294045710872000064.000
226898968320398112.000
227227692595321600.000
287013529050789600.000
214422415752254016.000
274074567759108352.000
290289383938986816.000
201342205932595392.000
257568537432284384.000
259122285491326144.000
237393227337808704.000
362433034218172992.000
199318043052723840.000
265972861668801248.000
147528465156903936.000
206980690862628672.000
299639605393954112.000
274653229210172128.000
292468298869732416.000
409792936574965568.000
640246118060520704.000
1510116903263546880.000
1742594125473165312.000
1316620178849675264.000
1588927976434367232.000
953032281648001280.000
645278430276026112.000
969088098872903680.000
835641697849990656.000
799394297984893184.000
1759213508695411712.000
2377221568915593728.000
1247517664456152064.000
647385826117467008.000
796291590060487936.000
1288110889227404032.000
2624753082982130688.000
2214008022997227520.000
1304273356821751808.000
659857357933292032.000
687649644223200128.000
884834896236970240.000
944578394275456896.000
1332144768049861376.000
2748145328105862144.000
2223478869465382144.000
3154176870693091328.000
4002015314712741376.000
4656002422589171712.000
2595659843822163456.000
2171715253155514368.000
2738438661647967744.000
2444940164129515520.000
5274511688121180160.000
7385911043050504192.000
10134597616248645632.000
7347882262872278016.000
9803176602976219136.000
8162376889849589760.000
4221024256365534720.000
2467971670728604160.000
3009417698957629952.000
3091683787473829888.000
2866115411136086528.000
1485321812112173312.000
831947846966789120.000
1353842825556894464.000
1700722640861476608.000
1488097155199976448.000
1635225242008775424.000
1347049497006475264.000
2791099665475502080.000
1540602264024049408.000
1291942966877210880.000
1446014701280970752.000
1165183952436080128.000
1394739961740501760.000
1476831733118768640.000
810577722397591680.000
813976562488323072.000
850578886458688640.000
907713759578060544.000
669366115808807936.000
370786732392049152.000
979371839644179456.000
1531354702986097152.000
1154128271441397504.000
1348403812485066752.000
713744022160839040.000
1627538367508152064.000
1282884516881222912.000
3127354078174464000.000
4847769373823111168.000
2713713678896749056.000
1411951945186017024.000
1389457346182625536.000
2069411353519492608.000
2369808348905192960.000
3156761787395303424.000
4104551821076081664.000
2091056858199455488.000
1154236361249039616.000
2491654304288385024.000
1287944612709794816.000
1434291281685224192.000
1762260971396402688.000
2426104262987324928.000
1482274492358268160.000
873115024929860864.000
1404234224160227840.000
1511200606105830144.000
1321285738199170048.000
1413649757086786560.000
718714016271127040.000
1547698180816947712.000
1211320866286941952.000
1758017702712973824.000
1597140243155917824.000
1665181617528368896.000
1199771724512398080.000
705293689719440896.000
434603608147080896.000
229773211679046272.000
298482612097446848.000
245100585935421216.000
356119914650011264.000
519409189076323840.000
372080906476775872.000
500950452014427200.000
511250100700876480.000
279296558955610496.000
164397261301230944.000
167085573576486368.000
266426120748692000.000
198385203789958208.000
264658831056838944.000
133835532845890416.000
74608534029529056.000
81865807402261104.000
111576899371121840.000
272120593297738080.000
201278603367304000.000
202172086377128608.000
269516496756334528.000
226425778541745920.000
299399905613066880.000
262905973618855680.000
289256360623738816.000
224188336866156672.000
533224723480789120.000
274794228746978528.000
215261058922945024.000
116874427449177760.000
154193067869265888.000
127178515251540496.000
77599411927841424.000
41498911620042288.000
21231263398217180.000
18287028610352556.000
41750226629438400.000
89289379451442240.000
78928734522675824.000
126085633748957904.000
139397377498095952.000
138847680464988496.000
138831193379537392.000
112020982435651024.000
128768488783864304.000
144272460115810272.000
161210325996733664.000
85915636818500016.000
70527530137561976.000
68768040350252496.000
39127175983664888.000
22775886503637108.000
18599935376333184.000
10719538295966810.000
24188966437281704.000
51048063288365600.000
80704090848312208.000
85745723609859568.000
86101077210140576.000
49375249944186664.000
64932462559693672.000
88362878616908352.000
73475486301765392.000
91522410996582240.000
49246541494797120.000
60490395365560904.000
34893868683524012.000
40809306274881064.000
45565252456990488.000
25675357264756900.000
40068322422388944.000
40105997427715008.000
36278292894044272.000
43107918718740296.000
24060217735618552.000
26520667043128512.000
19215850881448312.000
19861034479336824.000
21154138595196976.000
10792586965658836.000
25836411357411500.000
21719097344906152.000
12296696457256188.000
7353148240232358.000
15637605061650548.000
15346442341437854.000
10337147850807998.000
23246379702652564.000
19623684364934692.000
20957169772668696.000
32582887358122212.000
37838308716606656.000
45251361012797928.000
32635697337478412.000
46569793801395216.000
45324587412518616.000
23435280532826132.000
24039474517761512.000
36379048298075832.000
89038383443193904.000
64990465635953824.000
32948970086630044.000
37995340367814928.000
21916569712560724.000
27102015136260980.000
19758785265202992.000
21310950725577940.000
33856016502748948.000
73188867971566496.000
145752677751204704.000
125187850106321984.000
73110223578731360.000
85252482425864352.000
107398061094723680.000
291903983539681280.000
362714148606633856.000
506938676670453568.000
265780383961021984.000
211162089878845760.000
496115709948515520.000
417123418352719168.000
241752649630214880.000
278904580625697472.000
243137899114273344.000
138629868052545536.000
75550146368582688.000
41348305261654888.000
59157741222714512.000
88896891664066864.000
126937972958245536.000
147317868615442144.000
133300524670953648.000
278826528984886848.000
284936696392726368.000
357318399783163200.000
189108267052832352.000
105973875744463040.000
135649697840784384.000
70551212499844824.000
35431152141084820.000
78662838601641408.000
71474479120743408.000
72121768409375216.000
86835089837978160.000
71951475517105808.000
79921077434044768.000
59337333508891760.000
132096636352040576.000
80189028111855568.000
87032347253926416.000
82311118933821552.000
105359002383466080.000
62010965331101712.000
134394646530458880.000
76837193011290704.000
44218506277017608.000
25027388288547316.000
22790419840437880.000
33210180724848640.000
32895683573287128.000
47369277351650376.000
26691723354124368.000
19478688827638924.000
22473233214287992.000
34937105269683328.000
48825545699436952.000
62608606886003736.000
32947200032988480.000
43221698228796968.000
69662277758432048.000
80995141905158976.000
86571046419576528.000
85549883177049344.000
66703889062611592.000
153938315181315520.000
110406335336147712.000
65109872824452736.000
62936885018454240.000
139426332948066304.000
184009593328490848.000
115602202091710944.000
147555884261655072.000
135305801697180848.000
141073442055988048.000
71128008712810944.000
141704768779221776.000
71967639223793424.000
88879416670867312.000
76279122711043680.000
83100763042953200.000
42953821871284600.000
22067397183504972.000
26490765727459468.000
18237318201578008.000
21614978378421888.000
43258649365882560.000
59939099589526520.000
65214714053816816.000
33205561901272744.000
42944751373564344.000
38554275045697744.000
36321788289926288.000
42394016017979456.000
87611146409735232.000
46223975363287840.000
25525700224550736.000
41122961796186400.000
47891889290513064.000
36328600274660704.000
47255010591971600.000
24214617377815056.000
24224712904009860.000
18444864978665628.000
11354607303365358.000
14286155544733478.000
11277921165153124.000
5822066531147932.000
15051908604927222.000
7758732622753893.000
8476041810926596.000
4590795208182303.000
5379176370240705.000
6094331343246358.000
8168128528349630.000
7700775540970667.000
11655264993674938.000
11692292974035846.000
6777875953425939.000
3834857509023189.000
2043005751481106.250
2410717556938061.000
1428497997316972.500
1158634349918362.500
1184892585504202.250
595053088983689.750
637739240273219.875
685951541066056.125
412011017627467.750
645470629945549.750
1383344167577763.000
938644463076118.750
2199957900215961.250
2248030793399477.500
1843222718363030.500
2186081682497525.250
1135431981654898.500
625519606836521.000
728567629164766.875
761040982120777.625
1216637325989830.750
2606440712410688.500
2298600032320679.000
4568720735305453.000
4082982579807695.000
6173871743428213.000
6527574621936095.000
6387501549833879.000
13897865590323914.000
11954566208090080.000
27130236033781140.000
19229899312802112.000
46384953707337144.000
25066968844609716.000
19911394159906928.000
22862634659265572.000
27478511732197284.000
24460201705568884.000
36462745836652712.000
22537839026951796.000
12610068152662374.000
9925765558415024.000
26666313771547536.000
37956328030938152.000
48934667151242216.000
42029651290869856.000
22235534602637896.000
35705707084061064.000
82198323431757600.000
41684260091519960.000
33545498502895288.000
32545051587716896.000
46997900744045296.000
58965554260727072.000
146884511560699072.000
159087117038748672.000
84810271063456832.000
82840621012646608.000
63994416186333056.000
34706906623764656.000
35554777904859648.000
72386181802808416.000
115470169468060352.000
143131396212187696.000
77029579850644352.000
45194535527008160.000
25942506156050812.000
15010039574735138.000
14917758806534852.000
15135035199811008.000
9763185877946898.000
14306434692099124.000
13104050167876956.000
7919292303802961.000
6164769724818044.000
14894149595076228.000
13742675054853628.000
10451059959755892.000
13126268705329020.000
15166760371999866.000
7911082804041190.000
9671418793169690.000
27482029797054752.000
14505325330235150.000
19300714192897976.000
26468230634654408.000
19735785628157768.000
20128055495815072.000
25734860777947088.000
25583621561428252.000
20845211902341252.000
31707965474026776.000
43529081037700712.000
31495664040436316.000
46278880432150488.000
47799480164131576.000
35421706061838208.000
80838174183830160.000
77766447089154912.000
82603603941243792.000
82859295660756576.000
71486763621517472.000
75345694981320560.000
86306035003301792.000
115814884168727360.000
104471975258601744.000
218656105100176736.000
507370677863136256.000
518875313152053760.000
389727119799196672.000
216754838777675712.000
272384061820422336.000
246990424683257120.000
223023730304462720.000
191132390520226016.000
230233111705767200.000
239240302351478944.000
343572799801953536.000
407436254945942144.000
367129736314469376.000
419898501831858432.000
365796772449116096.000
205169361202433952.000
231725772549293440.000
280864251953236864.000
252679378807114208.000
243420576777699808.000
220699918053417504.000
264168074417855456.000
191980250141148224.000
284399803892822688.000
255391387255608000.000
224288584115188896.000
224167053045439200.000
287276543375183936.000
155601897081441536.000
102688698548414160.000
147345726895859136.000
126381111271521840.000
253608068584336864.000
363579544874301696.000
224512658411432160.000
187041362498305824.000
226202198718234240.000
279626072656955232.000
228933915279658432.000
352204354780841792.000
502142720946530624.000
447883952262771584.000
431668776937548992.000
247976499869328576.000
342022253857667968.000
489807444540181504.000
258882093669185472.000
230930357946780768.000
234436558178931744.000
236440059541663744.000
346652034971425024.000
423469826797865152.000
387015015085148480.000
364513423141085824.000
217609398979509376.000
277752894942727936.000
226231450864860032.000
226408433872908416.000
212161437312273760.000
484364766789981248.000
692754801199643264.000
637004638883513344.000
1422738786783710720.000
748671990990997376.000
380011954735341952.000
366701602406240704.000
836100852167869824.000
940791504739926656.000
519473196764937920.000
521376239219588928.000
340307807211296320.000
212199578594576736.000
123196168814891168.000
109986238587890496.000
160675543070944448.000
110658598833641856.000
275928533816598720.000
213189054488178400.000
256163223752731168.000
230875052116858944.000
512687556834403392.000
443909221589124544.000
889117592775979008.000
474339872156328704.000
417294052160792640.000
357122352705859200.000
196335244883570112.000
224576525097812864.000
491523986873384384.000
424038271185693760.000
477837496411467584.000
499452664742045888.000
490023723831068416.000
458039061162881024.000
528031475212561472.000
725738043317890304.000
406789097689922176.000
221976325461910944.000
230493568121723808.000
283250612230704768.000
215214854319063744.000
471532212838531648.000
258177831461391808.000
407558058643122112.000
208578471204503744.000
291096276930839744.000
385751426008363328.000
480131852236151552.000
404227767546956800.000
931383316670405376.000
505087017784027456.000
372168166295380480.000
911992425976835328.000
684266229102197760.000
860197880354443392.000
828480929282618240.000
432815838375898944.000
226250539636365824.000
274843581459246912.000
274834260220149152.000
418643148304614336.000
253719127653941056.000
216254763798392608.000
121330433549789616.000
60148603712315944.000
32307888290384544.000
84382933360071120.000
70551519267963400.000
105484790419130272.000
129188197179194064.000
152602021562399328.000
120204936647496512.000
69183491295378792.000
36813868942110784.000
81188563910173632.000
69431103585674840.000
90880366675750720.000
47194084105986000.000
36388608358013568.000
46880308367828952.000
24301718898202144.000
28055391583070612.000
27530565430194028.000
32552773271779708.000
37403279211407528.000
22525862558075972.000
45996355254292840.000
23297560459240464.000
35794385265698800.000
89508340926447584.000
76397179382326048.000
91425616154845584.000
91611598071755136.000
148799510865351680.000
214217600890996704.000
117135997214388576.000
70903115854417568.000
72226598823646400.000
75448294697831328.000
43233396973559888.000
38395074558097120.000
37869060370320664.000
32944931461695652.000
67380928930050336.000
162798673815918912.000
239160092067634624.000
138558403694231232.000
82985399133934816.000
85949810108285600.000
124114038871740864.000
161430420474595008.000
214293831679759136.000
522099335118313408.000
791145298564905344.000
664332666847765376.000
382802037209100736.000
196447937005083648.000
260552652706379520.000
135487886859086320.000
158203604994641120.000
92111360137445456.000
72562345028426096.000
43434071802170024.000
45101211119350216.000
22797835363619080.000
12201111051192126.000
11371042400521820.000
13898378216430280.000
10520569989956416.000
5889489956422062.000
7199485199494214.000
14261862141522472.000
20761434733853564.000
48207644567774784.000
35626622463031904.000
43781982791464808.000
47270628646398320.000
64652198112307304.000
152639808577143808.000
132708291159593952.000
107647065462687632.000
139655229462317264.000
138536524571619920.000
166813204741643392.000
265007307560727360.000
290897603566815040.000
242613237162831552.000
209199134496937376.000
268486603855070176.000
216331037883315616.000
441861947895209536.000
224848684342230560.000
259941650159662208.000
295136443700733824.000
216460178338182528.000
445909946381717568.000
893466887274321024.000
1262092495808047104.000
1461642025941855744.000
2970388906487680512.000
2205851295399205632.000
4969541822797251584.000
2952453871724544512.000
3104163149679199232.000
4585381633360977408.000
4138700376550333440.000
2188957147833601024.000
2932516480004924928.000
2244116294214408960.000
2678068995685836288.000
2052459334931158016.000
1170847372031128576.000
3044961517164552192.000
4567610824960449024.000
2737742461255855104.000
2182638099058911744.000
3128727163023852544.000
4264880819336218112.000
4748297453003575296.000
5279651801060813824.000
5206908503604596736.000
3131647199836319232.000
4005159639074767360.000
5588654697556744192.000
3116146459429985792.000
3156476640066388480.000
2073604484324344064.000
4904653243386184704.000
5702195281475187712.000
4828835956441246720.000
2531234262171655168.000
1454155883739595776.000
2237709847255875584.000
1274731150486764288.000
734162551231681792.000
757893570649167744.000
1150730957294147456.000
1145149472149957632.000
2982456587585822720.000
4068804031897489920.000
2425819086530567680.000
3724030084790969856.000
5347800370232436736.000
2807006556615933952.000
1626268381038699776.000
1139417174430957568.000
2743378357388211712.000
2800165447062070272.000
4117611919831486976.000
5089067083803103232.000
4255230255330867712.000
2526379112933456384.000
1462853569559629056.000
1149639251698786944.000
1379483397616376320.000
1362763243296176128.000
1474803401357281792.000
1691484652589740800.000
2593287859198114816.000
1385812013324563712.000
3076679254022128128.000
1694962974694831872.000
2182971317677710336.000
2179636329094221824.000
2161506258199841536.000
2303441337040133120.000
5268585745617511424.000
2934038555518865408.000
1533978382732855296.000
1616691452971383296.000
1379288922771503360.000
771159339356743936.000
968557540910054016.000
837375454684487808.000
489407993938508672.000
419923776294979776.000
910087987214395520.000
473040230859865024.000
255681894340282592.000
298510620268222080.000
273359389440015872.000
147882086271665472.000
238548820705986592.000
195015663706403168.000
107834625809859072.000
148305282469709952.000
79736113973239344.000
45865561210494432.000
41597083760350208.000
24160164191703480.000
21434696892251900.000
44865332661621240.000
24208762387488404.000
13930481651760624.000
8212856434241139.000
4682540235129139.000
4116202895402924.500
3376381926292670.000
4497674026327464.500
3596105369408957.000
2130319765151265.250
1825335994952850.500
1805953558772620.500
3823055501398135.000
2079706649684784.250
4696590773138124.000
6902992675051901.000
4022509016344611.000
2325283571823731.000
1405590739109049.000
763747998889134.625
811145982381589.875
445293389606359.500
253545648269505.375
236483229118337.875
195021777422577.188
99502415061224.641
56504307713607.734
78374169452851.953
58959773464609.484
122031716660917.172
187658888123749.688
95182197517097.641
53938587191614.797
119133952404167.328
249829345909720.188
193901360601209.969
232078739904232.000
124270678451549.125
74169612041373.750
69802814051066.562
101971811807540.438
127363838074926.016
181748806522678.375
181120342983664.188
195976213764500.406
249284149026304.688
376105352135592.875
217396669721205.188
123779131535946.844
121739217835894.188
135177555438407.922
97718323026437.984
98357019649466.750
93620239447055.625
109731016087169.953
62498585466262.742
133242926607518.234
105619637841417.234
138740305401193.109
111092257554957.047
222916888030080.406
239499828096859.406
204690364132979.625
114846740261095.594
126028845246655.422
131034560487576.641
75331967773682.328
41505050191180.086
56153439696977.500
73163586597990.609
71298553694970.125
39768066658991.203
60065931353388.047
131583766128704.359
199498354210694.906
101133097099495.500
234590551130408.500
320986278861623.250
695786471637206.500
778294322627506.500
716387973463561.250
396151215095959.312
309019481758110.250
674194065633230.375
406946514413134.500
217576106431224.469
327952082760744.188
354137735835509.875
306975878320212.750
389856048765764.438
584904360783582.375
304289243029144.188
182879605546922.031
192865593696827.250
166520487592717.938
442181877898642.125
423913249544181.125
364176426146759.500
354026563578299.938
306931718246570.750
399130316603242.750
806222662039917.625
1087112697427051.250
2198587356810651.250
2222897457345108.000
1263745434248138.750
719588182577990.625
427206189376002.375
218386213780332.906
208620205430593.219
109588764309370.766
244663668276210.438
160668380161575.156
177316519969445.969
88526594550896.703
51021182890471.516
113024230464439.562
241140842914083.875
246532891066810.938
332418333300020.312
336523355869901.812
528202221544287.375
1174977193813251.000
1072328068230156.250
1396236628668803.250
1423086505771500.000
1799517249150835.000
2408709572645335.000
2144078941750135.750
2400953485120077.500
1853656943896424.500
1971798449016466.500
4606939455724392.000
3078611083703823.000
4170173970485474.000
3733069001493344.500
4178633870056211.000
4133787016583764.000
6571160485480963.000
6549039678178124.000
5775150543012104.000
8367419581186713.000
7353419448613737.000
7848150310518675.000
7215184739451961.000
3919566250257703.000
2388185054133964.000
4728970173297881.000
6499055133624014.000
10377060578430454.000
13329612566468384.000
7841873156339625.000
8411003079280605.000
13269734947870088.000
7823552242433082.000
11388632177444276.000
13990569912964938.000
11316785873511940.000
14100674924111424.000
7368982226603693.000
4473743126643087.500
6357857568704553.000
3861487556515021.500
4071660913738871.000
4057250803163156.000
8320025091529041.000
12326542230683722.000
27015097491665544.000
13825195293464724.000
7660632505884914.000
7671428976488944.000
10359123286225464.000
12772478872273844.000
15014597843880562.000
11841496261302826.000
11409573264061242.000
10105128972676616.000
5891719221939715.000
6671248203197732.000
3536324021775089.500
7172565154435364.000
15333531676939136.000
13582113668208368.000
10858827407905100.000
26210160416525816.000
26197614738470828.000
14058499408040854.000
13897320952935496.000
11615972065308426.000
14984070414281120.000
11107723021871728.000
24762933472006668.000
25480670916253800.000
24400523495950596.000
14435635378915682.000
8278988420776506.000
13607147214498626.000
14989693435774938.000
22705943832757228.000
12852128183826898.000
14964785214842386.000
7603586889408280.000
5684095722289443.000
6863185799961300.000
14937459871459444.000
24455294251410036.000
38236352032531256.000
36287283271186616.000
36676413830314592.000
36660692522309736.000
90607683075656224.000
72505758918989984.000
41759824275163072.000
42266634793712672.000
60533292397272376.000
59251136250515960.000
87526086840791152.000
72335468320300288.000
152770775604902464.000
135549458093902560.000
196873565162796704.000
118928619707494640.000
73004686491249344.000
71242531499661456.000
37973095452755928.000
38605217560637256.000
46509817833144840.000
26790009948205216.000
22644225414728112.000
13065714752385668.000
10534941199851320.000
21658047274870036.000
12992247118646052.000
11343018818188722.000
12633182099364882.000
15142793533306104.000
8727422498698576.000
11120554640942274.000
6475476400640863.000
13995323398845808.000
11651522496292004.000
5909604666554677.000
8165076614318653.000
8742827275894690.000
11606532283640764.000
23806347307644848.000
48833759314176248.000
37437846985160568.000
21954721519756372.000
27837647689359300.000
18886668209894904.000
20143788188401184.000
48306927422537256.000
33818259248083800.000
83804415603792288.000
61610028881747056.000
88476589306405776.000
62660680074209568.000
75177251977845120.000
80855023108883456.000
162224262572750720.000
119499953980955472.000
125618229307353360.000
291994894959478080.000
417930571915609280.000
362934901868711040.000
428202007439062336.000
355501051913026112.000
349458939731346432.000
796092480757106560.000
866371268875037312.000
509783865131377536.000
290051584950070976.000
151445574856876256.000
77583358013121600.000
71483382507151056.000
88290199557642000.000
92245793951037536.000
70705217759766456.000
152717886012515520.000
116114661663622144.000
144881420442061664.000
79313743216321088.000
43501673592491536.000
38058404584563312.000
36596502970538672.000
37911180874655880.000
90057600457132800.000
67596780912445512.000
40281869167880080.000
34035301995151492.000
40972590295681672.000
82548751235377296.000
75585752475328224.000
113314617640455296.000
252831288216005504.000
218435261592258304.000
287334782494453280.000
236387264954625184.000
359990945874944256.000
508548884922632832.000
817351013109940992.000
926595258176724608.000
520605115342845248.000
289663067189706432.000
264624476298909056.000
145636016251230624.000
221729492144716640.000
234191532799994112.000
247829582597042240.000
279287649820835904.000
216040109938075968.000
197712117564795552.000
496742480852306496.000
257367993502551200.000
395187948187310912.000
541352758978965184.000
279018862869956448.000
152605366848132928.000
134354586276761712.000
81502389224738032.000
129889181565668400.000
117011899119080336.000
246867848624067168.000
520118648290746112.000
666080333063681408.000
973014002312911872.000
1459207536702368768.000
1197922602396792064.000
2818153145573026816.000
2453276212425254912.000
2993371401081299456.000
3050539746929046016.000
1731467653520432128.000
1486585399434438912.000
1286313606842602752.000
1353992930849912576.000
730851233043441792.000
702599148851556864.000
840931811176099200.000
488526397041194944.000
532142696219351424.000
290413898834846592.000
441880742576344832.000
370492568185746304.000
217631704253883616.000
119017000361025760.000
166913822277774144.000
167441409390664416.000
127988512743746608.000
158868060330405376.000
247846244472756480.000
276041301963770432.000
160665618313333440.000
83707734563878656.000
60683782420661928.000
83873377462816816.000
44913450796611456.000
26857291910657968.000
42118596961613688.000
21155608941528408.000
23999504595425480.000
37211400321095272.000
43883269873336816.000
48599948849863184.000
43982091066265272.000
24919827069935112.000
20354822212939392.000
19775541831431856.000
25726881442452236.000
41428610593295096.000
92353884203356288.000
110981298616919920.000
247742685156334944.000
265919214474185600.000
256822187969677600.000
129894227003529392.000
294447566830472704.000
229296101279797408.000
136404824328095792.000
120424840770436976.000
158303472932294112.000
165631673154527712.000
210114510127896576.000
125955087211328640.000
263855846004423744.000
251439239693267744.000
148991775216845408.000
162538710592653344.000
246674397598062176.000
283184664542064288.000
234456925862970144.000
283622418380776032.000
457425052813194624.000
363659128157753472.000
213730973873317120.000
109620499475842208.000
142442498386506624.000
166332590070887264.000
127905403165864016.000
150747045817995552.000
126489146513967216.000
145878004391175840.000
141018322927349776.000
301419062862920832.000
199915110754046944.000
454311284818096192.000
260921928309163424.000
396843477162595008.000
817274840969561344.000
962490483109010944.000
516874479834415616.000
779122798026067840.000
409095508157762368.000
964601801561924608.000
505962383448085056.000
272926371670819328.000
434312886739671296.000
875878264629881984.000
460450166887810560.000
737886705068745984.000
445220653937346944.000
968117499652619776.000
711932684439782784.000
840289993635678976.000
430023342472932160.000
360146396701035712.000
511142746027133376.000
268185430795104288.000
144948335019008032.000
74566543308548480.000
41489218592225784.000
89680756682016112.000
131397118532359456.000
76299463139725312.000
62873392897007896.000
145719505654073568.000
147498035028102464.000
156112049245906048.000
120030337597657056.000
291664319545640960.000
453552256563524800.000
477216147395351872.000
404848245011371520.000
233923426490906080.000
358791449218543424.000
887397428987098368.000
474449207406363264.000
487631484290844928.000
291997616243776320.000
229823158242316928.000
135046115430186352.000
118177875933705440.000
265277832352493024.000
243677023110575488.000
134145885407406576.000
115355011490734448.000
291826471784194688.000
278364586552241024.000
224894910134043008.000
482386985621670592.000
532725148094032960.000
291864732289907264.000
259247719062135776.000
131486995213671840.000
71355061816937960.000
64013940120150088.000
35346008049897124.000
83967546377216096.000
67667144605144288.000
38883793902521152.000
20224946930532568.000
24844520230633908.000
13549064836098128.000
28143486717539044.000
26200946711512440.000
41423353371218256.000
47894262059431000.000
40783679377992960.000
93200131561920784.000
51255509404604856.000
37596764510615120.000
39375515669359544.000
46359923364779528.000
91574541514510800.000
62448045511924928.000
143789613884189168.000
150960868810960384.000
83498212533653232.000
50196950923484848.000
41356719946454296.000
24168481512406788.000
13068720112994906.000
7225654520096241.000
6262183109846382.000
12741528313539372.000
20265189535205908.000
12248756610533590.000
7107701510203358.000
5856206047651371.000
7416405137465754.000
6619115994588988.000
3352108231841605.000
7142386999639035.000
6017737346012349.000
3557922350521651.500
2154508962146259.000
3418051883853726.000
4493414684240035.500
3263242043863568.500
3848127728320732.500
8539728231628298.000
6899337434710880.000
6469038688868182.000
3346829102774811.500
8898299061532479.000
13600991562855036.000
12242800373178972.000
10835089366318094.000
10490928670657068.000
12975534984382870.000
13242670642676590.000
11036426638922016.000
6556606720160935.000
8502551420394514.000
7990622957129763.000
6102659389372034.000
6868535154046818.000
6203666778304662.000
5760769432738952.000
13814183697537904.000
14538515737972312.000
8021360616562465.000
4554949912370573.000
6821111686604517.000
8234462174230977.000
7360090670032287.000
15719437016465982.000
15934467923209488.000
14313504540439872.000
12474376610454568.000
7642367388456346.000
12141494430811704.000
10783717644842358.000
24001731942655164.000
21564662222425200.000
26469424456234548.000
39851513429798696.000
39190453681230640.000
90394188903276560.000
71199791528752568.000
108738113170687392.000
65907750423716640.000
36266922870701440.000
34991513764390612.000
34205408565429168.000
44216621084506320.000
25406128669332188.000
25543083135125016.000
14769291455914702.000
10475267919474018.000
14034676331534002.000
20122837335468032.000
25874243877349996.000
42045297404215856.000
38500134923124656.000
84692842428222048.000
117019961852118944.000
64698830557819888.000
34465235077569816.000
34843092433360612.000
87133261893065216.000
75307433542713984.000
81532109804456160.000
91132897280872208.000
111777778850992736.000
139753072475938000.000
123202602203971472.000
160597509187693312.000
126798002053678928.000
131639115575257376.000
156375996184883136.000
163941447920725664.000
128080775358694672.000
75393298889403088.000
85303571842343008.000
68194064354968888.000
162801606390557440.000
238769439948629952.000
356089790542277632.000
193587210183782496.000
212216015016739264.000
201864547684950304.000
411196348912759680.000
243889127483230432.000
215207056302470784.000
124595145808155376.000
134685244919270624.000
204578857573095296.000
115565578070604624.000
70877893467717936.000
35827029448392160.000
77682897078374608.000
41733019915189872.000
24708506340102160.000
24646460830235972.000
23806372324389908.000
13479288290074638.000
15275981199533232.000
7803170255344349.000
3960778486787312.500
4600094308082015.000
2488489444128606.000
3966637883747524.500
7930918016773813.000
4282619314329830.000
2162579701629345.250
1172087930541091.750
638418806187873.625
635786159649417.250
321073375807826.938
303227572990407.125
370432178345079.125
561070697817471.750
777785773233306.250
1128468500226865.000
1310600899610467.500
766373751778469.500
720479382699924.000
1030534985600192.000
1277475049093153.000
1195910084615802.000
1725344514253973.250
4668949772107506.000
2635199157622824.000
2248152441564426.000
1266297526828498.750
741859813415338.500
1123111010409244.875
620643023414438.875
365864729355710.562
396366531410148.000
345276330722852.938
456435427008355.125
323222210195579.500
374190119657022.750
227458984328918.375
127437240708811.234
127384967214872.078
102911991579526.969
56209985980143.602
75839202104167.062
73399245842375.625
76814264053163.719
112045688721482.469
168890779116289.438
90782262532680.906
205022388351901.594
318974305427746.688
311311547787794.625
452646387590478.500
248827176920205.188
204995285561162.938
252845299111383.781
135545355491005.016
216514053297224.344
121644777338047.703
99455479541962.031
212414338495209.469
436363460042715.688
414921692229946.500
353169146971989.000
415143852784725.562
445156458259105.500
245123947891462.812
168872549234501.250
190617645055705.219
104036316800391.656
119636937889717.922
66755665807329.938
67904538116424.328
56687737925058.305
140387685086288.875
92836468153310.453
244200318972706.125
198971977008856.938
240201369773491.656
167348269507680.750
191053785652361.156
229952302046513.625
228302320512381.656
246854019120838.781
396751227090943.625
240778708326031.062
221456761226965.219
243481253779135.344
353154717911955.188
340652798932698.625
180159345647884.750
367377853151421.375
387689298051088.188
375955472504562.562
197962984268701.000
187282024691555.812
195415409027411.062
182439895410029.438
391924257285745.125
790618044734645.750
445730853936445.250
632143490405935.375
1367443935420906.750
1068509907585881.750
1185211879350928.000
1359335322690236.500
705953647438225.625
651714372124121.500
962900876991384.750
2179157886618778.000
3497729195147214.000
7331275412806856.000
7600328782499866.000
9921742416980072.000
11935812498226652.000
14924172606812220.000
13398371642782650.000
15245190301353448.000
7996313093094318.000
7854304125752782.000
10112181941300538.000
12950272868661952.000
7867999589108149.000
8005989902863123.000
6843306685791604.000
3645391062571261.500
7688174505107919.000
4290091595694102.000
4007496290326945.500
3815331006185583.000
2132611467921022.000
2164985496993502.750
2272142016838895.000
3203037201963988.500
3700559230690727.500
2075216046905964.250
1043470204021759.750
531012748503924.938
1264908623759553.750
1182608353404345.500
2604170664008421.500
2007421379525399.250
4322700405334344.000
2380036459443102.000
2263534776635353.000
4579073597320949.000
3334862007491704.000
1755644108552339.750
1854198806888595.500
2418971307006742.500
1678996137040895.500
3984459093882714.500
4585632123463581.000
4515587917960579.000
2374028846960800.500
2004710395649461.250
2067706520304296.000
1098037207584624.625
1701396844498030.250
2030373216670979.250
2396526609422520.000
1212788158607221.250
1307829148928825.000
779338251507107.500
455246363897194.500
569576699574464.250
625521645803678.125
764507904356752.250
619689294131628.375
557938497111689.125
805641821626879.875
738658594988130.500
1176184850553184.500
1428133223249837.250
1184995343247530.750
641664616188896.375
731014100754458.750
659733856904875.875
734174113109502.500
440734008486999.188
235000709033867.688
129683385135336.625
120324267037834.406
119023743724922.078
95966630702541.047
100966291655788.547
103600026257906.219
57146086375072.023
32943937026004.988
30578534840428.820
33420476979039.539
40819068365318.906
57563664060106.438
139181980082938.562
166652011335945.125
162447969396093.781
356606173134124.750
733625733760371.375
569381787661113.125
311929771762914.500
691881318247672.375
359508160328866.438
179330033261263.000
110887369877743.172
119411624775101.375
62935332219724.828
65746421034681.023
69461746093441.789
37174953880405.664
21042858538178.898
15660513836526.711
8915869253928.598
18499537025794.105
24371213471484.195
21414000735111.852
15736176913612.697
18639023565081.629
10091693543607.504
23422031497590.336
29324537796644.371
38885645424624.258
20392846947226.832
32955106740143.441
68967531427996.250
38170101601294.094
56571138115042.219
30612404688256.023
30208171447476.223
61474997589377.125
94299733233257.562
204908573604014.469
188929401715301.781
438865992839391.000
377512179159129.938
215778424355363.344
336960825251990.250
755009543366108.750
757954145533176.750
403823602283267.875
386050957390412.438
320099077722711.812
448791119341201.750
373559890500416.688
406775250143520.750
809950534840246.500
704392110473483.000
426806912042763.438
554206445945025.875
1376617871077527.750
1031468401787987.750
590178065117902.125
301162655746263.812
437181047703675.875
565848869718060.500
1299696063420379.000
759972818229926.750
746361675419090.875
738029702153751.250
430408080400516.375
371533668103026.875
463555484897121.875
457953626275093.438
717226570890069.750
705620017783167.625
651874329421415.625
801802949389114.375
1100640229257513.875
1335589898091806.250
1109177831029743.750
2618055729019447.500
1791968561451981.000
4289887250242481.000
3291075157866906.500
4445975193288644.000
3226990432049386.000
3478682853023946.000
4370663483379710.000
2437900442309935.000
1472143786666369.250
2189517672596482.750
4677912097485051.000
6355419352110080.000
6047717016828339.000
14302873025756436.000
7582754238489183.000
11760315803489664.000
11534664882296484.000
28532531877295628.000
39090834594984112.000
43244381049339248.000
68750089309588752.000
40134165337556064.000
45026391389120240.000
39736049670764144.000
21677605673756324.000
48195434001519104.000
42307941218328992.000
33864264304314652.000
42346608260608336.000
86429263214170560.000
45014357112542128.000
88952507669716592.000
88847235611081104.000
118627587212519328.000
122855432598660000.000
126765772792272672.000
286864752184728896.000
371535846343756480.000
402863480013588992.000
429820722280396096.000
251646076902431616.000
395474272758066688.000
481531309386900672.000
396067333446209536.000
222440716776673984.000
292589399170231872.000
233525862723227200.000
240846436435325888.000
203322439419552256.000
283749597538876800.000
244544209336432768.000
545402560730197632.000
