37.339
54.200
111.174
122.229
241.371
388.003
352.112
327.167
697.825
755.204
1015.264
1123.180
2343.957
4655.959
4441.646
6600.731
6439.891
15342.887
18831.285
41997.773
92165.085
89207.435
146895.954
138222.984
149301.951
151705.995
152965.983
222722.211
220615.411
533847.780
711568.639
661789.117
1754558.530
2435550.185
3821293.175
8970937.911
14319058.143
15601360.258
24558958.620
23732970.795
55971370.221
80276951.601
86756634.025
93553655.547
147451957.406
161562288.256
228945887.156
255325523.539
558365174.837
817486774.728
1882975777.509
3037644168.735
3312838849.214
3514638087.814
4940700095.694
5210465699.451
10348768022.888
16853599087.483
16428592916.730
36824236084.813
38712935229.380
59806879567.386
84353353647.122
86147153510.004
196574994826.847
266717587719.916
610829467142.546
1271301923411.780
1730974484706.452
3852408491477.221
3859525557041.222
3712108766216.174
3663650562785.366
5744648224054.224
5584353130090.729
12684811369579.082
17589560225387.215
36644417345056.797
53949083178041.367
140632434122593.734
143804995264102.594
145414151605846.562
237974305765071.812
383808764262883.188
596458649427942.750
586129070316475.500
548851414570389.812
1521776162394776.250
2399780162286559.000
4787643015093968.000
7599286647826970.000
7838695888848691.000
7128856767554366.000
6466235260615254.000
6797702206543337.000
15657609048017860.000
22569521821750208.000
50800686631121624.000
48500588291018232.000
60786989787683064.000
125992792862547472.000
67325777670869472.000
38442121653116928.000
37937272979245280.000
42453853742162472.000
46846997133369872.000
75207069047528288.000
114781936918821648.000
163970496830825632.000
257185852647980928.000
298868599070958016.000
356583213233220160.000
516194268731113280.000
421878756319573440.000
946303181198443776.000
722435974525749376.000
1672814904529306624.000
1416781206720336128.000
1699431613601900800.000
1419752369712758784.000
736679821799114624.000
733465234397617152.000
425144394980785088.000
858161622178216320.000
906578077174625408.000
1148678682235132032.000
1208474624037646080.000
1757752303038729728.000
1671389006628021504.000
1517068769185893120.000
815820381033145600.000
1234726036719942400.000
755513691841353344.000
875105718674328704.000
522287981715043264.000
460508151585935680.000
521631418775598592.000
816502946942097152.000
456806340912105216.000
655273797235560960.000
974989012772032256.000
657079929562339200.000
648288201806566272.000
1725353721226125312.000
1474788970065390336.000
3111584708097655296.000
2352233522873027584.000
2460832493612184064.000
1268710973874519296.000
1751095830474470400.000
907364203797891072.000
695258770634330880.000
679895370906408448.000
1686512366976848896.000
1172592920316433920.000
3145364411034023936.000
2068952943625877248.000
2592513389948548608.000
2473920207806757888.000
1515591489613851392.000
1532821560162759936.000
1226150800420361472.000
706468798202504960.000
1717915622981217024.000
923741811544142336.000
544762302890099136.000
361925358507468736.000
431930176824083648.000
528845288391535232.000
270175298862682720.000
373960219766659200.000
859371207357929088.000
1353596968406693888.000
1700635786370032128.000
1757086057300751872.000
1576044606803588352.000
1366944848935718656.000
1149296536674031616.000
1537754125410224128.000
819961291418997632.000
784961226764395008.000
1767315129888253440.000
932890525681271808.000
763833196751271808.000
855946478481750144.000
1311462010081326336.000
1202898726567218944.000
1722041667188787456.000
1238546870902275328.000
1513452513312745984.000
1283175013576680960.000
2691288855026977792.000
3813938266711415296.000
3985907009505296384.000
8918148710006765568.000
7182914236195439616.000
10193536037705805824.000
7228254798361955328.000
8050310385471397888.000
4439133546585596928.000
5347202603527691264.000
5526246809112051712.000
7019838874889868288.000
15223323499352700928.000
17674778339202971648.000
9548192880412905472.000
6775363016281935872.000
9458061830481797120.000
5022873438548815872.000
3020582539608128512.000
2409081024796811264.000
1336816835564203264.000
697573909514013312.000
395069576868013824.000
201072870491656224.000
120698626111940016.000
160097765334305952.000
92445228752934752.000
74725009255719504.000
63259305197173968.000
63492379900134376.000
133247681571866800.000
134761024287252000.000
77602477364591568.000
72020578700395816.000
91873653034068176.000
128806207827694688.000
148155908781529920.000
135641718398164720.000
160968064952688096.000
151820363308368544.000
132373922216878192.000
119886522966016064.000
137561994003554608.000
149977852301427648.000
120572189486618928.000
70308696888768240.000
41840434972088352.000
64374962624871064.000
79337733094438512.000
41866524292799928.000
24879355694149532.000
36682589102885520.000
49525336221647536.000
40070563464082488.000
22947949613774300.000
12058359887480520.000
26204536138942572.000
23931027887942692.000
28205147924502512.000
36367967804070672.000
44629602152013368.000
45233683020131808.000
27164440549902060.000
14988427700083190.000
8220280278442657.000
5776659700658330.000
3475479017189919.000
7128662510087481.000
10745386175219378.000
10791675741256356.000
13178800784094182.000
12143058922635042.000
14215995167828784.000
21879775027523184.000
43632778998525832.000
22813697196018360.000
27558481841361132.000
24503650125388980.000
24506477604848620.000
13664461092074674.000
8000530578029857.000
7116637748288438.000
4273076990833055.000
4228674966621358.500
3327853453329361.000
4847404603448112.000
3276497647883989.000
1786845045273740.250
4481211968214476.500
6649745109889375.000
3406824506302328.000
3281983406754803.000
1965760119885745.000
2607109833631351.500
2378778599126382.500
3773783739418372.000
3241678441700932.500
1889701956803946.750
2208695204697845.000
2701884444465504.000
2143419605227244.250
1828163909174963.250
3921681788020074.500
3210523936230704.000
4526858583575734.000
3518820078861643.500
2145912577686190.500
3311070476639032.500
3392864897943710.500
2001051352554107.750
1836405994281149.000
1065195882692994.875
1320146431358813.000
1050359043152988.000
2453855005453727.500
1417465218726478.500
795835303175908.875
764466826455422.875
1019421937685679.750
627162046180154.000
1352003287312596.500
1830929235517847.750
4739910224478786.000
6102766835428680.000
6270442293206909.000
7407546211219198.000
6845362563379382.000
7907802266997643.000
6172312652194823.000
14885134828677616.000
11801694054540434.000
26948929372434468.000
28327959623989176.000
41658339545482288.000
23728453285780140.000
19524262796540008.000
28469863540339472.000
42322658046190752.000
25707087305224288.000
41918034354539920.000
35855048750848776.000
75623959008632752.000
38717722436224432.000
39099170616498624.000
23824436785678140.000
48396541723204784.000
77689527866129776.000
87364887515992672.000
73310293415936352.000
152313175308332384.000
201359820270152704.000
271233455548021920.000
144206156664451680.000
75209432122858848.000
74344507175214064.000
167862581313986688.000
132346934480314144.000
135373033270408320.000
72079141142770000.000
89988085518826928.000
51748976846118048.000
82682235212978848.000
113695733259995504.000
261158530056588512.000
259185338468937056.000
146571037055470272.000
197441057562035616.000
114046840789703232.000
132484351923211744.000
141322744585901344.000
116356346793807696.000
122621849943031664.000
62118055185989528.000
83960295654022160.000
70368704523093648.000
63223225570731264.000
36583361276592792.000
43932935119764984.000
42338471122571960.000
38827562792352912.000
80778442558056864.000
67487152255161384.000
62354886897056384.000
125849272329607488.000
68219294179510024.000
40034778076190192.000
48527413159315944.000
47719086534337080.000
27375192671615912.000
24864179297117600.000
35386546160081260.000
39314810712334192.000
86354258538491008.000
73813416614130128.000
91336732746012752.000
49092172625855200.000
25288550083632404.000
33896484699070148.000
45649466932513976.000
26429045025286320.000
14669425135342414.000
7792768934271995.000
7009185878772999.000
4039402371559561.500
2283268797979757.000
2575270741550792.500
3559801987023883.500
4503463639803912.000
4161173375227235.500
8685267012948073.000
11971609140167130.000
10730530589669586.000
6419143445611885.000
7665013806605118.000
6149491118491159.000
15519637005729868.000
15790614172263478.000
15404612076247900.000
12333410135696874.000
26258746252916136.000
13552893297457304.000
15279982162260188.000
10320353209845690.000
12613081741917330.000
27773515695263604.000
20678656035477492.000
22596983504179792.000
11891952167007822.000
15368414578977102.000
12814723011487286.000
6980783496034749.000
8669746833752335.000
13034971409825196.000
15662108365809774.000
15043122980764904.000
12575617281058968.000
6501329198735610.000
3643742064846390.500
3993087336760057.000
4853214303598202.000
3634756660357217.500
4428054237872652.500
8842593175966739.000
8555345666414854.000
11516040209512018.000
6945976059084463.000
5804562512469139.000
8350330481024128.000
4705283730847148.000
2715347919909874.500
1903820227915417.500
2382440504874946.500
3422839632003747.500
3159316998235280.000
8590271271335192.000
4734430985312468.000
3325632680291294.000
7539716987440146.000
14935601898356360.000
10331870792003970.000
11558538574966466.000
13258827520304392.000
11668283190726672.000
10236115936073088.000
10275899607513412.000
22472497661165472.000
12982097729560102.000
12488838185745926.000
7244102170380642.000
10754736015921596.000
13528022327242766.000
26963758207414264.000
38168347261313568.000
44847853716117936.000
25114941230284128.000
25279790772133752.000
26305971940208820.000
20044614028496244.000
49119177643610072.000
73145218831323856.000
85826320112220704.000
75176225159867024.000
159836318825818304.000
116343254598647632.000
111895274818879632.000
236408097394857504.000
272585789607171520.000
296107529164457664.000
376229718599035648.000
193994807910385184.000
276681790675274880.000
291228258483929536.000
232071621638144896.000
124911992878599376.000
110672970935933760.000
247648489747853248.000
270600066915950720.000
214638102837627616.000
261209470629030048.000
268576404055303744.000
289546065716853120.000
397616824769000064.000
449430028890815936.000
433974864763273216.000
899097824003260160.000
790531362388133760.000
666862665302295296.000
763439658542737536.000
1210082236819328256.000
1453834952831436288.000
1149485689134929280.000
2859413438890358784.000
4380622855076271616.000
2345600771583322112.000
1162100657600781312.000
1530915510085256448.000
2000308883245624576.000
5307312108818949120.000
3853584795776657408.000
1989897316591389696.000
2226555257349534208.000
1111315804755424896.000
1343068834348629760.000
668379230323129216.000
787155799646969216.000
454525820808126400.000
918472673208032256.000
1471537959609329152.000
1713862101025660928.000
956131363362156544.000
1340745561680933632.000
1577233289351904000.000
805059971819688832.000
485020798495920000.000
628711143351564288.000
723369974419437184.000
1146840911084574464.000
1241074355151833856.000
1315221014837017856.000
784506764395914496.000
951143800913870336.000
856169349292547200.000
693348611014844288.000
1598183292925869568.000
819370189108038528.000
1128256910788492160.000
1662578525084071168.000
1396709898005687552.000
2121309997200702720.000
4481530193305547264.000
5513713042723544064.000
2820770920593094656.000
1668716410958800128.000
2112733123865731072.000
2404324205843560960.000
3585073698270985728.000
4743538906284300288.000
2427889602402298880.000
1473094152568229376.000
1225903573628783616.000
2691234074918175232.000
2067937114883007232.000
2580411627858249728.000
2072462896514318080.000
5293433975332201472.000
4212261273759518208.000
4251059470488092160.000
8497112950924674048.000
8057812374614029312.000
4548295190384256000.000
2711794653396179456.000
1632084483884360704.000
835553109365620352.000
695034299678845056.000
1101821490342496128.000
2417389783801754112.000
2196454457272996608.000
2598738773407048704.000
2269151127050376960.000
1303356661473767424.000
680041202933353600.000
339856130034508416.000
510306650092858240.000
264756353215053728.000
280780157948464416.000
149994415366836064.000
114453459657425104.000
251830876466923840.000
131260607385239920.000
200284211618910048.000
230637398478746112.000
516626828577022400.000
335278024651655232.000
340564945280049984.000
194440198018387232.000
103241698614036096.000
106556086337034768.000
123252918285634880.000
70049246724582240.000
104084706617670432.000
267205363535294912.000
144012127595749872.000
103725349058642976.000
113679345050428512.000
128936071847146480.000
70051505383875744.000
42451217786183288.000
23152196480498844.000
11670321035056214.000
14957751668283396.000
12594503020267516.000
14790479410512892.000
7548695288080205.000
11864328544928526.000
26797968412364716.000
19276829008376756.000
11908484304195704.000
7313960190899866.000
8410884698898254.000
8071088523215419.000
10558717058550446.000
23476689038642740.000
27114937492825008.000
26840281618859940.000
22601436593205720.000
48927424635243528.000
26431746321296768.000
14357237101217184.000
7810230374607235.000
9714403972054514.000
13810985391621772.000
11021662783578528.000
11721209460688286.000
10837955563585120.000
14912768981782312.000
7869373283492724.000
4255538047036419.000
4353463821496615.500
4710872426945059.000
7491464804377017.000
4333820596967412.000
2199104287923841.250
1293871813628040.750
1121080556379026.500
2517017591829588.500
1944581289095187.500
1095207154928248.250
1434887755798636.500
1114530285771961.875
1353779291524500.000
1200428280075829.750
1115500517827301.250
1078234196461780.750
1395332938139386.750
1111564236435871.750
1284170346988151.250
971948262825156.375
1047439096504014.375
2195764701130990.500
1268252149839104.250
1396382491104856.750
788103726236469.750
626231136174489.875
553474605267281.500
740777898735339.250
525982962003843.938
1447666009282198.250
777344094964266.750
1127374699643014.000
2498083146892721.500
4053131979445077.000
3963349259604234.500
3691585677393577.000
4544287278884735.000
3706203920858775.500
4591534954178669.000
6637792680771351.000
4037957230767339.500
2129435000976571.250
4229430460401833.000
4272222665983026.000
6658534303318977.000
3574644542700418.000
7645942845262893.000
11157804346577990.000
23651756110481440.000
14225620533938370.000
12481278336261070.000
13267195085675960.000
15259081447835180.000
12720272911470866.000
11128853432679258.000
15340313351641952.000
18838894998869008.000
45759144031833200.000
69020063171711048.000
105275657015452016.000
57411778930475376.000
131302730419065040.000
152005970999401472.000
135053270244704992.000
122090279334678496.000
62831859687995048.000
63398209045091520.000
87046961509735216.000
112807635036625232.000
102843071913707584.000
109697093918639280.000
227616480489292224.000
186527614940673952.000
238500308002016096.000
193058366343144192.000
185466447431469696.000
222597636335436832.000
287429644177925248.000
205413661102325440.000
218690260200103968.000
208580870491249696.000
235507272848262816.000
517056813704887808.000
463621618399205120.000
268322863920406176.000
240374417449893664.000
334032998521705344.000
401301623238622656.000
331209452869781504.000
335529272187212928.000
825250476526529664.000
859610179206978048.000
512958784015912512.000
420385580726379968.000
489236083665156352.000
494869144625978816.000
621725977667624832.000
896926480380875776.000
845933251936596864.000
866418479480256128.000
841594407745715328.000
1350763036940887296.000
1574735541072745472.000
1649812620476646656.000
2107155854062267648.000
2174431830791789312.000
1227291278815526912.000
1581540705744903168.000
1202317534330984704.000
1315235426740657664.000
672796351853457152.000
768560995876076928.000
930845702609187584.000
611259373033920768.000
1614289855864313856.000
2358634546943846400.000
1389934014979105024.000
1168658257964076288.000
663816871032610816.000
382253880035454784.000
399543445358225600.000
487041333220114880.000
450442630629220096.000
385923091051686400.000
839291454016683648.000
666831495251123328.000
338996745763542848.000
192840293423158976.000
270827416353930464.000
152966331096245536.000
186128079363312832.000
286679419505442208.000
245511386620909696.000
126288404480535312.000
185675992367181312.000
443983695101459968.000
505873456749872256.000
266708149416872192.000
191282485496651456.000
117328449660621504.000
251625513467333600.000
227928763313660608.000
279301619063179936.000
278293434684714368.000
142488930849159920.000
134474251600394496.000
104387591634432352.000
141482845905239296.000
113385928090533024.000
232096376184882304.000
116165903380882160.000
243700215844108448.000
131252454585956560.000
151080371013650976.000
77685662767861776.000
46150267448747368.000
25711047652266700.000
20444387714810988.000
24894167601915756.000
13084514405683170.000
18005744957204006.000
20469805668822192.000
12216267323492664.000
10487848167546682.000
25059782436340912.000
37652712618000928.000
79078487367122288.000
45812976386707528.000
25393747136277544.000
40091754496192320.000
60597194516232744.000
37362266832987216.000
33117216601110012.000
17644179961394096.000
27525918784415092.000
26488390952960352.000
14343436098078744.000
10523149801446438.000
6196813892591007.000
12735548729422880.000
18538162452407880.000
10557232887892960.000
13176751907748762.000
14711256651583674.000
23569730131103300.000
19853909834299404.000
22177704286326240.000
19145128315374720.000
11138273061424070.000
24665982873492304.000
27696076079105040.000
35476318684850804.000
33377969381575248.000
47405586542744560.000
40701807359325480.000
39713648019361792.000
31951313983098708.000
19670859855093204.000
40682791420982192.000
40059579991446552.000
58928129864152064.000
84962279111510944.000
72329912187250816.000
73497711214983904.000
64415456873981496.000
155344210340321216.000
253337170506479904.000
226991106711816736.000
198342077742830560.000
463579494352844736.000
501385557614366272.000
263638914757060512.000
187359765305143552.000
282261767949264960.000
157343891663812352.000
105508283425673824.000
235441995436988352.000
201002061883846720.000
418328791454227072.000
408010626654001216.000
885543514369983872.000
796880518793776640.000
1270087348175439616.000
738811415146121856.000
902753894233646976.000
484372376798888832.000
736153402982746880.000
801521219206132480.000
943063411826603136.000
1222017319809561856.000
1501393791377193984.000
1171871585220475136.000
1332502847895739904.000
1255007188088892672.000
1470805580073963776.000
1180976915223908096.000
718169177643033472.000
1578827877017252608.000
824404418039159040.000
1152623461095299456.000
1294410500609766144.000
2011594805286647040.000
2620121328303655936.000
5520980909649000448.000
5138151336085123072.000
7226107292715522048.000
8599302762920810496.000
4976501968951837696.000
2837205157429985280.000
2041001011315312384.000
5135265460498189312.000
4342530553421638656.000
6581551698631787520.000
8654185552866853888.000
12885723908976474112.000
30029407750101577728.000
37616323720140496896.000
49413732913492983808.000
42311320785362608128.000
92417249289469853696.000
67793167953400930304.000
86887966694198280192.000
174969354621401595904.000
93219994539772755968.000
55677489730110152704.000
30546934180775084032.000
17214476755641157632.000
23424632296696143872.000
24056157650304540672.000
29384197553367121920.000
16177718596884289536.000
25536742844715868160.000
31335793476713791488.000
31404720706766536704.000
21710896499137515520.000
49973228700388810752.000
74664052177917116416.000
83382284368117579776.000
173379008967797604352.000
95266537028993695744.000
49632649671451836416.000
50095069393042866176.000
39341228763850203136.000
22025390020265869312.000
11645684592335861760.000
17312670761546237952.000
12132108909310193664.000
15614156883021541376.000
22812323850338304000.000
31758126937488920576.000
16677361616737531904.000
8862727200842223616.000
11870749329784619008.000
7145308680573659136.000
9263212556664272896.000
13820033959871131648.000
7250981873162271744.000
17224382349248403456.000
9666810325101922304.000
14004789195220162560.000
16981771579076280320.000
11821256710137561088.000
14986331851483664384.000
23548300839758024704.000
11889602978048817152.000
16082061719096995840.000
17920300507507089408.000
12265827774088521728.000
7623553907899319296.000
9737084795482173440.000
11744978797220149248.000
26842520650726920192.000
32573017667349577728.000
27725788179372261376.000
25862975538932670464.000
14815227488156536832.000
17494027683850532864.000
12751032549849473024.000
16016396690882322432.000
32815412434654068736.000
17107758908716879872.000
15069879167986135040.000
8120964240692019200.000
16656977033150566400.000
12513208525112172544.000
27892565291273904128.000
21762938857788010496.000
51317846553498116096.000
38981703303160651776.000
47954549764842725376.000
28966623375503228928.000
16630824038560684032.000
12721292496728965120.000
28276569723126231040.000
31461117152376623104.000
16033023672126566400.000
15531405145281208320.000
18207032740692860928.000
22079425664005824512.000
29279784756621582336.000
32123491109126807552.000
18158883098750175232.000
15842790380242804736.000
8389812797997093888.000
18060750750365419520.000
9774815141151584256.000
8634113633329964032.000
8107148689939979264.000
7762512746293552128.000
6667522808625186816.000
9934771386415181824.000
8526705828975949824.000
10042497316947537920.000
8748736639753105408.000
7579816382453823488.000
3777024727490624512.000
4878360372684520448.000
2463115544591553024.000
2893587808831643136.000
1656251114210357760.000
1268043530295615488.000
736090541348063360.000
973508384387357696.000
1272275705894259456.000
1384224535809992448.000
3168659572678932992.000
5010219690533387264.000
4469733521428341760.000
4347086134962371072.000
2389655302578366976.000
3834698435557800960.000
2306700152995400704.000
1353598523280748032.000
1437273912403022592.000
1192557477838595840.000
1625532106641491712.000
907217056953777792.000
653323696372614144.000
860519009728007936.000
1188454915498363648.000
2796740444461160960.000
2705790478955387904.000
2118819365966508288.000
4723883311831458816.000
9621664599513790464.000
5390070614153730048.000
2925537933107484672.000
1640475291816521984.000
841524445513811840.000
732033938079981056.000
727807138870846080.000
794774619613666176.000
477913352663805568.000
653211915911515136.000
844305365670103168.000
463707515923500032.000
425212759514373504.000
258652228614060256.000
241940158064575552.000
141210480151354528.000
110764040531557248.000
60159606780732984.000
35337972292448388.000
45869101813938480.000
43238377289829936.000
47412931631425056.000
35124850207976760.000
40232493485717176.000
64665187790735168.000
38979669666786672.000
23919397755546440.000
13870519542954252.000
11055952104045400.000
5835612952010110.000
13977597292171966.000
14507648179958464.000
8273175073948051.000
6484731880174435.000
8634360479638129.000
6396193438036872.000
12963416834820336.000
11184635336709992.000
11419904814661436.000
14034859216658562.000
11911776521345706.000
6011961468494139.000
3479676216505973.500
4255760807612763.500
4704669831533318.000
2440335433699448.500
3572268836072651.500
8625940806054694.000
6265769080465204.000
7742781241109238.000
6676231693674111.000
14019026917398876.000
14804288647062216.000
10519028462002466.000
11877942847925368.000
15646335460694594.000
10375680765403418.000
11442579388195604.000
6937825324981213.000
10583535087839958.000
12658610222374134.000
25875262771821996.000
20411877714947180.000
22266510465191120.000
50475693276461136.000
38998328375791008.000
21215015483875224.000
26453066840919928.000
19562777270811316.000
25669423963734128.000
28239113609602448.000
36346399882628232.000
47182707703990848.000
44565966750547608.000
26578931622738648.000
25639307911607960.000
21797788770289140.000
48298028588174784.000
39632162086797688.000
45939895725240264.000
43939829313138128.000
23496374596967444.000
26218232329866844.000
15032156166910056.000
20810067148017296.000
20807037113907772.000
10311692600981418.000
11428994260086514.000
28085986515880396.000
36145192136343392.000
44771241295655176.000
26829651653484756.000
41823929385584040.000
46966029328331760.000
38592864615649952.000
47180362405204160.000
25165770683974388.000
26672476564124920.000
14083892609156962.000
11553943762727518.000
14092373002172600.000
20101106505848244.000
19137367781270284.000
50200538117994184.000
68268101506499696.000
83520187081100256.000
89343147424295904.000
112104098779926352.000
285234207137258176.000
254368063532887904.000
284570761149942816.000
465125229524933376.000
700367649474369280.000
1447257907534606848.000
2186552437185356288.000
5042858323201582080.000
4488609427686513664.000
8912360028667001856.000
12643328060346443776.000
7794827572253436928.000
7013718754535208960.000
3628354545304255488.000
2263040032344836608.000
1194535108242487040.000
692065771965752704.000
1703172345283261440.000
1961923909732620288.000
2073239377253534976.000
2973845790396218368.000
4210500164271979008.000
2136090713720820480.000
4692582899146263552.000
4465800591471503872.000
2655738320594855936.000
1336864765152602112.000
809668743743806336.000
932529445245909120.000
832029581414297344.000
1691124233190729728.000
1430785350567446016.000
1206942964084747008.000
2996620343675713536.000
4081732697816760320.000
5180038659079570432.000
3061307185063330304.000
4746591418169887744.000
2438035375427628032.000
1949285847057899520.000
2291721556949157888.000
1166797712047204096.000
1365971459896521984.000
1609072092607624960.000
2015280809158567680.000
2706400937351073792.000
1432034810554635776.000
846001626396940416.000
661726873515829504.000
1346690218474086912.000
2829688543722535936.000
2423496455580407808.000
1382435080643774976.000
1648958459412605696.000
938119628479914496.000
1388825090690734336.000
794831082428086144.000
639465511533562496.000
1451277058469726976.000
1596680372329003008.000
1228497722872447744.000
1523762762351910144.000
1260014193316237568.000
724200699247468800.000
404804310032611584.000
910382302275668736.000
1395819332986388480.000
3029702520120432128.000
2702564916519014400.000
2029591779476312832.000
2675999731564768768.000
2413068341716779520.000
4818143516181381120.000
6298024456299471872.000
3923810998551921664.000
9639468150365296640.000
8118408029948409856.000
12003734096235624448.000
27389427137252642816.000
38845885338212950016.000
23975769729333952512.000
30224758983289384960.000
25109789632155426816.000
50988446328519376896.000
27001271778980483072.000
15734455006122153984.000
8028055020505454592.000
9439437677132572672.000
14530621839199100928.000
13931160822518269952.000
12916586057253308416.000
16871358364056201216.000
12748135457545009152.000
6783301879330925568.000
6617702147625825280.000
8579172462646443008.000
7497817952159337472.000
9886052679841253376.000
15813952733302568960.000
11573898010283343872.000
7044772640931646464.000
9295115812624734208.000
7427869785079868416.000
8652729902773948416.000
7206151428010193920.000
3794571213704425472.000
2259471709760540928.000
1217817074779745280.000
730151863382103552.000
939841112708459520.000
606383063869133824.000
1529946432400897536.000
3051997724919560192.000
4789231592350177280.000
6540527694250092544.000
14570849546269945856.000
21080157995004743680.000
27353057494510129152.000
16376545839386882048.000
24748720525992034304.000
12880483301075931136.000
6990690304200029184.000
6445749349000675328.000
9262274168444903424.000
9157513823975524352.000
12231201608930500608.000
25928026788425752576.000
26806772339539337216.000
16133952067960207360.000
14551081040443787264.000
7814402704551618560.000
6412397271183030272.000
7425457986443188224.000
9616746230417526784.000
8090383385596156928.000
4116115003616125440.000
9652763794770335744.000
7887257286408320000.000
17753031408947466240.000
12601726398538430464.000
16465914412763504640.000
16461512049801517056.000
9566124740449882112.000
5294475623364857856.000
3083608511474995712.000
1697487994513976320.000
2001166569617646592.000
4453457396762207232.000
2349188750891084800.000
2775263634967200256.000
1652866984655419648.000
866591272617072384.000
826430851375202304.000
707756948584571136.000
705020666424630912.000
366938986952771264.000
382051914436077760.000
436604117414192448.000
525760264288678592.000
461681801456963520.000
348597496099611072.000
190371340234980736.000
114091599853678928.000
274339520429891680.000
282958711704239968.000
163477463733730336.000
126310961365632944.000
143318565998833600.000
85898392112816928.000
65493887850643928.000
75076653297047872.000
84651873106226608.000
71147134681495592.000
90000162019484048.000
137259695961945072.000
71589793728306296.000
42987106533356632.000
34453614726280584.000
45476624869834840.000
23227410425892648.000
23318519592619316.000
18843841756963068.000
11129244499633580.000
12662498044201180.000
26661402394640404.000
25661122216818792.000
25412564703220300.000
13743908654562528.000
15274220775317124.000
21959914993772344.000
50127261396652800.000
36826964449919904.000
45159026429207000.000
48109041346614456.000
64588317392079360.000
86923989892838064.000
68271571616656336.000
59055924234099048.000
88446390403978608.000
78463474854830272.000
81372901987953760.000
70227365574036384.000
40460870266348392.000
22452366488707480.000
18577444457686728.000
46835218400379208.000
50946729330927112.000
81159386029833168.000
84989869544171856.000
73308046738794432.000
84592791784276352.000
51120736492836296.000
36449552431196736.000
21374876761058112.000
27616932090756244.000
19301537547453776.000
25634304939297940.000
14774299856367684.000
14022269068937198.000
7238029143953004.000
10806287914197532.000
11119080256866174.000
26941407710439676.000
20044873061907332.000
46258568802928024.000
24579573165247336.000
21792885393566852.000
47355672977703728.000
50411785498273768.000
27272117146773664.000
25811705198047180.000
14400544531013138.000
7539006173757193.000
8563955137236207.000
7850719316107477.000
8160525196877808.000
7176049133594719.000
4182752127798167.500
2497831094501249.500
1450153115123336.000
1240358309220278.750
1146673846632696.750
2305254737849169.500
3531840580733992.500
3405168517526263.500
3284535135835792.500
4899993308302529.000
3413403906437988.000
7263065438302191.000
6528964388555748.000
6814700525068040.000
15426870617940804.000
23522300584085684.000
19147580998556316.000
44207680041333096.000
90145342043425296.000
85291276127389472.000
48852865159340928.000
40597808901706808.000
51202202171207088.000
37698830515280536.000
34028183949825580.000
35731270537226460.000
46503509346800376.000
69046835081216720.000
148811355032527840.000
88394408956032656.000
69695652962837648.000
157524027161976320.000
133695195985946736.000
80953452505211376.000
62612464774902504.000
90411003395024464.000
76257459445067968.000
43229249008317696.000
62354272443385408.000
69193514707072392.000
37067852606369688.000
51033931626700880.000
79043683341948160.000
80877231227259872.000
69835446328369448.000
70598940535353944.000
38713017248741352.000
21378924953961972.000
48921218577850416.000
62181722051128176.000
163461519284247136.000
139960247001840976.000
121232932454324880.000
163202979300357856.000
146813791195085088.000
83536781099711248.000
81220512780912480.000
71701548947281616.000
84955128761172000.000
47539879181203160.000
28148703325678856.000
24675305699559716.000
20347859165244400.000
22538094929836404.000
12108929771103662.000
11727667985170824.000
18660896042076828.000
10601830100633970.000
11914484788859028.000
28046956520558600.000
22925188940958364.000
47371798509017072.000
26142711432222424.000
19788984083419504.000
40077105879226392.000
23536815735124328.000
51723522032268440.000
27337561831707256.000
23641087362888884.000
20655146235195324.000
43570113425594960.000
90314509463420384.000
115388737686440480.000
148437576158514176.000
159529041983977824.000
82206538473930896.000
70355770128367328.000
36715768261842056.000
89080379391515024.000
80801080168699520.000
70595460288360016.000
65136601267395480.000
133633039877580048.000
276422854035555360.000
386271351138153984.000
779240855222531328.000
400341593282131200.000
462247088285959744.000
499270001888994112.000
257959079523354208.000
369233974820108416.000
376258822249114496.000
378153326972776960.000
215575753303294976.000
529657026949476992.000
282851836231019904.000
213885193941798560.000
510536431591357440.000
738607156941112192.000
834391695036375296.000
736249035279701376.000
384350322374030848.000
467272256453091456.000
502158636589473344.000
417505359361572480.000
208299920244353568.000
269293696936081696.000
221298897681395040.000
117801687903189760.000
128701886218019920.000
262628090134106176.000
135413926563094384.000
111157446625703104.000
66181466274530184.000
67917814495782048.000
143422838644087120.000
75834997076029408.000
84590540100310128.000
46417639263700248.000
50369295939983904.000
37007804012507464.000
42546402759308592.000
36427075519445320.000
86180307368916736.000
66243428164723968.000
86659312489905024.000
64804423181149472.000
153796962714559456.000
120440498487761840.000
124208491219677632.000
123085719958104624.000
139338877083852272.000
121868056683437504.000
266222611462250208.000
152459822577051296.000
210384183102368448.000
223991395442882400.000
468981153701175936.000
241362992442916064.000
135553488947498272.000
163720318658561088.000
125855292570429984.000
162573514915348768.000
83363834716531504.000
62757036271813816.000
165941285762157344.000
245884532513676896.000
144554630035154784.000
82465259367783120.000
88566337380964608.000
89434176212540256.000
51038674419874824.000
38579179672340464.000
83438779463094960.000
85530854951410176.000
111868987535731184.000
167726406884315328.000
167536773404744768.000
123715434385578912.000
138831859128053808.000
152934207143207840.000
91132514120794416.000
135808444499371056.000
150769328681072064.000
90601799036095040.000
109730480318564640.000
146849916069325888.000
302032722661215680.000
155573633474238176.000
86503014780826912.000
50553944434627248.000
41546565870711008.000
24456186771889160.000
13676478381263526.000
27016029943213128.000
26068098717904308.000
22679816286635816.000
51477344762028648.000
37267483448932392.000
22693411006876328.000
27582677284811108.000
25814749063863308.000
18777710060766076.000
21268282879682796.000
27275963835465388.000
21231498653009348.000
48178245166200008.000
27316838757093112.000
25424407304627572.000
39575133905030288.000
44828347289108960.000
41796357186251744.000
62432316643822160.000
68223873829945952.000
38461481800018744.000
41709265411211400.000
47709436701358472.000
42412890807568296.000
23876533775034608.000
21287002804690692.000
27519221103323684.000
43887919881903224.000
36173416160853128.000
73444728151819680.000
43555339787942768.000
40830322512015232.000
50203244787926808.000
40404405122826672.000
90685871863264144.000
122318563232320912.000
63225976890099872.000
67826022272668312.000
87636059876365776.000
82594630563837104.000
109887753597308080.000
165782868293210880.000
218599126765468608.000
122256725329463632.000
277071669351083712.000
268587995969599904.000
150050211390320672.000
83451611625183648.000
91801009279378144.000
84105411778327456.000
67057844111948424.000
40006518559139728.000
20038725284709164.000
28419186472038816.000
22887226785587316.000
35224530922746952.000
91457570616519072.000
48309922097178592.000
27067780960484316.000
14270623240465730.000
20225036209071840.000
28248868905644404.000
35909817216777764.000
48738033338416976.000
65134486653353760.000
135657679507681968.000
112344571625153632.000
142261549734096464.000
128543967124746816.000
129352042179108800.000
155660939901495104.000
92834965301636928.000
60545173197811384.000
128921850227017328.000
125386713433270720.000
128361827483735392.000
256885014562855968.000
353381766172558528.000
535346776042773568.000
417431500087167424.000
651392020471701248.000
937240195098840576.000
853605661998346624.000
877824382746174336.000
956505797077362944.000
642587885085667584.000
846209201202962048.000
837067326311762432.000
494941714994544640.000
261516658827200384.000
238517575344556416.000
136653810675314256.000
73073728460026688.000
42924476900865888.000
64367594218527288.000
153135025676346208.000
249972237034282944.000
282110207093602560.000
284742883254550080.000
354186259522235392.000
448580308380848064.000
444699499551877312.000
248852593978313312.000
194051058216422304.000
265541908788418080.000
416324587507647168.000
240560654954440288.000
515876182681864320.000
294382191325073664.000
205365534137323712.000
237176497890826400.000
128660209536476544.000
71039661364910520.000
147398206031724576.000
153002790330260608.000
133125877395791824.000
74022325245619200.000
76135903309211168.000
68457299264542888.000
67954548160088408.000
160897087708917376.000
161584404664441312.000
83644937466083856.000
44738756387053688.000
46774163345775888.000
41132234869073904.000
33546730044825352.000
18551314796390452.000
22082622094203172.000
18597102714280740.000
39909383631679272.000
42455354844875944.000
38020650071763344.000
21319744534787072.000
28367939390451792.000
14819633756317348.000
14419240420530232.000
20465750517342716.000
11833815837861834.000
11271079650036886.000
6632791403793639.000
3907660373298401.000
4829842233355542.000
4477558569081290.000
2299206060387293.500
3162870798274906.500
3359845138211319.000
7164559416775191.000
4052753367283519.500
2102141619933106.000
1161439606876310.500
1138504117148292.250
1209107002656807.750
1478389846296458.000
1231577888779394.500
998430596629161.125
600141931323448.000
1300069855230132.750
1186567610835528.000
1719568504557428.000
2134487093410682.500
1832612305386576.750
2101685563324875.750
1084693162283256.125
1394739175536001.500
1031112542862043.625
569160849988945.375
349954758321939.438
390960641634283.562
785118371174182.250
669444117082210.250
682897921206829.375
800060239151657.125
410924539181957.875
813923075748441.000
1284259574584028.750
1448029247421528.250
1208876418198386.250
608232297821458.500
358888983309687.938
458074763323060.125
414892088368043.375
217721542105451.750
203927200146499.406
174545230118692.406
102061533351606.625
60014518899495.352
59971127784413.211
91552358938063.500
220065023785833.906
239674902204863.438
311862372106197.688
313557196783678.750
794831839451057.375
631411465711919.375
386536350963501.812
442335830613337.375
375657211843960.750
551505170239334.312
300643463002499.500
364331180262553.312
343320455637822.625
713434320403032.750
390631247592745.562
210133548912608.062
164011367049735.562
405630463379284.250
316682317839667.875
298824118634626.312
378043033855299.062
425262190538381.812
595235196488553.000
597918098102506.000
317131384182543.250
352885984113455.438
412403134923794.062
660425758201903.625
727143711158575.250
439033896235996.125
592159323641214.750
357507320887716.562
813953551493019.875
1225194873148938.750
2517818893062947.500
3584069378058961.000
4622815415681610.000
2404344148991293.500
4733334610481322.000
2450171820361620.000
2227809487682798.500
1231740868273084.750
1187780834469469.500
651328967605909.125
1298088756161792.250
1100716355962378.375
1136735169143316.000
2270909506016538.500
1963993227667241.500
4004134006739253.500
8107345413797393.000
10360267398953958.000
22945406326354240.000
13952797138736128.000
13011858366026248.000
13293251329065492.000
7550098933685487.000
10617551787450642.000
15385258480143080.000
17998342280506458.000
40290129982374456.000
37166359044262664.000
83985156636400752.000
117879992454097296.000
63231561657583776.000
74513245781463232.000
40283342085898256.000
40298827597508032.000
47409941112486240.000
75086016592685456.000
67512807514799832.000
77385315851401824.000
64605231274802200.000
76426940806182928.000
158222647110913024.000
81857150964016272.000
58720772379531504.000
126104745059271712.000
263462147352331680.000
194566775573372512.000
102687500010318432.000
132516125548749456.000
207394738100288320.000
119590439759076000.000
190691416852545856.000
250659955229997216.000
191878483596899424.000
254145232894041504.000
281036160105010400.000
441642439616898304.000
469376608344632960.000
340559043662682176.000
389107119080592320.000
907849251593287424.000
1263818816098011904.000
1479842642864159232.000
1471939263710421760.000
1938689452431939328.000
5446641917902319616.000
4014409827628874240.000
2335786618880962560.000
3493383114762296320.000
4935078385444609024.000
7987688986626493440.000
4294377181827775488.000
2297027049944017408.000
2480281569178730496.000
1442825771101013248.000
870585415103662208.000
642743889385598848.000
1476730344928871680.000
1203538951727469056.000
2978617066317099008.000
2592512942706213888.000
5412753568345178112.000
5305362771452523520.000
2790658406612329984.000
1624387328636229888.000
1315137306349524480.000
1376439871394450432.000
1129763426724285312.000
1652852063072524544.000
933639717235285632.000
1452301560816777472.000
2244796187132985344.000
2230797731902597376.000
1341523299408277504.000
1170686981480472832.000
1125060537630597888.000
2394929476815102976.000
2752412347953028608.000
2573233122434271744.000
2874336110430259200.000
2366926099653460992.000
2679366808752976384.000
1502758951603892736.000
1299209181349329664.000
1340539305609691392.000
758468575576413824.000
786006673566893696.000
660294491306442752.000
652799064356523904.000
1339651279806704896.000
1403340667739548928.000
1573011200201179904.000
901211706027929344.000
1380193375971026176.000
1580385219240829952.000
834666873882762112.000
614155841565912832.000
693943884955440896.000
910063407425550720.000
467615506773270528.000
445023513651707200.000
445413905222903744.000
420948506286927168.000
666369108210806144.000
376328626226102976.000
232970270710533472.000
140361333756811840.000
73321380834844816.000
66242672560798592.000
34526786773532176.000
41693230974852184.000
42017071029834136.000
34255628698631604.000
78855994884279248.000
112803459305700336.000
142839772922250320.000
107768145646150400.000
158977561485178176.000
119910939107756512.000
136812233955734672.000
76445640435525248.000
61771269897141288.000
140474521800024080.000
75964808028516464.000
84246225023921344.000
48703359217567968.000
38410616455874472.000
38021820758729448.000
45652006429389120.000
39912831252455056.000
63166164249635792.000
77600215308855232.000
39339402991096344.000
21085299172635304.000
18289802224628696.000
11338658160099814.000
6356586108542402.000
14028937961981670.000
11467521711157256.000
14869781867257350.000
10541634014409398.000
12364009162375792.000
7443930347845953.000
7284177791951593.000
4199584962186055.000
2125557354930096.250
1875220277209426.500
4401970853904770.500
2374114188910305.000
2011498093019862.000
2464739804838328.000
2393350551782914.000
3218873350663762.500
8747241910054686.000
14366757066754206.000
22214404762215324.000
13358365460561280.000
8057937056803322.000
6150277809345225.000
7237288622163937.000
8623050747248544.000
7807102788376856.000
8510899235060466.000
8367321655843042.000
8566170275364694.000
4550908101138934.000
6128571416956948.000
8403559418740146.000
4622374146584580.000
7003219160513259.000
3892300167351155.500
4549163482359493.000
4528809639145763.000
6334606085162976.000
3632714397449443.000
7831189986294418.000
4410599948435045.000
3825497161427008.000
3913472762586998.500
1990824347803931.250
1092737648320435.875
564099249272937.250
612940322869984.500
315202828971010.500
659904958770059.000
709269921879093.375
1067085415062558.250
623400875665817.125
672080124976081.750
379433567277731.562
561354452893314.125
801579670383321.000
743551912839182.375
833101950190199.750
663369184462390.500
603923751528694.375
767658347983337.500
410746914077227.125
360914059067059.188
373439163852673.938
601163902700973.875
595188737828702.000
1493954125531231.250
804900577130276.750
1031029571293002.875
2640996301032182.000
3692456801452608.500
5869157409575155.000
12325878471194966.000
13211552703742450.000
15732180414436530.000
21035604352129164.000
23542199193104804.000
13032561059555446.000
14605693952518630.000
10401927334909512.000
6353501737843497.000
