34.296
35.216
74.282
151.987
142.299
280.200
407.023
414.629
638.016
637.140
1436.145
1345.550
2081.432
2119.073
5170.416
4876.122
4922.773
4728.639
4308.333
4558.212
4932.100
5282.971
5282.203
5029.323
4608.189
4690.014
4754.607
9534.328
15226.930
24239.542
49425.036
68853.292
138454.120
294087.195
472474.133
480324.538
762224.727
780036.517
841122.347
1704689.606
2764317.125
5999303.526
5813179.693
5376634.310
5698839.220
9224999.767
14220060.667
34974784.645
32890480.180
53545239.502
77718234.941
174409224.229
174803635.297
279400597.512
662787507.789
811373198.198
1691223846.983
3738012172.333
3802994478.996
5928220097.754
12010179238.970
11089766975.211
16435502534.695
34293696843.313
51025924659.518
107426693898.661
106138762782.839
171646296948.835
347692288583.244
698528019055.258
708940672279.417
972320841140.297
2129473979941.288
2184397209795.941
2178835318697.099
2168850842545.478
3011984202280.806
2994618408458.879
6946047939403.940
9758056938557.033
25907744396415.938
32238436206790.547
34318413001351.820
33092150367417.793
77626352421212.469
71748605504255.438
75119273264468.406
78157071624470.844
124624332548922.984
135144290032620.469
131883706439388.953
186694656084957.000
197095188370803.656
425432923294131.375
439175567051398.625
416375725649022.125
828527737977500.125
808439586376299.125
1231284152869681.000
1329878738191780.500
2045677675408914.750
2032675158260033.250
1123873559453236.125
603685793593319.250
643344621159504.000
327462121697171.625
194637592036851.656
205505536104435.750
242478687204500.906
488226173024860.188
376571932294247.688
365466083335236.125
217997380302860.875
350607190118737.375
194268219200771.719
442240209972042.750
430810047184619.875
396537909066379.562
422344468393125.938
438265983147361.562
697190905878904.000
731224210830809.000
706945833637469.000
1515405629992598.250
1497437236245713.500
2194029643705421.000
1985402901265102.750
1228550353966065.750
1499873314177584.750
796093167667723.500
456326014435483.000
402904293261211.562
238645003088936.156
140227143690810.938
116526645308742.031
179434019421003.188
208433304758791.625
436554082669847.312
440359587352910.625
354893171342845.500
181660118409651.562
222403523385078.750
226631344100021.656
223326397813601.062
226497006380896.688
267745208041342.344
193367436906627.656
117832625061417.375
115403725906230.891
133504142078932.406
68315923203520.922
40776040193832.148
57626420221807.461
69103885055865.594
41815062942789.836
21464449256125.777
11907284506818.654
9648319907427.715
22983639327832.352
20377324690110.945
11963857763734.949
11044211867957.037
6540841087777.977
7589024605214.174
4319126612829.406
3264719411191.207
3216936072634.188
4267891493336.262
3478654976393.804
1988664118923.979
1994142070784.892
1101948043100.476
640356121003.190
997434171121.852
1047997005520.905
958665141240.653
1277586318331.060
1575840201932.682
2317565706663.138
1959137769726.212
2286341525269.237
1748984885117.646
1698208237881.467
1894020831915.606
2235125967578.678
2966490903162.524
6949171673793.312
11109002332121.205
5604106951474.338
6244352800532.386
13704035003933.197
10053277779305.789
24090622511926.969
19142257311023.977
41322505922862.344
38240828205992.203
19430466941101.793
19842778825527.855
22589568518401.137
21872510775605.684
18865528561154.375
42541906952789.047
65676901746833.734
63522541286585.188
139882308645678.781
176957317219021.844
430392849923740.312
399906648958039.188
220987718064654.656
257771300922387.562
139198200604567.594
186711170658787.250
433875221819666.688
231337000895395.344
230820470153072.719
128879942275215.031
180799114429766.438
417327082496910.625
390690273046843.250
408714098826845.812
337354849816841.688
711971180185773.500
1124618022963720.750
614116441153049.125
585009516195043.500
318041279417739.375
810745949926446.375
839361267190474.875
764428879819331.375
1526329463410090.000
1492230968749701.500
1009175052312306.875
2606285730490062.000
3818231605489032.000
2347390810023361.000
1932701691321503.750
1140063960099170.000
645374183529780.750
663994204066325.375
397670439169380.688
433273029563393.750
335888464970826.438
730759301134591.125
769700983623913.250
794139713789525.875
446921087085035.375
347714409522076.625
386871598925275.250
622884923131022.500
380668524889479.875
593367479825463.875
583711457745029.875
715808622344502.250
435485493733201.750
429020900938711.875
691886152921486.125
1488283444768309.000
811445871396127.000
648668092499942.500
817478130529697.500
796913497673168.250
820561924213720.125
1025841179694648.000
567514550134192.000
560895328080613.125
752801358577943.875
1168216460583188.250
1329727112554026.000
720786991027994.750
741222107827388.125
700737990946174.750
640495253890786.625
1349005898144244.250
1104194676247003.875
2332528056030976.500
3227679696366667.000
1930470399684623.500
2242886067685566.500
1812795735116054.750
2478158650447443.500
1435492556216380.000
734430395133311.000
676567998690741.750
1034907721346128.750
1344155097194787.250
701515411857513.875
608300164538442.000
757726226759205.875
778481916791964.750
1106362717698588.125
627438043161575.625
326103949881726.562
468691719509117.438
260071618745746.344
226310064745484.562
234973994465104.125
353806804220010.938
391783788389089.062
335155918839109.250
780814597017224.000
592452275666077.875
336806917675669.812
204046739716988.406
445599159060482.125
333618193939103.500
377552175052509.000
187449805512414.812
467201601543329.000
583199340590627.250
719020987449224.375
1517618189726222.250
810423348944226.125
411620101840862.500
665923100382564.125
658818160963646.875
1474997939648612.250
1340308987974957.750
1494484734536853.500
1429674058513373.000
2162682745786122.250
2734080136056379.000
1416553324522940.750
1196393971480811.000
1088759569656287.500
1103543931432068.750
1079571261862357.875
1323380551426471.750
2072468181836802.750
1794456564941768.000
1003159905480181.875
2251129938899810.500
1282758869371203.500
992514046122868.125
1438898464457731.500
1858106700199556.500
2623558815049999.500
2742284227491762.000
3741654756545320.000
8441045048280129.000
12556033149160050.000
25522612216741860.000
28292627942426368.000
25024397444417932.000
34146281502395856.000
81433550590477440.000
75219225447391584.000
42797716373716904.000
45269923336411888.000
26714539942351152.000
25438298122659824.000
14836472841859960.000
19430760180995160.000
26402910763765516.000
24899310029474780.000
36400802677597752.000
42370807057230904.000
50023179850231104.000
49965722004660736.000
38185507930167960.000
21953157006397504.000
47592768127630832.000
63205009375862224.000
34611609035508632.000
86988184495112928.000
91580711873975072.000
61129318163240928.000
33872891541630984.000
49004701130506480.000
61172388652710920.000
166499517675308928.000
211430665199672416.000
427551613086607680.000
244034525469012672.000
215197301418855648.000
244909815770923040.000
149751376060905056.000
220880589052228032.000
126490938546968976.000
68449517757357352.000
92019545284439136.000
84110329184180320.000
120612750755132112.000
279522235821911328.000
146687239060789632.000
167389783125936832.000
264717655061139008.000
159952170661552608.000
86646701005147904.000
88851402183630768.000
49680246890090456.000
61589938900739448.000
138976286612507680.000
118237612252009984.000
256835192490116928.000
130644789266259536.000
288667906728399744.000
166901391854905280.000
157927344518076576.000
124377757483128960.000
142822382007655680.000
82896009032364960.000
121714749324944928.000
254586311036961632.000
285922818755995744.000
165850953109271136.000
88668589900347264.000
81604906892301632.000
60277826380646072.000
37218013470525776.000
18650103254311088.000
28578191136797700.000
43540745862250120.000
46377954890563712.000
37859733482564464.000
88712026098096960.000
60189789161024560.000
72265398207712128.000
83857825677492000.000
127005790574412288.000
72167916309674576.000
90125114496969728.000
86350880984013888.000
50932169946172704.000
47924210582656520.000
45979907457205544.000
72568632202914912.000
90114158688029328.000
46331881888037312.000
51396655951781848.000
50565840576962184.000
43795979440325840.000
90856452147462672.000
50504229613905240.000
26520741382062300.000
14300238284326476.000
7299975371630619.000
14730823643916000.000
10621658589520596.000
15210775773663952.000
11463340317750102.000
6458435303301401.000
7327275426949373.000
3920345620444751.000
2243831414034806.250
1292951648565159.250
1769649921668842.000
3787810484791832.000
4137695776897761.500
6232311067840218.000
13068306294695944.000
11751270255818796.000
6762296047039456.000
3842221624580614.500
8775381444262684.000
7830025887789439.000
8671432716181874.000
7128133179759650.000
11069461954025334.000
12896231085054288.000
19257484599347536.000
26918391808738588.000
24114754999323528.000
24317146499261448.000
20785473637072068.000
18586210276501944.000
25255410140961420.000
33671537034411016.000
45163926891276880.000
23311728430077572.000
28417059940154584.000
20270235877625760.000
25357498274563788.000
39111619312814056.000
45697001874929816.000
25071942874259864.000
34698689916832836.000
45730495190890176.000
44220123845870400.000
90181561132323712.000
81901167445291168.000
77254137695208336.000
46331135474061592.000
36827281050170576.000
84376570981928256.000
62987443488281352.000
89898878751638032.000
113257501131431744.000
115063726569315456.000
234480173941572000.000
239026207589014720.000
285411682083981152.000
253466060345291520.000
127582861736670336.000
70755836835065600.000
152416797361392704.000
131394875641821712.000
265911472244404640.000
352962949455224192.000
221404241200124320.000
290502590889238976.000
272049277367644064.000
216875489286878112.000
260487614188835488.000
156600646066560256.000
189592298526536800.000
397733592146687488.000
824516133219568128.000
421571592470552960.000
436274349370544064.000
422840021440140352.000
492059782602744576.000
283675940766563232.000
271403224860866624.000
153879171074855904.000
84844419476895520.000
46776022485419688.000
38998553127803680.000
20501854862638008.000
23623185672330792.000
21621285794194756.000
11203092541474358.000
10538867399847680.000
11564016487692868.000
11656357002936230.000
26302441489109464.000
18448850771567476.000
24553162076053948.000
22551625710506728.000
26978405584153480.000
25160682698402448.000
22304610899084388.000
25464247810917368.000
25192348132902156.000
33040077064723828.000
75879708278887216.000
118541101425795872.000
67301344107181888.000
90137028064184368.000
62539701682272984.000
37183818469168464.000
35546463234500012.000
22146176966764964.000
44495964044776544.000
44068388735633936.000
47883874729179288.000
42812554987739080.000
35714299017126228.000
90295136156424576.000
58021840378146696.000
76880487505425504.000
78029533656900336.000
72260239007286224.000
160621037191186336.000
130507911514403664.000
107740275833568992.000
158510111541260320.000
85954186329509760.000
62716200472301552.000
36151137697347920.000
49122293188852592.000
35198276941800676.000
44939027978688152.000
44895432162309528.000
24485648637706028.000
26463617948535464.000
20408218131337528.000
27306901209827244.000
14432381122333926.000
13340174270167390.000
6971244321225761.000
5596541764884087.000
6628113917392785.000
8322561385831887.000
7418751941108634.000
11899452344416008.000
14957835827649448.000
8505317924083446.000
11060184130350662.000
6855801788231144.000
3536011409708368.000
3155213854926011.500
7484935484950488.000
4399453924462463.500
2562988315108705.500
1896430785027755.000
2375200427965063.000
1956824325482115.000
4048755686820138.500
2483518763651887.000
2590594664881032.500
1455324010474598.500
1108531732358816.125
2570390943735141.500
3787934335139978.000
1885825020024152.500
2282172475156367.000
2025124347099207.000
2295533733438381.000
2481961452192944.000
1375087637759840.250
1694703688948042.500
1031433225877638.250
623714201652877.500
565757921939865.875
731303096258260.375
559991907235146.062
639762392698234.750
942791109734651.875
941884756905480.000
941437598265128.750
1425298587065854.000
2257189697206181.000
2299947110856628.500
4719599269362149.000
4460028640235598.500
4605237726297259.000
3069156635034815.000
3072713977868382.000
4147738912870319.000
4523149870701399.000
6861404124750342.000
15199807805144812.000
14981298265765280.000
13842139798162618.000
10365308609887532.000
12537271706622692.000
6752594727030579.000
13822101515212844.000
11186008200393620.000
22770540971200392.000
12749434000041830.000
14500295684021058.000
22126163182080952.000
26259517374084384.000
20837278951862848.000
24901376610308364.000
34376126500862332.000
48260918860500432.000
43178993069281528.000
40198315424866008.000
36991091631333488.000
39052901470448064.000
43629059188908336.000
69305308527477560.000
140181360746909856.000
106433579532888336.000
159917235504984320.000
132257734017282256.000
108855589156060704.000
65263616404316384.000
60161299326009120.000
58312964646459432.000
34102997531492640.000
38588177117648440.000
20307501162372132.000
10689126944433352.000
27181038397826212.000
23199442697141844.000
49666649294197984.000
26313051703010916.000
18849037941821832.000
10960577078841116.000
27424837571815372.000
35261699089978052.000
77531497252970560.000
62636984617387800.000
71344939602526792.000
73821677562296912.000
80530602695231664.000
78016462826273168.000
42722817596928424.000
37866386291745976.000
20533288903715768.000
24679635008589416.000
22213022384371988.000
18124987198957552.000
46620990479845776.000
24273915831291188.000
24266907089628612.000
24142256310997388.000
38552474345363496.000
19006457534177684.000
19922260224589760.000
44792447900478536.000
35600255256688332.000
21089491095176412.000
11829765373991956.000
13815507109060304.000
19496168104531516.000
48179354675292432.000
46325000015924560.000
35558354762199576.000
48069295892785080.000
38915369532940864.000
41697798073201544.000
25200841416059112.000
21124045200029924.000
10554029352217366.000
22920729619761804.000
48959269759345104.000
32583980720937124.000
33749211731621084.000
80882162923370704.000
116755026378519536.000
66565177612172400.000
33128469214473916.000
20169912850343916.000
11049413432415560.000
25307836323734884.000
35186699822669088.000
19338352639334592.000
25241038477133428.000
25085533873232664.000
20963596023088672.000
46689017725635904.000
48981816611906208.000
33433736078849436.000
36968634821750912.000
19489657050073572.000
41523959570539800.000
48837358305210696.000
37772557657081912.000
76287768369870144.000
153084869648165760.000
112182650484763920.000
149030847329953536.000
191474931393693504.000
255324214971922624.000
140973904323642272.000
106291511321676720.000
287531761881418112.000
242860316570233120.000
126766839996780608.000
164195479230406368.000
121341633515190336.000
142746001080273536.000
82886639444227488.000
45541727500390880.000
39785022950135040.000
61748453735162600.000
63026415620221024.000
131298097142046784.000
77939534194431408.000
86066693055841936.000
70303242784115736.000
84247960004489632.000
67216637390667496.000
33172835551768340.000
18943021984625536.000
21179107383710472.000
50365294089351888.000
60392031780251048.000
165918096682422144.000
131157505958594144.000
141011056928873920.000
145232423545270912.000
162698060656653024.000
137697587884218304.000
79281473969663840.000
108570981816871024.000
153891779729229632.000
221895480543407072.000
131629560484527424.000
75789263739443696.000
92351938812794080.000
70781272313400792.000
40849138469293752.000
40831560614222760.000
44785206002072680.000
62791882622026376.000
163446107675292480.000
85723363241465488.000
92625969806521760.000
62984465013472472.000
81342983938912000.000
44190213042956616.000
37392277231022472.000
39493090345240912.000
42492592493692464.000
65246751005106672.000
89481357432447808.000
129223669480187952.000
263703473833988672.000
143126272824478624.000
78436981744892592.000
72389244253326432.000
80325381761506432.000
44820320027060848.000
36599921444550456.000
20606450948481956.000
45089322535787224.000
26373067417186048.000
19193038193615752.000
26973448567310508.000
41303936211899504.000
44669474504330936.000
50744114379794712.000
49725619241590648.000
34402259336160680.000
18934569100680676.000
25585015684819208.000
34157180987917524.000
47659966076459536.000
25864870284355672.000
25084583441140004.000
50490878068812736.000
46587532495312448.000
64732348512270600.000
81785539804584480.000
72870842726007952.000
116546046874329840.000
147211328995473088.000
148523735519053856.000
111291003365886704.000
156731485706020416.000
198095307410160192.000
268889729719285632.000
293249499911142272.000
293031989778425216.000
164468624614401568.000
144569607622553024.000
110910918574944000.000
149586157331096160.000
166450795226338208.000
134491761424484320.000
159515010288561792.000
128205038580567024.000
151896553657773152.000
227726187604052896.000
301436939287025024.000
157971810336576960.000
111817329764944400.000
299610992246867712.000
226812630312907392.000
278596674651277088.000
249550368439217824.000
511439008496832000.000
663754501904700800.000
374642719846923264.000
466565254918895360.000
479721115729787456.000
385946076630414848.000
919852058037926528.000
508421959107333248.000
457328046616560448.000
275305395801286080.000
143466471454557120.000
230676672205270464.000
365338364826175680.000
954141150042931456.000
857031746432308992.000
755003059511265408.000
401058051203937856.000
520132267365854976.000
788916404733311232.000
1699095704032590848.000
1336683001592709632.000
1505788908046203136.000
2293726720307102720.000
1205781666454855680.000
1370368516444276224.000
1172697378312978944.000
2724545880446856192.000
4230929780959666176.000
2448949763437934080.000
2872742372345548800.000
4356144555869457408.000
4228887697031429120.000
3796163327213672448.000
5038696255425792000.000
3826775151482605056.000
3904264036952693760.000
4084425254049150464.000
4876345558450775040.000
4307041470133562880.000
6701892600613722112.000
3993891093426186752.000
9587656121822449664.000
15388912593985069056.000
18068432709371400192.000
9419405076088909824.000
8028755129402483712.000
4623458694215922688.000
4997613135838543872.000
5250342973289023488.000
8360299846491988992.000
8305002519635897344.000
12212607133553774592.000
16122199025478184960.000
24928284418968977408.000
29449707820919504896.000
45227773887827050496.000
53551487752570314752.000
30549233473173827584.000
17285127799566587904.000
22448997459283177472.000
26461835469495177216.000
58272452411943305216.000
39727562257168809984.000
93126767112894955520.000
49855356838634151936.000
29965767470848622592.000
18036294784680130560.000
18133996074766852096.000
25492473852434530304.000
22433362472601346048.000
55623198987316887552.000
48224143000230223872.000
55568198442110361600.000
46665319412824391680.000
58376580431260950528.000
51172815331119620096.000
53965675921729052672.000
28957785517559271424.000
32935007551540707328.000
29985490409550688256.000
15299438824184805376.000
15077234694299369472.000
14857259905937252352.000
32871473686069870592.000
16765127699029037056.000
9927914770112249856.000
5484026277626030080.000
4289853731168665600.000
2443352782050693120.000
1505068791968547584.000
908348027568500352.000
765212350154669184.000
460886531827746304.000
399611549340593536.000
397322761022577664.000
235298028338221216.000
125787532150741920.000
162795292377044032.000
92198448605014048.000
49353600509819008.000
37459751179220184.000
19324382187162120.000
48886281211432368.000
28249911908369836.000
42151049631572672.000
36973851117794360.000
49473263067532104.000
45261590428426440.000
35912916107777708.000
80936080668398464.000
126256269544677760.000
157108522109406272.000
80343277794011936.000
48170214891486216.000
26130609717962396.000
19559233585988900.000
45951180976500592.000
37328619945672744.000
49866878128429336.000
45143778879378160.000
49927897980148792.000
41050809490821536.000
50153105730861912.000
64769559666519824.000
84455748207396864.000
63662361833245680.000
73843275858953936.000
40705672019302736.000
41045082710346832.000
24615723689343976.000
14243203734640962.000
21704695102366736.000
45000751325676560.000
33766332074963604.000
45891423677844176.000
41599381961515152.000
39812483204627456.000
51214150240609112.000
28413154858797560.000
15207617023070078.000
15544082130391596.000
8733731216413302.000
7574078730730929.000
6543312623104611.000
6603021968983377.000
8720098753353091.000
11358681093296794.000
28669267468600820.000
26815932286531996.000
23860521710539092.000
48435449380124424.000
36119035902741128.000
50712474619801376.000
34304212244475080.000
46890314276939336.000
34319773974544280.000
20382254610212584.000
22607249345651524.000
48078250824810920.000
25943780130051668.000
15325645523290686.000
7902568552466442.000
4221120743301279.000
4817547782971216.000
7188121911475304.000
10988055809750790.000
11099654933486304.000
24786319672435960.000
21848117621208384.000
27789944361246280.000
24579308234124740.000
13857816364604134.000
11455081974461328.000
6719330814391355.000
4147087256814134.000
3207825789047307.000
8761582176378927.000
8705976490172954.000
7100308663637434.000
3946987449017131.500
8363977554404842.000
8878800443070645.000
8880939897363139.000
7030224419590074.000
15915704308254838.000
26130421510797552.000
24317972953275012.000
21006319674272520.000
46250716069181336.000
69498602072848128.000
168008426794589088.000
86149338494489104.000
132159177991911088.000
115471730084571440.000
117560587853302320.000
295203921390582400.000
373984395059390336.000
460705111640892928.000
487215738102012480.000
706580189545727744.000
371555780329761984.000
374466884902310208.000
473860782535906944.000
481688370043688576.000
247759784021691296.000
208609452768539648.000
111289426275886752.000
242971878913206912.000
213281912783799104.000
124853651269397504.000
73893606575021312.000
65693789742830816.000
149777854336914112.000
145986387827875168.000
139076741795833904.000
166449955554607360.000
121792122588565104.000
144290278040561696.000
127859462744862400.000
69999341208145952.000
42942100444655440.000
33961998253789576.000
20985430154407476.000
11196638327226164.000
6170973525114966.000
8659213086496228.000
7390732010070910.000
6868460968109607.000
6116008243733070.000
14529211286412748.000
21686551233529768.000
25677542950859424.000
14248566762743794.000
7596042968486882.000
4582151812259547.000
6534657663066723.000
13952270494511538.000
7191765674690789.000
10691185682379380.000
23988643510714228.000
26210331609072864.000
35269828270186040.000
41523706612755712.000
20969986322964356.000
47195591329231056.000
24151403837066660.000
12512074930529968.000
7320982983759414.000
7701047155839301.000
4339768292359876.000
3311847628216165.000
4178974014158592.000
2261826325837051.500
2019923946986949.750
2339486314733474.000
1427692390514318.500
1835922044815343.000
1812131770219949.750
2178894894836201.250
4702489997194194.000
7526550898694601.000
7656312001120376.000
12253288335956768.000
14377475737713346.000
8745635653913119.000
5991928487198336.000
6100068305921575.000
8421051792135514.000
7042773024007821.000
6092515830717304.000
3600082353725002.500
3200369396549455.000
4199499284824755.000
4153491452260668.000
8474444316270880.000
7363927927429772.000
8884328586119579.000
12359503861649462.000
7554293897562321.000
7596930539436277.000
4160902446726844.500
8346642178913653.000
11269219064518154.000
6636906971371659.000
8190796285818607.000
7293013733044490.000
11341314084371790.000
6766336634568156.000
8153907383717867.000
4224225149700853.500
3243243613070507.000
3217113430873502.500
4489999559848617.500
2688562632854068.500
2721849126841463.000
2447184911229179.500
1977339100559053.250
2279752524169495.500
2322100734328832.500
1940976760861176.500
4607438679722208.000
4229896516723238.500
3797428428962514.500
3444845903015036.500
8647949000172625.000
5933842562746581.000
6138938530028788.000
3686588308519899.000
3232733899016238.500
3527632013704340.500
8415289277594079.000
6485926145534295.000
3486664785314626.500
8292890557207865.000
8475427536165150.000
6636763166976396.000
4105577078460932.500
4572581957082868.000
2413379505239477.500
3788249750543739.500
4121933698176716.000
2187388275850822.000
3372526552118191.000
3489772864875856.500
7609641359480154.000
8726583387213583.000
7904330879693152.000
7580308422636002.000
7728084744972628.000
4691259012844817.000
4266401385237250.500
2488027626346351.000
2501720951399895.000
2504641258472854.000
3678670862224306.500
4828180454646786.000
2596234612547452.500
3817588519873764.500
1972116451683668.750
1056935944964112.125
2423216960079813.500
2683906446565360.500
1499490415344742.000
2245259045236924.000
1168787379003594.750
2359794146753252.500
3398260149774424.500
3271653548239470.500
7830411061127404.000
11595191296856962.000
14800098781750018.000
11898353351187976.000
25598639934318484.000
14289255408266530.000
8471441926780938.000
8472833955853157.000
4637546409009024.000
4337202382085690.000
4931447283288054.000
2626865009876154.000
2282247380996075.500
2314195002028150.500
1949968940791170.500
2731693165189852.500
4419631932913208.000
2306426935639342.000
2321954534484687.000
1193701834029630.750
1358759090123126.250
726235111758849.625
1498742296746439.250
1824096702421650.000
2744843975394277.500
2664012000240860.500
1823453470697516.500
2584607043389344.500
1413171014218177.500
1068662562513137.375
2552357745997875.500
3411952815074335.500
8892367289760337.000
7706571513383266.000
6083153408384550.000
12825122485582466.000
6785161959720567.000
7608015298254543.000
6097520149706992.000
15562655123222172.000
8342116562159799.000
13441810794888006.000
15665651604201906.000
14671833022467408.000
12760098908103810.000
20488846645182048.000
51766887108940008.000
38108610532362648.000
21112722656011492.000
26104416118562184.000
35817771789835532.000
22225932050038692.000
26873901759227744.000
42498142980337872.000
37890106492127592.000
77095949135571264.000
45190512656146072.000
23294080565252460.000
24107220167492216.000
51095168717613184.000
34795158107916680.000
77038359005653296.000
89548460362142272.000
75986133669574320.000
79353706874918176.000
66605632339609744.000
66120023212716792.000
84503996044547456.000
77264235623567392.000
67731125858844816.000
68397007976828112.000
33827149619119504.000
88769710188473664.000
118574478571936752.000
61488924218141400.000
139989931658243712.000
71948126467073592.000
39632851939722336.000
19833869633839612.000
50202374503203928.000
67760009517955896.000
74044748342932432.000
44253784507930920.000
91486944344818896.000
131177752067066464.000
126277074945389328.000
67245492946658256.000
85336691035715776.000
82537610071731744.000
67316257765588464.000
149196356129511712.000
237609931153075040.000
124973200747032992.000
61494279486660624.000
63585121895188696.000
37504280697324304.000
92379344201712960.000
49099112191197984.000
28804287627394460.000
43474665417182584.000
25743432113002688.000
20534047251086760.000
24940575252694428.000
21231927815811032.000
11096142908429166.000
10442352501621758.000
11287475829235526.000
23977255230730052.000
21833297623745644.000
45256615172585224.000
23549481883586776.000
21423045225410916.000
11527080037267080.000
23395934434225052.000
26164605521570516.000
23421147895239488.000
28374429103973396.000
37117741326124344.000
90073658713243792.000
145088983879401984.000
122910067124604096.000
119403172631120304.000
143953949019461472.000
76078569336940848.000
64613277707621784.000
167346433483346912.000
151193844410774688.000
90407558753487776.000
84088061931043104.000
66767127543153560.000
86925121801048320.000
70757940250993016.000
42773055059385472.000
22930019089312532.000
13888087970044634.000
7752880444785225.000
7950500223406716.000
4510955052561437.000
3338645899514407.500
1955955241703529.250
2111903055384721.750
2671275925565783.500
1926268504382483.000
1951280524538652.250
2571879220887937.000
1978266015931696.000
2332271227897674.000
1423260881504322.500
1786196295169725.500
2433073392454013.500
1353685938158089.750
1446574142109210.250
1066114738758203.125
1297998606288830.500
744299645680200.000
615168937984812.125
665083252016712.750
675543524657587.500
641026740760381.875
381152062589679.562
338491217959018.062
197335740185488.312
117262412001339.562
71060169220887.125
68525509514097.070
55325216665835.273
144711833622898.250
75939506296497.188
118145140848777.625
59627183416966.031
121399512217449.656
115341801457311.359
132201198388899.797
74119255411773.469
71266606026389.266
36290283767900.672
34257893948797.418
35952169952276.789
36347878555450.844
31595051671895.125
43547215006258.945
55195957078405.992
123657317014685.266
97751789701420.641
59757718731983.062
63303944653812.102
61880450832349.781
71784086131049.094
95436464104571.625
129064479632715.125
99853014913939.547
53100278945286.469
53060133514667.164
137520365752969.172
216552154447997.531
330714075776730.000
413539977965293.438
828618593262949.500
815819014067886.250
654215558246303.000
1027522038368861.125
1344287437600051.500
1172040812958151.500
1332141079359139.750
2725532373283954.500
3369547542557716.500
8265152196168829.000
4369173564781986.500
4482280812571412.500
4043280378350230.500
5934816328226650.000
13763559790573532.000
12641725834299420.000
14770566727833250.000
10475851595833640.000
15420927139661964.000
10449335731789690.000
14168702302094650.000
7774319501639652.000
6079595072644253.000
3536322378613949.000
8554873390513222.000
7446144281539076.000
7324544410063000.000
8632912485346312.000
4935848193808957.000
3521470569946536.000
7241222056837935.000
7269834279651245.000
3686761997049927.000
4187369132389648.000
2286420642658436.000
3437287027170442.500
7869466040836162.000
8615562915983539.000
8033055573841985.000
11630128496454072.000
28651292530421972.000
15636413393158810.000
15501338856247590.000
14928094979105376.000
7704121181847023.000
3950240812601758.500
7907935643947145.000
7068416509150746.000
4075934211088607.000
2498503330364469.000
2293325076671156.500
2713491226599285.000
1443650706617799.750
1506038968879640.250
2028611878684983.000
2282832238310589.500
1289382576213307.000
1418348623177593.000
808646855912161.250
1054421279058418.500
1168358525650497.750
2659315382699923.000
3832437557278490.500
4926560171297094.000
4592699495001673.000
4670389433822422.000
4555701864254432.000
4713664568369774.000
2407990994624703.500
2103650592324220.000
2312585363916919.500
1928701793747359.750
2026375393534907.250
2590744771290202.500
4103067351539676.500
2280840175778038.000
4632768799888479.000
4855203641291769.000
7419134556739007.000
15942173741730932.000
14937163812871828.000
15595745525003462.000
8164571217670600.000
6387035587739312.000
8005810821336715.000
4431217054053026.000
3665968288427419.500
3664084029648207.000
7932129394894677.000
7877356822331211.000
4655801497398310.000
3257474907302634.000
4592533122254822.000
3649104429350298.500
3527050751865057.000
3199815504102616.500
1852667401996450.000
2504632887031648.500
1449436298272003.500
770188011392474.625
665488218808087.500
1467766933206618.750
1012938762810625.750
1447146245286618.000
1295596311074356.250
1107784117394340.500
1260775997717792.250
1470360251888429.000
751459617532843.500
668723125731182.875
993213913285560.000
2498447428172091.500
1434299114898262.250
764657271898937.875
687512506709883.875
1370525121528210.750
732796597611063.750
439864702047222.000
340544337574381.562
421506386935449.125
228586993560491.062
206588697874585.688
124622984768980.375
180771598704336.031
205449931172845.406
110073121490006.000
113663208792690.266
131490922632647.594
185879516957294.250
113518128170826.719
64451048681540.211
63573838168086.719
143311114400050.594
105223004259915.328
110576009068532.234
62305333315298.109
36416978598651.227
76170122103174.141
97642936395688.375
113941428561538.344
133029989911025.109
124062513108492.047
134120098878852.188
205761958654671.531
309536823559116.875
637035546476949.375
839253415756093.375
463772265732292.500
435256942905780.000
702610569246860.250
1045321667856770.000
1269556338544174.500
1286102425641326.250
1947548438015907.250
1189448192432311.250
1384493617743965.500
1508253895789044.250
2333306059909693.000
3591427889463568.500
4410492448017965.500
6437794253918090.000
7282655413737605.000
8698858817263666.000
5790940231726191.000
15166276416855344.000
23597775436555872.000
22293690269295876.000
45640876088821304.000
62236781622619192.000
88318026890977920.000
80557539097263824.000
69573834689740648.000
157832675177825760.000
85925634856013776.000
65522731776040024.000
141626317191466288.000
79284002658545616.000
166740299970188352.000
141372335371448448.000
75186596856602192.000
114234296449351344.000
281053749254918912.000
294893083699240128.000
208702985291298592.000
251538132366599680.000
367892874187249792.000
495117568807636288.000
496005408618466560.000
250967548862504896.000
544847466640541312.000
712218774966499200.000
797801709611283712.000
432381067592898240.000
366089456441306112.000
810372975059085312.000
1212298701272404480.000
2813214065080335360.000
2338433847865567232.000
4792540592467397632.000
9968792293946210304.000
6728018282212894720.000
8127859244243527680.000
10048457158867587072.000
8281791814071128064.000
5087729859862836224.000
3065402979214283776.000
2348801552357593600.000
2068217291651208704.000
2331128630827508736.000
1204389311994368512.000
723131742178325632.000
809882196532406272.000
1193512937542485504.000
2566454836393737216.000
2153987412067689984.000
1267278143993454080.000
1143947413106716928.000
2914248302717807104.000
2586043652336009728.000
1348706557858349824.000
2997720404441006080.000
2966268543661895680.000
3868852186901869568.000
4388758805531748864.000
5109581821118602240.000
4806419028406529024.000
4957966966712855552.000
3915866125478929920.000
4659141266087393280.000
6921376138640828416.000
7050829367490363392.000
6988629662395979776.000
8449826923737582592.000
9938644970292926464.000
9956598591552647168.000
13659781220155176960.000
32684537849003483136.000
17270642024804675584.000
9275902706540279808.000
8048685979967740928.000
4021598437283661312.000
8607185163082229760.000
7974723183294081024.000
4144871817944340992.000
2278776358042650368.000
1350446677293690880.000
1149076176568925440.000
2744281751684700160.000
2655451981531572224.000
1424672348154529792.000
729037704218164480.000
365833022858925504.000
843013778628189696.000
965080786803271424.000
1473486182425538304.000
801237200240084224.000
858286799101293312.000
440189948810120640.000
514566898801129600.000
367710389371246656.000
227662341551312672.000
254763800140674368.000
219655501797650656.000
268581983395029472.000
297169950150612096.000
165736455157541344.000
264223971331487776.000
210446392101626176.000
244747098170191616.000
130254553350952672.000
300204502325875520.000
240014158596732896.000
283449002082576416.000
445945042012107264.000
243313350555248064.000
270350349264670752.000
361121923529482816.000
462808246933840064.000
279515936883444128.000
284469848293747904.000
251755302936585504.000
153183324999660640.000
159043624857020288.000
136958120400718544.000
118301756356221936.000
145044711373338784.000
83234492529641088.000
133049933699454688.000
128878001577363280.000
68186660677696760.000
88298403033489248.000
46664324271468120.000
46382262371529936.000
26331450348304916.000
20484152001584196.000
12446734957678508.000
15524149632745216.000
12471305578797392.000
7451218728151331.000
8660281633591992.000
7032238004302738.000
6029118163994246.000
6984858272881041.000
3874091643008719.500
5878535248272160.000
12247472435571908.000
13723286821397776.000
10953972390612978.000
12095085662647466.000
25489287918581484.000
35546597694454076.000
18735973497605264.000
10508350753852144.000
15510034321518864.000
12529586118057296.000
25350883896298824.000
38499887376645888.000
23430744796163656.000
19898288445207748.000
50312103167429024.000
42801139602564752.000
43004595371964656.000
50087939746578840.000
40557645713622288.000
23618226894112680.000
50497990612104896.000
46616085948073336.000
35372806932160384.000
41071344659329376.000
21501164490628884.000
49085371189137144.000
78646239365025296.000
48036749386365848.000
36181440405479224.000
86536936872950736.000
61223767854050520.000
37927185540075200.000
36868963713301920.000
38910096354448056.000
22935039895856996.000
33917273342924748.000
42887522895909344.000
61204648302962248.000
140215031209656240.000
137951692184972016.000
129252901871332864.000
68187450021807472.000
77388433306739888.000
120780217320662480.000
122089314147695696.000
261253454739973856.000
542292149108262080.000
295605353613093056.000
214380740103585600.000
284574281117306688.000
441677470162820928.000
459119593614668544.000
499614627841465344.000
301035126522543552.000
153511783926842176.000
246957457551291840.000
145976262762079840.000
81431074158838224.000
68508908063123312.000
84076102779034688.000
78935644584636864.000
43770741087831720.000
22314209737843268.000
11443678161160354.000
27877903972545128.000
15077026246658676.000
11844488161098834.000
15255620250106374.000
10796271653397324.000
11339024123683836.000
13513653465000508.000
7481576464835495.000
4393851087767448.500
8748213877904004.000
13297681744740550.000
6982641398931522.000
6939239077021866.000
14102592527891766.000
7908829355102597.000
4287831737603839.500
2168351904534795.500
2334553095652797.500
1847222075977596.750
3949173051266781.500
5849655631154301.000
7967200732370639.000
8403965319410635.000
13560659219675964.000
28109311976276528.000
23576478389320344.000
36643250439402448.000
47566012681949712.000
34241795671623300.000
81580581540561936.000
46925453662680808.000
28407971864880924.000
15889140807323948.000
13692511476487956.000
12461632356012158.000
15110196616620278.000
12626675947855332.000
7240027230403426.000
5812781495262149.000
13861009247864894.000
8127794151317958.000
4190111516672295.500
6449860961829690.000
15996962379572642.000
12380028748999362.000
7101031473112791.000
6272995640442583.000
3427234459230953.000
8561932376456509.000
6242205125548282.000
3439530305146051.500
3944898904271472.500
4314274851604386.500
2332080275969614.000
2039930832358615.000
4658897231188235.000
2669272937319392.000
3570900948501789.500
2114183924204185.500
1153011631735664.750
1089876175733001.000
1330586991160815.750
747263070466054.375
681810743284586.625
602970836819279.250
340337659861602.812
202489579228446.000
191907333387328.938
209354989247556.312
207557020506291.375
433626626712224.625
343995073481725.125
192639894580203.094
233837970604040.562
179142182809494.219
183138794382576.531
432240198099174.062
393606328139898.750
350980406517112.750
203432136614600.688
431697317104877.312
258190014812515.938
131879709379986.922
259940075378732.156
187269487376869.594
103149275931687.047
137671961932303.266
136511069762594.422
145417276503781.719
145116826829643.719
174089284582342.312
97462519280451.734
104489867370497.516
233173591024184.875
131118727325095.188
110303221005043.250
111028169129366.984
112365309375892.984
114789467428137.328
244456901404319.531
180558721775837.844
386797171756003.500
215820639102076.719
172329098363871.969
103066583391989.391
250590661465422.156
205987681749080.219
324998035059485.812
675225053692954.750
367623612443666.000
196232816527820.062
198254688218798.531
454391492915717.062
412714737394489.938
393270185480356.875
393433377934055.375
844704125343551.250
1315771273771805.250
1047535296752768.250
1349502504624037.750
775771314857177.500
614170324674856.625
564556132158108.375
327557036162552.312
186935323992488.562
231580890040166.469
178910106015159.875
201599016042161.812
258397079838047.844
136030809814197.719
187683561660163.062
453852524271975.000
662849677254199.125
357849893765449.125
550413356737847.438
685868674065990.875
791462633197588.250
755331656599636.125
832991805755300.375
593288401187484.125
1302082310081017.500
1983856794757425.000
1217457731946633.000
1433837131588719.500
806747607066071.375
1298535113095118.000
780245121441658.125
719693662066967.375
585349804746183.000
822915631896035.000
1275291498613605.500
1473890859447627.750
1494017831922581.750
1422745565953737.750
838293329660723.875
677881715087296.875
1438011135409840.750
762409643101908.375
1062030387043890.750
994427321352887.750
2697896634687117.500
2099697884810116.250
4917448777129719.000
7228632201473179.000
6364390777134153.000
15601900582348916.000
22745334395532100.000
24674226690495984.000
25368949664802752.000
40377934079543544.000
35637677104612104.000
45328715386378056.000
44232770299814096.000
25189598014700336.000
13939999280145488.000
12977223791157532.000
7688252654897378.000
12338325912423182.000
14850914502582030.000
15845757133423408.000
8112388425611350.000
10417665068175438.000
22730055485498896.000
26217442667253132.000
13779926760849120.000
14067247641815818.000
12477165556500640.000
13034222058640296.000
13117476575199558.000
18899456949715112.000
26850462625746704.000
26907393550200144.000
36079625303467184.000
43896378048069088.000
41657736487873824.000
34569984703459976.000
37364618700241720.000
92935233380634320.000
127316802610033744.000
153142019633828448.000
80082269444414912.000
65483349482285480.000
68016804618679472.000
89590858580543616.000
136556677796886496.000
72940341575057344.000
86127010370833200.000
75683797169825472.000
60456077695745896.000
63583682761839688.000
163794384955962912.000
226191710754951456.000
121310340970575552.000
152543040934629760.000
147556544043515168.000
149416282774653312.000
128200076220466400.000
165503750822552032.000
122578102317462720.000
65665659295450688.000
60995637923883976.000
69922047580717808.000
65477642054617760.000
145007304701676544.000
207341599845664192.000
125961554897866192.000
156594651720203136.000
117765057949607728.000
149205754228681568.000
144385317398037152.000
86993466238298688.000
44541583160264272.000
22703017780004916.000
20374457220231368.000
10444345437423972.000
11948964066393804.000
7241450317892871.000
14602585045124830.000
13103398974067740.000
7429959667303074.000
3796274873867953.500
4792878026759455.000
4435271340702608.000
4947517018580748.000
4561435126175948.000
3826556274048002.000
8082406500089951.000
12795786336275296.000
6504810768981034.000
3581999258048865.500
