35.657
34.465
36.276
87.459
86.537
127.908
263.351
410.872
627.689
1365.566
1392.331
2809.703
2910.102
4210.644
9504.724
9360.541
12285.248
29911.027
44793.469
45917.017
45321.160
92797.167
95569.638
93444.827
93409.968
151013.685
142116.061
318151.712
293807.467
291089.968
458267.860
413917.302
945786.163
1487337.001
2338467.078
2500762.690
2763412.471
2660312.917
2796949.552
2713053.856
2652971.804
2743085.421
2493540.061
2557579.267
5847767.312
6018625.211
7659787.736
15898654.162
14801209.379
33528803.783
45691173.331
92231585.057
183923450.052
168647190.986
166804076.024
172836790.073
348203653.485
324897694.711
508193545.824
507131411.665
1088361321.081
1122786129.738
1154515256.543
1166638714.473
1528941307.421
1543389359.869
3103324193.613
2812455376.523
2996965053.063
2998588115.344
2683531676.982
5933306683.625
8789706964.111
20684223991.828
19186603038.687
20519097726.550
19415718192.885
30964630417.304
70206081537.238
93005679277.133
216127160822.843
205043393842.268
193525237279.777
427037200985.676
639780329122.435
649802035282.536
957215728969.038
2185066196304.543
2971822896869.533
6885197702293.782
10165889612254.326
11139006329331.506
10833615441130.225
10045228320050.260
9840151034196.605
9653585598368.783
22394484832930.547
22449675460321.137
23589480673640.195
37115227735237.812
39379647687458.094
84081817548710.688
119092835951898.047
139820747963170.734
128231585227499.094
143666949227743.031
82335477886594.297
45417632404384.789
37532958707528.969
20360290590310.512
45285404213172.508
25497830068159.410
35426339282027.773
17968935625545.883
21607020585960.891
43475402888356.570
34463736612599.309
42510427292256.398
24738457457960.520
25673742277163.156
23686569797959.527
21409945899258.977
22910898273353.742
45480232094524.719
58168738293831.344
34598000707257.410
35442646669552.219
40105726850322.820
60653265288047.320
132651276453419.297
104862386520979.266
222910015467325.656
192103817333166.469
226549367111823.500
197543262608749.500
436257379555079.000
413572311048147.562
819101204419553.250
831946224225470.875
1258483658052501.500
1216796762602502.000
2544413887277658.500
4089285164670438.500
4314979785595558.500
3514773146960978.500
7715776148622626.000
9116899886640184.000
7376686373293358.000
15953369292640312.000
8857760676756660.000
7115553297788807.000
3834292986933423.500
4733989675813740.000
4699195384815011.000
4581196828163628.000
7215804857964349.000
3654214675243348.500
8845391910043611.000
4973111433359650.000
6154093701564545.000
8437604764497930.000
13337573354769378.000
21371106844822476.000
42967781538572144.000
48673091659202616.000
68683445403725088.000
85623717252768944.000
117207048102730208.000
116055958583341536.000
122185111842668256.000
118337302578582736.000
63133603343882400.000
74888152437911568.000
86953048415172128.000
81178321649762368.000
160839310356250368.000
237502815819167744.000
127829995431690576.000
68619771032392616.000
36338230956548568.000
21377996463869628.000
23725511777081868.000
21394816324939984.000
12314434038340804.000
10733145295352886.000
26409166727375744.000
28971696549728884.000
18970556086886756.000
23677273941627784.000
14266461449854470.000
8560359029750645.000
11903691186992486.000
11449934963823356.000
25359448945451744.000
40850988020502440.000
90449810456576208.000
76714138512135968.000
77340352603643456.000
71853428098413432.000
81015864476951264.000
122383343200569360.000
62243733820257264.000
38285353311783672.000
19857556741959816.000
42924671441764544.000
24276290612252196.000
25796474220205372.000
38775521874047808.000
23519835283696188.000
48460669438242536.000
34811164231327000.000
37054127598788944.000
21642726963277948.000
23805399939353344.000
19799837445423836.000
12378761480328892.000
6270919419266699.000
7636055501836733.000
12199029676863750.000
12822508145861720.000
26043292017451892.000
14297014964674836.000
19911787268188096.000
25934054984571256.000
21784435762822972.000
47560576902275848.000
43485031125503184.000
24676620001650884.000
14089286863710210.000
12103022043771844.000
7055278849686498.000
3603052259907447.000
1868156764114594.000
2318658408167662.000
1907809251280435.500
2733848744308691.000
2695436159837455.000
2334467728833319.500
4826511284451670.000
2717229892201964.000
3294269690202160.000
1809517289294851.750
2507256997555152.000
2554757069261053.500
1383026849257311.750
811852714482443.625
618951393233471.625
350071196749144.750
213981287870739.188
222151431218935.969
112509193608729.516
252920171984123.500
138762313058343.406
200861130834875.469
206525239394938.719
110225030548461.891
116416904314003.703
63880994348535.922
68425466037451.453
57608817279169.820
69802355522391.836
38193662815728.539
31619190884930.848
17439257490271.795
24559120821103.328
16776795545512.676
9471995150816.209
10807895342069.164
21733908617382.152
21663396667864.746
20301501127319.441
20930098891776.230
12407137840836.918
6738322094751.649
9951552232852.012
5749335655919.766
3524047822425.093
3739607246149.551
7523371959319.164
6929681766833.710
10290238447901.514
9658588807152.816
23216917664723.707
36572614750999.180
31060387844098.840
16848920604512.043
23180363798777.199
19826510161526.598
11045146794100.545
16512983812714.988
34196297119725.223
39286568913180.320
58321235285275.984
68533817210523.477
58024952907748.945
33073445105086.445
38472880968876.977
80756721842924.531
98231585124594.453
135168396526962.484
114256579063084.438
108880880887085.844
173295289975952.062
188774706354176.156
251240820535702.375
304928308530244.250
341255949380140.938
419124816600193.500
586613694118877.625
825028478466305.500
673089804260077.375
1470537496341945.000
1884754866056230.250
1829361701064723.750
1013432139914098.750
2148730422471045.500
3435911511076255.500
4924776260021970.000
3623519632995196.500
8755433570531176.000
5791326264013900.000
5920191202346446.000
3307318331803367.500
4310528288604926.500
2413460769022367.000
1261405355013826.500
1242671327623772.000
1904825059659738.250
3999074284625912.000
2045876141543583.750
4404254845708581.500
4457867427376345.000
6723158575204702.000
3732657401619534.000
2047843682939444.000
2521063004413384.500
2564866063547829.500
1401563223320355.000
747904377479253.125
729736126723281.250
832734579046343.375
1310800016885983.000
700654897626070.750
1092827785893401.750
2493518204652893.500
2400891959536141.500
1423769919059833.750
2086061036155591.500
3267222073941121.500
8370910312176849.000
12660567772051594.000
15645957975299226.000
23896821508972144.000
18884141081874780.000
46319860939396792.000
44240127154033368.000
40517758808227752.000
89024133074926416.000
136063733235978416.000
155754472905112512.000
90646796643555888.000
141769081835686896.000
81985795418463520.000
166515714444471168.000
117759768027173392.000
70664403953802400.000
154585156816001600.000
135964744144280608.000
157810412389238816.000
146168005896900160.000
150046910115297920.000
144007599568108960.000
221240849356603488.000
469666613009943168.000
271568427920405184.000
272020164633416576.000
265979627810083136.000
419244568542440448.000
221981727861684928.000
449761475049682496.000
526542802549359552.000
840004020915922816.000
467302527963289024.000
250398091622652224.000
199976850823085888.000
196577300679791808.000
241633249695923232.000
125665318120140832.000
271190693321032096.000
154113687862311904.000
138316554410702288.000
111881070824932352.000
138948414023957328.000
80277130583978512.000
71326047446391816.000
63713048520337984.000
35433831925716544.000
44866796147512096.000
34728849938201092.000
47940478556474280.000
36496171310602200.000
89680038847926928.000
66605418314713456.000
158952865401420544.000
87895266615671920.000
48451372932454248.000
64789072996167632.000
90381926696149824.000
75105699349169712.000
40842564540786408.000
49434062659321944.000
27585185184112952.000
20703498529423772.000
46987443605291384.000
42785119050139416.000
37170516036454216.000
22888603336399048.000
12131085258246836.000
14727626049847616.000
8346149112764086.000
6152337030151267.000
6645139276368420.000
15101544668802208.000
10519065320686052.000
10620105795586280.000
10755306069040414.000
27643354602993936.000
24916246942965284.000
12652755291974166.000
13968300462658240.000
7405222110296199.000
10565179267674564.000
15084240906777404.000
22489500314338444.000
45528461766123872.000
40637659557213496.000
82740145788059360.000
116859017030357600.000
281862352664490080.000
294191310077231232.000
260153682682702176.000
135791562988405008.000
142805598507991728.000
117198969211637168.000
68696179852083408.000
62441848529377704.000
61426112690356120.000
34061923587552192.000
19406338877473708.000
11435770788858840.000
6114056812958880.000
3145658003434961.500
4387943529603590.500
2246701210932153.250
2581265131845705.500
2361385216511957.000
2248022719205079.250
1363986060471955.500
1168520164088995.000
652186962072480.125
683490681584263.875
554714797329052.875
1482100418041285.250
1186676240628393.750
634548069328526.250
1425092643028023.250
1013022456144663.875
552344048957198.625
328506843725300.750
812547001252301.625
1135129436607795.750
2495242895605178.000
1984061435069392.000
2468988693552696.000
3855501420385629.500
7853322065778993.000
11291209990819462.000
14645464636008780.000
14942691174594882.000
12928849285817652.000
6977845232124432.000
7914798398534362.000
11434617935017630.000
25384540084079316.000
22291516948422712.000
20787295513242320.000
27761003936669728.000
44459240705889504.000
25748765536832284.000
27623868287194012.000
24300647073263676.000
28055116798836224.000
14447414000449330.000
13986904487322528.000
7725250906638922.000
7177248129722203.000
15275914434391310.000
7783744444676204.000
6873272590523632.000
6098995189088556.000
3804962463302707.500
4601557322074891.000
2519882339352996.500
1731656012238952.000
4672429712302243.000
4416902363972018.000
2618957432888621.000
1748639960388689.000
2175487097892400.750
2011323449307489.750
2611773977561838.500
3416676298962790.500
3905651431143474.000
2058739446336946.250
2062385657575065.500
1127576699287679.250
2430709393056240.500
2209619157429751.750
1770630589672294.250
4176600504302823.500
3715121833290500.500
7941286490054136.000
4525614039191090.000
2638231379214969.000
4299923796812716.500
4393031398289994.000
3757413488411050.000
2289162635701349.500
2424793616152945.500
3877459487386015.000
5930248084544206.000
8502209449033522.000
4478958083749422.500
2367403206268282.500
1886643008680855.500
2288923946438078.500
1172214481249908.750
1389198404342557.000
1011948217599912.875
1064582723199393.750
524974591040669.125
1248718914368940.250
1178166255892822.500
641840410464133.875
1328235151163581.000
1406577574613625.000
1993487672917743.250
2106250042680415.750
2057614769939669.500
2171851649732493.000
3248068389750892.500
3408036149987303.500
1860519495086286.000
3799716631723431.500
4720909494563327.000
6072020756305895.000
12809585106916752.000
17769919431952682.000
20882994679977756.000
19093487506974572.000
47481115928356792.000
42126159643809528.000
35413156934020224.000
18389636007274424.000
45125693221016840.000
37006882971416976.000
19682448507503056.000
49343068181020136.000
77778519110230576.000
45913980224335824.000
26722077151120844.000
14550153756382526.000
8185862335352787.000
6693582765925563.000
8441043342013847.000
4541268915561111.000
2322688713448313.500
1299030120989146.500
1221657411900303.250
1052875812961823.250
942049693931211.000
1202422339350542.000
1048188040859450.750
607734535637675.625
720020105242899.250
785779005602105.750
628434496019940.125
767825546770637.000
1064270106870624.875
2634800633703120.000
1932812849630074.500
1139444138080602.500
2324542815338538.000
3456616578374104.500
8506221943783945.000
8306558099571742.000
4653273347979493.000
4610635339423549.000
3014222462426455.500
3887332339411992.000
5723143389337203.000
3490767059938919.500
7141351505432268.000
5420708240424230.000
3099173924029405.000
7841069263121790.000
8409671253548226.000
6496081385845869.000
8265906022737651.000
10177989995276634.000
13828076181544766.000
6980905068958781.000
6163961428542254.000
5767129669106209.000
13848360121926638.000
14571491852821368.000
9786932902257978.000
27708279236817976.000
24625397273368776.000
19463230862307816.000
10603227070693644.000
13440797109293126.000
20254328394070076.000
19428119687491296.000
10489545892619250.000
22762139655670456.000
13140742603600458.000
26815602015280348.000
33738862651223904.000
21087745576916500.000
10646604609184940.000
15327256484724924.000
19026971332250376.000
42668191820681288.000
35065793313968904.000
17774451223348706.000
17668125037825664.000
10508750639626988.000
5899295911619941.000
13685241860328668.000
12691201710087102.000
7184319123157835.000
6698993538734456.000
13537600302336858.000
7222638286018084.000
14996332253310640.000
9895256863508234.000
22855999227500952.000
23641588910147980.000
24086750371853304.000
13191162022734482.000
20586359977365252.000
45590939086885160.000
38172098415730056.000
43364934059391696.000
24462440193959616.000
19528928816047152.000
22976800199430720.000
19409819966449836.000
43036347812904648.000
33484566371362028.000
18450089060891340.000
10622493425863762.000
23051260351573968.000
11766783807318576.000
6403014284107976.000
13357362078437944.000
11100439508994892.000
12766240186676616.000
12464898833401118.000
19028119071179448.000
39143881250700672.000
59142841241029816.000
80571154248659600.000
65135035388532312.000
136531425472932480.000
148000978593219936.000
140988259743828160.000
135938647328450176.000
163539799921117184.000
153844690520409344.000
123388261234010192.000
157301571650099744.000
209356983573574016.000
120199832708490528.000
134399093723160720.000
156483308315307040.000
79792390391369152.000
68836806830085584.000
58839659808850560.000
34578907611915904.000
88590646721663328.000
59265110198781616.000
77679643469355664.000
45260852793535056.000
41178005948782752.000
65442966168264248.000
138428473920337248.000
81448165245914368.000
49445436958182040.000
36469034609557120.000
87319281264983216.000
50820339302150808.000
37850909547370640.000
37753975918730640.000
45889685985767080.000
48769297634666424.000
26618039790878896.000
23591236637021032.000
26770302093403200.000
18460889764975588.000
18862139898458480.000
27353418805280396.000
34165249451127648.000
50572853522776912.000
50736633858460600.000
27610099507411088.000
23730838749041524.000
28025750270500688.000
14689480898635590.000
22758609486184592.000
28089963878296864.000
21698169847883868.000
45379756653310400.000
42341603209332456.000
25468465009861896.000
35550656408390784.000
49464506371545232.000
26685792578132660.000
25296397601317924.000
40619790570149256.000
24436403154716536.000
19195724570437812.000
24531447578616424.000
14157524885293994.000
13252498326080762.000
13956822933903082.000
28095144411838416.000
43648717379173472.000
35622136863916964.000
83970006003056288.000
113887866019899008.000
233361561570171200.000
139983399868438576.000
201517371045973280.000
248655142369232192.000
139508428235936080.000
76460307613473232.000
160263941766550560.000
198494943163256384.000
433066465368958912.000
535290232288358720.000
292896387356902976.000
259223481199641600.000
147898881063076704.000
142990353886250992.000
76783232417045728.000
62476532607740376.000
39004066328627096.000
50536892290146176.000
40710330760346704.000
36457293681467152.000
75880301254900560.000
43297755220957224.000
39645970336905352.000
39236960408454168.000
45405402840043096.000
39155009810876744.000
50843190708850728.000
51122159740832072.000
43170009762116568.000
25286223712156564.000
21629518856699404.000
12317861219178108.000
7116102656892906.000
4154827376887122.000
8777359010177826.000
10442877625601528.000
24209846671671912.000
13660756475014270.000
21725636757482680.000
12802525118787116.000
10637146131685528.000
15207983117267806.000
19544982620470944.000
50911058405114616.000
38872708146944512.000
83924855766491792.000
48497255820515016.000
24860643256627248.000
24726911372508228.000
12909381881878416.000
7592794721110983.000
5898783834785267.000
15987466008182410.000
15145690016472544.000
11027597746329554.000
14864569208164830.000
15483299635207434.000
22728231499605796.000
26780999563156380.000
21555147424678772.000
47848886878623256.000
34567328812162068.000
91330590692120672.000
48568664386711920.000
66723575581900200.000
74677417621213184.000
41493178730171312.000
34750343129664948.000
39601602390021464.000
92499171162228416.000
50951205515900136.000
42878441455590120.000
33627076749080884.000
37687530520319552.000
38037188275183776.000
49633874000463736.000
38001205181287864.000
93345593182852320.000
63484797946031896.000
78185036232885472.000
39220976375961720.000
49512740809829720.000
65743795105268576.000
144615114511194688.000
82684607584605520.000
44190539743054632.000
63082020202593744.000
138024092695563936.000
68816547818279816.000
149573745188087040.000
83441782363244352.000
70075503116683664.000
147835560000099936.000
199943304153702784.000
430434978696000512.000
244875050924060416.000
140008480995616960.000
160948650547004960.000
88200836044758528.000
49468109039824496.000
27072928129834744.000
41619342766150320.000
47100447924174912.000
24482801755954332.000
49087632601769152.000
71481743407386808.000
42984285314095672.000
22104360497497844.000
13074928260857018.000
7550330908844308.000
11612897339968212.000
15100927163704688.000
20129360962231276.000
22003020290733824.000
23071133058021540.000
13447891176296426.000
19355898209261992.000
11318988141197872.000
14041751748763750.000
14249207984698958.000
15834857068212506.000
24049966683659168.000
25668816260580996.000
23380623500021228.000
11678491821409514.000
7033840294104135.000
3570783110337027.500
8155167941928017.000
4134347314094607.500
4234314229823367.000
3245027782754504.000
3319850167638723.000
3583466256939787.000
3932335110752044.500
3254886525126445.000
3718711703437248.500
4551072552949003.000
7140024639075323.000
4243042271879555.500
6840020418985135.000
3933826069661584.500
2411955707821504.500
1406909177673067.500
818133831371341.875
693160440303554.125
573106054229152.750
1394295844855847.500
1270496914120948.000
1175035414558882.500
2719609864127723.500
4076043004198174.500
2041854394627989.500
2719316378432769.000
4181101376870362.500
3691691649245649.000
4801764783363108.000
4843995272060721.000
4115105248476043.000
2517641771828946.000
1791802836148865.250
2386793445678358.500
1217030973965377.000
614970399036267.625
669907849194512.000
408380720391471.750
644678194474809.750
685779660609798.875
596001550777033.625
789309305680163.500
672627275746247.375
630181492932547.750
725948850707249.000
389796340493419.688
842121347493268.750
1234787405412418.750
686515295621468.625
369449282295086.312
186837292471810.125
114711331490148.688
69993922723382.211
109554488186933.781
133807740886942.281
108722266913773.109
63797035442955.516
143027359314618.938
136653867509524.281
101475392863736.906
55437248960761.211
136244784289358.453
76648596541451.531
121481928730573.531
98445921382189.156
54986821512432.242
76462898806197.203
63634053067176.797
131824776399800.094
186713286142731.750
215875399076042.812
201719772881547.719
183007040246225.781
423172156267345.125
359268207828435.438
190011727817808.688
439428214825777.750
239049875838234.281
120649078013635.375
175545926423907.844
433865834214655.875
438799970638266.188
459440715099362.312
331173358781085.875
186602696891707.812
223494101011294.156
340145967854563.688
353438060511322.812
550447994491419.250
732079287431131.500
718301709961480.875
395974442680882.500
616736980249952.250
786472067239216.250
399192554603095.125
408918842285749.125
411402845421271.438
553624679914562.125
1405009991007707.750
1485752387209627.750
841499960781239.125
1215468523205957.750
2741234829092101.500
1457780721566013.750
1394127673179677.750
1976759458955549.000
4450389175938439.000
2309462416564881.000
1333791851885317.750
715775756493803.375
391293456155419.750
612510526638545.500
810271456330836.375
1188986307300518.750
1302754122758382.250
1366751674258820.500
1861948824162407.500
2563064987495371.500
1448246775838082.000
750313526816622.500
1013013474733305.000
2162996976606043.000
1320093510910017.000
1100037640903221.125
1003363733952191.125
1335802026323954.000
791578339994220.375
654248978213982.000
332101393844696.562
320684257425379.688
193232523604931.312
193477028041459.031
258367138266324.719
133692406724648.312
144389581117953.719
133530169554044.828
216076382477673.781
432413318086631.312
255377010364976.312
362634907719130.125
453479724969509.438
310969122429348.500
353141926345110.062
832620778489474.500
426235709692313.125
555975905232054.500
662195700377876.875
575151602061047.875
1269016856926680.500
1361186178766506.000
1908321702792191.250
4128916995805984.500
3790310637258276.000
1938360114182611.500
996550949716283.250
1177949159152360.250
1881879915797836.750
2487945695302979.000
2461356119656451.000
2003307166302047.750
2103659665726822.750
2634037894084572.500
2398816605203076.500
2690572499812216.500
1934890356797090.750
4583912818478210.000
2458493873347202.500
1885290204769797.750
2472962185723160.500
1285036206363553.000
729857368530055.375
726758050357623.125
994851711359086.125
552939847622772.625
322148727200779.125
679685502793009.625
372412596201573.750
352360561890096.062
818324652389572.000
425579598944795.562
228429641261793.688
207205705668774.844
225627825436367.812
116312037907907.750
237112263958057.875
185533810076962.625
248048621624966.250
378070528712100.000
322528200063088.875
411144071668367.250
433335119307522.000
450176808895621.250
309214955687334.375
177951773550909.344
426132101252752.688
689085227877088.125
1088977839423983.750
652538768775863.250
751956140096431.250
704561692995729.750
695990046456332.625
386074128593080.062
427967525269525.938
398265572822601.188
796145603502026.750
601575326795335.000
676109231276308.500
1469881206000705.750
1425658483730896.500
2100723215466314.250
4511217350315262.000
2412089746920252.500
2019644416514399.500
1062168614586438.500
2276779586344376.500
3319000287849622.000
1882043208990828.750
2207334620919259.500
2427011147736782.500
3353263765385785.500
4023984904756390.000
2391030623623268.500
2408612481744825.500
2669463434446716.000
3895218286014632.000
2143171798825922.250
2010228165784158.500
2508959168588919.000
2734312920991155.000
4289109032856177.000
4619893262397766.000
6450345096308912.000
8527606943750881.000
11893828249388964.000
25906578826230028.000
25597666758109016.000
15151477010047226.000
8305753097880961.000
12449720421745960.000
10645740955917922.000
13037421652352460.000
11276355586158936.000
6663763664313256.000
7960555424363793.000
10740599288642310.000
12537154857332384.000
6884814452834310.000
8220298403595166.000
4403971207793869.500
8894045423948247.000
5902473621938598.000
8336954550544441.000
13483591741730094.000
21089341060585072.000
49987601674869392.000
45351654371983096.000
35505489461832024.000
40012365158778320.000
40506645537013696.000
21064303257515152.000
21468879922272032.000
12196790116139808.000
24970649759782480.000
14980619914205352.000
7981804897782530.000
4513219010748285.000
6130874574253403.000
8297925244514970.000
4493471952884033.000
4859168905364411.000
6684441568348689.000
15595201384014900.000
12700894667925224.000
27409825163114460.000
44344824515333312.000
50988465254285432.000
72913241406812816.000
166025574338571968.000
138031799457064432.000
151565170137422560.000
215775936487375168.000
478430924894849856.000
510377437986955008.000
509960430390201216.000
293946463898874496.000
152788722613465664.000
117572838766357904.000
158065372210681312.000
81552617649094464.000
64438758871199640.000
142724518040397696.000
142602485624581632.000
122168109672667520.000
261395280940162400.000
152922626634888704.000
115008714828808256.000
131812732658133328.000
294729770903315136.000
261597895791552768.000
260400642406483392.000
362778450046533824.000
956709945709640704.000
500962916225813056.000
720568516124667648.000
970586940594073984.000
798342971667285632.000
885800329312981120.000
462133242092551296.000
435320114076700352.000
483470711059928768.000
369496774577292352.000
896561279154950784.000
646856959909429632.000
1397151863671739904.000
1657231095010982656.000
1300112216025770496.000
3024360800802558464.000
2244753004776026112.000
2145852380261752576.000
2742575586270750720.000
2276683398491836672.000
5404084904115939328.000
8328056182538294272.000
7088908177865149440.000
9831760977342826496.000
9585159954960936960.000
14377731964983322624.000
8873261004344725504.000
8472110116640843776.000
10191253955005958144.000
10149084853580818432.000
7534860523001795584.000
4533679279417673216.000
2267872389626527744.000
2804147751300137472.000
4488644124600890880.000
6676702733277755392.000
17509128727528898560.000
9323788904221331456.000
7210794725473113088.000
9285309226081579008.000
8368671274509861888.000
12841835572573274112.000
17916797918928801792.000
9177264322463930368.000
10310199978188464128.000
13809805359122227200.000
7876956127109018624.000
16948686380685174784.000
13792905751386181632.000
16454038173779173376.000
8953515397285924864.000
10247766950769803264.000
5200604766619218944.000
4545706563320503296.000
2421863187675174912.000
1463167786375890688.000
1281517857172113408.000
1187548258933227520.000
3087653949443995136.000
3792680067504858112.000
7919864841377733632.000
9140894217595909120.000
9354792974273128448.000
14307478706643566592.000
29009134379399159808.000
32441760336888438784.000
27292634108166160384.000
54398673240280268800.000
55455972435862241280.000
28104427145106522112.000
16840425680971393024.000
9617990645587441664.000
7445019115704029184.000
8693487685465368576.000
4675773935916268544.000
5224056059733102592.000
3109568654224668672.000
1653320044810809344.000
2396689906468545024.000
3100197684979544064.000
1627253944964268544.000
1578361312563575040.000
2192727937942241792.000
4928842089807134720.000
9854155884249778176.000
6964946502299269120.000
4353090408245191680.000
4480660099053919744.000
5031318951509683200.000
2810465600578617856.000
2692963478052593664.000
1424636570506157568.000
1211185588253877760.000
3019514224623497216.000
1568811423671619072.000
1331375360910213120.000
1633101616088363264.000
1240198466455573248.000
3049013089309092864.000
2467534555201653760.000
1509984234529346560.000
1553682239184069888.000
890718629250064512.000
757168895537106816.000
878291214829471232.000
760296224116505728.000
1202987542868747008.000
1251462822433996544.000
1544268813726201344.000
1312463365405328384.000
728914347553956480.000
874478328750453888.000
504315264282933120.000
380518481483150144.000
480057162961057792.000
272029272429244512.000
302250968625021696.000
467100172365273600.000
527438416153230976.000
476663301108376896.000
267172255638970848.000
302613248758461888.000
248051170265581952.000
144162883864874240.000
133324017169249584.000
74650534162098000.000
72099693464850512.000
70789047225640256.000
43456776186705960.000
43920203425081616.000
34375017304916352.000
92971610225966160.000
86046031423389536.000
62699780132700488.000
87477845952763712.000
72126208469147824.000
38544156111952040.000
79515538648953744.000
40521445198671456.000
24264554412962712.000
27615990413665104.000
20125496978900276.000
24802961925649064.000
24256893496181260.000
13008030096648692.000
7478349519862372.000
10539845473593504.000
12202918753630126.000
7443201636110249.000
4162760445430329.500
4517008509018769.000
2421078400485206.500
2400568815762117.000
2734029222205205.500
3377226801352008.500
3218634449049824.500
3679063814422225.000
3812251521261548.500
4926143518863898.000
3483192708625854.000
4668238391027136.000
3422360783975822.500
7258503697135517.000
8490523552413759.000
7530448960521329.000
6156266742906538.000
6965341113710851.000
3903703974104341.000
5887003024318864.000
13129800284953612.000
13411545977439488.000
27844080368448544.000
15089439875506572.000
11587154620882800.000
25517951773819212.000
28072636816546332.000
34224092884816504.000
89758280194344608.000
69713437073016576.000
87628465755239888.000
132685598094697248.000
293715413678353088.000
215624686628445632.000
112824443084606448.000
134283148874258288.000
111166315442432080.000
120232091257910080.000
113625925733649952.000
144127665229543040.000
218114694576722048.000
542495252988617728.000
805128535513604096.000
919604427564849024.000
665194168099323520.000
699341090710580736.000
925052399935795584.000
515731046039098944.000
353289096918917696.000
200868522353729600.000
240434270054396416.000
239045766965626816.000
514043662355971520.000
681650239201755776.000
784147138503442176.000
412767632540086400.000
518551863090800128.000
423539798544041088.000
461649082244573888.000
381453670667772096.000
236117981357207296.000
491637481458719424.000
275702650929322464.000
298913718256028032.000
238747744715955072.000
136432300661740512.000
299153778664008768.000
160138342226672608.000
140604631154420640.000
163709288739459968.000
88534270965348224.000
110455684861340944.000
131172750249561600.000
76141450308279712.000
113933645425913616.000
234395148473411296.000
215809956577573024.000
538973553840267840.000
779960552312791424.000
789994728413838080.000
1635808165780584192.000
933640220863864960.000
805653037051739520.000
783538985896104448.000
465447097216556160.000
359597017122897728.000
501268428094738688.000
704833696241485312.000
946694720117261952.000
968085994476697728.000
1314381249631275520.000
1475297933572926464.000
871045995046665728.000
979688691576704896.000
953857916973190784.000
1318748315499023616.000
2082171711237064704.000
3141191732034436608.000
2737518149427121152.000
2791863075473758720.000
3837724797376697856.000
8993056973101058048.000
12322612381598973952.000
12547607591009542144.000
18307804833722636288.000
16661000557278418944.000
23724276114319257600.000
14272364576988706816.000
15197777012587413504.000
8606891813236780032.000
6719279628157071360.000
9325588386648918016.000
5554182129941470208.000
3716257025970420224.000
5219061598173613056.000
4250529218519487488.000
2378592778438431232.000
3181872446151041024.000
2923727553516086784.000
2408764151484274688.000
1470701292605731328.000
1530400661254787840.000
1222483480268156160.000
2821466470293753856.000
1555173413350426368.000
884057381277666560.000
461800583709902016.000
275256940018793824.000
208488265392788480.000
109221153960161472.000
64300554546475248.000
84214150194521904.000
64160238276789456.000
84946307278819296.000
90546479525728768.000
50943206663639448.000
43288205902003888.000
87494104695257584.000
139389326965574592.000
84991178500822384.000
44575421679723944.000
25254874358867376.000
19742923981490032.000
10385851762463234.000
14451051539240400.000
14910468902757406.000
10491675002084200.000
22710809052103228.000
11426774212351922.000
28757557678335600.000
16026109803279532.000
22631940463532140.000
26914944914227664.000
24407935792195284.000
14195376921457112.000
14895848909315930.000
10750021723684216.000
6075121322008925.000
6812397487989070.000
3360202391331614.500
3420761730589231.000
4502114031229496.000
4397284036198852.500
5900378336409619.000
7939686035675487.000
7471825898424798.000
3860046218596511.500
5891896223910626.000
7832083719415850.000
4166715768705161.000
8498553998456540.000
6992015507202408.000
3785339022773147.500
4088476574319608.000
3538794286819125.500
2033519155958144.250
2106364992688756.000
1167659943361072.000
1511101809206273.500
1848160430720203.500
2105598436270565.000
2068298758294364.750
2362191620164076.500
2399756247552571.500
3631391849155260.000
4460736743449608.000
2696284278763199.000
2417137473270355.000
2105099320653104.000
2165945809365130.500
1221831275375647.000
1456441944124455.750
1458823430275928.750
1210788219390706.000
1267675590260228.250
754568782391760.500
558690117293098.688
341080218333260.438
419372689235892.938
614697673190685.625
761130326967017.250
636196247004275.500
358657679891580.688
764333777809591.000
556464960655649.250
784771258617269.375
424550726625707.125
386858698275584.812
786603502976549.250
818942305648506.750
738707253728505.375
595937087799844.375
559836521257521.625
810722608732999.625
426922076485250.250
218677691057125.062
209117498767077.344
108607565180435.922
225545661056644.469
183866414861244.688
171492020721459.125
469061278338675.812
248740197289288.344
218072841441956.125
338220191128932.938
711076515688355.000
774283449988372.750
1127322523559245.250
627090185693412.125
989043468608094.750
2646188882982132.000
1966162628477615.000
1067727954261414.125
1313389095133292.250
1326283432926354.000
1272144052001169.750
1469805405385964.250
1023557121634352.250
1261824907088491.250
1839923712863586.000
3910470625583452.000
8470240475878743.000
7106768007795686.000
7255215710857686.000
3707825811196929.500
8711685027239443.000
4586852921694702.000
2512309882421662.500
3546540563058927.000
4007996209568234.500
3688366956853628.000
2285157201601476.000
2021912472713340.000
2384200321757620.000
2331967483289813.000
3767856832681690.500
2029897983627705.750
4126375814928888.000
6316910728889640.000
14929577734301198.000
15137142177895708.000
8695179845095684.000
12479320830398380.000
13924455516946856.000
7737031079471585.000
12236134828043010.000
28046302712780880.000
24056323442872736.000
13429751802668100.000
21522636219704388.000
12430364605409554.000
6545051454024883.000
6108978851361414.000
15452767621454968.000
12025601166047302.000
12704671356617886.000
19614624959934288.000
21488000289765284.000
11600462140488252.000
14049438821776274.000
12665764170245448.000
11944765154840166.000
15570619529566720.000
23644568427737664.000
18741966832888964.000
25931327355766044.000
38563896284302200.000
49730787174054200.000
26789745159056528.000
33764523810045964.000
70457904474191496.000
89874848648745328.000
136844184364276464.000
83624462247391584.000
75930234319992752.000
159866680374796224.000
81159780264507712.000
168183083881059168.000
152530569071157184.000
114378871773710976.000
160565916384571680.000
88471695164880896.000
89836353527037264.000
69926451615693392.000
37379860261992008.000
21111075839124224.000
21770925764294668.000
47678693956891224.000
37192805268782088.000
36840653969598024.000
19332018016539288.000
23252312820333348.000
34225319131347384.000
21475646599588392.000
21820044859406268.000
19923302467114684.000
20024838808339004.000
45730183663647272.000
26270659589962344.000
21343488474623064.000
21061014720720060.000
24263592937764440.000
22579225057173184.000
25679210069499840.000
20898443492997252.000
26961731983272880.000
40491283534386816.000
51786178166407992.000
50904615525801784.000
43543457890337496.000
49050614212957376.000
25578505183466548.000
26878894872305108.000
22797973211146612.000
22802198602350120.000
33636003502127848.000
40951065221001992.000
48480074187015128.000
36853720013125328.000
48717022881451144.000
44172777192152280.000
25265714384303264.000
13575208198634772.000
18949432933485296.000
20950397170281684.000
27910628638057444.000
44405725117377648.000
48673729969650248.000
42202708756627584.000
24754849165598940.000
25297714218082056.000
23408885885580244.000
28175081316053892.000
14661502598546970.000
22171171847760660.000
12790478873910658.000
27742771301610444.000
21796215818408300.000
25500691505599944.000
13748560789125308.000
14713109932694498.000
22385581710527244.000
12761569991789618.000
11197382835862562.000
11036050524835820.000
14828242366982730.000
11479270564586932.000
5766763799278981.000
12834464751174836.000
6861093712587164.000
6799897400354964.000
6979359396434185.000
14235645478419802.000
7703638266514867.000
4605488285097199.000
4591703458573574.000
3960134835952286.500
8436237574955227.000
11072820473975350.000
6432398010950766.000
3443659949513925.000
8100830944306904.000
7243824344276991.000
8053756603471122.000
4092267750449627.000
2075571643701597.750
2487228577961516.500
2041691571751981.500
2114162744856531.000
1142965738894085.500
704655729860931.875
630531867048434.625
351592330363358.938
345198472878034.562
385606823667047.625
192217872346783.219
416447292080305.125
310178031213626.000
184681127817802.594
108600141931617.469
95367188933607.875
234365615477529.094
340847720933098.375
185489292877225.562
188367478591624.938
433395434698299.375
436395465539203.000
384953064367304.812
427900742936322.562
422300330776869.375
425870328719864.125
229691057900196.188
132784492265815.500
193075282384187.594
465381121066553.062
595802105840424.125
1245844799697482.000
658647169909471.125
1429703835834637.500
1182839375245426.500
2588046020491682.500
2273787623401705.000
3624128836908037.500
2139544151959309.250
1183644788595059.750
649885573120853.375
326739618829219.125
197110157736048.781
210048770947614.562
116547423370194.094
62881279896340.562
98258805185350.062
251351578934143.469
128731133351950.562
170771261707187.625
247457555302224.000
189644137581639.594
112929737730744.359
144417321799759.875
95458149868470.688
132114315942916.969
141114792139642.625
192403574349925.812
109219342673502.031
106423564523811.797
55293478441864.578
31589037023572.434
74833764885394.547
63315304640587.242
69489086886375.945
76081360809550.484
76073486433329.766
67011063806174.273
145338772121351.188
115027631753117.422
120133954231552.859
145052225605786.688
78570289786056.688
40981550735582.523
62498790504995.109
61917043025512.523
72423101497378.031
72374124640879.641
59425444515292.828
54426218228025.789
29848384063378.371
17906049500006.637
40643029235199.578
44914636448622.344
58818257833833.000
132935802805858.422
178689102503227.406
233825904687812.688
328313331307082.438
365761974899087.250
829208140901051.250
718592145877433.625
599652383859359.625
741515467669466.250
1503806697302227.750
2322453324719496.500
1346531976697988.000
798032962960628.250
440841894497090.938
403542490052323.500
631018521853685.625
389097256070279.062
197492925486263.250
446714223279306.250
438285137885585.062
413451929930346.625
227421039137433.750
314569861326621.812
310376386205241.875
685346109732521.625
1016042076429018.750
1280066053597237.250
1421211810549291.500
1956557191973744.250
4852468526796331.000
3211862470612632.500
4142745335866616.000
3256244758326130.500
8221879001319896.000
12269651860414272.000
10783383978467732.000
26277739472708128.000
13426297582191302.000
7336467326948071.000
6703131367064020.000
6929639250217678.000
15197081958995104.000
14648794871928856.000
8489054515189547.000
4685109511395568.000
3257760765229653.000
4246822590765997.500
6767544412035553.000
4011852317674164.500
2445071433066897.000
1372536535918020.000
1121478129112883.000
688526940802624.000
651347248932190.875
994834240193105.625
1022956871672737.625
2161888761926936.250
4353848931013693.500
6810839849808274.000
6247739601075524.000
15611211758697306.000
7981985557139787.000
4159924729875299.000
6349613929935277.000
7402538614028907.000
4339101345021510.500
3669445598289181.000
8597297126828484.000
6918971745164018.000
5782367261479551.000
6581246363458602.000
15962056430208916.000
10583801529207038.000
11232325370519940.000
26536865277331516.000
28537325287524212.000
36780069578584248.000
41585267861651832.000
24849609456809992.000
39080375689022664.000
85615383418533456.000
78631468722100752.000
45983134196054336.000
40146927448176352.000
24432922841910324.000
38854767922536456.000
47772603499238440.000
75729156030204304.000
69648531412642736.000
87819478352718704.000
89413247498273840.000
81311305067350192.000
84519113721676480.000
49503920636155000.000
47375441728721696.000
49501558018401576.000
47618485438006216.000
43001283469833872.000
24267507481651176.000
27112497107602724.000
20807604909157096.000
26999603204534092.000
15865901631606918.000
8181554896346839.000
7894804471514853.000
6818278012612388.000
3739848374642760.000
2302884061357765.000
2056651169040085.000
2707430130916164.500
1416883790028608.750
2231648801766599.000
3338632706947291.000
7359646457775246.000
6973423679314238.000
4270484316412467.000
5768561283116559.000
15121800585704056.000
11512609557501116.000
10732633345285228.000
28315669561301320.000
41132792464125016.000
35694382471114400.000
92618662787415152.000
72357893831106000.000
35831574145148884.000
19839557822927908.000
22527871173523404.000
28168247013194388.000
15134123452849968.000
12982876001216070.000
15951009339919000.000
10910764557479694.000
13213324079159848.000
8085783191914498.000
4480660279555599.500
2564576164869865.500
2642297589783487.500
2405675231100412.500
2370871995638472.000
3356733233618348.500
4894997327347937.000
6966663805977196.000
15594307549608206.000
22549094560166992.000
13603979103721006.000
8172958845844192.000
4820150120928138.000
6351686188533157.000
13057425216792390.000
14251913074576052.000
7696719728677986.000
7916429036264103.000
8287057006589326.000
4543251401190704.000
4590647775101904.000
3272025163024582.500
2015367951376723.750
2591983213644580.000
3697513617052689.000
2009106650419574.000
4514312779882941.000
6373921038603685.000
3619711125365377.000
4332230974230687.000
6257529425110113.000
8347557111030679.000
4703625741865830.000
3504756405726274.000
2064596270938041.750
2459726017667330.000
1490340159352212.250
791132862737993.875
1256857605716648.750
656572978112173.375
1446101086709968.500
827628184214774.375
688125754590577.375
710930255458022.750
809756241240267.500
569067526405876.250
617018513303887.875
552948601872651.312
639586414751991.750
585925042022386.250
325351316572912.875
413848967947960.000
243622953924260.844
261397761978616.375
197924306229691.219
189838750809918.031
98712176456310.891
110551274759225.688
101926697391361.047
260608353677305.250
381173529300010.188
370643186511086.438
432839395697138.812
552763007842366.688
759481745195080.625
617621786725504.125
325942920983121.500
789743027916799.500
1109383622081844.375
1169458149520149.000
584547934048425.000
1197919695623149.500
1897619748962063.250
2721581524657757.500
2340916292261827.000
2549734087417166.500
