36.044
38.905
40.718
65.628
105.442
272.997
442.469
666.875
1527.662
2323.906
2156.369
4583.758
4414.837
6240.340
13463.692
27131.522
29238.846
26921.781
26167.320
52648.876
80833.637
81807.975
119965.713
299038.358
450882.778
448350.187
482802.174
964044.641
962773.084
1349851.667
3090170.017
2983478.130
4504254.658
10245079.419
15503550.073
33550975.546
49948924.436
50080533.189
47332701.350
101285674.844
153773319.567
162944375.673
159780502.803
344393221.003
323433616.999
335611090.767
353643209.018
344318036.899
446767673.067
486411600.410
454037269.540
1093869875.690
1643859789.093
3834583300.767
3536841875.607
5145442339.625
5594621393.658
12373394328.535
20443231098.875
26920972894.691
27437570928.615
28236773130.529
62740110074.735
61816128640.784
58036240105.757
63190737229.423
94493898117.834
225799844203.701
230868564573.982
349030172219.577
338613400651.973
738652399398.071
1194442991605.735
2370280167543.360
3482580749649.689
3445215787913.162
7456012321567.250
10210671886133.596
20817464015723.117
19971970330215.598
42178715497197.047
41808956461138.484
84232226213021.203
137066731016288.375
141874665590003.531
132380198893869.359
271315260961135.812
252471182411704.844
412779871667439.500
404290545489920.312
856510107353033.875
1272679156670785.250
1228885276119678.500
2855533269618174.000
2827283526635712.500
4358883071848799.000
4021281297191403.000
8875022271255261.000
11248665141671484.000
24774795631524732.000
49409544409479240.000
45438035782328400.000
96655749079121104.000
49360198025514456.000
44508996388256568.000
51614582426887016.000
29080687761727012.000
15732149521894932.000
14305932411762980.000
8063853871965181.000
7556061072389892.000
9122720697344694.000
8660323019855344.000
4797388117237548.000
2869350076918635.500
2362227449463831.000
5110161237634589.000
7240855181971177.000
15758535723752010.000
14401655712808694.000
8684168881439338.000
8006721451644916.000
4057596336639098.000
2389575808507748.500
2077394816792845.750
2285363516884770.000
2394493350730454.000
2025307913799159.250
2077179191073982.500
2602755228227432.000
2361094678185922.000
2387717090619028.500
1258757050169084.250
1391799581731790.250
821109788760596.500
586377697832583.000
687295782829474.500
1407530100128295.250
1342211832027954.750
682306337999751.625
831331644821860.625
1234234863327297.750
1199912880152598.250
644499263536467.125
711445328794528.625
1493511325059822.000
1960053709563186.000
4540342596700277.000
2692540054810835.500
2604945696128423.500
2568208624752130.500
1896581768651725.000
2820185792478103.500
1926819143991429.250
4715256554626412.000
2529757554048125.500
2580456670202101.000
2230169726700378.000
1269335752645665.500
682638143195941.500
1553535529861926.250
1504108874201797.250
1266287450104123.750
1225769856845387.750
2672389631488402.000
4284108155800903.500
2408559840230593.000
2853274639474890.500
4565430627036864.000
2486708979353601.000
2305866681375418.500
1234690357479488.500
1090332795389941.125
1290558500783900.000
773476044202305.250
1224525372383379.250
1493700020071507.500
810752730744984.750
474991982526403.312
635910374570704.625
779622089250833.125
1225665428718950.500
670383876864658.625
782441809169153.375
1159328611550289.500
1234176434218704.500
649109615147839.125
703374584561759.375
802591741813330.500
1229935362217406.250
695652395522601.000
419962079902405.812
428987664525996.000
238071243601766.688
338679590986247.062
424390736950937.812
413286755824300.750
210113333572759.594
255636935176242.094
218787771983781.000
127084263584602.609
197373553667697.906
108155245487803.125
109395052033152.609
55895932269548.742
69737748073232.320
139090335088908.188
182886015263290.781
108478686671240.156
255448675074821.906
396111352697528.125
451708158385864.125
455616880585004.625
597760363803508.500
1556362693077429.250
854019341845107.750
771950945788392.375
391996619897824.500
227160347892779.438
130587878760496.984
141112835950901.094
134869015677821.453
218866260880939.969
453830739686600.812
267685685903291.688
332969742598613.438
346066280866065.062
454261217760179.062
425108485005095.312
375076453089995.812
213709127093383.156
443996121945364.062
429170093880305.188
348665751740363.250
823732023737720.000
450284024556507.250
359056231466682.312
463852561709855.562
439444732758175.375
714405483194211.250
429962225218479.938
235062872519088.594
359198463032841.938
359771546708787.188
821682427454966.625
447500551102638.625
337132299790702.750
182238120590608.844
440031328000934.625
401812724075330.000
617280665448397.875
844083729324182.000
721763613873706.875
866329782881613.625
651801572137239.375
1416281986067185.500
2254281167847400.500
2575938020823195.500
3834128671211986.500
3870060517510237.000
4622776292500165.000
4517394199159740.000
3951826623927371.000
8453803951950669.000
4966690902974412.000
2810700211174597.000
3583724595485010.000
2017541962935694.500
1126682568702765.250
1210953599525287.000
2742246808769976.500
3413988553509651.000
3893673009957261.500
4987959739609174.000
4720176843963907.000
2826675081653992.500
1552686056356067.500
1521087118435762.500
1402888868189167.750
720966367684316.500
838213232135678.750
452071271027534.688
481292691580289.375
256285215523823.844
229039963288223.281
367862265213014.000
393964492154648.438
412780536891659.938
225181822441307.594
255285273547070.281
362516575701907.812
328939800371111.688
736710020984416.000
1054932448406197.750
635770043802025.250
337890797053737.562
856528813616050.750
809596203030338.375
436476755535112.188
261432849565792.469
421522868689179.500
346449256580218.312
363164983126886.312
875045416635371.250
1194211162363260.000
1440929262846861.500
770149620703299.625
605166045770898.500
1511167765766714.250
1193033197861654.250
708130187444238.250
613805699323298.500
658333403952252.375
815502266759152.375
635807222997123.375
616773210057489.000
859374969903444.500
859339609285883.875
1142499073017873.500
2820692863068791.000
2633431077836565.000
2463101351392831.500
2708319918351221.500
2162345187149433.000
2175965590928263.250
2413788587046203.500
2585131861524581.500
1995402448286268.500
2014978171663025.250
2373177438307999.000
5033304799852951.000
3608676245043186.000
8727669726138198.000
6203528388607334.000
7364170100341131.000
15732008797205262.000
11854385353954900.000
13593845885463752.000
21073386777874120.000
25739088331269152.000
38525624702392104.000
38570283119835552.000
49144236278971616.000
68853043593659424.000
89590523048116800.000
147060870114829280.000
75485564784695888.000
120966816022006016.000
72633228844348736.000
175325361617405088.000
134610935414692208.000
77817605204137296.000
68816181109375976.000
41000704987363408.000
46186151115182632.000
27693631975604836.000
16504569748261566.000
14506010943061810.000
16542081764523612.000
26503779696448936.000
14203019313823528.000
14832450065390286.000
8982354759954361.000
4611816428620092.000
6936776694968934.000
7378746634679274.000
3817900268949772.000
3735623265266283.000
7847412620520092.000
16303380279185366.000
14909569568321952.000
16338460605295000.000
12250312137314560.000
14413392278150120.000
13450328218721568.000
21298868449926344.000
51777583954187824.000
52495488771196168.000
65162862260010824.000
158324406014596576.000
138116513839854640.000
309950986742397504.000
426412374526913472.000
470138489535205056.000
377098650169737088.000
511426457410854016.000
547249748102099392.000
744388400405826048.000
824750002752734464.000
486105747400936768.000
282940033750980416.000
443128082921837952.000
377804474996923264.000
467180360737443456.000
956699051711001600.000
1350232109250403328.000
699881363812866304.000
1819051334678632960.000
2364047404276195328.000
4735937954926735360.000
2566853452505210880.000
1421280344137090816.000
2875759573357837312.000
1571791189897233152.000
1302768076770094848.000
1762022854595258112.000
1729147134922831104.000
1337698919520479744.000
1794011800264240128.000
1555127627515483136.000
2429494570189048832.000
1349742324863254784.000
1241100385479339520.000
1489145368931887360.000
1239046763371658240.000
2674048731107943936.000
1482166676819666176.000
1501860684437135360.000
1798005819707863040.000
963186739458365568.000
884592385879319808.000
914721476961515776.000
709947995337418880.000
927499000591009152.000
883816890894844416.000
752870012785650560.000
1726571210855085056.000
910655576534845312.000
1488454858890892032.000
1269971988843563776.000
1711994528617661696.000
1523199812006700544.000
1723463183610541568.000
1238732212532336896.000
1521395010272700928.000
834038892250860288.000
962824698650874368.000
831074723500976256.000
493170265019454976.000
441495651289145280.000
231327715178505216.000
239263724019270080.000
264787650869933856.000
142362597017434000.000
160287416687367936.000
120887755495955824.000
269631028024127360.000
243145812510602976.000
239960695695684352.000
309415511837837952.000
271664850724924960.000
269466506674814304.000
157244733687341152.000
252150302806599168.000
286548453033281216.000
302987167713635776.000
491396909403893760.000
438929353611269440.000
239683577513560448.000
135880751529941680.000
210083634550574208.000
501822126151095552.000
499339899146509440.000
544078259492640320.000
443826583990132288.000
998161577408152064.000
1578997904835436800.000
1652478252740860416.000
983511071006017152.000
534805749205186752.000
307373702920247936.000
174210651733345856.000
157595919088208416.000
137659604903245328.000
219154799034492928.000
293854065601300992.000
164375143278187552.000
249881878729656096.000
128631944957015568.000
76281235619682832.000
43255828386199648.000
53358459381136776.000
46783771948884144.000
48600534325933128.000
28947294150416484.000
21770521499485072.000
43813398893919888.000
26598786902099064.000
37421195881318096.000
78953988306144720.000
75094294160835120.000
85499464217866576.000
44073927789830824.000
35966242622435560.000
45022745947678088.000
23868134321666064.000
26233661857100504.000
14684258915898154.000
8024714127462838.000
4231549159712626.500
4326983158030381.000
4464453209704644.500
3488081078169760.000
3891225047137068.500
2290086746120581.500
1993583054887277.250
4289645941671390.500
3762113246957833.500
4235323936227452.000
2410351643153734.500
1413324139629822.750
1958004289720387.250
2015518146979181.250
1109095662873357.250
1268859979153126.750
678282805437654.875
1066065970938538.125
1109302760108623.500
1238493244315426.250
2536117048878073.000
2716810780509842.500
4017785319878121.000
2028126726686113.750
2612870667160084.500
2722370720988175.000
2035761907882273.750
2389996774928473.500
3822230835277036.500
2148842783716616.250
1166204942430233.000
1377101097667429.250
825829202484462.125
629295712520901.250
772190870161907.125
628649297602838.125
1495419888673536.500
797108034283968.375
611428443398135.875
643113124194831.375
339321827965230.938
378291363431565.188
360651138556045.875
204271442968498.531
222052872121391.250
121339773395013.219
72996981709544.562
62933132979767.945
37704868922653.945
37038501500374.945
20515681313844.836
10603238853997.309
11143373678485.871
25504727745004.551
18497129932441.359
22913334113378.438
21045963223537.141
25882968065852.453
21851768564788.762
20002216170029.680
18912788641808.473
25816341606937.898
18028927340350.137
45101592010580.906
55976528386242.164
71328787816535.906
41215884335247.258
21919652996476.742
45798518719756.320
46661108138991.367
56585166616563.383
56325218688514.953
55826422846289.125
32959132363331.074
17361136352147.883
10449569371112.279
13237335712765.889
13580989755689.176
10366672252983.619
10461321201481.377
10963339230763.943
23444003538661.996
11925009919101.369
13883699131403.553
20857592016737.469
45986921464227.094
35675778658963.875
41651925004253.469
83448603777580.719
56318122912935.133
31394450424391.949
78393019730642.797
43469619515557.477
71069245474808.562
36624840640946.141
31212585210402.684
34722708678890.426
76837006426277.672
72996217970389.266
73513047521727.906
77558078013891.281
127335958566743.625
185099428556761.250
240829520363372.875
248699472034472.375
240848849560460.625
192759701234671.562
245559875480367.125
135753900413840.672
111243791748694.938
103575213307958.938
109085431465627.297
63748695587658.172
62646214450657.453
55996699321632.047
78514566262355.000
71880351816003.562
79302194703400.109
76378843566755.234
41986450003770.859
31269137433436.234
77305997228615.422
46357302155113.906
67703892401572.680
40712998896156.648
62745642544719.773
33147395532632.344
42925833919804.070
25392955072957.094
24775609185290.539
36571812888928.211
32805822819296.250
32579661263603.352
40220007204023.648
46616886465729.273
39623630758933.016
31928360933368.879
76099041763259.750
40663617189119.203
38573135374714.406
37822876017871.805
78827062836677.234
73599239182252.078
109641629364538.312
111390533433253.781
256574394556144.500
262790606677448.250
233318224346604.938
245766329538225.625
239918467724436.375
377381547732928.562
395987269989018.750
640017589803812.500
356126021673167.812
441488383036785.062
347169283820374.188
354099080154203.500
480351950910481.562
387360604026714.438
786625997953473.625
1221573272786347.250
658257314485745.250
812128886452369.375
682826584822983.000
814565658820497.750
418766994015280.438
441543675329488.562
469328628201453.938
247392117093329.250
384429737364507.188
461592180678397.312
449005059554304.938
480439775402719.062
464526607950743.375
452531272663154.375
432601760110961.062
387582491204569.188
423023901833400.625
340368433328468.125
379317256570434.250
412711200231085.875
215391002608466.500
428298124825534.438
382793435176911.188
202357732570991.000
270482485759205.281
139125664363855.812
81522765317128.578
64748466795634.992
56065784966338.320
60744639993495.141
34133797984445.066
69543376248582.336
38821475105077.258
58436418853741.875
35405376546679.203
83871327387027.188
60602258238908.359
66109065943735.172
60311878345566.547
123808284566730.922
146524347763639.125
101296001270063.828
59321534310751.562
124811791620366.219
188371752445719.719
116061238169398.781
134445920539455.062
213420525001553.812
125677788644538.609
256532292479290.438
267480989875724.344
341032693207359.188
750789566097101.500
1072461057822440.625
637639640080022.500
615992267529065.625
738998363593717.500
715503662762069.000
1541958014002378.750
1077741170920738.375
1323527711703254.000
2866646836290837.000
2027444608617634.000
4168526212510853.500
5043508950911594.000
8266331220541686.000
9279020095189338.000
9024590302452536.000
8359005279459634.000
4445631682431837.500
2659357716492486.500
3430069516006406.500
4032760289631230.500
4461687534045331.000
5099034294407849.000
2730144751417481.500
2171387177201217.250
2066334137583130.750
4779760690985401.000
4393176521371400.000
3478800983741551.500
8799517606704428.000
6694970708140383.000
7267824252567725.000
4009817247998114.000
4160495142108239.500
4792562344171887.000
4821111260463394.000
7150943868678640.000
3782546637821082.500
8868836055447864.000
6739152192130392.000
16550016075208472.000
14345152557400152.000
7660317437356795.000
7862663963292819.000
8715842523324240.000
7093481989755819.000
3631890451292261.500
4624472692117713.000
4491857971661209.500
2506641734975575.000
2032537973972462.500
2288692824884445.000
3512909471303057.500
7198109532750818.000
6692434690637260.000
15189385457106338.000
12191334212245196.000
6241029065035700.000
12601455453066232.000
12643501654484566.000
11506633676909788.000
26439767745722592.000
41353710952227656.000
36618977591412376.000
78964597941352016.000
47170447089242160.000
74594397118512384.000
157933947261400352.000
209261100541330496.000
121561391016969872.000
161999197677280000.000
172986563165997664.000
148728605433525504.000
224033287694323072.000
214600586651994016.000
272910045419719392.000
148073691533536992.000
224944553503555296.000
495177426225002944.000
426192250837477888.000
442094585139564736.000
267942013918476896.000
567631965239934208.000
296117804426580288.000
217927059167371808.000
237516029715773760.000
229663516245672000.000
257072330885245248.000
151123516350209568.000
83626633120560592.000
118005233349331776.000
159205250098904192.000
135002625295576784.000
278690279977188352.000
240515505392906784.000
282783196448487872.000
289739779017823104.000
210235516656659552.000
213849990794646464.000
132026514444387504.000
153180377598815104.000
79493125719783584.000
174821569428465408.000
161148107868754240.000
145624061613532992.000
208991179469993184.000
129624122941273248.000
154071592674340928.000
81656845877102064.000
93903031171641568.000
72056840404914128.000
36330862009696224.000
21514258588373268.000
11694087110212592.000
16065873628839574.000
24674605278233244.000
52462210594214712.000
73231883394431200.000
171553852936129152.000
87884938066388800.000
66817399465349256.000
87038252506331376.000
45597124142486672.000
46663905698705960.000
41571938550977640.000
89670487216927088.000
46458544033981128.000
69588179206723688.000
84078778997764704.000
74401315860317376.000
41056920054385064.000
39768187690265624.000
82966825046901680.000
75866418171050432.000
66200547353214112.000
166030907447663136.000
126417012423809632.000
135219897422565008.000
171537254805150656.000
119503262124464464.000
170897474834385440.000
151833126790584768.000
228365365436910240.000
496158983292129088.000
291996226076525824.000
243553137190689024.000
230713379232277344.000
140338537351330704.000
141634518912351360.000
136670909912585712.000
172518355875338944.000
89468764426537152.000
45390157709135608.000
36846775944071368.000
37803025403579832.000
51293783607349752.000
27166763090487784.000
39957357564754408.000
47954081031374824.000
46598528664814048.000
44934632821336104.000
23907680637723072.000
14413253302397784.000
8039142709442956.000
6213657558136208.000
6405533655810466.000
7864018147363408.000
4648321683138995.000
2519819951242801.500
3589804180509744.500
4567915852751148.000
6159580070642591.000
7843005987495804.000
4095315115932389.500
3917298129508177.500
4398989752439650.000
6945341651669459.000
4050549612954572.000
4759547994695972.000
2827220531275908.500
4534898508231018.000
6954375412540535.000
9023107152586404.000
8773974084159659.000
4670084730525515.000
4986929185266420.000
6912437984653740.000
3581884735492834.000
7472221972069077.000
15823285969151842.000
8936040272889939.000
7582927882270249.000
4270590977557900.500
2334735978215787.000
2079884578591839.750
2854444245101139.000
3696012916578543.000
2104837140507209.500
4526553118826384.000
4372427792863533.500
2251139268863155.500
4585702572377757.000
4136446610922878.000
3860862868753873.500
2284218983443905.500
2562261731733610.500
3621970162575725.500
1960203386234340.250
4253161195389440.000
5089120334351259.000
3931618391213053.000
8068654983529221.000
7524532435335101.000
7057576019540148.000
4106288863585753.500
2268569303584847.500
1949687356129807.000
1085866187597454.875
1312034236572731.000
1417495460740815.250
1064623496659882.000
1440623006208362.250
2195682704093161.000
2102644766082297.250
2745962339377824.000
2303496592746623.000
3502036823651380.000
2017596550418541.750
1061144028465684.375
1525395491496147.000
2244477378809008.000
2467076849252458.500
1376026557937635.250
1259853254802911.500
1068706098555824.750
1431836872619348.250
1184874977501286.500
1163152037099035.500
1519629320092036.750
788525931245149.250
673095363801624.250
819300898075486.875
430252965305453.688
239911328012706.500
250912818908624.438
141478460419952.000
147297086500696.625
208151393364618.312
212984802217452.781
217755309045801.281
130645055576688.719
125271406846691.469
260059123514580.812
132822299885292.062
189947628295511.500
112625015630780.484
232174626663325.219
205876595629474.062
240545911831643.281
332379941510080.000
331827520207756.188
883666712967142.125
1315456290785713.750
1364995475651798.250
1151642968601215.000
1234498726202352.000
1573774365478826.500
1931774372666062.250
4884943307392187.000
4264027609794400.000
2288249144546012.000
2672172853020826.500
1542550489631280.500
1474651639303044.500
2214801988896629.250
1136406282764788.500
1509240337262782.250
1487445016654821.000
1179412344153631.250
2856300399162255.000
2624809701355929.000
1996806114581731.250
2354904210746990.000
2202962831050861.000
3531930899239029.500
7494780321946895.000
4141228099032989.000
4364975300628850.500
3823545237182683.500
1987650968316595.750
4056429192473829.500
4689607158937251.000
7256026262693903.000
7670387578945964.000
6614725209466713.000
7699898124945684.000
3934087785677455.500
6179470942437229.000
8489103038258982.000
8408861320733082.000
7893632774187942.000
4265738835087432.500
5077582743201880.000
5099035748030358.000
4694160400258194.000
4078156710837150.000
3507800236758784.500
3720657482839628.000
2241324148944833.500
2583768403487635.500
2344424270772775.000
2775280154193274.000
2594176775188453.000
3768151654536664.000
8448661024807959.000
11307014181602448.000
6252226779997055.000
13256844878010846.000
11354702388842730.000
29467445101464072.000
26735376394497240.000
16063795580010774.000
12053809636870116.000
13142755145007358.000
7107184067059872.000
3539642230734580.500
5017466445332352.000
7509377312410796.000
11413767304491850.000
16000992498804722.000
8529931335578897.000
8051541233748321.000
16569519319447064.000
23655756091251336.000
21046900847850376.000
26219333712428188.000
14949573073246332.000
24066569177366088.000
12551734034807362.000
27109253724587296.000
15535913752484714.000
8465455771346110.000
8625326093679568.000
8960292301245271.000
8636032992787551.000
11275674415083752.000
12614115540146826.000
6995802798741448.000
16616466363775334.000
20100217421739196.000
44097272494950144.000
41870025378290592.000
47250439242036944.000
47737341267713912.000
26853337405629996.000
25506917234613816.000
14430235526519660.000
16667929972695064.000
9035324032211004.000
6501286657098166.000
13080880011485896.000
7729182535023604.000
8740371843840429.000
9130955696918526.000
7404886520966896.000
15256387138133208.000
7993667165491596.000
6631759609532486.000
3422131552352923.000
1940974108648842.750
4219239769775318.000
5164263323394334.000
6146908902077607.000
16728216734454012.000
12689851242626580.000
13897867350296386.000
7477235061228107.000
16357781330612982.000
8541881808295189.000
4956554586288494.000
4084374325314661.500
4974572359964730.000
2645670618067345.000
2651486267160298.500
1471050707589787.500
1131362938044716.500
2297892999616917.500
2505784473208907.500
1329889608069257.250
2132992879551568.500
2792454988488234.500
1492502141087315.500
1282945530993528.250
1337404470096271.750
1106853392221342.250
1388044113065831.250
1312643400184635.750
1086632873871671.750
1323991481085318.750
1897514429126164.000
4542159214688479.000
4699540002192812.000
4264694401607043.500
8952263721088807.000
14441393285052364.000
7785713124359388.000
3918049404192186.000
6198752723144095.000
13377670261001022.000
6844188654139890.000
4103149519207573.500
2361744374454667.500
3545335342880034.000
4184300727010183.500
5128004285208814.000
4403696526577377.000
8839370456441550.000
7296472879999586.000
8752491578778689.000
4810057525212550.000
3477443196638062.000
8701507385890290.000
7091565375719596.000
7176326634562135.000
7687302242638316.000
12095453386094860.000
6509073708191911.000
7561799311368852.000
6807405159254845.000
9021887813045634.000
13618169166033718.000
14538651003007822.000
11075661207364260.000
12731693602298236.000
11097609108300354.000
6735546412832455.000
6158972492693470.000
7135991591210747.000
7743192298259894.000
8594406808308009.000
9207602134945320.000
11435891325655576.000
26076726895423692.000
51854397327593056.000
84441473664714240.000
50553693716663184.000
54174845990150488.000
89240001949270752.000
80538598953180480.000
94160738554684992.000
65361217320363992.000
70730167658718344.000
79484875345086512.000
80524971465582352.000
86815273141508064.000
171537656753368640.000
261305962422493536.000
310476517312434496.000
446334660889717120.000
545375504741347456.000
463761269144478272.000
685010737530657408.000
403237578530192512.000
997428059093341056.000
686333838786464000.000
852210546855506944.000
1718201319830456064.000
1443086477118550016.000
1402812216297125888.000
1545982904412813312.000
812457859049179392.000
707294615202327552.000
873698953898900608.000
494823437611335488.000
395001968216899328.000
376506327825114368.000
814080217665758336.000
453141972567674304.000
974581683316864128.000
1403574290007024896.000
1752870112290454272.000
1583860164319922432.000
2439283004103017472.000
5210627891345315840.000
5150575317578423296.000
4197590679765582848.000
4714835861365888000.000
4977808227138696192.000
8063941857356430336.000
4749198743694245888.000
4143747948771514368.000
4415265478861067264.000
2397326987428132352.000
2467216485785037824.000
3262443782085302272.000
2483978302580292096.000
5544867249492941824.000
4956071671984736256.000
4116711516190192128.000
4730545715265026048.000
4171909211592967168.000
4378287170246134784.000
2277597787507145728.000
1258205337141841664.000
720246193648295808.000
1625687623113660928.000
2391384420369458688.000
1375816836576389120.000
1701630309007230720.000
1598560209447302656.000
1516210154836574208.000
1421675341870642944.000
1721129270950797824.000
937570494356023296.000
491060862558586816.000
415872808014857856.000
519875839388610688.000
381053880880579008.000
481444354280988608.000
507533776269414720.000
420965572316887104.000
232348728867870336.000
267969661851947264.000
258462802290912480.000
412947454155857024.000
493288176395044736.000
476118236959134400.000
383895055467226112.000
482081802215726784.000
412120811916675392.000
248571773227296544.000
246966581853204672.000
147090233622795456.000
81886703442849888.000
69687211512504632.000
164857507202012384.000
210157728823399360.000
128334662261952496.000
141092303948865216.000
172225614202608192.000
254544481930178656.000
313994076813057216.000
213033074527310944.000
270059862967636256.000
214886710220796512.000
457258874625841344.000
1004910368643293696.000
696329000509278976.000
836640166801398016.000
457210201000825792.000
519651874833931008.000
848822881040206208.000
502033500015251200.000
738493550358846208.000
724726427776624256.000
1018845825663273856.000
560244787518396480.000
301422280726820352.000
161583507859292000.000
84308214130969328.000
72419409850136656.000
38041011899463680.000
36264090774606744.000
53202602775471080.000
29114028083129284.000
15499161091542088.000
12347263101303606.000
14384379997654494.000
22064322850511140.000
24015963230656088.000
24201090430017480.000
20088951219506816.000
24081159035810900.000
22035525341309808.000
29104410848593976.000
44717747970290064.000
22947737528404668.000
24333258364223768.000
14317727973745596.000
11821038938509922.000
6278500279384859.000
3751099994498931.500
4259304248104236.500
2350549242052687.000
2539061896702836.000
2121316296012780.750
2750170397071929.500
4321190086996897.000
2176690491114815.750
2100843670954262.000
2822508007260522.000
3906894320479705.500
4063800394434363.500
8188434819074014.000
9091037545999970.000
5135199401669782.000
4704757737294892.000
3902890063735407.000
4557165748165053.000
5083652284354465.000
4052385976582809.000
3999750311012780.500
3844873168755079.500
3920670178859433.000
6190240747276111.000
3729135994167410.500
4803164354735391.000
7147541388977990.000
6324555716926824.000
13572026484055188.000
13702165445157808.000
29696573513080484.000
21104260685835396.000
21701315569146520.000
45747732117634144.000
25367145779039604.000
29548552965559800.000
21664856818037184.000
24199147413376548.000
38654837147558808.000
20912955881183720.000
48381398671617776.000
41719742871558528.000
93067762684123232.000
52485160242590128.000
46132128825665832.000
44858917885931184.000
50980515162840920.000
37416565050459216.000
21914213132994432.000
21154724932909236.000
46728560185021768.000
69488007889793112.000
71207705018453000.000
85126235899125312.000
48419520047186696.000
27444907197296052.000
42579151327818264.000
42461519126516584.000
21574452805412276.000
25544726575368720.000
13593452442226398.000
7113421266932840.000
3733782541802541.000
4702013938071524.000
3536806011061825.000
4977304037416378.000
4383742306190332.500
4946112571709736.000
6692287552313731.000
3640586221465204.500
4193239999064853.000
3880801220833343.000
1977722170633296.750
4057572136364269.500
4669213832450399.000
4452740627804718.500
8800313199500632.000
9269438675018776.000
8997928497324153.000
8087013667646352.000
12434413973521762.000
13355488708857436.000
11994031637277274.000
25843590335708228.000
23606262730970764.000
13252484603141772.000
7006853294314545.000
9205485183818672.000
12610726212735168.000
11915769613650348.000
16635735007214948.000
14779798718007612.000
23298987646314204.000
12014660167975384.000
6622644538886975.000
16388123378882354.000
15785178443509170.000
15703927133995064.000
8829376890430345.000
8452599419110659.000
13803730488420890.000
16097314528675564.000
20455918433012912.000
53402373136442128.000
36967146380980736.000
22206668938985572.000
11450440310583676.000
26707520213219712.000
38828861397092480.000
47364614818607816.000
36628926333647288.000
86253377184246656.000
65812957806354928.000
92180661342350208.000
95724860200011872.000
79067613246186032.000
47329687049474824.000
41774158624569776.000
22174684532401080.000
25294810670867504.000
22963999276163760.000
36805773754274344.000
79348668341648144.000
45400314996319544.000
70759532172718136.000
38159253697255552.000
52920242927739560.000
43353542263858496.000
24503845099477332.000
37005094558002776.000
44816356827795368.000
22522520966602400.000
49527157634778000.000
26980284711840816.000
53559335062903784.000
42136919701520560.000
48186947524810968.000
24576523656481852.000
12559487080383898.000
11445370200987810.000
6529423413994278.000
7763500070128825.000
4249359142044879.000
3862751580688105.000
1929323857297944.750
2011229525373436.250
1239258258475604.500
720327136114388.250
783913348724171.250
831523201207991.500
721137611562991.625
381064604731620.750
834238129631320.250
756933102628880.500
798756232118192.375
797409157425720.875
871539321183395.000
1437319451989282.000
2304741900178542.500
1323232563697054.500
2132785784399634.500
2016150645878545.250
2078178141019391.250
2842815348721354.000
1914352993393403.500
1126054804613869.500
1316499911186606.500
799431550738203.375
879930589573538.625
1362937933296678.000
717181029368773.250
1439872839151102.250
1498194384927684.000
1308675575614012.750
718059913197006.750
1058319387950196.125
1491925645928882.250
2038506478631950.500
4553079859061215.000
3801406256094575.500
4856774865747453.000
4453316483319731.000
2638918199217152.000
1431728979777885.750
1419779868701617.750
2005745991886146.750
2179771898191205.000
1333017320586516.500
682860557935532.000
727855481148286.875
593187010743944.250
864719513471288.500
687601921005690.000
1064771861931103.500
1055671247735754.500
1263005531150405.000
1928799739399823.750
4023130787945109.500
3706722924014392.000
8692552937563683.000
6624944148835902.000
9179714392873210.000
6510063166310661.000
3634262000074996.000
4250228122027535.500
6882060720911266.000
6169622627908865.000
7678195988565048.000
4110526825678659.000
2120883405028961.000
2515218902982253.000
2214324737984416.500
1131191200960526.750
1416549393825886.500
1290935681965097.250
771557345726031.750
1208378400577938.250
623651525934962.125
1305809615417679.250
744554142643621.875
1524612067389476.250
1287139931247494.500
689766386455731.875
740748456924207.375
388179824121162.562
414065863835194.188
250001885540591.438
200725596215859.938
221068079817685.844
245527449343285.969
212014450916980.438
190331084311242.469
239016446198307.750
381987319771832.000
468679631657908.812
240956423156467.188
265011757237037.812
391043747096227.188
402225129103086.438
397450645133874.250
417345083150003.500
236785204196524.688
491525466067264.062
699057864363404.000
1564827903160020.000
1939307004764597.250
5152471627278298.000
6566398920638119.000
14756934248393298.000
13718106758941238.000
7642695934946168.000
11282753043472530.000
14352856049297714.000
8380805623098813.000
8460177476812684.000
12338468415550462.000
6212988603820210.000
8277533653672739.000
6369476191110237.000
14008388111522394.000
16669926987900062.000
26460879691519668.000
24477019886505008.000
20861350763257192.000
12190569027959908.000
11264538834796138.000
6473110394463477.000
6262410702557987.000
9148725768669554.000
7957992322822534.000
15928516466991298.000
11554963723031686.000
25294796787377156.000
13829479612191382.000
20193583832789376.000
26199216507821752.000
29680866592030608.000
26317305710883620.000
21097782409986992.000
26831707918078488.000
24008392931913444.000
24163645701256848.000
26241124939665052.000
26022482110871960.000
28122783881896752.000
19911068470902332.000
21032584697787960.000
54158082595607648.000
50847397125166792.000
79327118868372096.000
88603613986838032.000
77592844581705184.000
93442538319887792.000
80497311220725072.000
162497433827706688.000
130306323260042160.000
66701689501908472.000
37314533856658272.000
94706371211493120.000
81167997193919920.000
95860928544544896.000
76683567183978400.000
95842652911769936.000
141813487103636912.000
156858417625796576.000
135842565688431872.000
125933688798147808.000
66609667403650384.000
153995789511898912.000
144177816375643744.000
82516046891697504.000
44624572441456640.000
44390472612662632.000
25396006236302912.000
23212151682904536.000
47312444426408976.000
24320172773202620.000
25858562199509868.000
14150364041663346.000
20338801009836940.000
23583637651331544.000
13750327726480830.000
12416360440758288.000
27313362413615440.000
25991607855690236.000
39790924494938440.000
38234539727891832.000
48546977597221640.000
50529898750639568.000
34619715157265656.000
20058557326064016.000
48679520172317664.000
25840764088359700.000
13707667467942482.000
10896970298475688.000
10635008323671930.000
6231691860217897.000
3659155535963046.000
7620998713921695.000
7517017257228589.000
7847116463969320.000
11192706907367732.000
13721851645710906.000
7053680591400165.000
3895854757935244.500
2044792850766712.250
2584833714923080.500
1490693755074990.250
1301191522409478.500
1202556318005692.500
1278042165979406.250
1047645231805953.750
1315226888461710.250
2731044944771078.500
2633102675865953.500
1381419118886032.500
1886144703532620.500
2618501669674132.000
1921088814123523.250
2264711997141283.000
1235124139742541.000
1459229213787603.000
2265044740406077.500
1902113866517379.000
3939120491721318.500
5849042464006188.000
5796542421893279.000
13040192296332240.000
6792941748446009.000
4142595120238185.500
2113900781172586.250
1060661140731722.500
1217507109666601.500
2746111209045461.000
2259566279955942.500
1290716765862186.500
656830358498509.750
333933476439340.438
374968001759370.188
327653886608434.500
169213563926360.906
402194612463064.625
597010061677469.000
636524777619968.500
1481972798697858.500
1320505438502170.000
1209334516057143.250
1375389068390950.250
1953855447165748.500
2296846797957480.500
1941172621339419.000
1092823124798151.250
1297568563640907.500
734331798701901.625
586019455735402.250
356364033949269.438
837324470595104.125
831137014198035.250
752586113704912.625
404473848213049.688
467968023627642.688
318316408704436.250
411523421513869.625
347739331994982.375
456714070655718.875
339859371341145.000
327757807823745.812
751682344317999.125
562265220496680.688
1257561449303262.500
1793464820334681.000
4133297220633029.000
4190087993153112.000
6225411238058908.000
6146685847301016.000
8856844809723913.000
12712835238837202.000
28428047440990532.000
28125127557491020.000
19780851190241924.000
25706693226776672.000
27442998435688740.000
27000777019222588.000
19097547515888344.000
19122322406864688.000
25480077686577936.000
40020644278583616.000
46908642253665936.000
70228518608178192.000
41271582375095496.000
38513387512314168.000
45745809587522552.000
73925973863481040.000
79908133456808464.000
88017458996760576.000
86547589225464480.000
92530126518930384.000
110453273999722304.000
65624835507082472.000
147954556154842816.000
158307674515737600.000
118022316612498816.000
64670817972711360.000
157492974580026944.000
155997934330546656.000
159490403011453600.000
136900509597036784.000
148697635743404416.000
76082945570086352.000
79551822001392096.000
162620323555918592.000
131221175895215488.000
148069354799767008.000
109132820010844016.000
250767293362585376.000
253103676790928416.000
150092305787981248.000
123102838108745808.000
144387720311721408.000
72926083035961088.000
148439210269583136.000
81967173883436256.000
43038025185038048.000
24834480432010848.000
12930496751284838.000
15535264083356892.000
25272088955568100.000
14674938054843600.000
14865125759982490.000
21339047869356016.000
33686785085442244.000
71031013592751704.000
42565443586339208.000
36689634972245808.000
48799760838682912.000
50607388858590096.000
65667868621305928.000
65303188643171264.000
35816661092087812.000
41284007090061504.000
44927421649108848.000
38430440284446224.000
43589475944395160.000
44980953060288592.000
26855769749894796.000
22243956190132564.000
51606629559643152.000
27441265554333636.000
15274565309528330.000
13563823146206648.000
10427079470282440.000
28035439249542928.000
15062016157817204.000
15191345845611312.000
10604868589135966.000
26322445364824388.000
20645736879753012.000
20981627985479080.000
26334204349196188.000
35229935559641136.000
45890228053261544.000
26491447829167440.000
20671502303136360.000
11210298432521214.000
6931142448498562.000
8366612659845534.000
8057947183576188.000
6520893938756793.000
7562216458730620.000
8437527175899552.000
7609420266887351.000
4176545705269564.500
8509475468509625.000
6213759994316557.000
5960368351979736.000
3713348093204334.500
1885178297587786.000
2156772871787482.000
3199564358409593.500
1930548643588296.000
2433132046408062.500
2270166889406753.000
3388719809488073.000
4322617651289178.000
6605084568686510.000
8346276605207194.000
7005439306898998.000
3872383868081797.500
4661667719579997.000
6523435882347142.000
7195829076153209.000
6276099586252502.000
3389634118242685.000
3175605114998164.000
3985389041474097.000
8684281652076258.000
11173945210025420.000
14770235081464504.000
19124986647331176.000
25257129244359180.000
38488327112248328.000
33970322734461540.000
69652017433890664.000
79169227668267488.000
164962443765138528.000
196989823717146464.000
114816335657030880.000
127603429296564848.000
196422421342045056.000
197560508166682208.000
274695561857024832.000
211968305260341536.000
287817243069571840.000
219510001781947136.000
279072137841075424.000
443056499854276416.000
487128898919052672.000
535016706766714048.000
288661267741888192.000
284864675562682784.000
246054260094708800.000
499919321914284096.000
494715825186089472.000
532683754856002816.000
514144273013547520.000
434758895839585600.000
347686895628511424.000
359804098541596544.000
352161886620263424.000
195197012293814240.000
269592841386021152.000
219489871849033024.000
482185517529117632.000
402828484350854592.000
242832374337336000.000
381380833480094976.000
537146864142184320.000
741539161360668672.000
674302893807429248.000
405459551405862720.000
425693113530916672.000
221446632866203200.000
280424904140331488.000
403399046443444608.000
438059361504223616.000
360864036407544896.000
204711340616777024.000
223425697324512736.000
507585903632341760.000
357082493442170432.000
534171691766797760.000
439901910146038720.000
435494816947392832.000
422079521910044352.000
237228950661841984.000
134607250215335472.000
118642286985653936.000
123782412656519488.000
67624683119844248.000
41835906603217536.000
48450554721846776.000
45028115008779152.000
35829814256615096.000
86362942601996592.000
82364103215092720.000
48563645835657472.000
50499462803875696.000
27217059931100576.000
14870845886130436.000
10744766969793684.000
14061588730411954.000
22709645518651528.000
25823351137959892.000
13422113357187816.000
18938460175978560.000
39951635825684344.000
41739085242083216.000
21293579044735720.000
11295827249796702.000
11657230756981052.000
6287435377922555.000
13765449248132472.000
10956832353580942.000
6707796262315042.000
8629566150985803.000
7386893019812859.000
5831089858922744.000
13958393537440320.000
12070753836330878.000
6231690758659005.000
14126127504246234.000
11422163256256686.000
27851509382753664.000
27447734615146948.000
21533440422743196.000
13134663679533684.000
6873229961447473.000
5886398472117107.000
3481492240316921.500
3913323572194617.500
1973407986447129.750
2438729260778157.000
1335641594321592.000
1150694941136755.250
1312144786897678.250
1123180844543676.875
1032530080153863.125
2374550037533789.500
2118947691698863.750
4562497995366091.000
2475225965694639.500
1935018476923535.250
2529835180818093.000
1304709792865554.000
978124102608220.750
1292017497074648.250
1319416957425442.250
701678102835297.375
1453758577628349.750
1690531006912418.750
998582763015961.500
1325532003073683.750
2060752602361720.000
2099405754300864.750
4738682006150450.000
3590666896050675.000
4623995216932288.000
4387576659912874.000
4079834978752211.500
4399079759002853.000
3306265531510939.500
3789374614388773.500
4474464771654351.000
2464765520981552.500
3987046500715174.500
2043515730038884.250
2437084875620019.000
1921664665154183.750
1713755434442105.500
4012486737927024.000
8091871045740130.000
13223135313190128.000
14963405168122026.000
13101753580547564.000
13434193009087872.000
7306815423255261.000
7084180709164334.000
6907362439628883.000
3804605877014870.500
2092220320273111.000
1682938570373690.750
2014606110361582.750
4722726181905227.000
4433664812564309.500
7107471199796580.000
10194135779436626.000
11678590606630898.000
27238878585008048.000
44673557912752296.000
48820470839232920.000
26602379848739152.000
27115203908798920.000
18915934803721060.000
10201158519914630.000
21695046241053072.000
23280371607400704.000
23777152930051688.000
