37.239
34.713
34.329
31.975
29.761
30.411
66.507
140.664
187.157
202.548
405.286
385.075
389.225
418.392
403.613
554.300
593.524
1525.047
2354.579
2468.115
2472.460
2381.099
2584.212
4078.023
8360.365
8747.891
11540.476
27175.310
36288.776
83692.281
89880.837
91332.421
125025.231
198096.782
221949.878
218228.228
528232.403
519693.714
527712.154
749643.274
710412.194
1756602.235
2487125.259
2748025.684
2862284.042
4449398.291
4475832.339
4073114.173
10105984.127
14137345.206
31222848.485
28926244.606
45225355.996
43909367.011
43864835.835
47866438.767
44985621.289
105955707.148
136829572.776
146962887.983
146165239.363
131362635.196
347016618.924
325981641.432
301111757.706
448579033.606
906025888.222
876288779.317
893140640.021
1427005339.012
3369332860.642
3161997070.843
6404428516.854
9717592366.842
20167785990.429
18487403529.510
38470523546.931
35531326244.075
38564172445.701
52830621161.210
50380366543.833
107070929344.482
107359368678.899
117202152744.476
107164874261.597
171606854277.825
396330737921.663
509140289102.872
1097746785834.949
2220113195108.973
2133205744919.093
3363552975370.838
5185772451206.666
11646210786468.154
17332442608505.977
37159096224515.352
37843281962021.859
39846186280507.602
37625986439866.953
76391237938622.875
70891289269598.969
102324281383987.578
103951481493669.219
238352523329030.094
252397137777546.000
381117610160867.875
198028666940777.719
115505637832133.656
60861503025683.414
59580480155770.594
67940460340139.602
61765659606750.242
65787284669590.383
64283765200585.062
100019314172476.641
61996647144879.938
55813637691840.961
31964393396763.449
19167574233325.293
42902532786444.727
61535242975686.461
145051422094948.875
228517056935078.094
195082071281902.438
97440403315031.391
107437533266976.453
131642761865794.703
105456310206686.812
119353829493071.578
67537050017293.578
95749190388406.875
252033448225183.438
187453441056961.125
255758946331399.594
317195331222564.688
348413646838880.938
189042270828317.188
403628653010570.875
386061262471817.438
194452270518671.438
429604490553903.500
226165566486535.000
256967767473885.906
322838494631460.438
788754696659319.125
437250833321983.812
437820130696813.562
649511788524580.250
328280392362608.750
201326562520633.469
242273212349941.344
356035797292081.438
418968103452171.188
569246449037684.500
559034566772085.938
571396194842761.750
1159084897444173.500
626922785103114.375
308981311718814.562
812903451377525.125
789418895821095.375
838328403796957.875
707934138356829.625
765116603727575.750
712733354774311.250
422513066969077.312
353353274511913.688
339529428229673.938
311331703346161.812
455848907369945.750
313815317428402.500
794566357474550.250
407354551014857.750
305720130563420.938
405457098383465.875
394789265681844.625
312098767863633.000
703380526733842.500
1407220817941538.750
731425330834698.250
1040367541129237.625
1210493954902048.000
1857665958334578.250
4806834749498301.000
4573943631490730.000
3595586244937676.000
1902527046483313.000
1172439267343517.000
1461625353660004.250
816551302611983.250
1224680700566207.250
1369329777449629.750
758556727890556.875
410382759476446.438
338055456213067.312
205551317939911.844
452482866571571.438
708577263736063.625
1133474479573091.000
562301493636844.688
560611948468562.438
705191892520858.500
1129713010000826.000
1476332283565392.500
1878193613324884.250
1159127287926743.000
1271546258589379.750
1887962555170194.750
4947810105335011.000
6848510671525901.000
3906380627847951.000
3863308774626201.500
3570543398218270.000
3970738383952140.500
2149943311123179.250
2192804607347211.250
2076402525042590.500
2022680642598097.750
4410006362590551.500
3363243790345338.000
4367463310086381.000
4911651928934698.000
4458670203388871.000
2553083834330755.500
2446272110479489.000
2586825413552540.500
1314449667592253.750
765363737126666.750
561950020934985.625
1453615232298477.250
1076531563971657.000
1518914668737612.250
993022078286035.250
1276493289496958.750
1043868671664709.750
1068171140753964.875
1189943687073455.250
702499590834381.125
660152560282561.625
1017095506353062.750
593997864274103.500
1216038277901527.250
745312132767502.875
404056750702288.562
330556084805504.312
783341820430687.500
1144102034445764.250
652966258446535.500
1450771991016491.500
2262497017566715.000
2722636724592360.000
1390869761802522.750
1167090883272811.500
988970804228131.125
1021507984280523.625
2738270556743564.000
1851543097243148.750
1812422976663460.000
2045941116432318.500
2418984760753716.500
3609082804931172.000
3202589738360923.500
4765863245468991.000
4773879200382465.000
4813008016305546.000
6884583626532865.000
4123648098461181.000
4532744936539567.000
4291915229074289.000
4901172433518842.000
3432426698303799.500
4415772194947515.000
6074506595108944.000
8596851495935976.000
4712632318332114.000
4697655128109149.000
2654363410923428.000
1799417912843848.250
2199864481846537.500
4538409795851394.000
2628270312842378.500
1375471697004077.750
724577328858979.750
804168829245661.625
1312830182131854.250
719258584619339.375
714130427414795.375
715020732822615.875
617782392938108.625
683388128518040.500
410892978268781.812
207236226952475.188
201394070818339.000
447643270108293.125
251867182329260.625
404020528740725.625
228084951983005.375
188893533607389.750
99587770238608.406
206315323082434.469
206744502825930.062
259757722311939.562
203349770529704.312
248170218869376.156
140773641971607.312
225951534980267.000
448915393998406.062
329368553798444.438
204876635273299.969
246601636401316.438
366970806811623.625
835562299289597.625
1219815163651872.250
2712498513470992.500
3858953297463931.500
8374934344454775.000
8537697279573991.000
13809187620759680.000
7145353259936365.000
4273865118292550.500
2445985828917224.500
1230296817402744.250
1444731670790260.500
1808756655802295.500
1931345303858820.750
2115858397328091.500
2222386864822833.000
2236235870959826.500
1263140804124433.500
745083752385090.000
648843533274290.250
837008645402819.750
442991583418625.688
316557412104805.062
377042758331291.312
773506620894458.750
828663911094974.250
793204526826302.625
785603284613126.250
584623055053434.875
1323017336648266.750
1152502299207643.750
2605700555162967.500
2713689199967191.500
1902539911457062.750
1159370737300750.250
1511623387102542.000
1431793759513871.750
820631692553080.625
563341728812741.375
348713120893655.750
768247660510206.250
457793709916013.500
348218304908209.438
375036772920163.375
202231073581271.625
121657168222692.141
126811507448611.609
252389632837734.312
213357975492075.938
236848109885754.406
215451722929373.406
173777489622084.594
413344318414756.688
842345467726290.500
735860912365475.375
1481292507032675.500
1444952438746063.500
2236325067574872.750
1842732622077967.250
2211918470306801.250
2728278754314321.000
1456540638922709.250
797655428146950.875
735999584693356.625
781409331764431.000
1070337850391542.750
1210571996992743.750
614437750987560.750
372345345900165.312
554815657118791.000
1210766547391397.250
1236449107859973.000
1493737010222086.000
1033899670361007.250
2273099157666644.500
4877562331033204.000
6118637293059252.000
7787511036767450.000
8458350470172447.000
13438196519612736.000
21679785856520264.000
47571779482728008.000
34186029957892268.000
79339327125668720.000
60763947582786608.000
157600477804722240.000
119727677626554336.000
252089455396949024.000
213128002027387936.000
202403169869129056.000
302573999727675584.000
224572119145429376.000
269659165212092064.000
364421411313700992.000
209427964608180288.000
285056135498836992.000
228705936801421312.000
538206981727234304.000
370984243351541696.000
539842315924071168.000
274113056357369760.000
157180353770179872.000
122639837359875520.000
147779235267611552.000
82790125764200272.000
90709674104560208.000
64406700585981016.000
138327718980637408.000
138570988253731264.000
299279084805802304.000
477765155008758528.000
369177576872906816.000
419272175831714560.000
440460191124903552.000
954780225477771776.000
1204105150760829952.000
2447849628283147776.000
2247968448866062080.000
5422858340375892992.000
4316120984626839552.000
2145452857110471680.000
2079669390012920320.000
2716073980216587776.000
1627958212176257024.000
1192589667055934976.000
3101728646862714880.000
2951286634281580544.000
2892907226120470528.000
2406821055991796736.000
2067320436097021440.000
2430038461733961216.000
2918118268648283648.000
4213247477626826240.000
2499763448769307136.000
3811624275531440640.000
4344002075565208064.000
4574090497110583808.000
10034618269526906880.000
5102304266189882368.000
4614324029858951168.000
5503422547687436288.000
8849246580104006656.000
10182353205496111104.000
15973732238237933568.000
22560600261591543808.000
48909987830355476480.000
100029063240174059520.000
87063856798099767296.000
48793199646865096704.000
28805861556897275904.000
41496427515686928384.000
24713702585865019392.000
13716493208399054848.000
8041147710827513856.000
9318842244922036224.000
6750862918124209152.000
16274461235131439104.000
9635613716016410624.000
8641578488399559680.000
10233597606144632832.000
7194158895026530304.000
17363697857969567744.000
28040114453622317056.000
26865080476976013312.000
25516028672983187456.000
31369972528104796160.000
16351585932028051456.000
15515054995488327680.000
22036489462957658112.000
29637815004274016256.000
22689421089232633856.000
25414208812229259264.000
28332386323103383552.000
23109974914157961216.000
31644248983438245888.000
16417470390196180992.000
18086712617670021120.000
14215887859295064064.000
22235282478374789120.000
27400825171451408384.000
16431429031809345536.000
12669156673886599168.000
18123351306380384256.000
9870534851001769984.000
5626356252804080640.000
3751546014829623808.000
5588877186959482880.000
4494855297374410752.000
5306985558718951424.000
4896789711879343104.000
4316514394487144448.000
2249752272313591296.000
1321951205743399680.000
711843622017279872.000
727500589723365888.000
812629044646419456.000
491686138664108736.000
383771540624390784.000
202460161514544256.000
122630104160261168.000
279417347617607264.000
301698788736637824.000
158247793341234368.000
84960302744570368.000
82248102909489712.000
116257433405099168.000
70741894645229072.000
41013573552509104.000
42151110583033416.000
25540654350816116.000
13729711774004148.000
15195136460479542.000
13397172413089874.000
19621582539973932.000
22134692048497224.000
12897643597515066.000
14729343548948680.000
22717584906441252.000
12204238544948220.000
10444546309462736.000
25886287347001228.000
33621257693608280.000
18801560996336164.000
20339783203229628.000
23104590657094812.000
12737294224598424.000
13643035446240920.000
13200030923831634.000
14658291667129782.000
8792977626234031.000
7689402914817565.000
6827312369416839.000
4107274748913278.000
6565995942858395.000
8290318410807225.000
6333059018071950.000
6354053077592418.000
8035043285857792.000
10970138207259660.000
24160362276391036.000
12429843560124320.000
6877196888935240.000
4148515621863392.500
3473520401433230.000
1922937431505243.750
2390105891003391.500
2045275511675091.250
1119702159513560.250
2514189561817115.000
2702118314864254.000
1404106774600613.500
1278015760303424.250
2670572712881532.000
2479193996520635.000
1378892295210532.500
830470884680001.750
681649915648281.500
648985808573150.250
568411248693097.125
682202202943386.875
551312400451382.812
322634171648662.062
368274517426116.938
375110976787014.750
797631883902073.375
617870288764460.000
1520121546484003.500
2475345680663292.500
2062264162733096.000
1176313524675460.250
632644381396370.875
599953022962976.000
758624331553626.000
584636142627546.250
333447289939575.938
337017894771305.062
207450009571982.875
124820680863628.797
94839583006145.734
121579811504738.969
123105789112409.359
68293214966642.625
78703128785254.078
80502303888719.266
123722765366596.391
70057269994400.539
37904306339130.820
21564245357857.043
17846610210381.184
16499843061370.721
21092976274055.156
20940104154908.422
20884768837229.539
22274436232258.492
21629142642751.324
17050645157188.838
38144767527210.883
23002796011440.645
23326083358921.570
23784913210637.887
19227821830022.316
19919091635746.004
18286183631109.160
37762416457256.586
79724107324217.922
56475568753291.859
128140049501246.219
118496352460818.219
190513062943676.812
448153336227021.250
436593235585643.125
322707735416982.188
396643622670949.312
218402849791118.719
261719236079901.062
374338455442911.750
436931354711178.938
222194164347554.812
207374194128271.938
120521553823318.391
145463558352055.125
123639857654763.031
250077621645633.188
372039865926112.562
193639201985913.875
188688690161858.312
426893331376342.125
388418490226369.438
205033645342178.375
185757568217695.375
244333342238415.344
134022899509769.078
134351297160745.922
98909617273017.562
132637939335282.328
98554357736624.484
247708073602030.875
191535018888940.844
233239850128132.500
120108613900298.562
251590358209245.094
351314418280664.250
558179234800998.438
350325113976669.125
805500018721515.000
722736950377438.250
577101736256948.375
1223629668126560.750
1004822581109734.250
2355305457307168.500
2249772133121226.500
2061363413082742.750
1116176421141671.625
2746551281428529.500
4143999799629141.500
4391616451129992.000
2429425555934212.500
2635989163862467.000
1848605824639729.500
2350583052280765.000
1414440533649288.500
1507172802276958.250
1352365414716866.500
1455073401548707.000
1032257625656438.250
1375662710642276.250
1197121757670456.000
1035588604721540.875
1318274713930675.000
2623001058741929.500
2694171325000192.500
3231520749969055.500
4126427021178650.000
2176871844307016.750
4751044140681316.000
4869417188818519.000
4750462277662068.000
4623783557743962.000
3880882789824946.000
4653950062067497.000
7315303996755154.000
7431957449332073.000
6330450391362470.000
13067422207031888.000
11491495798836450.000
28497905241104900.000
27865693134871800.000
28190065789271044.000
21933917379428180.000
45847932109262776.000
23497916387817552.000
25824313536820404.000
39394229032328952.000
88534950424926320.000
111775171988645872.000
153943926640248736.000
135359437910220176.000
284278940045181504.000
279382240978740416.000
405717743890000320.000
505993401673915392.000
786601799261654400.000
738367445160530688.000
852031770931720704.000
756810310284313856.000
671598224664114176.000
817023804365240064.000
857750496256506240.000
713571827266153344.000
411886866582840960.000
374210139004037248.000
423495905103774592.000
478414754563175424.000
981325241537814528.000
647192946164573312.000
384801292080011904.000
205429640069118592.000
526712027829279808.000
836383877975753088.000
908126933962324736.000
504847137989281536.000
421903870153977984.000
230740265477409600.000
199937909364246848.000
421304877904129344.000
951468568665106944.000
798325013292230400.000
799200054101562240.000
1154255680512652800.000
3010061685108216320.000
1695862432120245504.000
2650526962498909184.000
5580558843461190656.000
3119602980534501376.000
1734105560130969344.000
1190296813018027264.000
675563006291371136.000
892909973490175744.000
768468193209513216.000
813965196719798784.000
414018436023908352.000
474901377325661376.000
368544005357676480.000
903564685995945088.000
537656506161425536.000
286984353780867936.000
212301264538200768.000
297271895024450688.000
151340283535906176.000
112918818065584032.000
239264512906319392.000
500625284816225344.000
668030083568289920.000
942608973237270016.000
820145357683023360.000
1259462586590413056.000
2929794865458563072.000
4708936360202065920.000
2838436820762962944.000
1678624776724116992.000
1541134635864281344.000
2297521732726192384.000
2857013781478918144.000
3961896956985722880.000
4885696950288246784.000
2555045925040558592.000
1506896169525693184.000
1351932848902798336.000
711638826756230784.000
384778741846051776.000
419155093924615936.000
528783453274957632.000
455913554813397184.000
493374745804725120.000
378211694567504000.000
399771633066299584.000
378832926382977408.000
414999158297224384.000
538913040177781440.000
441734472961166848.000
241210233450765536.000
249059374598196064.000
127621415196177296.000
78816593393058320.000
47691302504460960.000
26727057925306288.000
34996336550400256.000
35620120782052612.000
42360326591242920.000
49018196011632312.000
75806722927386304.000
70687702271938536.000
35731531865731508.000
41692732440405656.000
46368753162066048.000
33888130853407216.000
45664377183221200.000
40595979502150208.000
43293189127223824.000
25082672785137888.000
27762113934567648.000
23562490100057916.000
24508506587082272.000
13800814080733470.000
15199575940966768.000
10942923404231764.000
15582415551461758.000
15774120825484554.000
11212601311697484.000
25030592779745924.000
39612168108101912.000
23504811676242392.000
20552724699631684.000
25557937589596332.000
14214265777560258.000
13897927929193978.000
20935399274290556.000
24399247148346452.000
14373491142211368.000
21728410919408228.000
22247315894621312.000
26443537465655908.000
26919396406248396.000
22430835859585396.000
11795760287828528.000
15716990556859742.000
12731717740824876.000
26620828982111572.000
14823080612960376.000
8426973401419176.000
11077191755957254.000
12932464586845410.000
6558609094994797.000
14786705868283866.000
19028096018996384.000
25582655707789092.000
51748273779128608.000
45045315792706712.000
25661247201796608.000
40367701521166440.000
91722033025915440.000
65420336206171456.000
36111339649036512.000
41668694646911344.000
40720179354976648.000
61819901035704872.000
77584084943798048.000
43315083390590968.000
64753588741596968.000
78053367611687024.000
44904088291150248.000
24867879340123584.000
21404786985314848.000
12623851680507730.000
15970671436110770.000
13645259156946210.000
10803946320880360.000
13694214106827632.000
21914630090067020.000
20803022252808044.000
43729743852225176.000
26132384176858800.000
15196118969547480.000
12262437758119280.000
6510396001814661.000
14852654835029068.000
13867575994210856.000
12033407374561736.000
11116224542005588.000
24775336718653972.000
50415560668495688.000
37692845277538056.000
21109474623217280.000
18691539019734564.000
21956067353237072.000
50068136309635336.000
47518199287845200.000
48377412542695936.000
34626919175028340.000
47383807137169840.000
44856130931697760.000
47974457488743768.000
69288332016985328.000
72459098878262912.000
158528493378976320.000
256572674238544384.000
138692187548854512.000
137533930297103200.000
72380861133482112.000
84196020280629552.000
64549723591456992.000
149602590873460416.000
143788197776837712.000
111366555434250496.000
67657763991845032.000
78034385924006032.000
39883464734953512.000
48401784644384392.000
71616705621797136.000
64573743151412264.000
81051625668561632.000
48270613818614328.000
67768812091194944.000
61398194586073568.000
92432437475691600.000
84146604660027552.000
66319871970986552.000
61654187200029528.000
83675177796178752.000
92129143529340864.000
82665975644272736.000
74959238521141840.000
61303206393156192.000
87911355008157104.000
136841727760253136.000
284811535954590176.000
218420423284384544.000
126791971658695312.000
129525422690494832.000
70693504795793408.000
150878308277619200.000
119722174953496496.000
242133695101589984.000
276142914204414240.000
359802059568499136.000
203614480025441920.000
291317153804528000.000
157489230032766624.000
210653109687722560.000
528320540470476096.000
462503723553153024.000
239673053512470336.000
377572749882179136.000
539780209849711872.000
419949385401721728.000
467115413006546688.000
266094161738644800.000
211811150586863712.000
434366438466715840.000
224438867531236768.000
250551320007566816.000
148710199630521920.000
297031473989089984.000
160805504936488288.000
208798464797657024.000
124933994301473888.000
158783393059130624.000
257339805973437824.000
292273324890843264.000
265303204259728448.000
365337344351636672.000
780800590629791744.000
404595778016930496.000
416658070265639424.000
208959834957197280.000
121647642734572832.000
147922017761780512.000
113273636510426928.000
147512180263756256.000
236050216774924480.000
143226952984738144.000
142072473024255408.000
136761742206566608.000
68766823741886080.000
70847683226012264.000
81881895669396496.000
80885111414258256.000
64436395199745008.000
144460078143823840.000
115959423467181312.000
134016203972398960.000
74034308441813856.000
75883983675243936.000
113324217950100784.000
130856166233348976.000
79043683994390512.000
120687078870605632.000
260510889238947264.000
140162774991466576.000
168101846887601696.000
216925204585663744.000
521928626383520768.000
358980273827474048.000
905723464955061120.000
802411918926275712.000
907346824118735360.000
1233339674853040896.000
1320162321610683136.000
1331660442174284800.000
706004319641538560.000
834844106328070912.000
481504744603734400.000
436484997632311040.000
360109448653259328.000
765201195238073728.000
676710691480542464.000
742204742187697152.000
897133457229883008.000
809222875596982400.000
1718308808809827328.000
1400064129511162624.000
3160142484754342400.000
2520128558956793344.000
2308973658249630720.000
1336048910057940224.000
668893962571610624.000
774766832886098688.000
1625326387404394496.000
1292764558834375936.000
1599906106639336704.000
1344661855317238016.000
2861155716423985152.000
2534540471360327168.000
3090373547219901952.000
2692922810299940352.000
2141722407194936576.000
2941792805701461504.000
3886680666209756672.000
9893246332110039040.000
9559686752042954752.000
8018391744026943488.000
8990343470236623872.000
5342845594085115904.000
4758462095957556224.000
2633417960212449792.000
2447926915465159680.000
1333483343504531968.000
2872399802796618240.000
2041302898638439936.000
1161937003472139776.000
1563299531486211840.000
2340434690705329664.000
1159477438052700160.000
657552004617403904.000
409884095029636864.000
205218224131969056.000
197863275836119616.000
291212660374140544.000
156148492730156832.000
142829602276457808.000
114537855774819568.000
125865239247777120.000
107236267368079248.000
121235644801944384.000
159123885330518720.000
153288713686831744.000
135113782104945328.000
79219757313575904.000
44932564402458248.000
23529537549241072.000
20971588161141960.000
12472352618531624.000
25897036652221456.000
38557839587214264.000
38023793266578960.000
88107535440999888.000
67200734696290016.000
76729701764775952.000
40697785924166536.000
22470902519720948.000
49107176631266632.000
67486098231396864.000
156139259817664576.000
235011349267644320.000
490463218929448704.000
409527253934880320.000
907496452206266240.000
651008231985053440.000
881698673303251968.000
622633887258524032.000
839833056606442624.000
879778059896664448.000
1411526531305543936.000
1247749502682090240.000
1435357206152698624.000
1402347088643156992.000
1700870326789977856.000
876991655024919168.000
1127065824658231168.000
1292128202044271872.000
770477085553026048.000
909315929330921216.000
491388125440265728.000
255028972932277216.000
225551941434326272.000
126960310561089392.000
67906011513128672.000
150625060772848096.000
148468864146179008.000
200298473946795584.000
124247971284336592.000
137820536964248576.000
134808208198799968.000
114793951543706576.000
130371923734817328.000
78672701195071632.000
159789064002190752.000
136372723003797760.000
67956491554372080.000
58345924530647248.000
78307479318756048.000
90155309992183088.000
71485504409526752.000
74408992499547200.000
78253229094367168.000
79248410748605344.000
46111884817590440.000
27682462174791528.000
18640405996157348.000
23411556858831116.000
13519249235656608.000
11107260843380232.000
13149688057830688.000
6878698702289599.000
3570010419771242.000
1919064244347526.750
2251484533189813.500
1871005381475926.750
971088785806427.375
2269384069654657.500
1367253742813738.500
971119559042459.875
2614301760091850.500
2227364313538037.000
2242397924892758.750
2007905971125509.750
4373784243782600.500
3346642237647916.000
4721668392512573.000
7549821392640243.000
6388252157450624.000
7162956060849127.000
14908717102045440.000
17904900074064596.000
46348321819179088.000
70992523252293064.000
162456466773234464.000
119578741252961200.000
280673858629000448.000
287555843358528096.000
220000856831282752.000
493830755687723520.000
343256233501788416.000
372027881195919104.000
455426428727638656.000
451510605780891072.000
242111225998182560.000
363077127214865728.000
365455722379823040.000
346443689916890048.000
197665525482445792.000
474008852478460096.000
254798946897417600.000
200006048059643168.000
451419261606686400.000
261146408377622112.000
142447731548942016.000
110714937780811200.000
281470430870274240.000
273795589062490976.000
214764648040254144.000
254676787552537312.000
152797337760599232.000
130979284896376032.000
76009944244617360.000
43052433249820016.000
22066444549276460.000
17872835925290012.000
27400374821039220.000
24144209268086908.000
26642812001058564.000
36742969680089136.000
21547549379928564.000
12336270983973264.000
6861630998693816.000
6470077537039389.000
7379206571022745.000
8081909804784573.000
7151904790646488.000
4321830372447919.500
4269190629018594.500
2171158001613241.750
2266319648153113.000
2296334244803835.500
1157654853431253.000
2434816538644210.500
2566078008506252.000
2251994034503714.500
2267872499884673.500
1228422623247419.250
1172799542800587.250
1297559142770918.250
1835232370171686.000
1053920119381547.250
541877537477276.438
1247907187221227.500
964149107619958.000
1298422408673858.250
2585520337727423.000
2292460394861393.000
1955228508275298.250
1215032670851869.500
1381000699313353.250
1745362767183768.750
3953395331416272.000
4119944839947420.500
8597448614365998.000
12900864659946216.000
9886796788808292.000
14271791766793852.000
13756070728840224.000
15285570467322342.000
8454742539585559.000
7802278754989156.000
7970636933299015.000
12380019396608362.000
15443786404595294.000
7918395837745314.000
8095646103271215.000
6547757384024597.000
13887024651360136.000
11147067388442282.000
15278859438707518.000
8538759617627254.000
10091477392528968.000
22901020743136408.000
14067170456130174.000
12343616229957280.000
7454844255222703.000
4164032610495675.000
3166054208132734.000
4855426172771691.000
4377101623904544.500
3652248454846247.500
2204350253965512.000
2670188165607291.000
1869602191921253.750
988574942111919.750
1494363788711726.250
2284766526944908.500
1948862347133348.500
2235344271710256.500
1180499873873328.000
2494955387847358.000
1768496595795910.500
4907291472607983.000
4666385607470492.000
4169283196495315.500
6017049987119061.000
14052847236461866.000
18730486818053448.000
22297760598375648.000
23014198280553768.000
25528637077304180.000
13553959739413036.000
28055049530290856.000
42721667096106048.000
50834842165688824.000
27799622914404384.000
39731025744478992.000
46773408946897288.000
52101758628527672.000
80127231965324784.000
61786237008652624.000
64399382687382096.000
141006499830959648.000
128050604153374752.000
164861105402698368.000
83970103213322368.000
44675633972925528.000
39386905603233672.000
48825484848028304.000
45172351297640208.000
63333078866907728.000
154100471034855840.000
144823945168528384.000
73040077190734656.000
150300887267206272.000
114182748986357904.000
303863279811902016.000
446453510610108736.000
431219794434812928.000
440797000327493056.000
433588294111124480.000
913578189774370304.000
499069398432688832.000
687743368558864384.000
379419515752316288.000
861454351318706048.000
919920055071488512.000
1426537177302240768.000
1456834548564423168.000
1804220195607717632.000
2246992448561701632.000
2406846335103242240.000
2773243211866784256.000
3215234037727520256.000
2809836493750340096.000
1502027125267474176.000
842824938537573120.000
675444055990880768.000
1722721173777554688.000
963502420750163968.000
745286494872164096.000
441234119519400256.000
481366945465650368.000
249459538379217472.000
216065297740944544.000
304724052841488320.000
250401244271530400.000
271951945352172768.000
153489419847542080.000
149147761319907040.000
142641917375242896.000
154739083167979552.000
119624467102793904.000
146610995539033568.000
298305496294144064.000
273098906260635520.000
137453593090858224.000
152859566139360928.000
124548946117342624.000
145702236444450368.000
313165251080296256.000
241639510160675136.000
283878656044268736.000
417361347284668224.000
220060561466432320.000
455659872639879552.000
724592666944682112.000
834672605378658688.000
1029513521111259904.000
569567500323596800.000
316564558153658624.000
305811301149651328.000
263908512178141184.000
220531513958027936.000
467177848170995584.000
554565327545746048.000
296385700276314816.000
241150343741419680.000
282352175277605568.000
257628630160658912.000
145765448038698560.000
88464438077895120.000
69019704564746112.000
166652377037967232.000
124829529988841600.000
162502529644788384.000
144662113228982688.000
84057934950485952.000
66447393378666008.000
175573496954343264.000
144329727578841408.000
320949480488271232.000
173034911633569600.000
153194978799929152.000
85241055230031280.000
92083459553339264.000
81750857449096320.000
43364859241150736.000
25158499006904416.000
14443844977771214.000
8638285372914755.000
8625719432943423.000
9480982124540314.000
15114578995923554.000
12850359884878170.000
12141427793200046.000
13156763102677822.000
7787795663730247.000
4265841012979620.500
4147791909963797.000
5132854032266690.000
2668299592768418.000
4338771910056553.500
9111889516297638.000
7110468056109004.000
9051248763120770.000
4613238760307214.000
2352116862061770.000
2521036276990385.000
5250972217437240.000
8264076513489870.000
7364424469105058.000
6903990436804164.000
9175385631190194.000
14719068181281396.000
17044412765506838.000
24936154537051344.000
22160518373313484.000
21766457409815868.000
26410716164398612.000
21633299432869572.000
21750814278696972.000
27144180654188808.000
21085345899860148.000
26394399124766812.000
55434508226590944.000
88365031658888400.000
52664695428402600.000
44838940681092024.000
44868825507747880.000
49319358195706392.000
98852807901100000.000
129109502694478176.000
139397917359529328.000
70822556582918648.000
92873753976188960.000
72636347286375328.000
78681562516687776.000
71037848410121144.000
161947278991020864.000
239935659423318912.000
555297492196760832.000
313045853038737216.000
237882803208486144.000
125597673949118240.000
303714003186899776.000
279068920501426464.000
167945434232501920.000
133769302273168224.000
168362012748377600.000
94340995133984592.000
83138031790971568.000
91753417040379024.000
48440485266746344.000
70722435289220552.000
42648863647466360.000
48012910696879152.000
25439426951383580.000
14510973413845540.000
22589909648216432.000
53921704587565744.000
53286881767284184.000
37987433282056472.000
44853525546172128.000
51159428478525080.000
28064973492217848.000
28756952994245664.000
16401399075230602.000
11923208128572438.000
29667713671388300.000
40628742895766672.000
91558874436417728.000
79657708946104608.000
93234035102856608.000
52573741911082192.000
29050450372278980.000
16034381671168466.000
20948003730739308.000
12089442333848074.000
15516934358288276.000
8162597858559948.000
9262100823797510.000
14490820998160666.000
16587984414217796.000
15422411436302310.000
24643942476812692.000
20623661241671416.000
47991801372917808.000
48738950728719776.000
79172711032097360.000
160035430311518976.000
254135870075541216.000
292954873028304192.000
176884215274985728.000
150135818552359104.000
152518173193413888.000
309383812217355840.000
504761809870750720.000
734571417713408512.000
1632702245921250304.000
846600763580440832.000
766672551214529152.000
946962709732865280.000
769201494319185792.000
386213513703529984.000
438116813428140032.000
912140607415218304.000
867965407988098944.000
798437925487984128.000
483905167962693184.000
391849011745124864.000
473709186450346240.000
950283985203714176.000
770686318499975808.000
917690144719815936.000
738842462900959872.000
377566339889107392.000
510079607181767104.000
554298913922795712.000
475793782885249920.000
537281098722600640.000
513822376911167488.000
387722082478464128.000
527627906099486592.000
462471238310732544.000
257560968256518560.000
156373548726834880.000
221838733963837344.000
262957222401152672.000
250335346508984800.000
279198452227972544.000
154444868660375424.000
82943378801577680.000
82610047418934288.000
85856038869811072.000
47554802321635880.000
25018313361951736.000
36295048218926992.000
77274168424675008.000
42878733018006368.000
25593917748385004.000
22265357466189540.000
53248833735466120.000
39083718813779944.000
35278325300704716.000
20387250587312588.000
45507715403476088.000
45756439746207728.000
24972942114419304.000
13154534313130750.000
26905013782501360.000
23871941316591680.000
27795404820431144.000
44671332606558600.000
23734111623971644.000
25414119609237060.000
19897115008038804.000
47433806740416072.000
73718749456811136.000
91098114035701616.000
77108124637768128.000
167056978328397824.000
123790997240315264.000
68463409521846080.000
38186174129125216.000
86289994512940848.000
80744192552543104.000
84678424791944624.000
76171570955333104.000
66183365151271712.000
38253488558785280.000
48525860551305304.000
41069058556420824.000
24139954230738660.000
49402293521261296.000
63700708118396544.000
65982939131245592.000
34847184496609996.000
73436044056220176.000
88287573815122368.000
121899824937267712.000
74946166505556224.000
41882363253030528.000
25428017345798324.000
38814162448908832.000
46355790662662912.000
26131119146022300.000
22687931151307400.000
21793561952048160.000
24764802096816056.000
20696112907122464.000
12156305055561884.000
6001142191257848.000
6127809083649105.000
8621053146806582.000
13463627875860024.000
7520496551671150.000
4500600995500248.500
2568515257274765.500
2137362244111887.250
3356530977267270.500
3369994421476252.000
2019730623007443.750
1131511103811244.000
1063007219828697.125
1487682775693669.000
1238375835915087.750
1257651244948586.250
1823517856533210.000
3921300422292017.000
4761638843926616.000
3904991855962905.000
3324176651863433.000
4164807693287048.500
3726640399945836.500
4296895341643367.000
4008619826293488.500
4671655311668111.000
7064325564427112.000
4098505028356206.000
4605466518764678.000
4905892856956180.000
2656681376987036.000
2065312592895617.250
1261591309436912.250
1357402085725266.750
1277345749003893.750
1071331713765751.500
613237472642960.125
1371495704664358.500
1153316207816513.750
1254919680105767.000
2550389461839947.000
3371393748515019.000
8146624479599927.000
12449655340949720.000
19549273812059212.000
27675250491082704.000
14845292548476360.000
23931314472417332.000
37671417920544088.000
45158603742782472.000
25304021476250644.000
20738578158020668.000
49432699738915160.000
51173122513530184.000
44453045018629072.000
64287903971327976.000
62763761866476824.000
156432012843932800.000
90871243444436496.000
79543971978893664.000
87608470110529280.000
73073462745733568.000
66383412474609520.000
162506033363276544.000
87882690743478608.000
48128398499090648.000
41072300117934688.000
50930576717615256.000
45266304215348456.000
37737957081744248.000
21425242599752960.000
50648672281953216.000
66678510725164440.000
78191554608831280.000
120580860616413488.000
286791174475099328.000
242609645273156256.000
197306998799278016.000
460728466196002368.000
244346236914161376.000
149303120268593344.000
235241944275292000.000
117364990990035552.000
143172228652575984.000
136730144392326720.000
149382622100812320.000
76883221149982224.000
47068151190561048.000
25907983203022316.000
37027754868661336.000
87264521251816752.000
86885636553596544.000
72628496342346624.000
38654840833298504.000
80621810711128304.000
88793740129380864.000
115357259986660976.000
138228267187880448.000
78415484452612720.000
167612656387375200.000
205222966288518976.000
545457939625643136.000
293603826490764224.000
234095120394744672.000
508389993877266752.000
475902877879555008.000
738610829593485312.000
403317813036399488.000
482328582823444160.000
658396395558142848.000
1614712132477501696.000
2232929710810093312.000
2478172708470726656.000
1374206520380419072.000
807982127268705536.000
1640285070216494848.000
966194843531996800.000
788318516147249408.000
959169358629202048.000
647885256899896576.000
372951352430608128.000
214363468388935776.000
274665423139198112.000
242088238999809696.000
246548903486677824.000
128409432272282256.000
66894196060948584.000
63224548339658384.000
33711410787188932.000
91981660703508096.000
86439229776503072.000
63916929262986600.000
158255665697021632.000
255134147951632224.000
253190948851230464.000
144063556263877536.000
216180217195918464.000
116043220299512336.000
71115872744800056.000
161928514496855264.000
143810095311002128.000
161813684252126688.000
93342853555248352.000
84479911631731280.000
51142404642866856.000
44871622040671456.000
43963510739471416.000
24814803557873008.000
19118430730461696.000
24453072961688676.000
50473375735083736.000
45570130039689448.000
24543809902485376.000
37078737980153912.000
21447652076139024.000
10584649519090428.000
11794209668945022.000
14048754945523600.000
21075473703544036.000
12763009965396274.000
15793858863180772.000
10651017000796658.000
11792606175645400.000
6994371927062033.000
6766134326941785.000
7499410880426919.000
3831242246343138.500
1986682486888281.000
2668158304270304.500
2330259478712277.000
3731414598629657.000
2273186119548463.500
1316142302886673.000
1185724729261144.250
1474123394201308.500
790541129845552.500
629026478064205.000
763091158070955.875
664921051452675.875
1525116954159059.500
1452192559418386.500
790094265729510.125
1181397174655513.250
1357688311617006.750
1890350001587182.500
4635503064503584.000
4571642208000015.000
4241612210302257.500
6159890296478968.000
3610397846974392.500
4794106668217606.000
4941670902465489.000
4500045620251540.500
6244399648009329.000
3416415670086082.500
4577597214466304.000
3224497160868584.500
3832666673893111.000
8083215707622417.000
6195872826820206.000
7090572496299636.000
5900005226998138.000
14221965647602946.000
15996231443534334.000
11341376825951366.000
26256922742090580.000
15286725275796878.000
19621925691238580.000
22584612966329296.000
28097019955840216.000
15755353400106856.000
8678492252675809.000
10489036576741584.000
11456635521861390.000
25175955364214568.000
22391672844994836.000
22376046888306828.000
11811419554211522.000
6889600285865636.000
3835125073006622.500
8251216453221639.000
12814293797244706.000
7323853153694366.000
3825011853913221.000
8067360037095320.000
8395200249274789.000
13489460420464198.000
28701777916705184.000
39956379723060064.000
33918300483653440.000
85267669788715760.000
67778129561954888.000
91180927580694784.000
71706171295511624.000
156322533744223680.000
241922038649566688.000
143278300769520448.000
132034419887256576.000
137804449537709248.000
80157153388190848.000
70537375740609392.000
40449020370179016.000
61112477954244328.000
72332255393707088.000
75116723731535952.000
37441016476924912.000
37521730315002360.000
36012366560183544.000
51390192819459720.000
27397491638751268.000
19870612938007832.000
10719523229949614.000
23631606261715112.000
28266231292672088.000
28310367570916488.000
34293971846683072.000
86557816506917616.000
76489776533671648.000
46436901029486768.000
42816820392537808.000
22004844221572720.000
12489859204754602.000
11498771556616674.000
11229787166902556.000
12488978851269900.000
28338587791863500.000
27564160551333024.000
38946142504403752.000
22882365529841652.000
27466012067831384.000
22009187840964944.000
34658074902459076.000
73171094360437120.000
60918681695902632.000
36841546378338960.000
92798479029392944.000
70539656651757392.000
61038900748098536.000
83644920971323456.000
70246852547108088.000
71191763432496272.000
158972829322625472.000
133072942787533408.000
152249332840887872.000
117047724013830480.000
164075824082404896.000
167869181159844064.000
161722605747278816.000
115707894190853120.000
248734433748761024.000
196988765009228096.000
200140680032700288.000
275821859656715104.000
141159250431286416.000
292914572888075392.000
252279000902313088.000
140786996570802720.000
114512140750759584.000
149800421563477600.000
116290130022877968.000
65737582685406056.000
92157653166404064.000
64366855939445888.000
74302440234332256.000
88331670208318016.000
75628570610507104.000
77436379956216080.000
87656827513476048.000
73229813287419504.000
90860473977647984.000
91950684520945888.000
117939991018768208.000
71227893437567280.000
72417268089336192.000
84858590659101504.000
71292490641433400.000
68843295463150224.000
149286419088003808.000
218045021995000896.000
506979625729663232.000
297697284794412544.000
242218833070173600.000
375497230928303040.000
959861059314225024.000
519983231106955072.000
779055750540395648.000
457607596576587072.000
534788866520922688.000
388906814610503808.000
452837851971135808.000
249479078949559040.000
287466029957042208.000
165787775817525696.000
121143958657771200.000
156048766864091968.000
117311920594254032.000
123902058957320992.000
116373538666339072.000
245452218386370176.000
354991879543110400.000
208172066382064512.000
219905730869171168.000
120781413805124096.000
158053658073359968.000
162237869707946880.000
156639474037325056.000
154928089797821760.000
251481167710810016.000
292243660067669888.000
270781568017352000.000
137414481782587168.000
294490868412909632.000
158045822376713088.000
90035239649006256.000
145528126598314656.000
161838408784641728.000
125078478183459648.000
76856497769928496.000
69345604054217480.000
143101152174359408.000
223699167058951904.000
482843487414404480.000
498287273688903360.000
465786256658773120.000
724987761876849792.000
425513431400708544.000
409081673241403136.000
500945996095422208.000
766594794380587008.000
395630010526359360.000
199655945144964736.000
251026153235636480.000
152311035050550208.000
137101401997993904.000
125962432730894352.000
72530650286706512.000
44504494492114056.000
37496616496696448.000
21294300410822724.000
11442814750941094.000
23897604630430848.000
20913935455967252.000
12436368224355046.000
6945270074488345.000
3625092331262682.000
4945566279763115.000
7122272050606313.000
15657440219475528.000
10764583189162464.000
6464006659808218.000
8684123177024118.000
13779753960046564.000
7671559877469861.000
15515218015197928.000
12031311190612026.000
6311446211433906.000
6962097232079787.000
8832486014889495.000
4863470415510561.000
3764779633925996.500
3749139562204522.500
1911673017211105.500
2494419123467595.000
1780528809955101.000
1081558925996394.125
560868438806467.750
1253179685337489.250
1498192234646163.000
1227459408149118.250
1466391870447266.500
2315565504975874.500
1910868392750437.250
4248321012693903.000
4587325516986248.000
3433538308163799.000
4938778616635009.000
5901610023442120.000
3314852546813699.500
4860456282312828.000
3897854206728033.000
5916477227513510.000
3395530683454129.500
4832187243946137.000
3545417875133526.500
