38.371
55.163
119.187
125.523
118.599
125.378
250.059
317.299
309.301
805.826
999.343
1077.203
2249.431
2223.095
3361.847
8850.725
10760.289
21847.029
24026.299
24796.684
24250.901
23945.839
48377.428
68200.620
144469.851
216041.159
198722.743
473051.239
489700.621
979976.806
953846.800
1223279.696
1159063.850
3015737.486
4766662.636
5053586.230
4820774.754
4453304.710
9230526.680
9311636.583
14627445.769
15322603.298
23994864.616
58274415.640
94427906.816
143292257.504
340232450.694
344158291.304
316994639.270
627486573.716
936553897.462
875776088.275
1356597612.702
1499985162.233
3189368116.460
3067461515.844
6659665492.513
10795781177.993
14731650490.616
31980893659.488
32257896072.683
64150522064.345
94840269502.005
217449178731.304
208688801721.743
316219107856.934
348407796945.108
529887894509.494
1188985440759.291
1121125240063.677
1645878956148.444
3865074282933.976
5037023393655.279
13611355013345.012
13460962532304.861
17699222173133.957
39637034463038.953
53053462545849.492
113796589178703.344
173320984326595.906
413989697687300.438
574450594523354.125
592551379799642.625
607326524367200.750
666277750889002.000
1414395245756718.000
1331683468140814.000
1219205101385748.250
2646163183782342.000
3879262379695408.500
4231484729999898.500
6819706829091656.000
14942003512187428.000
15416869808224774.000
24239972414251348.000
25543977853150368.000
24271197704648864.000
24087216649277008.000
51122381303967088.000
63491720430266200.000
127857654815497840.000
63884664331693680.000
76469919398876944.000
162743988438061504.000
154003253078848480.000
145640570944944544.000
74216141293206912.000
92055859378592816.000
132213282910869200.000
69525100538230664.000
93539462965372640.000
130999899162766464.000
112798554819700272.000
111712684583350176.000
60795289716745672.000
90723680744017968.000
72552748863978944.000
86984869908238752.000
130450642761797344.000
142381033375284576.000
153858655205224256.000
212331496435273056.000
253479503756752416.000
218177458562055712.000
295607985995025472.000
233707504002417408.000
369055541958207232.000
210826234084738336.000
224261489570713120.000
137277009268804288.000
127590097815745792.000
73990505006765408.000
75356934579973968.000
41870999322737464.000
49048959707321304.000
51752681963360728.000
82709594246646576.000
119378726343889920.000
151268903557959168.000
157375132507215808.000
123924152932544256.000
198557096215725216.000
280727958274580160.000
159961787896169632.000
117052576600003200.000
63817873042059968.000
86558171340716064.000
132997963175957200.000
213346759984462560.000
281402549312992032.000
256216841173694304.000
266271713854736320.000
297502802762662400.000
464188382803585664.000
508663898045054976.000
832825574373431808.000
446818826149848000.000
263962877513605632.000
225041369561482048.000
287595768963467808.000
366849258851569280.000
533340865686052608.000
376894258366082176.000
516368118452201152.000
502541667054032512.000
385014805445969920.000
950956498840994432.000
814690935120236928.000
493314085228903040.000
482920048500020864.000
436254193581150912.000
370736292151775296.000
203502735406732320.000
246568773261032448.000
265575685328434496.000
138245395696277712.000
116311074209061664.000
160229011231276224.000
135224793746694960.000
110369955255266960.000
126670779837044720.000
66699694769806816.000
164701581058412416.000
252850667289514944.000
522731773591050816.000
384037796908475328.000
798384111684676864.000
809906051038857984.000
699324270077264768.000
382565508498265536.000
970073285969455616.000
871524383488498944.000
680377074455641088.000
1766166465320806400.000
1179030073156391168.000
2526993209330235392.000
2513517316822775296.000
2700270348282997760.000
3172388641689437184.000
2588787285500860928.000
2140751521866628608.000
2300162605930212864.000
3135083814462970880.000
2083333738229668864.000
5634010095679723520.000
7392027859755173888.000
16753075247032856576.000
9417609300654508032.000
7824468590281434112.000
7707166576396637184.000
8937860619893124096.000
6847124160803781632.000
3779117550473729024.000
7648112852791421952.000
18410574550188455936.000
9960353410301409280.000
6825861279685422080.000
10135113570289917952.000
7554299492649828352.000
7408712412819409920.000
16771350300309868544.000
13628546634568452096.000
7359196017710305280.000
8298591871807023104.000
4616689226086203392.000
2679023643878996992.000
1608396510918607360.000
1543600985887322624.000
2051920978590300416.000
2223206849851288576.000
2430030222446080512.000
5415832987113556992.000
8697668752367937536.000
8554208311810494464.000
7314546697034310656.000
14908128620278849536.000
18313408466252793856.000
16163960694198239232.000
12252883748562067456.000
29958426423884804096.000
17452307091226996736.000
14697875869611214848.000
17964448916804194304.000
23791528133500174336.000
26966169380781268992.000
58586171483823292416.000
38967000738188058624.000
56013215343923167232.000
44127881551913377792.000
58808148757658918912.000
32748996257499201536.000
39032211282215485440.000
53999486357071691776.000
39952201015152844800.000
51159838511145074688.000
40591907172258086912.000
38191690998006464512.000
81850976266068885504.000
45446292463848677376.000
55550164740167860224.000
40934234257782104064.000
22268139651551498240.000
30264761106023022592.000
16100297397905534976.000
21467501169669939200.000
26113890918928424960.000
14066727850101592064.000
8113554835045366784.000
8501356276170793984.000
13773034354585810944.000
7497084984329148416.000
4458082464807209984.000
4175589221807244800.000
2468097322866852352.000
2309660290515024896.000
5505651492700089344.000
2994004728563163136.000
2638527836987471872.000
1481783020476471808.000
876610397660498176.000
739636873861747072.000
815527864124751616.000
433688693046382592.000
387861213340196864.000
506207355827899072.000
375407193018451904.000
519996607781648704.000
491408084574563264.000
293880458280112896.000
459859919537422208.000
267309342184148064.000
209261015940411488.000
263921360521268864.000
190690675803993536.000
242569959129926144.000
124403928812151664.000
261857493746568992.000
376313612108464256.000
495951118436845312.000
344666559320680192.000
513262372683123648.000
793439241920238848.000
425703565103563840.000
502285867862014080.000
286652695750305472.000
189376630406760576.000
264329392591994400.000
258575412259527616.000
225793955908628576.000
464338780150042176.000
346387820305528960.000
529004199812457408.000
503256402667118976.000
256158523054182176.000
145141538108167552.000
191926277161087328.000
287861184765747648.000
246224501054528512.000
146620683451846464.000
223069072825994080.000
252022921460567328.000
289234192456448704.000
469905591588068352.000
355382325572096896.000
381156043953607168.000
403753764674458112.000
812434928099170176.000
1095067640565634944.000
635482365100742400.000
1634262990164633856.000
2052501181488571136.000
2346749298959733760.000
2884681088090316800.000
4620503789323550720.000
3564463882314429952.000
5445750645757314048.000
4399547881026625536.000
2479335621031934464.000
2960643957337322496.000
2550037991488535040.000
3919395621526131712.000
4573685056588246528.000
2584242379074265088.000
1443609011236304384.000
783984849076014976.000
617768990624143232.000
832243975014215936.000
449607112020319808.000
240590372236181184.000
198790276668948768.000
425042938904185344.000
341762957941591296.000
396236385412519104.000
447485989678966464.000
252141103337000832.000
204034713864787904.000
197420746500412736.000
290870113284251520.000
466566748997792064.000
253375837580468832.000
139497067156947008.000
291592236515244160.000
160300664219919360.000
147264887981426144.000
80618947354913440.000
69860830496035552.000
111211967602954208.000
265724729571445408.000
289729631506593728.000
243276947562357088.000
248962028281763296.000
268596111681411552.000
253131431918595968.000
340282409304565952.000
727761147276294784.000
905882147237215488.000
940871756127714432.000
770452378089939584.000
744018116097261440.000
805764803963457536.000
473876604916935552.000
460513272660284160.000
643057677754027776.000
378614058440172928.000
205513168743835808.000
119929411380204704.000
61235582536197848.000
153995889326660096.000
201841939767129120.000
123890649133200096.000
188308292981259104.000
113702133706655168.000
129867670695198240.000
74294878578736272.000
42480904125103696.000
42095513530175576.000
35362658897246328.000
19728350567774052.000
10409336030432732.000
15176957413708570.000
9753662520781996.000
11534050540558426.000
11931391204106718.000
6161909202410281.000
5556352625192251.000
8368073027728596.000
7416751757316310.000
9843906543228928.000
14074449239222560.000
8020112550590508.000
6715386404819955.000
3756573031915470.000
3771088951505015.500
5534640256034891.000
14458105705105940.000
12231184341915926.000
6982821139897676.000
7741668204605352.000
11071847340016952.000
13812746608015148.000
7949127066588980.000
7090205301944593.000
4263045578929412.000
3788247366604032.500
6053645362160768.000
14684297959232920.000
10990225873744080.000
12853929725100188.000
13206126275887864.000
11697926124031536.000
10179403746327222.000
15253308775233148.000
12062172290249872.000
6040273534130442.000
7312510830739614.000
6148322196183873.000
7372284014953007.000
7954436062657083.000
6603114553440696.000
5582196956855471.000
3268191929876763.500
1773942495626455.500
4341243777384275.000
4446187257095985.500
6059077699971983.000
3609204670925252.000
4583074379930055.000
6210427354117699.000
6838184787518499.000
7972557464451327.000
4483590426451345.500
3643837062299444.500
4104272351931615.000
2428029567457185.500
3759845870204914.000
1966924310923668.750
2129373850289809.000
1220223995255614.000
722206112457775.500
693672996222079.375
724432131938155.125
562269125601885.812
1304786490700200.250
1680188934519619.500
3701752932870799.000
3169433778904821.000
4565067154590489.000
3196160900591080.500
3412609022660463.000
4042096715331823.500
4333054913976045.000
6101852003371023.000
14828987304645182.000
8288288444085084.000
6091108179183999.000
8014937224472344.000
7517273979819330.000
5860636001662463.000
15180493289231208.000
17496501611255910.000
42550063600717672.000
60411809909920320.000
72873498503475584.000
68987935369963056.000
137851700979716160.000
185193402264431328.000
492816312507497408.000
270768074165687712.000
152636615603167072.000
205544741786887008.000
289113167968318080.000
366561977154037888.000
215672126339424320.000
235857903066732832.000
471779327537561472.000
739316362115047296.000
854956600980507264.000
1128029869356162048.000
2614617030991117824.000
2056543616694337792.000
1280264675950600448.000
739990452877355136.000
711338659006163584.000
1096139747780250240.000
1140123689786276864.000
1556518807469212160.000
1397841878185638144.000
765755360345649536.000
871572237055959680.000
914805734848292992.000
825139934503940480.000
811884808271138432.000
1656540655329638144.000
1505243019260040704.000
1264832522453204736.000
1609373362596817920.000
2252753043148597248.000
2668369003739404288.000
2404248679155091456.000
2873687446898837504.000
4365878405273640448.000
3843085440486063616.000
9391753785709785088.000
8028072919176288256.000
6697636048709652480.000
8657640233618855936.000
7220530163950081024.000
3733967881069837824.000
3583859232228232192.000
4075211524721524224.000
3536222189163067392.000
2126014880398191872.000
2869018432396574208.000
2633358474886116352.000
1456298825699546624.000
824219527444914048.000
685274825199125888.000
668310167297556224.000
873051512745453952.000
643429844269918080.000
716119171451424768.000
1569611783837661440.000
845246033567657728.000
1312650353156018176.000
1152305114226803712.000
1162939261581740288.000
1641592154405001984.000
1162023036331546880.000
2730295380662880768.000
1516880600486680064.000
2366890926431190016.000
1173867385913439744.000
1665660665913093120.000
2730015905013109248.000
1466451573223795456.000
2252559292231126528.000
4742200092593380352.000
6954909324547824640.000
14667004432185083904.000
29885480419276251136.000
30302052979565453312.000
25438154324285911040.000
13174684548021850112.000
16185324110916460544.000
8470074641649022976.000
4734924579989830656.000
2685433188003485696.000
1540349739571722240.000
1532167646010608640.000
795308073434640512.000
799921092643245312.000
694492255332874368.000
349631027823032128.000
767309262438594432.000
893245142953329152.000
678666292237932288.000
1615627597282218752.000
895416431767686656.000
460321360730495424.000
332791162712601344.000
417740211581082944.000
512329995785589248.000
364357977919145728.000
930259454442884096.000
598262540037512832.000
345165684042452928.000
211594846186659744.000
516504789992906816.000
654866448425005312.000
873573707614325376.000
473812070981507072.000
239664062067368544.000
219527191573280096.000
221825574665632192.000
115122576341662640.000
69330880708417640.000
58655976264285888.000
35611250254818884.000
40619067968458864.000
21706949946436728.000
21389481545350388.000
33601960431111220.000
34347878180030808.000
21006998582523844.000
48485287431640288.000
36047131750193480.000
41152154432868760.000
43090780729762232.000
32910570630144016.000
87754932422507760.000
73554650400853904.000
102615876330836704.000
128118240529877520.000
146703620905372032.000
86932570735836640.000
45661502815283232.000
31575489661454296.000
18432353135893076.000
27384748665030872.000
14852947243954944.000
7850773086273837.000
4309985666981362.500
2220816822272733.250
2518747456291451.000
1452794820858824.750
799141136064270.375
685827019031694.125
624966950204751.250
1259612018910603.250
735065303540421.500
555329804403749.188
1386436611676153.250
1229389191369959.500
1107722529918225.250
1066030893176330.250
2601668050693491.000
1949696309532349.750
4473573733186472.000
3064446579893043.500
3584371382937702.500
3364935482282336.000
4372546530669015.000
4190546445901518.500
2420809742587338.000
1284394056877271.250
1946485067109763.250
1073252221303648.250
1294337351865987.250
1431951612888966.750
1346233448733978.250
766016896027542.125
796299005726085.000
638436981793588.125
373108832315189.188
388688476044907.500
305599980027700.062
402604260261186.938
216321327041975.344
111617059584852.531
64178880657450.891
103127588935068.375
134965317767186.875
207008764599703.156
122678285615714.859
116746838440289.391
253183061583900.594
241178026052718.938
316396027262852.562
331176043643243.438
333497917383466.812
711099137316765.125
413157062288543.250
390526909763416.500
306976051428309.750
171820307117082.969
96663429089501.531
134640520192591.906
127482732660964.312
176151146789449.156
224501361233369.250
134284793763492.703
69997801245325.086
61897820522206.617
36466627683463.352
31909401166420.723
66651680511067.078
134996328997180.172
109682345715391.156
64717309461282.500
56563586852202.461
61748207129300.078
66335404495478.625
95373996401043.359
93564322295136.219
242984714606349.156
298444767072990.125
338992396119869.438
361059191475770.625
309818569164239.625
343993921120360.688
793333181138362.125
415547352871052.375
596429495810345.000
614608597073776.125
819199728127871.125
696959919209152.250
377746846248635.500
342201537550946.062
443862775011003.688
315449180653778.188
176161755855442.531
91934520215905.078
141793131237138.188
108070242443753.484
221449333638250.594
439827112992758.375
331304528621424.812
329360378243478.688
457531521187879.500
553575760073294.312
1359125979502048.250
1974308151594190.750
1765807021132365.750
2006563875115027.000
3186355121207170.000
7710330612266212.000
8681204332632534.000
12615441468824442.000
10161030081853132.000
20734511602978060.000
27954390049325716.000
19926652797250692.000
27165250494333644.000
37262644572774144.000
37323682464642368.000
42526172203977408.000
35126463068186668.000
40654448605879456.000
22134987023352240.000
26040280716836656.000
37829356255117152.000
22891161183347740.000
35594780858312616.000
82201816698888656.000
114088214637534480.000
70002518439984640.000
161680251459375616.000
113692397273945488.000
156752115892885664.000
143814940953725440.000
144688568841204928.000
232506740529778240.000
262043130060358752.000
256130743331562272.000
257519918795549184.000
200259395103998112.000
232450390301243232.000
212307319934136576.000
230104477391988928.000
208180986425828128.000
277172949059826240.000
164993958243246304.000
88728534309813312.000
87084062577565824.000
91808218669818208.000
76131824005405040.000
72420350747477376.000
43941754518070928.000
43321223241422640.000
63115865368393784.000
34807139973072952.000
35024859542967468.000
72397672077229008.000
61784930624535928.000
165371821970848928.000
153452950622938560.000
115790206927055824.000
263550912488444512.000
236972845714346048.000
136826685737184496.000
204245119977731072.000
214305964869757792.000
281513266519915520.000
289120383320210240.000
200221917751454656.000
251717738363780224.000
149795859543491552.000
133224920720994352.000
210035715578140736.000
109937399902464208.000
113980975298048928.000
247361215479714336.000
219379609599070624.000
531488296813206976.000
286864165204471200.000
241405034895479328.000
294409338643399936.000
458038767789654720.000
266484521758116512.000
281399466797878752.000
168112812763280736.000
167758303080770368.000
116615095004915504.000
118483782302695328.000
146824205553150880.000
81169123755015856.000
127482833734408160.000
124983571208612000.000
142226003845395312.000
165206948267719712.000
221524414133235264.000
214915451985384800.000
273071013238271008.000
211495975503451904.000
115599767013065168.000
142122913083560560.000
73457381053675216.000
158596903596245472.000
140237749245935584.000
162179231337854432.000
138243658292617200.000
111300315702477072.000
112088253279421632.000
144931706475369024.000
77111747491183360.000
43820790095119672.000
26442920505695156.000
23322701023270788.000
12576508709236446.000
7462923301188337.000
4453828146965618.000
2399734407541509.000
2729473423712359.000
2002851016533999.500
1970584054091192.000
2621576911855912.500
1935695253680179.000
2403920756303323.500
2362509458369663.500
1431821052448580.000
973745672745282.500
2078260916399434.500
1179011692998327.750
1044796263052105.875
605027460169166.375
1328303660809894.250
1131855041958733.500
1487818236903728.250
1188541458178786.250
1794864762740702.250
4869302779379883.000
3759978283289424.500
3254574569656369.000
7691348379164004.000
11447536198883360.000
14222725436593432.000
11256140334981194.000
25559488517707196.000
23391302660508516.000
21665744725760192.000
13115379368094172.000
12568659723418978.000
18400715000002104.000
37879941492872680.000
37647850350251104.000
21679134296467084.000
19667091088369524.000
47150103883512496.000
46016646337229520.000
34606081825981804.000
32918096902894836.000
33321810417427304.000
19241590377714224.000
10151669628975962.000
13280182613238198.000
12788828868787140.000
6575229536041924.000
3758057371292841.000
2278863304036513.500
3346874478732123.500
3985578510424486.500
3773236186982220.500
3272165236347226.000
7232232940561346.000
8129893596860367.000
5891100302115823.000
5906786040185217.000
7733497505700804.000
6941377616581385.000
15128150524976752.000
23115439812146800.000
20157523516684296.000
12182387253188876.000
7440901574948145.000
7873660719354819.000
6190061571025269.000
3360909748334227.500
4020876510095061.000
5738250548101136.000
15664921666467280.000
20538605493862104.000
21058595012452908.000
11226550471922894.000
25818020821860696.000
23052730642558812.000
48026383318144792.000
34304542067942928.000
71865723056013552.000
39205844280279824.000
23631165169273552.000
13363629199760782.000
21528678698594360.000
13057016566411740.000
7140952365932293.000
10104385896115752.000
14277096503654922.000
22892429290160296.000
27358885360414212.000
14487147791603590.000
12968616563109228.000
15346750616341250.000
12929124259525744.000
12712729432057338.000
7285689522934161.000
10369995350919752.000
21975657187455056.000
20329028847622916.000
22756670849021544.000
24036328725533260.000
49944132652980328.000
81266995381449232.000
75992812661863568.000
39792163687233488.000
23690262740031900.000
23685132319197668.000
13002911664737730.000
10100725692302218.000
15511052224377876.000
19007750509879704.000
49972077044853896.000
40560893085689848.000
49808001963558712.000
74941097234864560.000
64731083427572224.000
71695506795513536.000
80017297117730032.000
45074909275029456.000
36712922873662712.000
22134864994530368.000
26705737244988348.000
21154953881937144.000
23607401915196644.000
27333958591513856.000
15501238447192178.000
8406894875723984.000
6377365378588112.000
3618890158378931.000
1972783741990717.500
2097960313565271.250
2227292273084496.750
2285094738206651.000
3542643639555218.000
3093071176718937.500
4344170635067727.000
5628421982081275.000
5756332726610375.000
5625867705763435.000
8157115377842283.000
12208311168592980.000
6126429710502834.000
5551519385740623.000
14220861851228570.000
18161902844488328.000
45537036372734944.000
49910680439181416.000
79659164921035856.000
158730321169243200.000
157096447530782720.000
218251919116516832.000
263783429028884448.000
224087998296545024.000
460227018306503808.000
270450620988911360.000
212585831931883424.000
116107052940783696.000
67497423779604328.000
146452128271913216.000
76318667585160656.000
39442171693044616.000
34656454343953824.000
47529984850190192.000
24098311087457368.000
34016797003290036.000
36967580367510096.000
56679386425964256.000
75978185832569504.000
156081722255878688.000
122423761739715440.000
64635496346487936.000
88490097177096336.000
71693953399521576.000
64279569069418416.000
141984348644785216.000
76511209274452976.000
84461156145582912.000
73391929641685696.000
85364042998078576.000
77775156814539984.000
122373082091927712.000
286332858374100992.000
283484768842321760.000
199616098233485280.000
424648145662552640.000
673562224323795712.000
349213907631662848.000
194886892463782656.000
259727779946002240.000
210526984299983072.000
454167000994276608.000
394116177319336896.000
206229170677082784.000
119932616011089696.000
288684312400346624.000
408388580986559296.000
471288698459011968.000
336254491038073280.000
362860136408370240.000
507136065272757056.000
499067048502390656.000
286291817986671872.000
156277713391883200.000
244923909420785984.000
232816872075458784.000
339421612455844800.000
898252775128285952.000
1291723260533197824.000
1437770251475553536.000
1599776671003065856.000
1393280023804971776.000
1123678590550917888.000
1356582215833723392.000
1633689138702585600.000
1188687958239425792.000
1698332130291491840.000
2574387310206835200.000
2907489036419270656.000
3003864961370098688.000
2347087370520638464.000
5311321776522575872.000
4406341494913772544.000
2482342742217160704.000
3035306073614721024.000
2120735915599691008.000
4509378864870902784.000
4076738515907432448.000
4802101537226017792.000
4927275826431908864.000
7481398418398129152.000
8219949080946599936.000
12150519125753251840.000
13522544606963689472.000
7170030480559091712.000
8494883551528453120.000
5014710591479340032.000
4030170606321871360.000
8381690511842734080.000
8824898432080348160.000
5003852632557926400.000
2897009846109440000.000
3937408422609899520.000
4338248856953357824.000
2183397752383599616.000
2767941067747949056.000
1629064862896087040.000
1413194329635385344.000
765195330603344128.000
616129262273715328.000
1257272909340831232.000
1406893697550411776.000
1238399784235728896.000
687430381150426496.000
404381826674275008.000
439682343235559488.000
493618302004234368.000
457371730250654208.000
494888384358773760.000
349177874556727424.000
936806709338384000.000
1499330853051076608.000
1704266807514714368.000
1260032229438521856.000
1260634055673391872.000
770662619881131904.000
1597716243108606464.000
1377469580456224000.000
1538577424086656768.000
792794416974216832.000
918180127350561152.000
946758849151190016.000
509922736831718848.000
365251732433914816.000
888682097695207424.000
802212155531431040.000
763305546401701632.000
431613001334943168.000
229143128610006272.000
119980787624744816.000
157823503571688992.000
130316519711421936.000
111446020369920048.000
295105301313609728.000
151270612340521632.000
121232518201780608.000
67601086905705528.000
164038393930644352.000
242889178791145664.000
295565458501849024.000
224757190282502144.000
290811912439339392.000
164311982141017344.000
193326685488664576.000
535235704472112896.000
284754808737549120.000
201981515624633568.000
230028187727549120.000
280932371257027616.000
271971944657056224.000
198426566393146720.000
477201446679159168.000
964684664479003520.000
1308357056749018112.000
1455478909839502336.000
1541065381690138624.000
1272302635819529984.000
1738031561430176256.000
907150630524819584.000
464590010027574912.000
379757234065473472.000
506193145953453120.000
350319208661264256.000
466562511871903616.000
246438620030754368.000
214193738719301376.000
122428127568099104.000
141218557831301856.000
164122744297419712.000
154945455923695904.000
81076231889276976.000
46785835424420168.000
27363478699016584.000
43755596500985904.000
50056850205706080.000
36628693772623896.000
49045939341001784.000
64321218279467112.000
76908880919888000.000
79065692623159744.000
69844939868019576.000
151355888636864096.000
108172539036796560.000
260151599181663648.000
414308965942540544.000
480906134592241344.000
440702744040708992.000
256127204220924672.000
143464055251353120.000
195414606157238848.000
399619439391720768.000
628549890239586816.000
875882959335218560.000
1133108115183631488.000
2899935840569560064.000
2075964444942304256.000
5299626281982233600.000
4713998785125040128.000
5115993988645995520.000
4537090386221150208.000
3731039454236821504.000
5456385193903823872.000
4437659980399364096.000
10025457622685231104.000
9382516680921196544.000
9360521375530137600.000
5568428029341006848.000
8993423245657383936.000
9069900871595937792.000
4902322987934574592.000
2686784268646312960.000
2065902174760651264.000
3140179563644717568.000
2052979678571995136.000
5027329550342224896.000
5114759431222428672.000
4430318420233775104.000
5405875966750119936.000
3003225369678824960.000
3172229923844111360.000
2182208810704222976.000
2136795667621220608.000
5160307765295443968.000
4217817822368276480.000
5398473234776641536.000
4867840807306619904.000
7807949248577383424.000
15660597111473164288.000
31448456044371787776.000
29976907488001228800.000
32838848697970167808.000
25946833815232155648.000
14740152950037784576.000
8385731456317288448.000
17569854259983677440.000
12267113967919872000.000
31974939947414110208.000
22027943606319841280.000
27732531334656675840.000
22695009800514211840.000
29426731238365814784.000
17719949673686913024.000
23486867149912977408.000
27934280837890613248.000
22924300050496925696.000
47684643271771774976.000
55815000571749621760.000
44974522701252214784.000
24978695560375558144.000
26243352242766016512.000
15390392421400158208.000
12351042696998664192.000
14165777675739400192.000
18223694941874939904.000
12585120540468496384.000
28034086786674872320.000
16455959274356299776.000
9834869070727319552.000
15965726026928515072.000
32101083045143699456.000
22599514028916109312.000
31708424474546380800.000
18397085912937758720.000
13767343922459668480.000
28609041264790790144.000
23914349649420558336.000
25614482573154885632.000
31127271521479864320.000
16811943004367958016.000
22488859216863080448.000
22876079314143678464.000
49572290881821016064.000
106346737451531894784.000
77469868985118572544.000
93530758461407444992.000
83007834719825133568.000
41714748099038937088.000
50172990564830265344.000
56970010050930163712.000
85286858490632404992.000
96762437739186798592.000
51539756509917978624.000
57568177454258135040.000
30248281793596985344.000
17955852902139363328.000
10151375850976743424.000
15121720236422531072.000
30467931298319278080.000
45194500387670654976.000
39056355709981368320.000
23771586964452368384.000
12102194811199162368.000
13987325625158279168.000
7220169644459120640.000
8987274832852655104.000
5069377880011225088.000
2800332981584965120.000
2190468342103789824.000
5508700407013650432.000
4952537894627808256.000
4285978693371380736.000
2172207778544078080.000
3148947202468681216.000
1737705938972007424.000
2506270860583150080.000
2378844725372345344.000
2372922968810751488.000
2113237084606259712.000
2128482212141297664.000
5237161289625794560.000
8057616473691319296.000
4259338128107082752.000
2223402351109587456.000
1322163848513128704.000
1622424885948414720.000
1675742552122150144.000
1313056697875204864.000
776333340508982656.000
797608833991856256.000
816392612679625984.000
968813941294387456.000
1256984904508364032.000
1567069135312808704.000
817895273813928960.000
435425790297085824.000
489218771411201344.000
278198455720816704.000
142317721007216896.000
158352631745896128.000
258919881456273056.000
210123134534899168.000
119393892492408208.000
112971879890417952.000
109004223936556992.000
64482963970768512.000
36607769252785456.000
20306610980109004.000
12102880523525784.000
6880017058366704.000
3989891122207004.500
4827155168439007.000
4555143406832264.000
2579993714024787.000
2125267165763989.750
1846438118640594.250
1075158148508259.750
1514388614275719.750
833223483672561.750
804573246058817.500
1109413722079935.875
1114583735096527.500
1303835817265148.750
721482090904888.500
365461477369858.875
188698725478143.031
253666332867428.281
247085046707668.750
254686444806122.625
135287507465916.328
119101933016019.422
140698146934437.000
96314061618221.562
102430450859631.969
140365543644221.797
107748968432518.391
62955276122171.609
59694509582652.195
34239427431473.117
37355673338436.789
33151644723568.859
78465866192190.438
40510954607560.258
21212027706403.844
11195352851893.990
10006996701249.529
12327774929695.252
16757156483843.514
24113601225863.207
19150495658578.797
11246578342077.762
12516771672997.053
13118806780621.053
7058115149240.626
6985190581473.809
6968573159418.270
6469454236962.708
3747809072038.292
2099475255480.188
1126888865387.915
1001496017435.648
2025015994472.951
2164125287489.756
1722453932771.867
3647283463501.538
2135454161380.535
2036972383547.591
2018955929813.883
1583402497217.023
1988076700272.296
2208600145199.786
1294791979970.254
1272718913047.372
691176686677.916
1079761787972.703
560497432239.881
563881496965.065
1296756916513.039
943700064785.419
874659778364.188
1133287658081.864
634873171011.690
655094944160.714
926797170914.376
2087942431086.792
1079815541005.573
1181280206941.997
687098100652.189
868507087966.794
2205976019502.789
2237294035429.316
1566968603583.053
859184049127.973
970719090119.257
885048067752.415
1846524690227.448
955963566034.959
938345017896.531
889837230042.895
475546709782.909
271435989916.840
152305346729.812
383870479293.596
535166279050.051
1294768548180.440
1789262499348.369
3754839027968.653
5268992704320.764
11417064963628.418
23952586358757.785
30157943300442.844
16773977438289.879
16921685757694.082
17415089406424.480
19712703469204.629
24234549045678.246
24754799584657.668
20017641622629.359
43602098668923.656
59502033575593.180
32895098324404.762
30644721510718.832
36722147273022.945
38627101932160.602
62534306755875.336
126862348624980.438
75888075799538.969
75041456023353.578
102388214003442.375
206362872953093.469
113209790462941.344
63349137751821.680
79903670178397.922
79753931949948.484
42902968966573.188
22221183937653.395
36240726456572.125
34781783838486.074
73305139068199.344
66863382105740.359
36549444627358.500
20762600909535.102
43841146877288.219
53809658551872.883
56069587781980.055
79055577832134.281
44252342610915.492
28823985317427.988
41791160585403.859
36905148108117.977
35038521891334.887
29091441914882.098
32674772977098.758
31859630568879.848
29084720556682.406
63676711116849.562
138870463991030.547
194482967668093.594
199065191457907.125
416406463782820.625
240391283571058.406
127162770301274.203
126361428482645.562
100385897931209.094
58791846056503.141
58063294731480.422
56991720620345.227
51000526071281.930
31104151818980.801
44149770545766.648
34825438574950.629
74742644314711.219
68585346469723.250
104614319911541.500
138335062293386.953
127953337261210.906
177532880701251.906
238222945443240.031
123881480720314.406
130274052832170.109
115149610323643.516
169044970993094.438
410581657481527.125
212990160345029.062
186760819661301.188
207386343448635.375
226715288634991.438
206184092284485.188
104230776496652.344
52294161030989.883
134438666826568.703
121317610173267.469
247480479262588.969
127583920965481.516
120128435084315.906
134872924791551.453
168570012109545.438
168601816247313.406
410513007799850.938
648967274079251.125
687562296136034.750
722133927062621.500
435468087851515.625
336605987430836.625
197601672390178.031
231784922175290.031
128944942324513.234
103458387860919.719
130378270364174.281
77801519036281.766
39879853367415.461
56023964794843.258
54138088103146.344
50520223304204.742
76902725327468.641
56397015158529.922
122726238425939.188
102972474213851.344
122776970734410.672
65503454984496.469
65714312647440.945
104114248639192.359
137887066282132.797
133792267897991.781
78335866250022.656
50012979377861.031
140384151807553.656
204386457667333.625
168534072577357.375
216192528740572.156
292312021026780.875
610552382455632.875
731067074255589.625
770040210096228.375
751183222186842.250
1082472268171599.750
582148041497022.000
603918955504632.000
733261990013872.500
1105080905027665.125
2509776737393734.000
2529134435113036.000
1791706858386576.000
2471884943864511.000
3126929624218769.000
1763765079369200.250
3691902582094323.000
3132488410497762.500
3593355813471036.500
4507182606162337.000
4513402002846257.000
3344857292391318.000
8163089162556849.000
10097549546917722.000
10050827627187540.000
6233562878700356.000
3082799584870504.500
4165300077038464.500
6229972516112000.000
3190991689568548.000
3102155951347764.000
6710959136571518.000
13558872648072306.000
11180633224385896.000
26235456723103624.000
37881640697386296.000
60338468821885128.000
64843117278893392.000
64407044365345560.000
39812663320903584.000
48814646031678000.000
35047372231664272.000
78130194339089120.000
42546995112840448.000
22389890888468936.000
33306073849591656.000
39792592069131368.000
21238919232649560.000
32294382050838332.000
73367124039458736.000
63763809605773592.000
87361299141069760.000
49558154585771656.000
57363153217842440.000
66760189497317720.000
144876138615050752.000
133269869120926928.000
191579328412770528.000
196883193950116128.000
193315414569587968.000
120782025039091792.000
72347073844305392.000
40659056894201072.000
40950511564944544.000
38336869615508832.000
31697347676915576.000
45295463420796136.000
41434958316489272.000
20850030931429752.000
12721852531291344.000
13066803292637536.000
19671374170614016.000
21492044828936316.000
12412255434302386.000
25569209253113964.000
18992475025551828.000
40926365168943696.000
32917808240475652.000
49720107422051040.000
48111636733466208.000
48653037132161872.000
38454362189158304.000
36372268838557848.000
38964839928699832.000
47729121268122240.000
32447081113089668.000
19503594008047352.000
27764721085125052.000
21552433700462740.000
20670311897544148.000
22492910002112396.000
13558341945182292.000
11660612529633618.000
18500510877159808.000
20290731261081460.000
23801668292771736.000
26624236596355644.000
13999014781432318.000
8224903811998350.000
4307358677770933.500
2507083727975527.500
1766599767158326.000
993270287373987.250
1062328007938358.000
2267796306262309.500
1233251443047628.000
1956593591475334.500
4776244777935481.000
2542626968600251.000
1476340434936019.250
1238150535802799.750
1279868441362646.250
1101781074941994.000
1452300825886800.250
993891257689964.875
2048468398178540.500
1176264600894621.500
641105543522176.500
381733914404798.250
317139710980791.938
660574639680468.875
374919915444017.812
207950099294974.219
239100639188446.688
293370406383379.625
710965845389384.250
954625456110840.500
1455694227439471.750
1080150014609010.750
1716976379164496.000
1722865605837773.500
2253208969980228.500
1313991293240055.750
1473653964422120.250
1275734307303808.750
660206075532891.375
351554738402674.062
360306731685703.375
739599705348711.375
712900349802428.250
528493734713088.438
776890953213181.875
458352886623171.625
702018894702392.625
998507259845519.625
1312771076220606.500
1184623868079303.250
1117408248171017.125
677110008204695.125
341059375404895.312
193721170249746.656
223348004253936.406
328241613028853.875
414518634115410.875
455467814663757.125
339613236912544.875
360001733410266.000
208070465570336.594
198532359554525.875
446156812896351.875
414642324507857.250
406303424119905.625
373412940304173.938
346945946513979.688
379388511624707.562
217869350757077.094
248802859091481.625
330144619332463.500
321233053811921.562
690740928843250.500
982554529545001.875
560597393445742.562
536370415703017.562
1346673343186966.000
1102794460200408.625
1402568292827068.000
739592997886092.875
556090381230237.438
660543092506153.875
1319701569892985.750
2686379872949104.500
1757454008904932.000
1902437659443844.000
1854316387749366.000
2115273987498686.500
1237609952721332.250
1890927252616746.500
2415242618786060.500
1334702146024384.250
1808055412594140.750
4549471287404057.000
4305915615427480.000
3736817628710479.500
2115926645128249.500
4701194223730435.000
2452572903740918.000
1483438646159076.000
1426405972782588.750
2033773590298919.500
4690085780111226.000
7443603213685255.000
6491214848779593.000
13791952894223284.000
13916541820125504.000
7737174668731738.000
8132970248733323.000
4210976314188195.500
3279236140481490.500
3338604097511787.000
3314574841931835.500
2060938824978305.250
4654233016353051.000
3975732122899916.000
4409361077313447.000
2245010972861697.750
1342609959096646.500
2717498595730193.500
4039829141964180.500
8686176103802524.000
6976548305123270.000
5796953347932031.000
11734027879219342.000
11185623821744872.000
12824891989608252.000
10631838019529386.000
6465298489410900.000
7985833273986400.000
8801820462163462.000
4898617476677806.000
2503533570896722.000
2318730236694925.500
1343608460355786.000
2665584386217912.000
2385021002820118.500
2043768895507378.500
2208155710197610.500
2223326217843545.000
4719167380206539.000
2606225486691353.000
2652593034476270.500
1456606750934606.250
1095503360147125.250
2434185341071482.000
1428855618711660.000
783396074676630.500
702031024927309.000
614561336854999.750
636192999263218.375
1403422623928848.750
2096886355773081.000
4882335323306467.000
4311693048670859.000
3842242345686927.000
2242646901997528.500
1227437374081926.250
1356219256246941.500
1271217030448159.500
2738783585800816.500
2542165490866578.500
2198086277742864.500
2043173786483759.500
4331305516002946.500
7026518081081177.000
7009730447607429.000
14202224030922112.000
18829390077311848.000
25759394618816044.000
19212381617783940.000
46720216519857888.000
28193308491753076.000
15808996432323488.000
19302194761651308.000
44613213531000768.000
23268835612675520.000
18773054136962784.000
24011813781054936.000
21902764846554796.000
12695741911606970.000
10923962463684054.000
13504282143622832.000
11088776441853626.000
15800517113691648.000
25956814411425164.000
26335602622089956.000
15134192877468648.000
21204391438110212.000
23539638373629032.000
12887775389871000.000
27008496862294284.000
23438827243705596.000
13141545268847458.000
13790728942170328.000
10589149562177862.000
10760969219873790.000
13682506522643316.000
14315389267132948.000
28763358306689204.000
39030722569402152.000
22784511437135100.000
27363187104234524.000
23715612706932064.000
12551428120018778.000
11206766521530812.000
23785085134927860.000
49533344061785536.000
77441291521759600.000
77395283447167248.000
41719408624141464.000
39528891323995744.000
36574925555569120.000
38229812482610744.000
19302280599904872.000
24927805953614896.000
14176993003199178.000
14419368336698744.000
13353129734895442.000
7083581219406587.000
3877577013519197.000
2068802729413611.750
1162564458429688.000
624884285244084.625
548966479080632.875
592730301899358.125
327934442637813.625
189771995768651.375
172225762897658.375
260965288309489.594
196872312364553.406
184737833881934.406
469482842655705.188
561282596349804.125
1477051534481359.000
768130373819296.625
422804590264231.250
326491615259802.500
674958263887973.000
609950818242956.500
376389902478641.875
394226145854735.250
609187122967922.375
1317551761439234.500
670501187039048.250
404740623833265.688
379197167869531.188
399664204088993.188
224690771555008.250
176540115782064.312
431882689006541.625
368006524676140.125
315108587489611.062
187033449394278.062
100337035701501.562
133521626006426.250
202644791195260.688
430388485230600.500
308237598322559.500
685992130527145.000
365591735601212.562
768007977760971.875
836758062235518.750
1056238079409667.625
1499030608037385.000
1286914224456369.750
1855104198735784.250
1097313819155297.750
1339845293657788.750
775147866676759.875
440587999853455.125
336544080013781.688
701008755782765.500
1050286562681216.375
1198436030324646.250
1438795791039182.500
1430817585355219.750
824159598806481.250
683167852105358.125
1432856569079898.750
1846634103287862.250
2601291785397680.000
1509144902160162.500
1028407466435523.375
563895598377485.625
306347633001199.062
325746315038510.250
355096767010643.625
435423085055098.625
377832654271822.688
826313759057767.625
587106683559048.750
672100363064182.250
1478171514167719.250
2243072444001578.500
1996697276286345.500
4436033839526603.000
3362600655214390.000
7838212100179356.000
6733088727603303.000
8089073208871344.000
7795522629058496.000
8869557483374220.000
7978815472313554.000
10679503948187186.000
12182541176823868.000
14362904578218110.000
8012760885188664.000
8771600876030709.000
14323576937471484.000
20791255938052780.000
41891868555025216.000
45027822789174224.000
47209218919370392.000
43266312685678240.000
37238449212732136.000
79900735874502160.000
85679859615421776.000
91573269009815152.000
123110208936871584.000
294910355873515648.000
279315682902156384.000
370735903319016064.000
755389546665670144.000
404282973058879488.000
824484614357411328.000
750310135508998400.000
799263060615671808.000
1204198741128686336.000
1436464674901602304.000
1267465488549190656.000
1238631208453432320.000
635819670308547328.000
877148140413214848.000
511309755082122816.000
478804375625094656.000
501651042727224000.000
291491634233214016.000
231350182795478528.000
535575927790694144.000
514887173603935360.000
499330487898822784.000
288594144858433024.000
166883536837119392.000
163103394428955008.000
255964743283648672.000
249669993453918304.000
522190160383813440.000
740287587039398784.000
884150452136838400.000
504364842369686976.000
302014620579667392.000
155316958547496512.000
147420282984243424.000
152426102079901248.000
134548486425171392.000
119071358358065632.000
154658968100749728.000
81866578852373360.000
67356813897975080.000
154910911678333472.000
134676366318004128.000
69957822339275312.000
89490182364297472.000
72763533901283344.000
86429980752132048.000
75742540140701104.000
