43.014
62.456
56.977
126.733
199.735
217.613
296.261
707.678
702.485
1010.991
989.838
940.957
2558.800
2491.003
2329.410
2418.251
3276.057
7622.038
7241.574
6549.949
6797.125
6172.921
6359.615
7005.698
15300.911
24380.562
25780.536
25640.874
24105.419
36496.402
37581.777
59433.311
152724.216
148177.154
193165.604
429948.830
898073.849
1115365.706
2482970.257
5398914.078
4945423.369
4881454.259
5265416.550
5462649.128
7136954.434
7296300.883
15273720.729
15321782.526
21152384.996
45451520.552
47480846.039
98836549.153
104044109.402
127939548.307
340930307.578
392857278.932
859977666.134
1357493475.086
2993849873.579
4570416412.494
11391918355.982
10818572231.408
13933505941.065
34036585713.968
55498756218.831
83275855665.190
84059684977.594
88008320158.454
96587536245.487
206367702456.494
202863609471.536
193504078125.448
268685066378.199
656778032337.099
674310512957.892
850993206426.903
2122424513588.107
2191583532824.535
2984131703998.840
6224550242054.273
5799976562857.331
12467941677854.281
18060888370731.078
19899320993421.477
19715588362788.953
19508275109100.773
39120477473743.641
57804967279955.062
126700241605648.734
206067401811525.281
189025990302706.312
418131706534430.062
822731927681164.750
1013615346385223.750
2474371395465430.500
3410604841385490.500
6872468852597764.000
14033775125386934.000
13637787733948548.000
20555007104935372.000
32711361766770528.000
48424379537737784.000
68053829726660304.000
87699747371903088.000
73846918075502832.000
157883190118225632.000
113034858628037536.000
131601200385000960.000
192080584415520192.000
280220538649596480.000
354606895051033984.000
899371329733275008.000
527696807466770880.000
498994671835427520.000
517435731289408896.000
841403715443795328.000
463493727504162560.000
359411387720762560.000
347101124711114176.000
955342871368847616.000
1420386713041267200.000
1407298598455060992.000
1341451675159203840.000
1322441745941298432.000
1532285344926935808.000
844372410559572864.000
879043524792552832.000
1180968902004381440.000
2678739448985992704.000
3087567142065210368.000
5054804905724682240.000
3710841040486342144.000
4648781207600536576.000
4827331282536545280.000
2930856117030777344.000
1644618002838730752.000
1184356240106840832.000
1404685312335188736.000
786174275236375808.000
645567676222100864.000
715882713059244032.000
1554045683892283392.000
1693896564148861184.000
2147850788681405184.000
2576968416605991424.000
2394023482812995072.000
2799272211636914688.000
2776630903646775808.000
2265550313899351040.000
1382150052081940224.000
3058188745539488768.000
1629575014619732992.000
1534112947766649600.000
890704291946485376.000
645779274798338688.000
933211101604636288.000
480824572075079488.000
418516547844223680.000
220126806093995168.000
251493564154391712.000
288413042837814464.000
403595527900765632.000
500386821106561856.000
300619546197888320.000
213293017245463744.000
126538744693958016.000
130142322466487248.000
201530487119425696.000
439996384516233984.000
246352592101103712.000
393999909089687680.000
364562990792867648.000
465578777670268864.000
266291795966880000.000
285864776443829376.000
216184421641667936.000
285648700763760960.000
362881321108464128.000
532863970024167936.000
391331737292772928.000
889691864894000768.000
493965805353772864.000
408343156176915008.000
926711878009869952.000
859943758058205696.000
1362655656064911616.000
1199916700534019328.000
1486778133681709568.000
1732532367928793344.000
1218555264761195008.000
2985677616702883840.000
1663392472028922112.000
974804388754681984.000
758789294767970944.000
905812666578508288.000
705522198432304384.000
822023788012784256.000
742960570663488896.000
1589624579944983296.000
867955374537022592.000
495788952752078528.000
439852126011899136.000
533930394640758144.000
389213768903528256.000
497653114143490944.000
374634769987772352.000
231001834653479104.000
141050279513666656.000
125122264575116208.000
138638285735411056.000
124988267469596400.000
67923531738692152.000
158352449170303008.000
153575023747690368.000
152074729277069376.000
86627526343760752.000
82868928750649536.000
60958411585313760.000
134474849302491248.000
76233850003106592.000
67164508075788768.000
73533547335268512.000
71451842333546696.000
161687295176869376.000
89195177984485008.000
122435534787476400.000
248477195999806784.000
210771738604754624.000
288787935476182784.000
160925456673627104.000
82036823102530496.000
44308297947317120.000
39443402891975544.000
63222140458788376.000
137150969969137568.000
283962961077595040.000
259568852940209312.000
136766713347859216.000
137136357256290912.000
122720926990890768.000
110760866373305952.000
151223001140465344.000
141525972807496800.000
159832892779735840.000
136222059720050592.000
203688233314637632.000
116806579235346496.000
283730550440626432.000
202487506874540512.000
522456978698195200.000
356560697696109248.000
749916016878611712.000
1707074396928676096.000
2108511929788843264.000
1195370093339504128.000
682738196805569408.000
638673491217537792.000
365919455212875264.000
856316001426207232.000
656859932084328576.000
354479339139188864.000
488551862352742656.000
424992691590129472.000
964551632147186176.000
867390806716472448.000
840129876636716032.000
907191590759144448.000
692840861571655424.000
412133394506433664.000
392300925423879616.000
463471596046675584.000
734369464213757824.000
447803334580716224.000
966378279082393344.000
1592044738995492864.000
868009863176093824.000
521110071552401408.000
476586729831863744.000
399369436933158464.000
462172484145724800.000
253865585436811648.000
389737290000268288.000
472016412843061824.000
245145358488008800.000
381574514949102912.000
427658704922219648.000
223734802359484448.000
128201753216507712.000
63973525420563968.000
81748896091357920.000
61727069503861032.000
151816701437707552.000
148963536062837472.000
83273156151047088.000
70615039347642256.000
89912303757992160.000
71463010975672784.000
83653927336774592.000
44075650696281496.000
64663865146351960.000
147776948426603392.000
131540413886316720.000
75923641557643200.000
92331768946785072.000
62356127798826048.000
36894775738490272.000
76924787063118896.000
167365903400728320.000
137333613060515728.000
121057626998362256.000
69004026767602224.000
109794768319957488.000
144383099891208928.000
150099894626069184.000
147579874102293600.000
212276604333905024.000
496688927735753664.000
289150862857823232.000
150003413667122720.000
202986415903268384.000
265845146716797344.000
272644676815887552.000
286317579708647488.000
155624980417817792.000
214255150676351712.000
128548333850090320.000
154030506438978144.000
89126419171543440.000
75474590717251984.000
74751710321325552.000
69575168502898448.000
164997750837045856.000
92970420309889504.000
69687553705866072.000
77701224948396192.000
89907648625957776.000
47966923564217304.000
78435642929189904.000
163403056666133280.000
145699382989294688.000
137310503167382832.000
76733216199663792.000
72038849363385480.000
82510202481251248.000
90828545976406432.000
65653121461498184.000
139722731290670176.000
109399908803544976.000
154706543105037632.000
89920758175486848.000
78247518535479904.000
61665494359125784.000
90196556146487056.000
62086716526521848.000
64028927251186008.000
151877933907345408.000
138650541722593552.000
301220608431799232.000
156313918725484768.000
110176926021090768.000
239069821695987392.000
137271135827134144.000
78305300912553040.000
64122943543878768.000
82222553948798496.000
88369366830208880.000
87111585743300288.000
63561155515919840.000
142569514690693776.000
225095360324015808.000
112883147157107280.000
143781978058502784.000
135062443941051520.000
118561100835862576.000
151593020152763392.000
224739596550624736.000
515685990825721920.000
437590525776985088.000
224146090466849024.000
115020801981621104.000
294799234168011200.000
207411696975964768.000
250496292633414592.000
230835198887509472.000
126684644810092240.000
67839524599867112.000
60973171290264080.000
126587480411935984.000
127807530383679664.000
145316467546508352.000
76719021243158992.000
38791322973153624.000
85363565753955584.000
88469566426001984.000
71229210103726576.000
36387841494729160.000
44883408004293592.000
50153342415682856.000
46927998441517384.000
25500301177590732.000
28563106044338764.000
18719113487018240.000
38550416883223216.000
47164815242498520.000
34087375382337720.000
37637360164422288.000
42019021900717944.000
33854127483896980.000
46543305708834376.000
40216997652290752.000
91049132787141120.000
69120007001900840.000
41757175792509088.000
66604051130226784.000
168133825580655936.000
144120368695634976.000
79800993392325360.000
161113202165681472.000
163279793387204992.000
128978323006375312.000
165130170579526080.000
157451339103679200.000
197741464261164768.000
421582947012627712.000
216388824972775968.000
472239326644241408.000
374572919327576128.000
914786071029694848.000
832810493783309312.000
882565094792137856.000
1143018212732062464.000
1610916970062261248.000
2288295578851085312.000
2938360772549328896.000
1619521233294760704.000
1355107175224438272.000
1376413192304677120.000
782647112707424384.000
462828335886469696.000
264994460130533024.000
288209845954495072.000
450617321898929920.000
408697944560712896.000
248383901407430496.000
216985896055632352.000
254090640757257024.000
297011467567635072.000
245225489304588512.000
198439307461358656.000
208826080582960128.000
114705951709962832.000
146545324240158112.000
109343315465891808.000
65606674690516712.000
62672159137834368.000
81362056293878208.000
126462738940810656.000
155423799827845088.000
153981267024000128.000
79577320953867152.000
92933870339108272.000
124672980111960416.000
117392961596159328.000
156368211786336032.000
93246018593838832.000
137126746748383200.000
140933575548099248.000
85565161854348272.000
50890244229017256.000
44871184671631720.000
68775283596445880.000
87152298134838704.000
84343032741714128.000
44795487724148968.000
26049872997761308.000
13514036823259254.000
15957588372631290.000
12287859688117856.000
11882591907572548.000
11091443407482674.000
6014029303749113.000
3236401486575418.500
1837196249221258.500
3957070946840764.500
4075659586313434.000
4010342198812236.500
3897308327891829.500
4487947852958118.000
6123963485809838.000
8775684207322422.000
8760893694933399.000
13222708432274304.000
10365534233763422.000
24749666823653592.000
28661155392783028.000
41452000608963088.000
23413077771966920.000
13914143295661168.000
28226595156636084.000
26661726674519640.000
14352539254389020.000
7723106645016583.000
6337680429623920.000
7552768934877240.000
8566746829331901.000
7958231188405255.000
7031073325041002.000
8908155928158185.000
7888883485859234.000
4069808493535023.500
2319267373557508.500
2746216815551864.000
2566405146031042.000
1473578847625715.250
1132613656606211.250
1478758932025987.750
1524443061578996.500
1328132873581632.250
1333319010402540.500
1500354151646033.500
775692066238520.625
1022837726316476.500
1156723752066953.250
1484578719845174.000
1830229026028160.250
2690842446294893.000
1837258721008140.750
2454835768805921.000
2223182550672416.250
3387501037144572.000
4205124599741015.500
3297406995788491.000
4793242380578589.000
2577409427133361.000
2613224942027110.500
1364920017816737.250
1993445057233315.250
4578849741737503.000
4223623943701075.500
8906332373478351.000
8770197525060039.000
6493197952219707.000
13391336742056730.000
20404745695305408.000
23879246860726996.000
13773982120536448.000
7734521091863032.000
3912990592371915.000
2070355910053182.250
4870703646044827.000
6485713553123813.000
3290337525462973.000
4942294036418245.000
7784239881960682.000
7848994480305985.000
7102133087459620.000
3990076557944764.000
3255963818606129.000
8021736665166775.000
12043016484692822.000
10416148123661456.000
6380683790866570.000
13619520019852558.000
11904843401852382.000
12843158097944528.000
7313490396611069.000
15220067559937920.000
22876387892365840.000
51486295319629304.000
35553034448307728.000
47245498071039152.000
24572899571841144.000
25233084911831324.000
39712313970366168.000
42024035820371912.000
42382789761355048.000
34927647235928360.000
19498932514232372.000
21423880093401328.000
44601627079968800.000
45184034381345696.000
41652758419764720.000
38559937656884744.000
19138071758520152.000
41160760867183440.000
62286984314496960.000
67178195738644912.000
83989586580106432.000
65973005844121848.000
82851139592523360.000
115272655294351200.000
143549355412144896.000
112800794514773424.000
66316314849425640.000
37992366084366048.000
22806371639821212.000
22874744634198072.000
36118668167591064.000
21253981438210240.000
20694417554588640.000
19641800120602540.000
46691709617638864.000
37437967943784120.000
46040449503866736.000
41665274507623024.000
66763592528866680.000
86152253170238416.000
69392474442952560.000
90461901183555664.000
134431972728890784.000
267244796740420128.000
159584061146262400.000
168050474878164512.000
234976722470126560.000
117918311426674368.000
68697006434454832.000
74524347332710576.000
37367862203191152.000
91306278082574752.000
64696155766794392.000
145064856039190880.000
78862909233813600.000
69791989851065896.000
40836218440976680.000
34398910535079664.000
49561826580363584.000
41101953165996896.000
24671307834757320.000
20997300043184060.000
28515895345297904.000
25710195681699992.000
28702095702352144.000
24438791834989372.000
51691031424272256.000
62719211857923640.000
149546822942930304.000
84962529709242000.000
64761005509627152.000
67498990079655512.000
36496757721886864.000
76029075588354272.000
90973851694290528.000
47451587367613312.000
40643907523542448.000
24861276375325076.000
23656788004046796.000
25407261751336548.000
40646076286442592.000
91144720538615760.000
78360707334956496.000
47384832836433952.000
64561622960826336.000
79561773092433552.000
48039772841605176.000
78593473572395664.000
91748583781197936.000
91717082809019008.000
68158155935991656.000
36759148547390832.000
50991116648880024.000
28344525260797772.000
28082268132756476.000
24867333811001480.000
19282941843604112.000
21488453930024012.000
21288062747662280.000
12602662092258280.000
15708594240884194.000
11591465558576806.000
14495349924458460.000
7859181200596512.000
7992804607775504.000
8384735002281763.000
6727179490591761.000
6798146789823246.000
15590734358665658.000
12519195212553654.000
12164485864799802.000
27307817792295536.000
19407986749129264.000
50280734136566584.000
46778958570653696.000
71847582711795624.000
165419997859303456.000
93033122174122656.000
73682844016569200.000
75908486263223664.000
45667338317913880.000
26762703176352300.000
20309418094816452.000
12501298628792094.000
14028257994008866.000
15674816220977708.000
14537809213587754.000
15196109974364306.000
22894743985205816.000
46602813523832424.000
25105477010217776.000
51921518826193304.000
65691869038392848.000
73018899216210144.000
37792728819906336.000
46667430178432968.000
26410752726775800.000
28869399017169508.000
19807210909835876.000
25057084063629284.000
27501396724526348.000
14735994321559538.000
8206435219165852.000
4380602798617149.500
6907522875670194.000
15087848740824026.000
8240297382318451.000
13211693301286920.000
27200491372316684.000
25579169990292704.000
39236487480478888.000
21930358794742232.000
26618633733066476.000
14214376348415910.000
14727091202922864.000
12502020771604056.000
28264231944079284.000
20647414069601436.000
23367479098610996.000
13439266243237834.000
14233469080132126.000
11981849305300322.000
6739138124801562.000
8080085191771912.000
6278038034940873.000
3378078067182102.000
4809407830516272.000
2653514801243159.000
1443987901726655.250
1370286994030467.500
1068547485544036.250
1065944023866086.875
2449833849829373.500
1449905182012503.750
796411908012529.500
1233141471768145.000
1421299214423268.000
1468761201240452.750
1422362635574959.750
2220874077518970.250
2747827606353187.500
1520180464945524.250
1241088275015177.750
1214106376599616.750
716605974680379.750
424520572728851.062
403982953708112.312
338746510370643.812
173585868609282.344
358484740399720.000
186491315103909.562
178536082228662.375
107143938914226.141
221093259792696.188
447155467204963.312
405644534435631.812
239102069876857.250
369919580155788.312
790324458481117.125
774750499366139.625
624753120192211.250
338222531670239.438
459801659821279.375
674892042680377.750
611509863875680.250
1476751088103968.500
778548206897800.250
1178430755694825.000
637226987198801.625
804090471706534.625
1143462065152741.000
1408968333129159.500
847787608523316.875
604581081418585.375
1216915483153390.000
1028432833997899.750
564958760052408.875
548375368651808.312
337870280694178.750
319566671051221.562
664761211653692.750
692169443361271.625
794746327718324.875
761012552894837.000
681044313624545.875
791635026649757.625
1246600854788068.000
1936562527762441.500
2417294231239268.000
2196880312047581.250
4421414042133303.000
3921132714841867.000
2026760288866319.750
4160388843893015.000
6603145080217786.000
8562076936135681.000
8352193789722910.000
4286583851396788.000
3548928473845345.500
1901100275249021.750
2452478419226334.000
3664675352303956.500
8506387726836489.000
13928188877164712.000
7966937862999654.000
4359882286396396.000
4257080126693514.000
2239412237395169.500
1300902797793740.500
1302943985392483.500
1133502285043576.000
1061211469731541.875
1370719607813611.250
1305924585849598.750
2684763840693433.500
1381326524406521.000
1095768407654577.000
1423076831645602.250
1092685454526904.625
1117104559181985.375
2437831444711656.000
1373840521060483.500
2719821107043779.000
2226158118144671.000
1864259499447093.500
4192030679395897.000
3743522132639855.500
5985302942411309.000
6289271378138259.000
6067460865333944.000
3687357345056191.000
3834314423060982.500
4533353025178395.000
4470223305176459.000
4498982243763386.500
4928645434549790.000
3602712494458567.500
3398562977140513.500
8422039559436471.000
6635931010594568.000
8908042258736597.000
14555485989539594.000
13195127284591766.000
26490405144784328.000
36591871917029592.000
39883515271166760.000
42862110665680344.000
25534814037648836.000
27431548133116048.000
20500977725503384.000
51562644726925808.000
48527416953767776.000
46087585186482120.000
35961575686255852.000
21719595680000856.000
26837015496993076.000
38759304657010256.000
22088811131064964.000
24684475068394360.000
34309998914956080.000
41552192036350352.000
42910848432652952.000
37357996794650664.000
21591278692109880.000
21848389237760212.000
12262958710613826.000
26186260223607896.000
13280402024335572.000
27608369766469960.000
24306001185129276.000
13712459859891224.000
10518681520311120.000
25260024770924908.000
13623158105073244.000
7421886277548179.000
8807774175177399.000
14461731301236590.000
19059397083092076.000
46280941539171696.000
73915107525839328.000
38763764485979872.000
83236642609767472.000
46358674936874528.000
93044977737458752.000
76445266080763392.000
85817604435178912.000
65208855023005424.000
83773141827418288.000
48552422521651360.000
35094696932013920.000
43966455953482000.000
50688165049138928.000
51723099780209688.000
41659089632923008.000
37451809416973976.000
20753876753776288.000
20522348482442772.000
21319189192920292.000
28524075062903988.000
45038403379199560.000
49288290934334984.000
34914323488707676.000
50298296485702760.000
43006489998830832.000
64815274691030216.000
166622958614037696.000
239873011287360320.000
262931307273998048.000
542397092695435968.000
862383291319754240.000
738930820594600448.000
755414092148292992.000
382126452819090752.000
378830793839032448.000
221323358261341600.000
204359365285271456.000
301375999569640448.000
254980431177349600.000
303104411614689920.000
361291182678507264.000
461013383294140224.000
643253177544365056.000
785778759202561408.000
695057949563134592.000
384603895720024832.000
435766017124014144.000
533955384297771264.000
406776453181392512.000
922948514604324480.000
973859597148561408.000
1240321081005759232.000
1357743286699491072.000
1200480655098873600.000
1183799784347279616.000
2467448780759795200.000
2866117291293692928.000
2344696014528292864.000
2558856428863931904.000
3176674924497286144.000
2585230818254666240.000
1414018749633619200.000
816664568644138368.000
961968584616014464.000
712660770501638144.000
825644853792884480.000
1174009407845590272.000
1190202048168015360.000
1244395416938640128.000
1290825806361661184.000
641122050966378368.000
753186845946034176.000
1562980337097859840.000
1574528683076306688.000
883787728037036800.000
1417305712906054400.000
802765791371142528.000
909539374189651456.000
1194362249278252288.000
1658208914061683968.000
913213317407400064.000
502046209544605504.000
801330696855886592.000
944947183018238592.000
1320184803592702208.000
2746989103627231232.000
4253873014201485312.000
2152375509693171968.000
4790477047837218816.000
2881141930559567360.000
2236213195364771584.000
5629285433747578880.000
4622402820635218944.000
5418562363326243840.000
8120737145504612352.000
12923485680443693056.000
7968150650099077120.000
9567861800596531200.000
4992943872996198400.000
4094170964501893632.000
2167737904919043072.000
5004555284328314880.000
5678049283162724352.000
7729044564278986752.000
10264804942806972416.000
8717627461282937856.000
5227220214043752448.000
3134608273917643264.000
2187912762771364864.000
5675055773357488128.000
3120333971055951360.000
2193283032061616640.000
1262341710468301312.000
2805691948547988480.000
1527976361568260096.000
1373668804051093504.000
3071175572305248768.000
4805514348059025408.000
6872817614765273088.000
10146391628748531712.000
6965196119300509696.000
4249822580296428544.000
3764924162344938496.000
5205586428948885504.000
3899456454964845056.000
5040172870319704064.000
5699264245894348800.000
4615445282016650240.000
4549539069553747968.000
5446795018815763456.000
4370878324697644544.000
5469530218407781376.000
7947578115380724736.000
7996084515167693824.000
12843362113141960704.000
13276055800609406976.000
13329290537055762432.000
18094304366117654528.000
13291899840844670976.000
15382945458554372096.000
12292027630350891008.000
17288121846140850176.000
12205978955246548992.000
16647076791405686784.000
13472166286241925120.000
28696796699654750208.000
15589598636767338496.000
12011378041905715200.000
17860785217538433024.000
13900018535599368192.000
13508023295267420160.000
15047960309477079040.000
31999339273996521472.000
27367531745980821504.000
54389157064848154624.000
42443365725098024960.000
57349531467810267136.000
31902799307961798656.000
29564406487176478720.000
24669248756979957760.000
29595666520329072640.000
43789447290701438976.000
47891940110042316800.000
54487627783613898752.000
31606818537172889600.000
28590475056923766784.000
22965113181579759616.000
57154630269653983232.000
83060151389439688704.000
79266733942948298752.000
177045252679052623872.000
105403117465428983808.000
54331529868830973952.000
56978230306121244672.000
53677837420443975680.000
32073836596878020608.000
52351421409004462080.000
44261342956645761024.000
26636540856370458624.000
14479892083713400832.000
14346494653105197056.000
31308629124159262720.000
17509783921551998976.000
12268655842258956288.000
7196507605867075584.000
8724902407757549568.000
4650575272461864960.000
4561534008292521472.000
2551310515215136768.000
2342017448956017664.000
1360562538738141696.000
1547770792920253440.000
1707336654462543616.000
1426559527790538496.000
841998024086061952.000
643916007850370176.000
635279982520771584.000
363898715504957056.000
372346317344152704.000
213701994841617472.000
476011060274051200.000
370918711845555520.000
493807946185114240.000
363461162637782080.000
419885816255976128.000
533116882919904000.000
735310950193097216.000
1641722495803133696.000
1210801864681167616.000
748428502877415552.000
1566706407931827456.000
1280735717808106240.000
1322997242518091776.000
800989011558437888.000
1671403545428881664.000
1284141182414701056.000
643790642577450240.000
974361836634961664.000
713536634917003008.000
887897262858943872.000
530898077183410176.000
748929485380861056.000
966886748259841920.000
869982675233065216.000
520449409852623040.000
295256629772001024.000
237107352308914592.000
267414144840551072.000
271609095074199744.000
150500734364495136.000
84158015054787072.000
46421410371900952.000
35914690675530628.000
36607132631005968.000
41888840754614768.000
40291541895106312.000
39755045694200272.000
48578397113070456.000
42261178044875064.000
36978681521686376.000
41799770533902000.000
46819063826259624.000
34179310932814132.000
51165127026917800.000
34894184460008200.000
44282014663890112.000
46688152488968784.000
25104508464885832.000
13655258889269216.000
10454141993286030.000
22277101349011788.000
19863925626301380.000
25720323510946136.000
21001430987157916.000
25656570115930240.000
22474392396530656.000
27254763952986540.000
43437359497995376.000
90812420850938288.000
80458067051257728.000
61771614806324064.000
33785223580730556.000
68860958390895920.000
38028417016302944.000
79417193466245072.000
46400951004743968.000
24302792822840684.000
12332080363934494.000
15131504748149020.000
14302141597762392.000
11059725171608146.000
27489324698454168.000
39534160227508568.000
36956021320500672.000
80528067019194416.000
126511692260323408.000
63766245790791192.000
91348387200901264.000
84403989230172512.000
87882662477812624.000
128320137709326016.000
142866563736470944.000
286054351965377920.000
165170521386998112.000
203766568494068928.000
116868668555379104.000
280030817896413056.000
256315409427265632.000
376634884537010752.000
853249957684964096.000
926897687979472512.000
481867286967710336.000
373613003086507264.000
433570784110603648.000
428739277514835584.000
218562525333495264.000
220458947453268384.000
237000610435831168.000
240999847233780576.000
241721211329354816.000
199324834706323744.000
280427205053441216.000
255040864861853952.000
137218954625804880.000
74898728365243760.000
90773632272221232.000
46550636149179384.000
27623690214081580.000
19906006629874252.000
46153194267230344.000
50970979021519128.000
44266091539968424.000
41890311417037824.000
41929563522784720.000
36415765344265256.000
22442758094588160.000
50840972657357472.000
28168634829477708.000
15689661760870186.000
11807839149773752.000
11197424850567878.000
6086887216684089.000
8419537875751166.000
5909762378971355.000
12561634752690872.000
26046168908271192.000
23142231622884580.000
28246061354209680.000
43228135315775096.000
62659875568985832.000
128985339585594320.000
132412940262608176.000
67184350025763312.000
74277829437245792.000
37666635595942672.000
93054125306731168.000
139985566915523904.000
83608632407685520.000
42377577073101848.000
50904604501343144.000
27548938072892216.000
18995607676646580.000
28118948617390428.000
24546547195594288.000
19298050976957740.000
27867041957550420.000
27381502851632888.000
39258934507990376.000
91977970901018688.000
74357676432245152.000
63805110423271320.000
83589563603722576.000
93521524120437520.000
50666872187679384.000
26859335365063812.000
24451096511774272.000
28263022907104320.000
23581148753814860.000
27325995049656144.000
22031394498937752.000
26511382589030968.000
25843864630320136.000
14638118340852344.000
18770246680513032.000
24554225219289640.000
49961155985375192.000
76773844303109248.000
114049270556362080.000
141227972154503344.000
148790089298521536.000
163757782504349696.000
83985337708272544.000
50351064601516400.000
78799574398762752.000
63822893756897616.000
37089759812130944.000
39792575251160880.000
23737940546021560.000
21933004925570064.000
50364954901492088.000
45200185017886760.000
51208743811026408.000
40076901108726488.000
83655402488418944.000
71173460413184904.000
160096702600977760.000
82258926225970528.000
122350122663200064.000
154431616215189792.000
88615465061627456.000
92629701544352784.000
145562559307432480.000
86941643668039088.000
73138570777196960.000
112788053146757840.000
228740242139846400.000
477080625919850880.000
979602687275281792.000
1419443976568331520.000
2212545403118710528.000
1272529208398062080.000
1689144620678227712.000
899292204856417792.000
1270520241304234752.000
3000400068708079616.000
2737732354231117824.000
4031727135705378816.000
3919668519855547392.000
5444862382020651008.000
2873761601874232320.000
3176675467344979968.000
1699227633763172864.000
1724505131102028544.000
2168953195219705088.000
1181149285603423232.000
2982429703294336000.000
2304270015615642624.000
2532105779647196160.000
2741887435984859136.000
3118882642752737792.000
4708108860855493632.000
4824608675533387776.000
5361198377595345920.000
2839214019686153728.000
1559482854884489472.000
828046016102128896.000
921442330676402944.000
496479458406619392.000
367315090156103552.000
505176567259037184.000
261629780162046048.000
370624298713303552.000
410185074334780992.000
658558437347072896.000
1514268206489868032.000
868955821391456768.000
743597873280300672.000
703568244599755904.000
699392438417234176.000
404838357768973568.000
972605735120377984.000
721713684879789184.000
922529755601608704.000
676535429366604032.000
967784871809660160.000
693331969600929152.000
700256685031708032.000
825211920289966592.000
643459562438988672.000
955521536735592832.000
538314046940827392.000
403615002206084288.000
229855279058319904.000
209748127520834496.000
197894797362012704.000
121863816688042192.000
71796984456227240.000
82325377171138560.000
41679598983693048.000
36714232588193456.000
44465099184358000.000
71905627791653504.000
75053365874567408.000
44209096585734880.000
35577317423195028.000
45064448612741528.000
34515114493024224.000
51219274922436792.000
27713805353331616.000
27703439558009820.000
15845092737603920.000
19275623359089432.000
40013481733944072.000
46575496017834240.000
25196819022849372.000
25529419244207536.000
41503692523368208.000
89078361694094608.000
142119835718449648.000
80469042287943120.000
62378739921705456.000
92746779463837792.000
84274457439696000.000
47587009272109440.000
26698465570467428.000
21490139493310564.000
20749849473678272.000
11658252633617270.000
6868290272962596.000
14205680071292180.000
18687391726107512.000
27549568659307036.000
41361775635398880.000
21734076542185332.000
24475921323892512.000
27063292765188444.000
21176456487866080.000
13026801865283166.000
7277421120410100.000
6333568951116129.000
14161688962048246.000
10858228403764940.000
26119549374496408.000
15040226328590044.000
12394160548146644.000
6187415746259157.000
7143617812854499.000
14587592063598956.000
7835413019751891.000
8184737648725805.000
6383682596963128.000
14359462741021326.000
14040722247913306.000
7840224168958555.000
15485723196728412.000
12417600198974790.000
14831554159701130.000
15855361206253600.000
23710556216264868.000
18724566100559924.000
22846332290910976.000
24527058147827304.000
12992550338162604.000
13495442092896586.000
28243408122942980.000
38468575303355624.000
22326837126949568.000
23025272096136424.000
25764205648939508.000
18647122626778832.000
38735374669061072.000
44644767490304624.000
66373051792045808.000
85196186817990000.000
76542246555042864.000
75663459336174192.000
40336030608000088.000
41006699944729144.000
41001844391392880.000
64909243122196368.000
33744669104346820.000
20654939884264836.000
23435979659058284.000
28536673438599124.000
25695877930050492.000
19464276889634256.000
43785335354214904.000
37647412029442000.000
42828589687647664.000
49023433805897304.000
63502886555304032.000
38387036711666776.000
85918715193539248.000
124441832160314000.000
115835109435572928.000
287141136671424288.000
269567972819845824.000
153090297954544800.000
233893375952064544.000
266812184211162176.000
138802785621055056.000
116575117183352320.000
289863213009249216.000
411901033603697088.000
538560363253430016.000
280523387081381696.000
220779216975946208.000
289882460705456640.000
289403466543357504.000
380902607591553152.000
358468427356809280.000
501214567664612416.000
394986315126179968.000
443391175483971648.000
662355825867488256.000
656642639556543744.000
798013278937925888.000
706392170208618368.000
409050783302024832.000
388720484981554752.000
216990822625617216.000
120216065269686576.000
72544302537913328.000
149383693738066240.000
226707685651215296.000
118439623191276144.000
282361301571794752.000
260800944112233120.000
281683501538022048.000
236322985670899520.000
138607498642952592.000
118462652695379328.000
62804047443020320.000
144989637549586176.000
129289864657499920.000
74410117803939552.000
87997445218634048.000
85524142567369616.000
80687476163848608.000
42909393839445280.000
25281738651474304.000
19476307060925628.000
24998710793689476.000
39604233309747960.000
23516026132545820.000
47469961744984464.000
35076048369613604.000
43912575384944176.000
63235400753254624.000
67223145659422376.000
79794429596511088.000
41478202891704600.000
44055219514113184.000
65436414759175104.000
88767952679067536.000
76142698871936096.000
38717774530100880.000
85823554231727664.000
46832345756671584.000
51945210339366320.000
28759769110023392.000
34463842288386832.000
76369312576013216.000
120907900532472992.000
66633123290376576.000
40991175672512072.000
44836039487678400.000
46654311061815848.000
37360878377777472.000
22015479784665088.000
12134601887232150.000
6985511874448501.000
3512660660882311.500
4881956378914274.000
3631082379755316.500
3632187849899880.000
8129451387567886.000
8298156904405008.000
8445740945415507.000
6972838896638749.000
15816790276762848.000
15275847937034074.000
8755592617684190.000
6776956260465043.000
4146788975484987.000
2272045481535015.000
2650954593659607.000
1998362043232255.250
2571071253479144.500
2325112527850406.000
1838749540706823.500
4082228966648823.500
2215358485513730.500
1911828768116604.750
4730769155715767.000
3309231165236370.000
7888622594234626.000
16026116755843372.000
8635798183213469.000
6022059732681006.000
6619347833437587.000
3929350989028257.000
3468565074859243.500
1975567338672014.250
1034785930185347.250
2477619596199932.500
2041173135757019.750
1017760398718340.250
2200919566936168.000
1177384852317470.000
1075550932095902.625
590859720247026.500
820967862808101.500
456884679804591.188
327454874763146.562
318713915497421.000
398624341067495.125
318377172230926.188
351162759494252.500
353627026654425.750
774765142881716.750
1189661849303918.500
2496240402776415.500
1339158691478432.250
733506545080112.125
1076491799210967.500
1384674859065262.000
1503816665971004.000
2461605795165360.000
1944100951001411.500
1824022428980013.250
2358012229019092.000
2265126069852359.000
1321388003487891.500
1523659250108666.000
1434548871757485.500
845471125023466.125
1392532054881960.250
1397543363994454.250
2035219252644104.000
4948732936692635.000
4072380442260686.000
3301418031732858.000
1796982485382270.000
4605933333382053.000
2479138199684193.000
1395913033213901.250
1017854190771945.375
551032786621359.938
1360322366919432.000
1236033887266746.000
1224339000434216.000
1846010720302584.750
1135008406074266.250
1422399652965005.250
1279093294027664.750
1982840053690353.500
1052155839273253.875
2720121365877455.000
2447547170796804.500
2352380125915358.500
1810903511023979.500
2542247641489450.000
1856164956363325.750
3744238277949756.500
8123311196401335.000
13283242586089358.000
28529004902683296.000
20491346886363732.000
22579446251808720.000
34262791285372764.000
36956168716924040.000
80536890293269952.000
42383603228620392.000
21415125476096032.000
23207584499655216.000
18823119305774324.000
18894291506160720.000
41890561283849240.000
23115704706350912.000
12468942876487158.000
12247695179017158.000
13465523741171744.000
14850743537420160.000
14996964048649892.000
19541287699904644.000
24481448697374632.000
14706416256369606.000
8302694617331046.000
6084332827592431.000
7271815695520964.000
3726189392031934.500
3978881598029542.500
3476958581114714.500
4845593857231264.000
3435898032473784.000
2022867522913308.000
2338700091025591.500
3203345673887548.500
4189569839747534.000
4297377527913930.500
6062654630057719.000
8830768688619277.000
12005873573986256.000
11185930997872920.000
6101929509997050.000
7054429959772368.000
14287665249172602.000
12247584127865398.000
12920452712624710.000
20310937047015128.000
42848155002981144.000
50050706777712496.000
77921637227504032.000
41927945746800352.000
89883011453973856.000
81106329190265088.000
45631196089708408.000
60800816026899944.000
61824563796800608.000
36229700475513224.000
41693144279551968.000
22196196557759388.000
45446816723173392.000
43170089211378368.000
38104387907225480.000
51663389462796776.000
78754361986907344.000
45621171796835480.000
25637359962507212.000
24428917154950384.000
27798381079314136.000
35226738881035576.000
34333669703103076.000
40328887324841896.000
39730888788360784.000
35777855914750800.000
47381507556827504.000
65984157655646304.000
33775839078889708.000
50145586374514376.000
28711043200806984.000
20063830331635116.000
45770105830427968.000
39196328015400480.000
86043595287926336.000
86773470552294288.000
44286622824707688.000
64793186158822896.000
76454231868412464.000
40819088520003568.000
43686743292360032.000
47943007747822352.000
62129063768537176.000
85101128612041280.000
43993371094241304.000
48452467977340736.000
79509950013434016.000
91960820325327664.000
48161158628582152.000
77697771526818544.000
68235976414654664.000
37747877908388344.000
21982351383156584.000
24863619272556260.000
28421064038976432.000
15747133342361554.000
11390897520950304.000
5853777763130271.000
13914628513736970.000
15266676154243368.000
15707732926736818.000
8198344256013481.000
12676734724379616.000
27096793955636740.000
26510647501197140.000
20716981072555732.000
20589750559570960.000
11254491378664100.000
11767180939717530.000
23810155431220712.000
21892315542590836.000
20360543159187604.000
10895406722813362.000
23375655800946820.000
27315349935348760.000
14278272132656484.000
19423645948568796.000
40589179582361344.000
35389078747230664.000
46890464983769856.000
63173912291918928.000
68507931162750552.000
36720600328098776.000
47807341780276920.000
35400035564118144.000
75579072996099376.000
88101301469120432.000
48557017025276296.000
36470537887838840.000
80162298532172688.000
42591364007089368.000
24104064436028500.000
26511851265365096.000
25681005091626436.000
24992171533248904.000
19490987575057916.000
27966292260192596.000
14676117743626184.000
23985690372180944.000
27386937413391156.000
14403475186065072.000
7886439332546250.000
6387451666966654.000
6937069631320297.000
3801227149432715.000
2229095063222824.000
3237149830868589.500
4357749422567950.500
8560515331411683.000
8649300098182934.000
4844028171557750.000
4943254185042600.000
2554210190998849.500
3293809595520671.000
1824428573101178.500
2356494153578693.500
1270217882625420.250
1194585872082813.000
1830029291606404.000
1919725814358018.000
1072425354092892.000
632826410123231.000
1455938954511737.250
1113258860757343.875
2732461280250468.000
4063663364595095.000
4478381358759553.500
2667091670164636.000
4041743655902208.000
4890355242811533.000
4551354564375977.000
2502405097803529.500
2266740345413533.500
2577802776465815.500
2108647828225925.250
3200981014076937.500
8809897943493852.000
6223783939374957.000
3442644588582863.500
3267742739499245.000
7812125448296160.000
7096151167955080.000
6053880342756003.000
3612322189149798.000
8283063451004136.000
5945148809803361.000
7764650619471622.000
4168544794164304.500
8529796858771669.000
4632544116766908.000
4109351778326037.000
5959323360254514.000
14909951173258726.000
8808542312985137.000
4567526114492857.000
6411516678194571.000
8703688951891795.000
8769066451978673.000
4895505356694357.000
3775445223953417.000
8032273270604882.000
8659901498726679.000
4884479548333102.000
4277593494010736.000
4492647016313075.000
4054294399051865.000
8649957741310327.000
7948047942572300.000
7313363671836618.000
3957511328789340.000
3571272183535270.500
3781497746515033.000
5836139014711020.000
8776349157387645.000
6528669165968738.000
13663907120321414.000
14973470049267420.000
13300557062777014.000
15519729544990040.000
12310937862202890.000
6602279251805875.000
6036064263076137.000
6570020238547938.000
8722770012477306.000
6596018774535006.000
8140154328204916.000
7317524838800760.000
7073213968401094.000
4185330366739587.500
2254526322848717.000
2265932493606342.500
4703145703073889.000
3218789494665331.500
8876256238659289.000
8215343908168939.000
7111778423138131.000
8438399731823843.000
7965738140453543.000
5983090392612939.000
8632665117580981.000
13398475048016774.000
27495088138964608.000
22084018124354232.000
44343522671338920.000
42301471396927896.000
93046554127583376.000
79822917622863696.000
42060742965539264.000
36604792111450456.000
74225720102296256.000
78940583122194992.000
86001688946839168.000
124606900296054352.000
70573223149738272.000
155592008334216480.000
86037064510732528.000
108804634808739712.000
233035182242560000.000
140227926058772016.000
148178825483050848.000
201683228835847584.000
438201511781599616.000
541155386320596992.000
389915703979789056.000
542292859759587392.000
296532061138156992.000
252001296749610496.000
269188276170590720.000
155027127783482432.000
129743849666919136.000
122195956235479824.000
129542390169105152.000
162475970269622912.000
134794573471213456.000
80492203831367488.000
47538123719575160.000
27285651430117436.000
24521549664694776.000
34392822104494576.000
75695336399697136.000
66592151668576528.000
79828953073236448.000
45671271210995976.000
44162295231918264.000
23775837710889876.000
13793674278981176.000
12343461572391760.000
19787133697670060.000
11150682338108906.000
23592940009049452.000
12924393142490904.000
7116400355114427.000
3615066061682739.000
8905474641050572.000
8840564083030527.000
7879144933416423.000
7094775254521806.000
10528722303288454.000
11123111220604892.000
13725401478302532.000
15589164011423760.000
20384825805443280.000
46199577021781072.000
36502800358835704.000
86500679364565664.000
78571511069985280.000
89017503281282880.000
122716913148172864.000
299791950247592256.000
295436446276392448.000
401891750989491008.000
431975417906241536.000
494885168531808384.000
286433392704418720.000
242148555574709984.000
198683860067011456.000
275011575699971744.000
139909158495219408.000
117717291510831776.000
72273993269274656.000
160744751803433024.000
264852425656169696.000
244626019805895040.000
296158489248476096.000
167394509559318496.000
150705025393005408.000
122555761877077152.000
125114971316711248.000
253662650524612288.000
534340475415120384.000
664281023597099392.000
975709097835789952.000
533752461700036416.000
460589137453218112.000
437501056903520960.000
493216431729118080.000
264506793430721408.000
385715337605136064.000
202477644292404448.000
245814295708135456.000
274773207571800992.000
201701042574066016.000
111140782402565120.000
161992946729922560.000
263100522275376416.000
299814116956247232.000
269383554460077312.000
372050725846841856.000
528978079678039488.000
418868880076215680.000
897208469363174400.000
855643802422314112.000
492813083796536256.000
780009687448797952.000
636730852304895488.000
1335499995730378496.000
741324520385731840.000
419787473333398656.000
959125208727694848.000
1438640993006019072.000
1730183330778919936.000
1519885288346561536.000
1704170005117105664.000
1174140123098248960.000
1530237895056675072.000
2210746107449507840.000
3097149277695502848.000
4518118390227355136.000
7110464648993031168.000
3838874308511120896.000
8829919052111478784.000
12990470581010958336.000
17603796879133165568.000
15909442777043165184.000
32482275740104368128.000
53414054316589498368.000
53235025956819877888.000
44068179071435292672.000
52992133225753567232.000
46641919239787667456.000
57719216779189354496.000
29551070717252972544.000
30333747393466277888.000
