35.453
36.922
76.888
73.264
144.059
172.783
436.036
670.611
676.701
1404.829
2305.620
4608.279
4539.174
4465.521
8760.290
10775.134
27626.478
26449.169
52040.742
85860.472
128021.870
296256.516
460266.946
980169.377
973138.823
1230038.383
2501613.664
2315757.728
2406715.815
2303600.498
5513214.632
7914994.239
8408096.202
8081739.545
7343055.623
7605603.665
8271555.657
17064059.208
16843991.869
17021268.456
16189367.017
24596797.082
60294499.861
95739718.226
153663285.739
165705295.667
161522029.949
340185225.966
340884881.039
521610069.887
537096388.298
836720548.347
2000281216.983
3145229053.901
4301865614.679
11355594101.450
15689710604.613
35413568020.820
51523663661.364
124797694641.142
151030173834.269
369736183274.204
362136140037.247
378527508240.051
606041072275.899
609347770555.964
620122040459.227
628268010526.190
1248185408424.383
1585443422688.959
3319672242756.980
5129136358705.132
12455393014617.719
12732428540961.262
17344396834309.625
42906056520367.781
40484065878700.820
42729538049327.797
69620457208113.328
141253916907305.188
171313608118756.062
380519496327471.375
781729521130653.375
1281324373514968.000
2527776729043864.500
2363336607442241.500
3280391789596286.500
8554784398983150.000
12146703691943780.000
19001830360732280.000
19590643485403480.000
43161937315996584.000
42657042574198784.000
40021334844752112.000
91610542319805840.000
117543662340477664.000
283212448026766752.000
267319022064332896.000
281616511505332672.000
265067053175575072.000
245853188734873440.000
541733658185735296.000
486952612844505664.000
718562924203504896.000
442593801263611776.000
236653588531564288.000
133397536452067728.000
115368665748363776.000
287897497455670912.000
231507661774669760.000
276451041306879136.000
140542677587854224.000
140232051557733056.000
286175519377103808.000
146519563493541184.000
119613402084434416.000
69305300371323016.000
150050201454772640.000
163665784588241728.000
138363738993658768.000
75981860601445424.000
45649321331173160.000
23103120492997196.000
13219699247773108.000
20209451509344012.000
24126585634088860.000
12390934896221910.000
26759814774121184.000
41636638803807208.000
37752043936519000.000
22850181549771016.000
12130933521594726.000
25753580654079136.000
26439388427126644.000
28167300727947468.000
39067224203955712.000
83077839843164848.000
48796129170398352.000
77602135189992000.000
76084588265114400.000
74463122153389760.000
63009621839536968.000
93526609425398160.000
51123228826500792.000
34679090901412312.000
80525559455133536.000
128417866798826128.000
162959692039070976.000
246584527022704512.000
137344479303977232.000
131957459762887840.000
112016667197995584.000
147717809743814592.000
114663265755695744.000
63340689845841416.000
79143992929545104.000
68154759243757600.000
89085881575393056.000
71779748339185808.000
38249943846614072.000
18973300731576548.000
11663915601325314.000
24005554030109300.000
22663369079974204.000
11713348796804502.000
12844122858501880.000
20643546257233652.000
20559306807563120.000
27033281922316708.000
15197655145454998.000
8658888021314453.000
6550963469067275.000
3392120919422425.500
3567979356984973.000
4791943029577966.000
4249725323159172.500
5766126714960919.000
14480395651278186.000
12464921837490132.000
7241509697668741.000
4013355525828737.500
3229478014062039.500
4354540625748945.000
2517069177385921.000
1378921628997870.750
1912670955297045.500
1021999247343612.750
1522106993942787.250
1201153218541437.750
1425329721389558.750
2296555292966200.500
2562684055018534.000
2652964431217535.000
2585559601645949.500
1357282692645591.250
989879133303481.000
1456541063484360.000
2044174168402300.000
1930489047035808.500
3909410145452493.000
7970573316356572.000
4655119898805144.000
3484334385184371.000
1868809496806883.000
1928131303945475.750
4828290714160666.000
7919980997293363.000
4492984070243307.500
3690977610223607.500
4251756011946818.500
2378709666154401.000
3707823255168761.000
3696677170448000.500
4184821705128892.500
6361310570657898.000
8737082577020351.000
12064422374179548.000
10465818312563560.000
16008961357063690.000
10368796395386318.000
21544421800321784.000
20708307056118016.000
22512025394544736.000
20999960508659564.000
27842928878997632.000
15780717365549086.000
23546767259312928.000
28311926343204736.000
23660584030031088.000
22055552051900568.000
21412714553657088.000
47565169008236472.000
25439693621135212.000
50997025910944744.000
48488868112123072.000
41336079036552216.000
25032959806947088.000
37650796666815216.000
20073466234514448.000
48395820604868144.000
69947399251807952.000
80580804189203440.000
90853545436903920.000
135946375812437936.000
78204610965279328.000
43683193166943560.000
38183663246123352.000
19593379662983336.000
22282141351663836.000
33651720228325704.000
78662611948374864.000
40809188156095344.000
45956192596062944.000
25060726941524712.000
24184279978397400.000
13374714701383930.000
6789015201052989.000
3459860663436588.000
2135933102384101.000
4442196628420473.000
6337893301830596.000
14774869319691376.000
8180904751326835.000
7901831473471463.000
8553150751877244.000
8432041094991798.000
6417570375807420.000
6039962007727030.000
8193467035383468.000
11314144132146522.000
27204164091614436.000
24008417507078756.000
24790370129129796.000
22941155283997260.000
25695962151578812.000
22143370330134380.000
12890182290787990.000
7643739202317594.000
6929997495843741.000
14156379053647460.000
21877627857560576.000
27681237745647180.000
24120916912819844.000
25577710604316144.000
24441590442483180.000
13129445400649248.000
13052895492177134.000
14807686175739354.000
11598798716046118.000
6128464610137953.000
7790641119967066.000
5943637236103259.000
15242239476810928.000
19985275022912260.000
21574604098963752.000
11331326825148804.000
15321129711780936.000
10750704821042208.000
23172174514200152.000
12637861816168056.000
15888294575365272.000
25291923674760920.000
20033883661231788.000
48836811936178672.000
61028601603880720.000
36206209497705792.000
22294277073190068.000
22807335830799032.000
18807309863031104.000
22744664783321136.000
22773552198843064.000
28306761561044452.000
27793466966058864.000
23618158486854236.000
20647903148157288.000
26872703761859676.000
21590699733679748.000
26416157146133636.000
22391276423368748.000
25339261044887832.000
22775554962957172.000
48230989712606336.000
72719470661372432.000
148088023047225472.000
129887216399992704.000
205741299761068128.000
291404540245072768.000
152437816167697664.000
120110909822824240.000
125348678387242592.000
130219344744067104.000
65001979500854272.000
160821199669044608.000
142924661006793904.000
130754449467537616.000
115942472643097024.000
116588118746728704.000
165247083458765280.000
159293047534926976.000
142084824253602688.000
83483505976212832.000
92329758822779088.000
79480530496846608.000
68005811230544680.000
141128746328134144.000
279149622042200032.000
151131889039178528.000
150008175236310816.000
120810628380734176.000
63088271136854304.000
38202167714338520.000
80694446924510592.000
44194120181708360.000
61065795630278632.000
124226037006720880.000
273868101738779680.000
378747600441786048.000
357146656876511232.000
811317324905032704.000
467260565488466880.000
422094126695129664.000
218731375356357824.000
239140911751208224.000
524444903188287808.000
796938811854235520.000
768296563971116928.000
849169756193859840.000
804880680386115712.000
423012462978687296.000
534535922860441152.000
406318332306512896.000
223522816188243104.000
499183728198989760.000
531786287539678144.000
284742049671591200.000
166584947656485024.000
259863953189874912.000
245201711340109184.000
220351546421495488.000
112386360812303904.000
126926477255805232.000
145573579569022272.000
86545181581542368.000
81931855025837632.000
79236768563291056.000
80400233094864208.000
84998630420215200.000
70343242614105320.000
35743182171347420.000
90672452982263568.000
51717119262917448.000
44076899891466712.000
35037289690330912.000
51780428021862848.000
62189064419092784.000
126223178325208912.000
64473426479908216.000
93304612880861888.000
61198785410267544.000
152925146176863328.000
87232178536937472.000
50914830872430104.000
36391433838015144.000
21457090906737676.000
24084444556142456.000
34027113714852184.000
76349290950603888.000
76293506484619344.000
39709913388107048.000
49121545202918336.000
76435218009704032.000
44690617428189256.000
42986013472717736.000
50741249762468344.000
38995789138138800.000
44476344816846640.000
49271753796439368.000
36957941474202104.000
42596657558121760.000
22781399210307688.000
11411798166094672.000
15838516835041640.000
8393024323342379.000
7511935671410878.000
4548237453511835.000
3680358506989608.500
1907804066939484.000
4905338031346811.000
2553510347092211.000
3210258345034962.000
6809055989950536.000
6336128273532472.000
3540761154310769.000
4317249476367706.500
6721803665459259.000
8124583522859368.000
8016879301095067.000
6130090784563684.000
13845855686880992.000
7586056052643574.000
7716602571585225.000
5922509433227245.000
3582754851397701.000
4902605906317728.000
2728622358423849.000
1506028671567683.000
1469300555520385.000
1862182652524402.250
2602296269505245.000
3627282934746439.500
7539373267196700.000
6562360037593819.000
6700344267128405.000
4106269971344677.500
4515081221335927.000
2707676604320917.500
2354086630543872.000
2260484948474520.000
2567876943037933.000
2673194950003611.500
2006818104794200.500
4263557094878763.000
8658417495161216.000
6985286385828885.000
7709954160702820.000
8005156274505739.000
4397812693545240.000
5900453565620187.000
14930635346870328.000
7630405740178565.000
6694344895298329.000
6114910509625943.000
8793729820506912.000
14106330385446102.000
19010429882675420.000
38515221584706040.000
46783666873990656.000
48521259741207672.000
39670083291446248.000
88181217779277056.000
46234263375934416.000
40532192388241896.000
87937681327456048.000
138112906057005488.000
295680646573782976.000
456605169257080320.000
962348998586411136.000
765835235498090880.000
764103035524566912.000
395539999510394368.000
821260952373265152.000
692026926470019840.000
382417553871974336.000
427090805231280000.000
522839880291282304.000
421934403397926720.000
912913072295748352.000
707270164226270592.000
895554168452259200.000
481027391450968192.000
499624178857502976.000
757504637939433984.000
409330689489187840.000
960614479301817984.000
729556771655900160.000
392255411685800960.000
208293075046048800.000
219336653767462912.000
210393777488734144.000
262344834653270336.000
201297492693989024.000
215199681059412640.000
474034253615894976.000
369735917088138432.000
221343433145075296.000
290564904728402240.000
167941918530223392.000
120608240996177664.000
144208534273784736.000
152595779846227968.000
163625813847304416.000
117398528353987600.000
129195014860975296.000
69668866382730528.000
69275418493503024.000
91325464105769648.000
129641750605113856.000
71362846932478632.000
65556333663610176.000
34191276348338484.000
19337809787848360.000
19069234943086464.000
48832602969227048.000
26335972331347936.000
13533678644055922.000
10423569941296196.000
26707221296629512.000
21348698203693592.000
24460535314531284.000
24467901280249456.000
51204527426147616.000
37797363009877464.000
77832845292263296.000
68550207082050960.000
164242360440364640.000
247107326266740288.000
268732273287689408.000
242868734616210944.000
123843879466491296.000
147261382487368992.000
85406994823309296.000
72429859239236560.000
151173694571461216.000
207950197268496288.000
302501928303597184.000
485154022454033728.000
248478295770465120.000
250406563980201280.000
218234529091694784.000
439745774113722624.000
544473177705292160.000
357341134017832576.000
488003334904322112.000
260156966324255072.000
143186590679166720.000
285519131737466016.000
463740482507220672.000
249812584080275552.000
221927901536304032.000
208348434895699200.000
268931497001469472.000
287593686435062944.000
213140660892314624.000
122380560281102272.000
72106932722675648.000
43392303321884120.000
24537511079428436.000
24971338825661892.000
19473717699529244.000
10843847870153414.000
11207890782461808.000
6755562757568427.000
3744899000615663.000
4163669761014418.500
2468819263545334.000
1435932744950874.000
1036332858463355.500
1394302682865128.750
2038341586994085.750
2208413654983673.250
1329875798334187.750
778025596008722.250
791503974203429.250
451171978444025.688
371284832184128.875
415384917718410.500
470950528368418.625
343040745694551.062
428011639060101.062
410663389353608.250
837562240191303.125
556368689485614.188
1409321195695828.500
1261681179225793.500
1424653181285056.000
1448101142364456.000
1492385015075537.000
2094867579144850.250
4918946469848071.000
3845415909946777.500
4789571250164050.000
4600298514794334.000
4141711070688559.500
2380767135803211.000
3319133300616664.500
4673066478688683.000
4506914476051720.000
2453669597985023.000
1862499716312147.250
4196555301179502.000
3845197676969453.000
2312459210386183.000
2138331727629308.750
4270755038013034.500
4324531821545725.500
3710187258156957.000
4819384547184479.000
6393336112852716.000
6824496955394095.000
14677247057919274.000
13920992318385372.000
20839261196052872.000
26372403966684260.000
24341390923577808.000
22087269500103172.000
26735893761660144.000
14610324086733438.000
12904028253541778.000
6826414579224995.000
14095120877174090.000
7616497137938046.000
8665956706878438.000
5976524057984030.000
7857715674275238.000
4322578147317542.000
2439959070855293.500
4911273511400018.000
2705776733250866.000
2747602144192374.500
2027039850553399.250
1841166709366249.000
1068305668563662.375
1245017118243506.750
706206957919693.125
783530753443676.625
604024757663195.500
577082450311996.750
1378830764511695.750
1194817792355803.500
621437289251094.875
345147165808037.250
187022456110578.125
223771881376759.406
457692876936582.500
699281247865412.500
554255065184512.938
630495366102048.625
1006352013167210.000
1336155832938522.750
1309983068578653.000
1042382766965766.500
1013180314258642.125
1245556273808612.500
1364852902668574.250
1358733488077707.500
1822544966001404.250
4061584383722773.500
8539787470545812.000
4710371810931363.000
7048525084038645.000
6667434806892692.000
10618994961727636.000
27891162308833900.000
25499012632177852.000
40434114679208680.000
40343195926056200.000
51217116948398064.000
35484729167410740.000
21147946582911472.000
20295014244269544.000
49339134883897472.000
70704206735274216.000
77266689945597088.000
113786965221861840.000
165427674244764224.000
132407011210258656.000
66507310705260728.000
87416980088347936.000
69539830585694192.000
147674379197612128.000
120485966094161344.000
134371665831202912.000
79358234178997520.000
42202762198954776.000
21598112207721696.000
19819567682298600.000
21392040460180504.000
27828441797819460.000
24937311501710440.000
21995185580123320.000
11873599474824182.000
11946814459982454.000
7000889771231857.000
6901724534544267.000
3457643150326897.000
4157522066820520.000
6314477858222848.000
6559774620093045.000
3602933261367444.500
2025380550215674.750
1945908114226426.500
4438527307594905.000
4636547371995395.000
2546135213881861.500
2598709390856694.500
2221486234131185.250
1287647017973874.000
654012946837612.125
611914353493905.625
332246623889173.625
307356920340494.625
358918995695048.812
311953232431408.188
657400164583414.750
1059818629913626.500
1488260741832353.250
1505182980012840.000
788575645020101.250
1210169545241864.250
1359854452626435.000
1833928451629330.750
2696786206578048.000
1381563752344982.500
1085952890694519.250
2214520802452780.250
2150422325652265.750
2668610956337958.500
3869519048161824.000
8631470130781813.000
7437319016675415.000
7785148636968653.000
15677779033033214.000
13352628399758268.000
28740536448553680.000
20433337417513660.000
24279599670284924.000
34005642601427144.000
51284234867315976.000
27947560514296380.000
44843518475661936.000
63726520700151904.000
61982311913774952.000
92968614753371952.000
73150462244601136.000
81041073438310256.000
41259674835443216.000
49193573951983168.000
25650277844734084.000
15270948834627654.000
14764369870068480.000
8764459916052561.000
8641566046597266.000
4726174290183413.000
7100210650648786.000
6869943978753678.000
8080890448105290.000
4150913452745694.500
3562507054970967.000
8888486430454713.000
5921854965860521.000
6456251233976702.000
7926759442759887.000
6288627805161185.000
3286006100751404.000
4615278225779237.000
4562294735179420.000
2585318133848432.000
1362022669955773.750
2016796736485842.000
4327005714744486.000
2451705679421428.000
1245010054178952.000
2696516973679958.000
2319742514490838.500
1948821292529930.500
1158803371805607.000
2467378470827392.000
1382176427649455.500
1033254644649535.625
1507476273200447.250
1231131560324716.500
1370371626173486.250
1339853175148514.500
1234260563059868.000
1115625220224463.125
2256271318035359.000
3550920293217350.000
4378267117314108.000
3355925962581113.000
4314788769645243.000
4708273305000117.000
7462233670557707.000
15583112819150034.000
15083497972682444.000
14645049846753862.000
13047337305214266.000
15950892248436862.000
23701154280109740.000
49881135543472768.000
63656851251767424.000
138925342841975568.000
165646628218675392.000
228132777990564896.000
234426362967729408.000
254545787458951072.000
134215056287759520.000
147582894838587200.000
148452473536108320.000
215418998881155648.000
503844786191188544.000
480013517230459008.000
387286039744591744.000
538966665013190656.000
296624940312919744.000
219553548665443488.000
301966819773717632.000
499507853508842496.000
786147784931476224.000
899719546955469952.000
676796757788887296.000
949769951636221056.000
534861089389996224.000
824521985991372032.000
931844310764309632.000
844449323950882176.000
1765801581291240704.000
1230988732704249856.000
652534157830741632.000
392537433082373696.000
227801569160650336.000
210231605511450368.000
295769401505264896.000
164148626216147872.000
84605790965978064.000
44269305568246456.000
35350653219640908.000
44390009249234744.000
39816837162591096.000
40509253293880312.000
34161040902159576.000
45576030754753784.000
69545649730638400.000
78000556065652176.000
91471597565562848.000
82690589035277344.000
89815177032807232.000
71871464577928664.000
78878841168160320.000
84032353046244848.000
129190867087521216.000
136228799498670928.000
280765540371204928.000
376531507494003072.000
493157269988736000.000
782038855729002752.000
419911833988463872.000
900443773907623040.000
536349706624245184.000
278139885452493472.000
249657261107071424.000
260970094499497248.000
207343269626430016.000
124793188046684880.000
299015618524061440.000
255239080617049344.000
536871211038049216.000
882108380187879808.000
1142884231470014720.000
691917058163705984.000
979428890364600192.000
1273519551515588352.000
3059085805427930624.000
2558493604195537920.000
1385663149215333376.000
771734581355625728.000
1687979243793692416.000
1331436596045120256.000
2884193674793492480.000
1666780118565996288.000
893402341408368256.000
634823786508318336.000
941321450631262592.000
1439760539302718208.000
1436772597215586560.000
2099462809353543424.000
1199646967177362944.000
1765492500786431744.000
1426441152741648384.000
1634308458026669312.000
940269400129435904.000
1544119406391171584.000
861422085981737984.000
688871819662871936.000
1762545423453781248.000
2355628171315210240.000
1294149230385747712.000
1146538790163320192.000
1367351517985759488.000
1701515154766614784.000
947600989626109312.000
762942893071567360.000
890058555468089472.000
976252122014722304.000
963553505469897216.000
962627137065469056.000
1446426640516488448.000
1359891748246738432.000
2930555508641451008.000
2441084110451058176.000
3030629194414623232.000
4008788258764098048.000
2198141670132738816.000
2968386246808051712.000
2836612767156441600.000
1463822165682263296.000
849921451131821568.000
766218394599780864.000
662101563191184000.000
396502551455888256.000
238136780335025696.000
119510768286016448.000
286802762409976160.000
158665096507630496.000
123113514513059312.000
161472086280693280.000
111474374055753360.000
61020457976685360.000
66483067430594936.000
149591793567840896.000
153478062821801632.000
196663312016292192.000
295681161205314368.000
417904268106976704.000
380128287705733760.000
944503473796654080.000
707210146119631488.000
890782249427044224.000
663482177379262336.000
1444524678222792448.000
1163460498349243648.000
1582349589150507008.000
890764355169629056.000
525123235006657600.000
282526720036349376.000
152124924911136704.000
152088917660242304.000
127311458704259280.000
119530910091211200.000
123901228878035248.000
70608127086189848.000
72001153334210256.000
63253353200851912.000
83583702734196144.000
47588404369902584.000
36014150915530128.000
34817212169045380.000
51494465651526520.000
48044025139196664.000
45255949978294752.000
38185547567513024.000
35655863828897548.000
39823358458433056.000
42187832570278024.000
37360080889123000.000
51360924984393376.000
45591756894994680.000
38717054814081512.000
23658551406867076.000
47545401061348816.000
24932910872329616.000
12745489914090852.000
14735783589647522.000
8018353680181882.000
15720414107064230.000
14649517352516266.000
7933872156869167.000
4714663955413076.000
3488008471352740.000
7158496329357770.000
11491782058470190.000
6602073656447242.000
3940714914597565.000
4817092888748355.000
4676299080241712.000
2495117196894302.500
2352016825763750.500
2074041470375111.750
1050920835442790.000
1358179190328279.250
1794856228972387.250
2056395731102040.750
2185739454232954.750
1284665169863987.750
1445807436351056.250
738470343790315.500
1152373120645813.000
1304638320574016.500
987072965416208.125
576562907600451.500
1174643922645663.250
993414489318437.250
571618858870368.000
730169955669529.500
713982928962634.250
669743090861787.375
405333597547982.125
585181910344107.625
794277104010035.000
564009857073759.125
730223394566023.375
396430829855010.312
379603354466853.438
436650616087851.625
440612642400857.500
469538800862756.000
469368174676484.812
394816931029383.375
323389082120239.500
741783001920310.375
1128474362853952.500
2610979957969241.500
1961362173141642.500
1978763669504096.250
2673488822416698.000
2205401248465501.000
1919465280079228.000
4448418563725645.500
4625768270727465.000
3324152760700320.500
3448882300525592.500
4729126656119222.000
4180744871565096.000
2163615110678519.250
4322155209445029.000
3653434401697635.000
2024891391177526.250
2486684153021876.500
1920175207305766.750
2456682468536828.000
1244602644972432.000
645132193357840.750
1508660651452338.750
2215044433040914.500
2017932359768606.000
4858117642242992.000
7638697339984390.000
5920549761014762.000
16003888607800788.000
23433784094370228.000
23661343174404920.000
25355682881141944.000
13545347739738204.000
11302139289264142.000
23876869951612608.000
19476591377246288.000
18773838670165332.000
25929031214163804.000
40018446277898856.000
42854794010922456.000
22623939388586420.000
22056509485570948.000
28431177603893192.000
41742154231061776.000
51068305916347008.000
34813417150611620.000
39668079487227488.000
21275567627784896.000
51938031606992528.000
40708451818915920.000
81200542718903552.000
76567243343876464.000
40626948322851056.000
65059585329459944.000
91020219464856816.000
114446716785273648.000
243912005642151616.000
235156302822917568.000
302024714202479168.000
263278249761933856.000
207345809548577568.000
521535761900174464.000
483266476693480128.000
378024707496565696.000
874185869211909888.000
855409050455794944.000
1209125055505757184.000
724712720395491840.000
765998105158324864.000
460708907170043968.000
246443242476782528.000
205075423035366880.000
217297064059589984.000
461741733454934400.000
529673465991501760.000
854731058231675136.000
663535824688814848.000
755071472118167680.000
674683955073224320.000
714012197259164928.000
394504987262953600.000
537144061919673280.000
741174039477833600.000
975766236712658432.000
1282819334892230656.000
2580809895945337856.000
2532609594565039104.000
1314446116677407744.000
1171274983580094720.000
1411983209067747072.000
857531949896182528.000
933221408439987840.000
920521165830722048.000
482801567390923328.000
470374742129184640.000
456932033578686848.000
741576989623711872.000
659555881162307328.000
854398946427070848.000
945823283232152448.000
499645752109703168.000
400857510517219712.000
484171488836943680.000
480461144713072320.000
530494632663137152.000
283004166275502464.000
160979354290323392.000
133887448459217920.000
128067552445486944.000
69632738302386128.000
146525209770669344.000
74560598882259024.000
66270409546104232.000
68241952523106272.000
81047554471173808.000
92792394673078528.000
143034634120675200.000
82294732102210768.000
62611053550157448.000
37861350993375144.000
37471048668026560.000
80387431975311568.000
44689050841120312.000
40332985036583784.000
84229062568212480.000
50932960636361936.000
42070500724779448.000
25626807343876836.000
14567491261351126.000
11814589280558298.000
18684141679729896.000
51099605680493824.000
51738784751869904.000
26971693650245420.000
22748026834532868.000
20268389554115164.000
19519635810846684.000
24584214901209168.000
20973948602049656.000
48884540004517160.000
48796851492633224.000
63633531424569760.000
37827345366906896.000
19873283384367704.000
26237256199223988.000
18788452942355556.000
10869208298455768.000
11029468546005910.000
13309762092936164.000
7809286332988887.000
8625986413707015.000
11988203414532048.000
24802886927898724.000
14783837416480704.000
8002193741166989.000
6186302623916427.000
7095109896316647.000
7432933473966345.000
4167355346460269.000
3552736167812028.000
2001622166282127.250
2503605961719538.000
2663807844388633.000
1856724628652779.500
2182513693397494.000
2401513437840909.000
1301706068600469.500
1258413538904486.250
1865541861142733.000
2000853855522229.000
4036304405956062.000
4570987613757551.000
6191690900228839.000
3205154190236814.500
4793136320078057.000
4100789701615710.000
3340275449730596.500
3956823133687013.500
4671049562590890.000
6777933063708786.000
6488680036111355.000
3288628716556196.500
4300794550334118.500
3754585474897992.000
4309460907183794.000
4717053851490229.000
6222403811296489.000
13997629546528484.000
8271154031825209.000
6107999853992730.000
5888715177711844.000
12349814547549576.000
27707254362190836.000
26241328952015816.000
24123632342990148.000
35183499091889516.000
20899196943248884.000
10493558454683010.000
5928887683554612.000
8242155166678182.000
8427745155361776.000
4758060588965016.000
2442481529107444.500
3225973107016713.000
4133487493051856.000
4509332163968794.000
4236654580830497.000
2230125471095705.250
2092023633052005.750
2271179410593737.500
1378637284171166.250
1406526970150120.250
1014278380278881.375
1032379253508202.500
1335656434481012.000
779670837818066.000
587575714012383.500
1240922349702905.750
1451195401784759.500
1980298654831274.500
4921098250517271.000
4048973635325491.000
8550498718797496.000
4395160942262517.000
4897217078037181.000
4574095118109956.000
2321343846900564.500
2304859510983213.500
2113890539430534.000
2650074185412289.500
1500603899339774.500
1372276735227777.500
1454999525653583.750
1843810672343281.500
2551552439160604.000
1415857715687718.750
1320473230859203.250
1501230332502373.250
1316061394721292.750
758475904913755.125
776904007236296.375
440674952045265.875
453008953269398.938
686088614742023.375
348876437591671.250
200884327575273.406
452736621395642.562
677281400775967.000
590763562302316.375
1209210756210269.250
671259397117345.250
405891962243375.625
347248457896018.438
780650907627120.875
1268036652744817.000
1088935670414916.750
1525705376899030.750
2138144351827899.250
3256685932758607.500
1998154643565487.500
4898682387757432.000
4076547000009489.000
4002689547482622.500
4893731116190227.000
3985904700942505.500
5786352629948039.000
15356205948444586.000
14998493050029862.000
11104501858242208.000
11717602399894394.000
13374052470258654.000
7124568653095914.000
3582071028625852.500
8211927971582446.000
4608005218706368.000
2695526808878482.500
2284484730706073.000
1269767306825180.750
1101212059193911.125
1245096902363199.000
1232858949346033.750
2725624324170559.000
2366293545660426.000
1278634321838556.500
1431939563450697.750
986950611593925.125
1190569253609851.750
1011329001490321.375
1009146622339037.875
1427450342907688.750
1414720996932464.250
835909677266522.750
641679775010009.375
1506112800818813.750
2308300077770174.500
1793152235827589.750
3727926852319540.000
3888586821039850.500
3618426921601342.000
1960906579230390.000
4431258353323661.500
4248996098362485.500
4629781890322252.000
3260098816498160.500
1952783039860723.500
1878479455284989.250
1880821473329904.000
4381991834615927.000
4582769690458483.000
6094651473027215.000
12783315597384248.000
25745763336985000.000
15435025356807458.000
23064070521556320.000
27810193640713852.000
34222438603399076.000
20945365569902148.000
27270699931870648.000
23024716529868136.000
25757904497118668.000
22589762930137504.000
19405331027448956.000
25440013836918168.000
24373683045188740.000
19255300689327204.000
45364971120551960.000
71379231020672648.000
113352966608291488.000
286682031606829440.000
248672063534481728.000
237301145881130848.000
279094495358749248.000
260718577232566880.000
214463971680892896.000
301596586975887360.000
482425123687885248.000
716278435399746048.000
395172609620110848.000
451310399058225472.000
904579078874834560.000
1447264873441046272.000
3073754045652862976.000
3832888032109551616.000
2075135982911713536.000
2085724591184042496.000
5342796447596232704.000
3158332917757320192.000
2523067475178411520.000
3024154197710620160.000
2198667622545706752.000
4807419822554199040.000
4942528258164052992.000
4102714906903729152.000
5538845610043995136.000
2974460281810519040.000
1609728556941072896.000
891429599594785152.000
647063426645950592.000
392484089745013056.000
395430097233070208.000
477020232111995136.000
403176064836821184.000
950808541121197568.000
664081952860504064.000
972452514266739328.000
643638801441136512.000
797159463906229248.000
782506917783205760.000
400087880730148480.000
831903154201852288.000
421691999921890944.000
922473084974429184.000
1352268575367965184.000
722252961674314368.000
1533628155235467776.000
2442962460112659968.000
2933947183565566464.000
2869374162849374720.000
2592698682622477824.000
1328201592958736128.000
1231157090356480256.000
707218279279237120.000
802617403392590592.000
1161991062884083200.000
1557684824070149376.000
879148261463018880.000
798411627973759616.000
886701842378260608.000
1392714253269829120.000
1556559898651623936.000
1439784433351635200.000
1546715746175881728.000
1752359996161907968.000
1537018174136830976.000
840538658792990208.000
700101542268769152.000
839058898978421504.000
893123836402764544.000
919016498358059264.000
1165257114347079424.000
1359336253565189376.000
1224761235001133568.000
1354802491907693312.000
1625036339669445888.000
2096060614993139968.000
5387475458856569856.000
5517150102969734144.000
4301914581901790208.000
4056258516911275520.000
2330161210565697536.000
2621534066496833536.000
3109770400430961664.000
4443433461681747456.000
3803701588548679680.000
4694725045489428480.000
2534952656286615552.000
3768263516581282816.000
4703813502100128768.000
2554736508177773056.000
1478237547187495680.000
863490873446107392.000
453841863396794304.000
266628341835898176.000
392482375045912960.000
525357639390670144.000
362928297316340672.000
534514176784825472.000
289318687981003456.000
207107633827186016.000
289636458806916672.000
458201314506937664.000
255683421888107552.000
264422181752837120.000
227197490321120288.000
115004296375994832.000
131996832410646608.000
71496247674953144.000
71211009940699496.000
79542014196072816.000
44093884213088704.000
26421136300852648.000
13919361659528258.000
12160339352816264.000
11929537487728632.000
24380890442527248.000
14173844489055288.000
21760754761547708.000
13296705554807200.000
7347798252636499.000
5949774296566750.000
7773226214515566.000
11679659570450136.000
13536204999786832.000
7323888423353351.000
7410355835031258.000
15636857070616318.000
22787424429963936.000
27409804127701072.000
35244407897498032.000
90922580872397840.000
76737036505018176.000
42782556922504224.000
34834123106335816.000
44552221642136832.000
36621959438111184.000
47749419299186920.000
35728498581645312.000
88357351262002592.000
128465289834364896.000
73779266993967712.000
79065720360610160.000
67404489310618680.000
84382593404556640.000
130617731384993040.000
150286988575181984.000
134205868102812144.000
79062612182314304.000
81469043591481344.000
63175894381628448.000
69287640362841744.000
161772417295522848.000
150331008952949280.000
82581647715612464.000
49547901311117984.000
33678636571707460.000
36456913996028720.000
46112334570163896.000
35504530577216880.000
19263142636723152.000
11925384584962610.000
13145752932022756.000
20876712747490460.000
24890687318636556.000
21519976977841380.000
21687994473021980.000
13012666895195062.000
7518216265383140.000
8133817557362046.000
7513305971005646.000
3959444721025097.500
4802359083337508.000
5772434234569100.000
16026258511666608.000
14219028847030822.000
11673402982127976.000
13489047605163624.000
21491525934956004.000
27690109150768088.000
25713935483282848.000
37781703302162880.000
44488927213792480.000
35978660074890276.000
19515381087289292.000
23181277136202024.000
19999775746566780.000
19691527198056620.000
11795429823862458.000
5953232844544316.000
13674451414519488.000
13212031646055700.000
19548224561323536.000
20013943262303472.000
20671707831113952.000
11717573265251796.000
6109698432346305.000
3452591845902767.000
4310371401251455.000
4064918622302074.500
3382663825737876.500
3924924880298123.000
3265281930074695.000
8684742495553029.000
11699904486890640.000
6229516550765764.000
5920030532515370.000
7181527744432488.000
7673321441675509.000
7764333103755167.000
5796208896512451.000
5846478251654758.000
6408909852426348.000
6854072507874996.000
7748995746631683.000
16015350600764144.000
12282155398825104.000
13376957006453082.000
16026291024556660.000
19004573367326300.000
19332997429521824.000
27349820911013604.000
19454028921917588.000
21891312278279516.000
19000831287227148.000
39643343635872552.000
86546794222033024.000
45847870626208536.000
41411354824435688.000
21127238150054636.000
27474737595109948.000
15909853344022508.000
8560248237868396.000
12988825008882240.000
7397668848595227.000
3811464200879148.500
2275975129921693.000
1891413965766333.750
2357979256359273.000
1251775999592764.750
1434444433955056.500
1359716410649163.750
2112388454359018.750
2382241774275214.500
2144870288436627.500
2374141027186343.500
1272295515296989.500
696835434231034.500
685388784484353.125
1068910533530817.375
1482007765035961.250
2304322043244936.500
1900958132516182.500
2028438706253628.750
4075189122846017.000
4130111254848372.000
4759962254490339.000
5984715907538754.000
8353966671958077.000
7294324951940261.000
15152382002809396.000
22111646745650012.000
23901129973413756.000
13676842705686188.000
8307944176144227.000
7094574421622192.000
15263017009897692.000
22707015981032112.000
48737903510583744.000
73627611115617968.000
164359171831552320.000
238569627045767776.000
127058239318059456.000
72641356589362080.000
42051568418610680.000
35109561907470996.000
45691678063631632.000
24031027495542092.000
19068341904256528.000
10956059776981480.000
27828862345910928.000
19373566044820680.000
11083898576976746.000
13136223229614152.000
19330691699789944.000
27638240865010816.000
23728078560493676.000
25416835579887748.000
25197377204170436.000
23909294033852412.000
12231018616874334.000
28151666532242576.000
14841635303643860.000
23123240422895364.000
21688343614381344.000
45829955580695240.000
48952808993757840.000
50500214575906000.000
42204268237536208.000
87369451976032288.000
51400012647849048.000
34038680381216820.000
38877087831556544.000
22034100719321352.000
11813597264343914.000
10557491608723602.000
11230974256663722.000
13587003207006654.000
12762225487029118.000
11504731981049906.000
14304497343530788.000
28258066161381424.000
26539377034355016.000
42735065311978352.000
51628086908724216.000
44085255731654920.000
49856825069403840.000
81466832811677440.000
45721411507216384.000
35227757166289756.000
89393897850447072.000
48054407528871624.000
27373288713218784.000
22991082977130380.000
27910034208029572.000
21274314175161996.000
26867462302677832.000
40652238092525464.000
34903819342550292.000
85423683211557520.000
75405228754920576.000
82314551019496992.000
122441893872454320.000
63629279713008424.000
64540838427016216.000
62844018894078984.000
136544283690989136.000
76726515672745040.000
41055019034944808.000
60558877715350072.000
89627410988785648.000
144717715605487328.000
76168572483081632.000
86879567614371360.000
77229106958162016.000
66589965333442656.000
64448303146977544.000
63558338752579552.000
135329642064627120.000
151528222557746368.000
168175155207760096.000
120631489246151504.000
62630362380697296.000
164205745834411616.000
123293676133141600.000
300754515495401856.000
246235935355549856.000
129053096031957760.000
147140889166538016.000
115199321527503456.000
159218968505805664.000
145628538301827360.000
298925671320474624.000
282428664440527296.000
259617531005338976.000
290181295046371200.000
246599292419973120.000
196694782272936896.000
223993253799042624.000
115134827282145248.000
138929060235737872.000
154142125933478176.000
240626239746387904.000
239315614182686720.000
242973266413065856.000
210146915288437344.000
299013998459374272.000
445620316617980480.000
365349669244040000.000
889117789717441664.000
968930358329380608.000
655792800098708352.000
1662731564467505920.000
1367947612708485376.000
771114047339132288.000
948308967851254784.000
500739367968996224.000
728632188684015488.000
731874019238718720.000
1743024179834872320.000
2725114500893557248.000
1433741406252090880.000
3026923002641861632.000
1629251019024529152.000
2153261660754638592.000
2576821836813544448.000
3789232953063483904.000
9343286437515747328.000
7529836606267711488.000
4287582417043318784.000
4659799374428596224.000
5472773445685989376.000
4062425895356110848.000
4381553150886845952.000
9964636214809303040.000
15789552867584086016.000
23223339268837523456.000
13779884161067253760.000
13242802500235661312.000
32369317175601160192.000
28246885887181230080.000
16719598700469295104.000
24480866399747022848.000
14729744870762176512.000
12524489716369498112.000
16413999715459219456.000
9657590501806135296.000
6717920802277392384.000
6939010892857992192.000
8852749856007026688.000
5208636171557209088.000
5551876495229153280.000
5117930552919843840.000
2759749748347419136.000
1615977947414509056.000
1259659543881835776.000
1557641566316279296.000
865620714353153408.000
679978513044044800.000
798471050103233280.000
934901706648883456.000
1193549098029099520.000
1373774312237712384.000
2963721164495745536.000
3062834425544306688.000
4183448881009893888.000
5600063672177641472.000
7137457747047911424.000
6949197241625912320.000
3931884449965200896.000
2115685971027596032.000
2670179213010749952.000
3804061636334324736.000
5450987507912536064.000
4022734517701060608.000
2122038574510628096.000
5075763927275751424.000
5421534073830019072.000
3003724857611518976.000
2439660809826400768.000
1271379151319361024.000
1618879488045939456.000
2211858224055565056.000
2952506252323798528.000
1643944753820136704.000
1198424658114450944.000
743070111688268416.000
1535203721434498304.000
927393373047169920.000
695216122653062784.000
805297777272823808.000
904201355454237568.000
799580572536456832.000
1648822363392056064.000
1745623408155169280.000
972799294517897344.000
890118595637768064.000
794055734640730752.000
679695847049553536.000
1554431828961656832.000
922197484109678464.000
529165680786312064.000
390475521261357632.000
362915566922137280.000
738688997973050496.000
852553329585621504.000
740458226035632768.000
954068082211838080.000
703923131533643776.000
863587894134655744.000
453685698551427712.000
248329849597631040.000
290456673337253120.000
207372225561466560.000
544912292845853952.000
454526845764581952.000
422381184855315584.000
214053041290811104.000
440033314547259904.000
251470315245538496.000
297818504706699136.000
397773713398444160.000
481555570628141120.000
763471370831813760.000
863089386275482880.000
779705678580878848.000
435150357462215744.000
508604884619655680.000
432306119326388672.000
660776079432594304.000
1578441836006962432.000
1427813864224635136.000
1763815984925600256.000
2178109622498509312.000
2916224949985434112.000
2206971678700217088.000
3031107922522253824.000
4670603740701507584.000
4921717723810788352.000
2653521069543342592.000
1445164681398379520.000
1347212382459881728.000
734948801309437312.000
1154087917858913792.000
1754647024525469184.000
1214993243898216960.000
1237963282808896512.000
1628953851657749504.000
2241608076419010048.000
2906484116802364416.000
2900502937163864064.000
4692380782401242112.000
7243246256866169856.000
7957381390491317248.000
8160919569877951488.000
9741765999077959680.000
6960230014066603008.000
7002260051059919872.000
7877530780294320128.000
6723844989548951552.000
9372044002770710528.000
5599812456939367424.000
3137418645277026304.000
2481141978653895168.000
2607082500526813696.000
1417871853838464000.000
737392362842204800.000
879582291174442496.000
1225618642093462784.000
2615875836086697984.000
2439819291452522496.000
2114524338076975104.000
3070523030596590592.000
2186928152900535040.000
2681302696380808192.000
4362747558116218880.000
2565180625635850752.000
2597113956330539520.000
2508649739513413632.000
2206982293081544960.000
2218801937132689152.000
1276656865729961216.000
1678557015835744768.000
1305945479941018112.000
1347346457127521280.000
1541846443926560768.000
2229982060950494720.000
2855093592120480768.000
4116195423693862400.000
4782406529056864256.000
3708787920570959872.000
5258031912229007360.000
4549812352658766848.000
3940689446232814592.000
8597377362692494336.000
12933677699041603584.000
7772287150459438080.000
9382303111187695616.000
4898845352674336768.000
4356316151609896960.000
4109265049033928704.000
3872594151308838400.000
5600248741853404160.000
5360803992965685248.000
4466865515371417600.000
3807930229296982016.000
4366100727087415808.000
4955065628183660544.000
5486969136592447488.000
4089799095148997632.000
9507009539726518272.000
8892008341741757440.000
5142096556982642688.000
4215161516917512704.000
2438118772971122688.000
2851157221968672768.000
4579708443099912192.000
4720256040222018560.000
3723000196027847680.000
8832403279805464576.000
4700192677520378880.000
3995637196490798592.000
5396630719206983680.000
2757452385936793600.000
1622239609237405184.000
844827736727261184.000
891331347108715008.000
673565015227481984.000
879441589929775360.000
483760951186911360.000
272037253872776544.000
227012168664600896.000
113504369759102192.000
150240840615517888.000
165991555932687680.000
111388783688708576.000
128478848091583072.000
64329447375299376.000
159751746345995328.000
147999775361436288.000
221663221004811616.000
205037576124943968.000
221139636160505952.000
284157536399132672.000
242354052683188576.000
126302336031444864.000
292809794545844224.000
154428397615832960.000
131118982504541232.000
68928022389910728.000
75778810184810624.000
43211709724337072.000
38675323957276336.000
85952589217902912.000
91333558311731520.000
67443639682814712.000
78495039730971792.000
114234457748913936.000
70216260620215856.000
36681004752855552.000
41369221550285904.000
64878117451807048.000
137628996916386304.000
