40.809
41.576
63.209
131.771
126.270
200.096
438.402
420.950
552.967
566.149
1203.916
2574.352
3947.499
3598.256
8371.721
11227.170
10594.073
23630.581
35125.097
85880.335
80434.556
77754.141
83353.120
123454.632
296329.612
276879.890
262638.140
248674.076
257532.122
369688.748
826738.647
803264.316
1744311.746
2183221.475
4832397.741
7184653.241
15661651.974
33237916.199
48795500.652
49584354.947
47089721.698
101804495.069
144618251.999
308089933.874
475375099.243
1007061507.964
1607432630.428
3281378043.262
4798334408.479
4399216963.408
9834488250.156
19721927026.227
29755083576.388
46546923341.192
112852438748.041
119542427118.358
148948649875.606
148936426626.036
349708156824.769
501100877083.363
1316661196305.456
1640334893144.706
1754300133012.881
4201100103371.104
5391090874167.172
13657831039340.639
19662025798672.754
19409457588336.504
20828366377455.504
44162637446283.391
67209671225593.461
102370013984077.547
97725997593063.688
217772220652879.344
465427011162452.562
629002234798607.875
1308911812512627.500
1354663769323274.750
1323466430669289.250
1801567095136123.750
4074074854427640.000
4346892292590285.500
6926101605989986.000
6461814888573450.000
5896170293152396.000
6077638834731796.000
14893831937181890.000
19670719401421552.000
41021144968277544.000
64432765123949808.000
71472383442334240.000
157088069586070976.000
226589121908864736.000
202723519124688096.000
427801196213142080.000
892539051601325696.000
1220342078014454528.000
1184107561872335616.000
3157388875919653376.000
3143313557344498176.000
2907986937072499200.000
4134863152811439104.000
2547583611239880192.000
1396391186527168000.000
1483107083978825472.000
1699763530450452480.000
899434032785845632.000
1408635937514009856.000
817737118391942144.000
782755176005956992.000
958233951317153536.000
844814643101066624.000
756901432607264768.000
1539225025441630720.000
1172550272616441856.000
1464300776658036736.000
2094577118937295360.000
2834115696467037696.000
1548838857127026944.000
804060328728190592.000
800655183993396864.000
1271649339759454208.000
2866603583716248576.000
1574400292466078976.000
867567345096237312.000
1733726215626795008.000
1635537767567230464.000
2292152348871636480.000
5509179327053275136.000
2956425521770416128.000
2186426428842539008.000
5594167183223303168.000
4460258377255704064.000
5429917904026934272.000
2764812847422276608.000
3120618713508839424.000
1630913200481885184.000
847511526508887424.000
507386636982938880.000
811828133983142784.000
840845060285475072.000
726857725719046528.000
868821510204241280.000
501492142486835520.000
272815605540391232.000
217041401681382720.000
274077256582559360.000
150346410460419072.000
76740408802719888.000
75491060733184992.000
88057463733752512.000
62557810332674448.000
88506544371765424.000
75782032289357456.000
89757935200192064.000
86427618332922416.000
46233709890121480.000
60926139398367264.000
81448561360202432.000
60486787039820216.000
79752104505846176.000
62913178232033560.000
134344026205091200.000
77006426703432656.000
40695962515708016.000
24253939425307276.000
20145658659790744.000
21146656169241908.000
19098466173002684.000
22526484568198652.000
11337174860331270.000
12969349362983226.000
20777911444805324.000
12505076199902110.000
7135605853469218.000
4046117872233885.500
3477472223634178.500
7064716383636668.000
7370801595215621.000
4035197240285114.500
2062408185698986.750
4777867454323670.000
4362319275431596.500
6882413611896803.000
7419624074602222.000
6788809564212552.000
7674895470910325.000
6020100566753824.000
8291333122030309.000
7136528871291876.000
7400100429702808.000
8657620301128363.000
4716238561490877.000
7412412801089132.000
3993754824800085.500
4418935925328627.500
3479486702950371.000
7896211576434847.000
5866188690082723.000
12402945322648716.000
12512358930125674.000
6374338973484162.000
7033729637242731.000
11274861439988252.000
23203929780634268.000
26666460349960560.000
43102991078885792.000
22326111430496504.000
35627523461767952.000
38677186790345352.000
49141415304025336.000
42470121042606400.000
49688042670890256.000
28494902100272964.000
21432768108046936.000
11496929444741428.000
15749338398853764.000
8402095493944051.000
10313620516867174.000
22440029496188960.000
20617335849679508.000
25240217536187128.000
20375515648630416.000
47940395126151888.000
67889745533940608.000
39877668339102144.000
86980415430522016.000
64327253608295128.000
34086385676565108.000
84805324450271696.000
74351317828855264.000
43514302537320864.000
50546018245891816.000
26831337521436124.000
34792716658867756.000
46770566646955024.000
60092066797778368.000
124440689110017520.000
194928978623699328.000
108243642724843440.000
260044345955262080.000
154299839651746560.000
137826176899348976.000
207232053479664608.000
459475807855463040.000
374522988004908480.000
211715626549998976.000
214426756010884352.000
458014537225874752.000
714565173497702144.000
363423469920122304.000
423438043585808192.000
495931744367007296.000
394673268911200576.000
217634880900134816.000
485489396532503552.000
524867243101257472.000
459141694103130688.000
275207494505470848.000
156866144728959328.000
111667190359804496.000
64322215124707080.000
35586633471405156.000
83398794097883200.000
85716478283447360.000
108438030760743040.000
132092760357199184.000
119975490194323184.000
122014739650112336.000
73266803557368112.000
75992042694088688.000
66021983673511280.000
34259229570695056.000
79504600240373808.000
79370552960708320.000
116396444991620560.000
134649921457219936.000
108452964151310432.000
227797446440179008.000
489404613675832896.000
702336383641572992.000
920186677235300736.000
829009703953854336.000
916824585465003264.000
1246668320102478848.000
3074617232914324480.000
2745918239869313536.000
1630313349989591808.000
1455320872533990912.000
786745555764766080.000
851725394787952256.000
445886114707904576.000
668184694712031104.000
831248501451224064.000
851032878784607616.000
499308645440137792.000
392744402406939072.000
516594890615767616.000
279289967571475616.000
251890672408965568.000
266422361353220064.000
350470822306776832.000
946805250730325376.000
711771015422963712.000
429288896637873600.000
504436425116304512.000
372507087640830720.000
375256928463477504.000
497320934964166208.000
507712352741650432.000
293713203654500096.000
239976172244965568.000
294992930685237184.000
389121436274200128.000
514469547075186560.000
478076985114080768.000
416810549303626240.000
379955285098439424.000
201849737623608640.000
237572784252132032.000
236620650059044480.000
206765549711948384.000
286912456739763776.000
220845378754230592.000
196527956115632320.000
439137210819066432.000
521120596345983232.000
283057806260880640.000
418439110022162432.000
529645868610063104.000
369325867548247360.000
349347090301143616.000
501373813526896832.000
482290736370376704.000
350445068947253760.000
427506680585793344.000
246857887526479872.000
271879460361054784.000
163161845579821280.000
255497148478036896.000
192931674083632288.000
478783448095659328.000
415867424718894272.000
520778771646128192.000
383190475160239616.000
444314386169894400.000
622996655468313728.000
1588010090890595840.000
916364289551311744.000
520001024395298496.000
508426984038422656.000
279842574595646304.000
213278231774871168.000
243550709242079360.000
220849948140116256.000
265865672240792576.000
404929252751577728.000
239888847506823456.000
231272002738222368.000
464538338958155328.000
236227002803552704.000
499200266670672384.000
523616428155971968.000
378024720278392064.000
344446054413388800.000
433449125680683264.000
337717283699309440.000
820209875804450688.000
802190728073922816.000
792804150348714240.000
1648171535340679168.000
1257891722267956224.000
1197007311760023296.000
1469527363859435776.000
1585191851360629248.000
1174730377234287360.000
695051460171690112.000
389272377258839616.000
503998990547741312.000
438732997576586368.000
256879532816378880.000
289425198936103232.000
223006112790059712.000
116367748666838304.000
161186539132730048.000
86411472190027152.000
45610718759499584.000
43732368779765224.000
38504317872835248.000
41541576523448544.000
56802422982486288.000
60913744367802712.000
85052548083204528.000
44002340376588216.000
71425541082613080.000
69933959062691184.000
83242290615015904.000
46320862785643744.000
45168596223597960.000
33401299741842732.000
81288066173571056.000
60540106532535168.000
68560031005187256.000
37878652020425472.000
77525319923859792.000
46287439443403808.000
24577256619378696.000
24438579876244536.000
20733155493820164.000
20572446149524464.000
20629308660053764.000
17943160572914916.000
26202834522364864.000
15143679634157370.000
7952316568401052.000
7331714751542520.000
5958430693465056.000
5775059471496297.000
14110673498441014.000
7642702664529549.000
11294953933681670.000
14302317503114044.000
8132981675399656.000
4668309239379491.000
4163569017078112.500
2191670712621270.500
1805279263800725.750
1862519154757980.750
2198366829221345.500
1731435523429740.000
2013629382689724.750
1885010962003048.500
1066687967800284.125
2285571475529162.000
1736176105962670.750
1966393313498299.250
2140839130081434.000
2509619098331666.000
3805311434617570.000
2202981894704579.500
1701458493332464.500
2263875911420125.500
1351682575929243.500
709730814302034.750
374282292911394.438
207198399208802.312
178526841037338.938
203816367114433.438
189817779343841.656
193569979776471.375
179346054535921.750
424932075847081.562
230486579296334.219
204588597605001.000
187105932234984.344
113642385437006.859
140164564198178.875
226876223679387.594
293523123054892.875
375381910009281.562
540700766398534.938
667537378008435.750
686362901646483.500
770040188738531.000
1129425251502803.500
1399688623098144.750
761590935432338.250
628802437581318.625
1467507465767195.500
2075318204362403.000
1089437768436515.875
632701626162080.875
1326076287137079.000
708718758230675.375
671739330054661.000
351051271667639.688
718183112227163.625
767494649730956.500
629278565672339.625
372178700204380.750
783919702977841.000
676027805584886.000
339071205229676.812
746070634456167.250
584347669720140.750
1394994451857429.750
2254764790269907.500
3355850510442030.000
2011730292598431.000
2106978617273002.250
2501451312748961.000
3914626314080923.500
4444680004569127.000
4349418139774114.500
2442335942067601.500
2331684041718844.500
1948423085885888.750
1889766822620992.750
4578473746438409.000
3592412052268966.500
2098603118512241.250
1854095534848559.000
977741318541524.125
2587738891098421.500
1467893108047592.000
1459702319343430.000
2326045631490097.500
2254261058519207.000
1858271313601003.500
4077856809767774.000
8259339258058205.000
4329364765604687.000
3496776850445157.500
7612253916241525.000
7002804285833869.000
7443260356620160.000
4396539184028553.000
5679030220137475.000
7419701953808933.000
10299900745164416.000
13236900953856664.000
10122880815488800.000
22007648260683652.000
20377661715337368.000
26391419905514676.000
37990324986869280.000
49520863902658184.000
63692527469580560.000
86289133468729248.000
72024369111185600.000
61072754738531528.000
153815443549328160.000
215156854718424064.000
131186291322308080.000
76533555952884496.000
62481709955111264.000
61762396774364672.000
81435222794048352.000
59553342293134368.000
150643139062144832.000
82897070958799344.000
47244426164581712.000
45913989062488248.000
73145528576305280.000
80120195047747824.000
164644318485810080.000
138015813141668512.000
152241483805514432.000
245535479902993056.000
486118784514441408.000
448829503703719680.000
263922256825975648.000
241306566968892096.000
201709246910554272.000
204218769113834304.000
219719162885084256.000
116426461566990992.000
131983288603316416.000
70994684741283560.000
79513347656279120.000
63535236687262216.000
35531579328577964.000
75504305154918240.000
67477375189417208.000
36544568666399136.000
48858969203252792.000
76425226597894176.000
41497623242724152.000
50582541953735040.000
27186506858587184.000
37037210042065520.000
36365983321819416.000
21052658941318560.000
18846593511521948.000
38522903629647864.000
85073795682254528.000
51383986797204312.000
47768930830562608.000
38590150339600080.000
85883091293451440.000
49894199311425464.000
38513546222377032.000
86519633365996160.000
61740404401950240.000
38124553400472840.000
23293681939272504.000
28338951742986240.000
15201736146784132.000
19961024473692620.000
51232255567185696.000
35544736151658168.000
43027898467551016.000
26038454986410584.000
23795644686572136.000
35324863215442000.000
35745778188066052.000
44321879571477512.000
91409294550047616.000
81309613368423792.000
41384752665422232.000
90270415211155376.000
46534405967609688.000
49512400861541296.000
40377549936170632.000
64850564755546416.000
139111468702765840.000
161301401051730784.000
199087336130057312.000
268240527011669600.000
158948277561858592.000
115050029288993952.000
289128893928434816.000
253627077704614752.000
146497060964672032.000
234018861039802816.000
504364010922038976.000
675197257896006400.000
410952838775987648.000
208042871447679168.000
285504796063560032.000
221764971495676544.000
271414351922823008.000
209908667589115968.000
448139417355848448.000
527033539017095872.000
442826521142443008.000
231344956051343776.000
301260867282328128.000
164778625917775456.000
133005885823796512.000
75129763909648544.000
42170211447622960.000
22703861402988464.000
20841885373216388.000
51456847673259256.000
26325217523989200.000
34994075943260132.000
44570170575885296.000
34799672924873872.000
39213353432570952.000
37406542682572040.000
77032117736738096.000
120320600792530832.000
161522929428220992.000
259150794871509920.000
148428545802264832.000
162409544737320576.000
119710878779392624.000
135058915660288272.000
69815625676499192.000
156941437195238208.000
245948805124412800.000
505837682961668160.000
449564034575317632.000
981554955973976448.000
1357815491086297344.000
3002010809622748160.000
2567818930080301568.000
2677951198721372160.000
3087673318001045504.000
2301376344301940480.000
2332743575810949632.000
1314587497978331392.000
791202111137070336.000
1673991928003254528.000
852939025652293760.000
448629750017124992.000
892883511193658880.000
703080863265112576.000
729325966670512640.000
410196548699079360.000
917261991854647680.000
942690454416243200.000
1410944163569558784.000
747436516170760192.000
391269075484068096.000
981294972481516160.000
924817591468553728.000
742205678780884608.000
397731005136692672.000
881637759325968384.000
970951182984364544.000
674294764748774016.000
933948954800716288.000
1198385828330905856.000
2412971880724739072.000
2761389202498420736.000
5634186479275714560.000
3118892484942089216.000
1664788879888362496.000
1468359778337242880.000
1722808675605299200.000
1643437951851076352.000
2068090202018859008.000
2322680582657470464.000
2363448739479806464.000
1264778968760153600.000
695405956091247616.000
779237524117161728.000
1561551418728413440.000
1333908067651865088.000
1245410373286725376.000
2965400740042229760.000
1510446916315693312.000
819514849988676864.000
653342185450034176.000
908077047195283072.000
486559937529852608.000
277911642615439008.000
266599008879616800.000
142009062084258448.000
116405311660281904.000
160951890975454944.000
157932487843336896.000
108899080555111952.000
141730603972670080.000
73002600212807552.000
158558066795838432.000
161918988053258528.000
139551809462643664.000
80555633465751920.000
45676126601620808.000
34768839855060864.000
20862739994235780.000
27017922001506528.000
24285678940068980.000
37911262812276184.000
47153945481092624.000
65140615134248952.000
80867679690774352.000
83242857167776880.000
124285839142871216.000
122849774598955840.000
270378470948388480.000
295756371247875072.000
361405824728443008.000
447542662140769408.000
401861707167873600.000
493137398715565312.000
256181901891375168.000
527624905039302336.000
455799914757587840.000
258166783433483392.000
289829477065407104.000
251278900404830752.000
372745372398593664.000
457585959219476096.000
241506129823016160.000
288850878398343552.000
282611332867150144.000
156537807892893792.000
137890535765123152.000
113948274593720480.000
61661629761612456.000
92244520800773376.000
72613901873585568.000
42443617065919096.000
50486449476689256.000
72969251734999968.000
40088500405631336.000
21010749420884032.000
51864291092088088.000
51898835924232544.000
74532671523356352.000
61815321490029792.000
158051629874474880.000
213185158471726624.000
301885710065849536.000
250472297502109056.000
237521027630000896.000
480582190456568384.000
435644394577505088.000
393373829747526976.000
457661413763850240.000
905296693031568640.000
1231190198918900480.000
1705625772202755328.000
2396485325174219776.000
2929742817216549376.000
4422498934116149760.000
2678634295077212160.000
2361035505071695872.000
2063415609426379776.000
2465006408900503552.000
3021474410963308032.000
1668907121855133440.000
1172240184683509248.000
1395853819374243840.000
2988295325926584832.000
4483085581046675968.000
2260358719841344256.000
1193671185171225088.000
3052103389697821696.000
2524323886304146944.000
1471945412736304640.000
1551537981215826176.000
2517025307825839104.000
2454417223519249920.000
1366599790966437120.000
789342662621317504.000
395897002032791040.000
422895967210341120.000
507794750137775168.000
520064801705375104.000
828949046712702592.000
478609064004405120.000
280767647036709632.000
448985946651513664.000
717049655411073024.000
684789855942961536.000
1477445548842079744.000
1665502155602240256.000
902134906628538240.000
1283579092730418432.000
647392773009752832.000
735773605449611648.000
686999263348260096.000
963974747566898432.000
1264866571301316096.000
695247816938407552.000
1466067218567603200.000
3172504511864330240.000
2098711727190615808.000
2228509386246977280.000
1206172843373342208.000
1349838361132195328.000
1611974703131505408.000
843473570606590080.000
931323708694780800.000
675419493683050752.000
744854972124509440.000
411304644176564736.000
452713940960324992.000
373043815088709248.000
435381387026398272.000
368883953561808384.000
537913864973440896.000
429900145969706496.000
365802045660710976.000
889099554775055744.000
531434670515414784.000
475918315083080640.000
486069495643818752.000
376511484362526208.000
420977958196353408.000
224583119321379520.000
298625635431314112.000
294781631497323008.000
239036422004443712.000
223605430058704672.000
540499175364731200.000
397553077184957696.000
517815206534614848.000
786672860158198784.000
399937709760565952.000
531722367395943936.000
534239150627636224.000
292623546991777408.000
213419662450563776.000
233545521160108128.000
477267484693617600.000
265825889850149184.000
247700984223520416.000
276873159647282816.000
237844076397843552.000
127631604150253088.000
64440543127034448.000
74650227175929024.000
39092965384101824.000
35337564120336416.000
51013795920690024.000
34934361048178252.000
93514661974717440.000
73794349438352016.000
66207295225099440.000
38055235742245648.000
22887418120230876.000
12596952565311722.000
6993967521494825.000
7832884924775937.000
7431213182235267.000
4067963594415582.500
2454676755849542.500
1368814902386134.500
1209834603844665.250
1151534959533854.250
659536866592265.000
778311128406233.500
683836078997015.875
361810633395439.438
782526694008375.125
1214578079744384.500
730661846831466.625
593458301113663.125
608899654290544.750
647973146378125.875
775110160770197.125
1043116082408704.500
2367230826823685.500
3614914072699513.500
7781395535325112.000
7322505489636737.000
8407317330963182.000
13255977449544224.000
14722736017098174.000
19507241951308072.000
43667908586106744.000
25304177016855912.000
15289854122831100.000
20360280196032956.000
26926416853550048.000
15504010799954698.000
23020325505773356.000
27334605825709968.000
25357896828579716.000
19925339280902952.000
20535358370522040.000
11216468096657616.000
6175208498546926.000
15346637292229572.000
11245836469418242.000
12672936226219068.000
15767465104835058.000
25643802349157488.000
41045933115068712.000
34810203133360392.000
21625288769422120.000
48186306255791336.000
26268290250984712.000
28747414940512928.000
28020684783265756.000
28056938422919460.000
37028535356257536.000
19752697778954712.000
28106825222021892.000
18871677066876352.000
11306304514891336.000
15081829784577232.000
13712296712928130.000
8204474047765079.000
7832626727154181.000
4667088684725630.000
6011104210268636.000
3711846288177689.500
1856323019426564.750
4067556781119753.000
3337874236512973.000
6870419269888656.000
7975017985078453.000
8189132003882799.000
4697876408704251.000
3268061401247545.500
4612738030735359.000
2440618528634390.500
3967272921727369.000
2064978479992954.500
4562826970334955.000
4198971432755515.500
2543976701240920.000
3727856987729711.500
4922024344025093.000
6415337572681448.000
15886610917395928.000
8907635902613650.000
6182211840812010.000
6069610601759017.000
14442705947919742.000
13127239937586158.000
20986155274676488.000
47388380397169360.000
26436657839389228.000
15519454302392152.000
8090343849841263.000
7200741772305429.000
8761061295661578.000
14079510903649408.000
19211909662561180.000
48738006570771224.000
67165057224688064.000
80971057316233840.000
121667067126280192.000
247702808219814720.000
255686073690635264.000
382509227518022720.000
428539840673549568.000
404460242957611456.000
385863715266548928.000
491687791330186304.000
359355946660057408.000
382400502601699520.000
201124590235369536.000
111043478938233328.000
267462859237908320.000
198725301189902912.000
197931203907062752.000
204354973320533120.000
258780956583390880.000
302234112595458240.000
200901153126078336.000
235547215203121248.000
289226562357673600.000
424673857648713216.000
219032505322319616.000
114753824443969712.000
139009938844028784.000
153647588326653536.000
116196639546447952.000
127489229783610160.000
126443815363020864.000
165925622176674464.000
110144327386585168.000
290905366156813120.000
217624155003149728.000
268859856465637760.000
354649346601957760.000
438972336569783936.000
474401689665653184.000
980291260473924096.000
1546677732372592896.000
1392644870553053184.000
784561314922548224.000
460578875702167872.000
273031212764147264.000
201766888900485760.000
115216802755348432.000
154720964710641024.000
224710488121878336.000
258687050445106880.000
522984590721195712.000
401765365085356800.000
944796296441873280.000
926099382012295168.000
727981865597827200.000
670588409563785472.000
354077526130787072.000
196552792047405728.000
487620853420158592.000
410502191873812480.000
223977787608883168.000
467664082952305344.000
965010012460246656.000
933022993445219072.000
504605569131155584.000
760512377126331904.000
765806768383374464.000
670038197454427008.000
951200304983257728.000
504258105018414912.000
261675163791906240.000
372536699510939712.000
808737496668724864.000
481797915639921280.000
267132183820810464.000
362808157085140800.000
545109936111969856.000
535295955506558400.000
390887855681107968.000
974829732327108864.000
1465859763305580032.000
1202543356139992320.000
1766786211004731648.000
975097698318165120.000
502648564432395712.000
514868123659783232.000
367140523771999360.000
800079255224500736.000
896787954730755712.000
475478338282432576.000
405776954092382272.000
208586283351559744.000
533909837596712256.000
491521217641971008.000
464539102027535104.000
253794999811726144.000
293857213577090112.000
248519194482543872.000
142390363380070816.000
84391800416717616.000
63534873520127832.000
91453466107671936.000
79620415188518992.000
93321422969302208.000
127935018615955344.000
67521359460854088.000
34177252013012224.000
36515361881768712.000
79023872425013408.000
68884876859662400.000
84224489244715552.000
85425630564918608.000
84255661626156800.000
167360946679216800.000
139796302084506000.000
109331681306664672.000
111250362831294112.000
278587996570402336.000
195826771878348512.000
227620533493923744.000
295044656831748416.000
260063470492925248.000
203076486962715488.000
230107140214719840.000
219513300129823840.000
530459195972637760.000
291122223198968256.000
162608092915233984.000
137711473528698432.000
279653493145423584.000
376569794008940096.000
482235620459871040.000
418848000959732416.000
529670787898070720.000
290574522284032064.000
158748750992326880.000
86939733601892544.000
65549293104242432.000
149988579948788288.000
129225402241328304.000
158617473950641696.000
131738799558375168.000
203415899904783008.000
477069977338750464.000
656532640643731712.000
879735341788428800.000
1387412423856387328.000
1221768120958948352.000
1683928255566691072.000
1245016819814953216.000
643151341171565056.000
374420105345170688.000
456092499930680768.000
718881610906620672.000
404189327588183232.000
836267796794743040.000
1270648622138641408.000
2713551719485179904.000
1490146529289911296.000
810956706338732160.000
1661674070830502144.000
1476612569564482304.000
1625289588999373568.000
1557776918599830528.000
1656303975126993664.000
862213542314704768.000
852529418399771136.000
497738801931970240.000
446301230503314176.000
706537910577104512.000
1597838156453751296.000
1754355850444562944.000
1141795953652977792.000
1217202284661969408.000
2992602777818883072.000
2079910804452682240.000
1163908963568756224.000
1262668034769435904.000
1721479257345725184.000
1560051656735796224.000
821949512947798656.000
415205199524480064.000
468605504499464768.000
639132475185813376.000
641993890334704512.000
1506815211055916032.000
854523137409108864.000
515263451550541120.000
275502270913846208.000
263256533154968096.000
211003373609748032.000
224176095073850240.000
290773123169036096.000
274726832408613504.000
373264860395226880.000
969286062501982464.000
683050586014996736.000
408589749940950528.000
934962164993981312.000
1350255501713803264.000
770510389231711872.000
457668111296119808.000
353317810534638976.000
205641440385838016.000
114619040197555344.000
114851132341222560.000
270663862775064256.000
417798621953874368.000
522954756693071680.000
467100231594590144.000
405508694570053440.000
405689416183338432.000
981174011471640064.000
855354528032269824.000
441216001372679936.000
394514142463411584.000
925685174998036992.000
661387625334185088.000
856136815480362368.000
937799417333449984.000
781237985713868672.000
960552884929032192.000
517554543945243008.000
402171219304466240.000
875752432064355584.000
763132732640198400.000
730523364167436416.000
1544433419662582272.000
806735118147482880.000
932082918129877248.000
511175350773724224.000
399344289900902080.000
206023504269068224.000
238150980928553088.000
359322845512705344.000
868882439505969920.000
1374708198077804544.000
1219970772554763776.000
1678714121954989824.000
1332333235782795264.000
1741338714220382208.000
1480078330053510400.000
891056574589584000.000
701036655275658752.000
831959257636346880.000
466737379236379264.000
257815986193404928.000
129936651212432016.000
76570650854837392.000
39266325107194752.000
35269996647183720.000
80697241129552656.000
69248842514342656.000
37869748453210560.000
34450050566310072.000
39714402381161608.000
51152630294644368.000
42948412177962072.000
41616600521985880.000
43234186767980272.000
23311357514677188.000
13405828242015214.000
15104770716904986.000
15963191780160412.000
22162965376198596.000
20664362116182120.000
42322196869178136.000
62365566714885480.000
35156116818119420.000
21040594555327152.000
25194170351845828.000
22245924237046836.000
19510521785883404.000
40865756433150784.000
49158106613817400.000
25173510391835624.000
26266298385609544.000
34853107849934308.000
42116751852109392.000
46815095058912744.000
63052132014325720.000
129812322783788640.000
152079930138623712.000
117525253129710640.000
109105196119632112.000
151184496095399712.000
147056006612091040.000
136335280742519856.000
208399089380115840.000
230976123126292864.000
123441884525088224.000
282989870209623808.000
150738773735741120.000
218207954145444128.000
290841509358426816.000
161634007262674720.000
135145209753125808.000
302273484899918976.000
255755383021430880.000
281708824938029984.000
283035581264755136.000
428017858133821376.000
245170375474373536.000
511541256139518208.000
672654757983879168.000
738780099720854784.000
918108153605063552.000
540516394858088832.000
297119469392281472.000
252867860077434720.000
146425445043817216.000
137425711046502448.000
74923600952612624.000
37821864055804488.000
77293721394605472.000
45046274988188624.000
24500605819584700.000
27127652746904676.000
24510279610807008.000
14151438843542802.000
15536622540459006.000
11086467264418874.000
11564042281068892.000
6721033530492075.000
8211840395883405.000
6774396763855239.000
7094843391384225.000
3816275805411014.500
3512216120820542.000
4246623146637430.500
4474557688311659.000
3714435636558919.500
3533867480327659.000
4269329373780320.500
3312577020138742.500
4233821554605999.000
2474347547418682.500
1871197002478123.750
1140128095676199.000
1459272413404488.250
1132745981504638.750
995561340997063.625
2397073870187519.500
2731996943166076.500
1402189040998595.500
1815009493546944.000
1795682962563882.750
4114217707370271.000
3967643052418491.000
8253252393722199.000
12210358853160470.000
14806291778746104.000
8649601455817663.000
13110624011323694.000
13693453933303152.000
11877170400627150.000
13516879112622282.000
10813786650532774.000
25979373618484164.000
35024402943540712.000
84609592024356672.000
123254938538363696.000
142457455506621200.000
209372868967726976.000
245040379009063680.000
393168007544881344.000
537853312797169216.000
297791015097109568.000
483649018359376640.000
746073401418855296.000
848971736204363648.000
469862200942300480.000
399669933699390208.000
223717535556840128.000
121906315402636256.000
132586048953162256.000
264627055216645120.000
149409347708340320.000
166051278519115008.000
147504670080212928.000
88213837619157680.000
63852958051958264.000
78279970620357120.000
68952571293902864.000
70421166915193168.000
90257145076658400.000
115841237155875616.000
122649058329693424.000
73497167881439376.000
151818063535705696.000
145768306645146304.000
87709564041744192.000
92156540798313552.000
77356516385639136.000
65787036415638008.000
65889916148168424.000
79520814362406304.000
90616183951203600.000
69597725058399072.000
41874891941040000.000
86529652366229504.000
64598922686846048.000
151457300765123936.000
118349797562447600.000
142681915926798944.000
209341938802473728.000
269470424568435392.000
384187251472414784.000
856027794757565312.000
657842178634285824.000
1711561196357886976.000
2615790631460474368.000
2578117900996277248.000
3972908290985800704.000
2153004090805422592.000
4613841031168054272.000
4969847957601884160.000
2680915981616481280.000
3161309911461027840.000
4766998189250342912.000
4297165066865547264.000
5274818316489356288.000
7648273332114037760.000
8167861635748153344.000
10109376894374875136.000
8803100429534515200.000
13255785237976408064.000
30476582000824184832.000
28478643644916310016.000
32312096764363493376.000
31021065859150757888.000
16738151255826679808.000
24172322245201920000.000
30859189904196849664.000
17351810906325147648.000
14385798126006476800.000
30200853375657521152.000
16319656676989986816.000
32523047356635230208.000
23548472704829386752.000
12067519746758762496.000
16575343808872953856.000
9245641511224707072.000
4763939349395834880.000
7212756850198052864.000
9806029037733390336.000
12163779223775422464.000
15981371504721078272.000
22832994646034735104.000
13519039122745659392.000
15971259200917407744.000
14455665329102213120.000
14029609161017800704.000
7614155256358354944.000
17570347033582172160.000
12479845283551158272.000
16498864576268292096.000
12690809548521148416.000
16676264573234831360.000
14348041413226221568.000
8151373894197279744.000
9230475900708702208.000
7093738473807985664.000
9614723319214815232.000
6784463438896250880.000
3816626866861516800.000
5398102697200129024.000
8103068044036958208.000
4914807121066230784.000
2559827589275250688.000
3086797330488239616.000
3851270191272495104.000
2339202299511743488.000
5232289333508192256.000
4920892371748626432.000
9733818163964715008.000
4962413400876879872.000
4535112472611995136.000
3933863788008703488.000
4719698933927057408.000
7086628010691203072.000
9371438617768830976.000
6664197205719426048.000
3910274626144689152.000
7978926560666908672.000
4333840529249207808.000
5472639611466572800.000
6765223496672899072.000
16282291621912868864.000
13717160578157041664.000
28096295730488254464.000
58106811696363986944.000
92116623864133238784.000
48588390086224297984.000
58845968927370117120.000
57168817790520852480.000
47025321181245759488.000
24626727872814960640.000
30554887292678303744.000
43312669423104245760.000
56226922309185626112.000
32685530865484873728.000
27552972205659422720.000
15443137993873369088.000
12924443185437042688.000
6924557852851218432.000
7895482137098801152.000
10187961662339614720.000
7762307523236969472.000
4732592446537901056.000
2389439887137693696.000
3141799497761041920.000
4401953295992750592.000
4882703272825117696.000
6841772901165875200.000
8732115224618394624.000
14056408323018319872.000
14925914933981114368.000
17443523094480723968.000
14560510858780981248.000
8024454546962283520.000
4034987976316572160.000
4632122410374765568.000
10196087260142002176.000
7226684168693122048.000
8186366349580297216.000
4501736107808518656.000
3742741230651668480.000
4136929820149156864.000
2485412728982628352.000
3753760035154472960.000
3792079534254182912.000
5558117703730446336.000
3909245231715213312.000
9585825700683257856.000
7031666338084910080.000
7967843099564793856.000
7998678406520952832.000
4774033719426430976.000
2522899476894157824.000
2480553423716047360.000
3180836652247040000.000
3870306185984153600.000
8078978956694918144.000
4544586282675282944.000
2698060746961367040.000
3026977871103674880.000
2124099160905652480.000
2895926223581841408.000
2960914001911341056.000
2073729976885355264.000
1172633547279673600.000
1271814244692355840.000
1230717375941907968.000
741283716026012544.000
854319410516764416.000
724814894503033088.000
389181336861071872.000
214300552427631360.000
253879311730421152.000
520653085261125120.000
413441011986161280.000
522409041300497920.000
360822151323664768.000
528335130628760640.000
672854497250539520.000
979238225677619712.000
501458543562516416.000
659627295761320704.000
636659253157080960.000
883918559579384064.000
661764878390464512.000
1743659410231621120.000
1238657635136921856.000
1319309315843583232.000
719910215179177472.000
1515872154408856832.000
1542722416270590720.000
869243232870979072.000
446047341968000576.000
360853525238198656.000
433917816665843008.000
224840920795483072.000
535127928670735360.000
293201545590731392.000
358826081394164864.000
418250253009685056.000
221782659620805504.000
281967450759405984.000
211069336872021376.000
119081687937038304.000
161024549296961504.000
129165776769635040.000
118605169330120944.000
70309743345636768.000
150903240034729472.000
86596650604516464.000
83808783663544928.000
49647346972882624.000
26435413885885504.000
15945065923824058.000
22392965554351720.000
19629399375549856.000
46474836381307128.000
40294648675171504.000
36706998975998384.000
21089760189300588.000
10510069276607310.000
6028001418132482.000
12629163798758972.000
25868559624023324.000
28235884246568280.000
15000608025987304.000
13697433507292848.000
15745069804434780.000
13072721112927958.000
15053082927351154.000
22677809923653252.000
11918418012887718.000
13773965782387092.000
28622494827077676.000
35683618810604940.000
40056898737830080.000
23462271269058840.000
12607905971253622.000
13892712801907166.000
28658803487874660.000
22365468965567832.000
20839926921164488.000
48828849812056912.000
34692796566086172.000
78346532208667392.000
47252498586125712.000
25835799387390112.000
14745220584938980.000
7765430002037528.000
4507804125390050.000
6051559752273537.000
5894666791328020.000
13120744453691618.000
27425858640765128.000
15575514250228914.000
12059839759489104.000
15764165445342796.000
20286019830744444.000
20302789529984080.000
26759021374754484.000
18929273446643452.000
22641117503851124.000
47396769476803392.000
35182348345300508.000
36573546306854736.000
40209229799772056.000
91149491812720608.000
132042662175081312.000
66122304182987088.000
79285244651078896.000
159310971942585056.000
162789692248447872.000
89903275997551600.000
67521210141525872.000
34860089307459688.000
19530621603588448.000
22250822370533128.000
12456535191174904.000
6674803311807560.000
3447142638408300.000
7451760477853584.000
3765549988151579.500
4009235825815592.000
3264591748690701.000
4771961912238315.000
2435065146380520.500
1288585718451056.000
2650852259670735.000
4242043501278573.500
3794042009287181.500
7604493888246670.000
12239420202298340.000
11874137272044462.000
6089187821310532.000
8440484303089071.000
7816458429499353.000
6463399177136212.000
5971910393181359.000
3576995923768688.000
1989437205560894.250
4922616481468435.000
4407674089767855.500
3261724309443130.500
8423817744217707.000
6824045924682159.000
3830498904798795.000
4130346969185245.500
6570775912656604.000
8828378936513336.000
8741155506755427.000
12300815191761824.000
11083430297681950.000
23641501291934000.000
36455557705205000.000
21198915102434752.000
12331172684720154.000
7058257741808912.000
5776348284522116.000
12932139537227600.000
12928493372707504.000
28587345094591820.000
35492142334880860.000
19621442739675192.000
23376633044261480.000
13688120888985568.000
19325779467468156.000
24373460216776896.000
13544442247935796.000
12160798972784066.000
10413078088865196.000
14630226694054304.000
14807386621466634.000
7676568985672130.000
5951417198035797.000
7237904896696112.000
4347134460695661.500
4589759036020692.000
7259878952147471.000
3941927513829099.000
2151066643021732.000
1077544967723872.625
2249783029537557.000
1318826688914911.000
1462621431573200.500
1326293939613430.250
1857914699803591.000
4186806910220377.000
5829227707761233.000
13544946900486656.000
20742802410732592.000
10525945943915756.000
24156265520795332.000
26798788827510588.000
16002554023109152.000
15632999894014194.000
10499148766085156.000
6234608499091667.000
8724953484188984.000
8377538228774325.000
4506447644863010.000
2528357547449439.500
1514135350533937.000
1106482123998963.500
623625016763435.625
1308854820530299.250
1793769126995366.250
1021667470877283.750
561465093885781.188
1408047555023350.750
993635296563680.375
551621956524506.688
1219845770342075.750
2557775349378283.500
1433745425666759.000
2342001208609721.000
3786121309698873.000
3222420087268843.000
3375744647698492.500
8772532901596872.000
12720555004216514.000
10983083597433874.000
24350427463631748.000
48534130679331808.000
43819194444252080.000
24979941196770444.000
39014549300452000.000
37680892693325968.000
50572644676334272.000
42669253163535552.000
47187508430214848.000
27720407635434096.000
14168804036968812.000
23154795069555996.000
23491409004034276.000
20276225314137376.000
47967076574273136.000
35639905933105380.000
37753467768815816.000
87485024961318560.000
110653268870758288.000
167049725538106656.000
86966766810532016.000
48924588279024976.000
27463194555253240.000
21300974831011780.000
19487092846354852.000
46753682410476592.000
36879590726749056.000
47197121843656528.000
43695968376911088.000
24968249165438960.000
22762896269074492.000
11543448005769810.000
13093659011555258.000
12042939920851568.000
23993431434040676.000
37920344412644408.000
42896351127697328.000
22745734959055272.000
50226948411733848.000
45930108540553592.000
23518894005955280.000
37704405326112432.000
42697780533746936.000
63841912431689584.000
39283394982489040.000
49434939452791000.000
67250426633621136.000
82782720446104992.000
74904778160075696.000
64132248378677256.000
147428327137497568.000
142238620546830320.000
77551610175260656.000
64842300282842584.000
63964630834600272.000
138465030458137312.000
152643221122039360.000
157705864088182912.000
247532381298531072.000
375226440706593280.000
198476453950990144.000
492150168839364672.000
368618169322904960.000
206135730483050432.000
292143100541640384.000
236855183873514112.000
135993434591488864.000
157590305216890368.000
85539677573568448.000
86403404560238080.000
70848505230375776.000
38602176233881384.000
42128670402629168.000
83530142899812784.000
91690563710748928.000
86587747783553328.000
51759285243552552.000
51203891921487472.000
48974550073452880.000
68710680166118448.000
72421894105907040.000
88318105553838384.000
91003429771081616.000
50576735270741384.000
28587990630912524.000
45785365795405728.000
44623377061734936.000
22990520901904536.000
12065718270289720.000
25564525382636536.000
21140788590496820.000
11745183404387978.000
28834902205276376.000
23000315527762432.000
13588474154621982.000
11744285772496034.000
24977105443809572.000
27999805053917784.000
15821598701309744.000
8216824655128239.000
6427721312292777.000
8581515167152109.000
7331096080045584.000
10707999239085310.000
12632215540934544.000
11461589592958294.000
12824669977867924.000
15031785459080056.000
11928552013059818.000
28393013640840680.000
42722281946899944.000
24769088403172280.000
22793581587573256.000
12792194512014260.000
7801469476233864.000
6895915555450174.000
6263325974483787.000
8750374263692638.000
6947235129551354.000
7940285764700747.000
11342171500459758.000
27887656987330760.000
38520898574722912.000
23690399272200044.000
36014568006548224.000
21310348062250760.000
24186910039889176.000
14222201469290228.000
14725008432218976.000
19165848464718380.000
21258231904751580.000
19452677517900240.000
23919865073746756.000
25901873308510436.000
28818269704231836.000
15107150152244710.000
11692764304360616.000
24320442346148328.000
12428983623398634.000
15212225508093012.000
24782172236157312.000
19352831001183060.000
11514399558024000.000
5760822216789916.000
13234421120731660.000
14921375898492240.000
11463603708039594.000
13372053935214374.000
7111506950481167.000
7856875267136784.000
4044613980996147.000
3809291684103025.000
7591874637222123.000
3885302117771159.500
3900443041558222.500
2275705938011777.500
1185019396684641.750
1838204497780105.250
1122263815813686.750
619126779042107.000
1517120028650338.000
790657208968464.625
456669512034607.625
734128981296397.125
568391228625929.875
773822002092694.250
1000160575204132.000
1192617459068918.500
2738270498378513.500
3324536959511496.000
1930889925709310.000
4143632542246138.500
3876371572799461.500
4480277277491109.000
2491508888705855.500
3290082741534423.500
3682125242602792.500
3825991651575322.000
3487714450303891.500
1818613545726163.500
1792613395932898.000
2650772783857386.500
2488595736326397.000
3228882412944747.000
3600221030065375.000
4470115190860724.500
6794105858716300.000
7292208308394630.000
15835584296756360.000
10397441104956836.000
14359274703589118.000
14689422684498574.000
8139031661290578.000
4783138537057710.000
6986087624987919.000
3644359414403137.500
4110598480054509.000
2161217888358949.750
4833771352579878.000
4850335084811569.000
3271896747010825.000
4393501924923401.500
3233328845215109.500
4250390924415660.500
3459130535056681.000
8860780620822967.000
6831503788501726.000
3785495717224759.000
4514361038010510.000
3864789562165516.500
2185247433944014.250
4932912936082363.000
7241959612799876.000
7325801551822954.000
7581281791270759.000
6622129801895036.000
6602437470973975.000
7810101057589447.000
5927176113917150.000
3608138275402406.000
4606143033339945.000
2622487764918181.500
1372990807987565.000
2716756088774259.000
1485607981014926.000
1964348668223597.250
2482449465747759.500
3596626204003120.500
3678539055342301.500
4501022862311712.000
4428753489257508.000
4122494848642128.500
4560858298895028.000
4755187608920628.000
4018656838520217.000
5799061557223878.000
6975237802602051.000
4093569951749710.500
6396831244536801.000
8829447565978946.000
7916584028923279.000
6799185377035979.000
7153271115313225.000
10637850226378314.000
14611278399509462.000
8240818598915420.000
7291269322326574.000
4329016305074001.000
8815057973629760.000
6779798120235843.000
14193188362797978.000
20610296173547660.000
10876197103075000.000
11257450457524096.000
