35.912
56.630
136.111
179.710
192.185
418.612
649.988
1449.731
1446.534
2263.242
3344.354
3695.887
3763.856
4158.085
4080.357
8609.465
8360.341
13598.155
18985.488
45494.420
42248.838
64384.405
137650.278
202545.365
201612.039
482055.428
492199.042
738888.922
1752663.633
1776623.800
2388482.354
2163203.645
5397263.096
8126800.568
8223764.844
18319443.838
23559297.509
49865738.373
72936339.527
183503837.274
245196475.745
564270600.486
884452493.691
1775959879.917
1940064580.621
1809477375.624
1756634083.059
1808949555.486
1725007663.592
1797772113.689
1725188117.633
2503404707.776
5352034609.996
5127975208.813
4904819059.102
10875766459.025
10917481512.214
16423965973.167
15997034919.458
34334858795.178
45570818825.478
45200570521.521
101710073639.157
101356088506.463
101132973829.789
202024046666.374
205470942675.113
206310179896.213
196863901108.733
306026724475.133
700892375650.340
732646703546.663
720913484582.370
1019209957828.122
1123149843065.020
1773457062112.742
3641938578184.120
5265487696280.851
11781545987545.078
18167228913369.680
40935519050519.328
57721031068048.922
59437338199346.727
125807293612871.672
260192287793607.469
306080565105787.188
659401422901152.250
1340022048464530.500
1406684711915777.750
1513528302961251.500
1441020408256723.250
2191023693948766.500
1991859877042669.250
4199941057513637.000
4269816618025835.000
4092965073320849.000
8265372549672822.000
10949802748961052.000
12135911708234100.000
25211855206362584.000
34280677958545080.000
49387134386257016.000
41159784209979728.000
33871565082492448.000
85865812762402176.000
76471241790499632.000
45222863502646408.000
23839749117444296.000
48564716184796056.000
27511472093378980.000
14274409648337614.000
21982559569200388.000
45967867817316816.000
68628806449845248.000
165181455749373952.000
130580314934212624.000
119587261480475792.000
68895788588883648.000
83200375864202400.000
45473002541935184.000
49215409820039448.000
25693722490878680.000
20573564710882128.000
27721051687103892.000
27952749276638964.000
15340330221866254.000
24136444616641728.000
12216315594153954.000
6589093691812417.000
6060592178074537.000
8873833861125009.000
14031104596093680.000
16031986195495886.000
13718928035679768.000
28104747975757840.000
19114971727429244.000
23516410510018152.000
12531379050372338.000
6722672533547793.000
3796744272741505.500
4874491977600929.000
3381211564408763.500
1875046123652064.000
996921629894695.125
2333523531416290.500
2270106158450696.500
3556914025679360.000
8205938909150703.000
13140734091098792.000
28368906164291168.000
35919038551865248.000
49437689474906608.000
42536675062735632.000
89525767259983264.000
136560314696613648.000
159195630346545184.000
251631669175972192.000
151747164866062528.000
216039561938497280.000
287410908453012064.000
245439661368051040.000
386678335308604224.000
498246568894023040.000
636559101911472128.000
1558346644779718656.000
1241402528704202496.000
2849127853763836928.000
2802591195625738752.000
2878255804662712320.000
1731103637299412736.000
1481971117569815808.000
1408407922986643200.000
1273573990796080640.000
681815894999334016.000
1759699215417578496.000
911781376231620096.000
700155772424310400.000
884298330933834496.000
485235673542793984.000
379526114344622400.000
450539327395927616.000
269060740846670368.000
260596329103664128.000
233296411900744576.000
277966625710299104.000
227287364237006048.000
262948117059861408.000
296273569201586240.000
455948082763495680.000
944491936684389248.000
875993201992962432.000
732692187902898048.000
1165818065619863296.000
1612871554584365824.000
2139100164608518144.000
5556114036427246592.000
4270685717287236096.000
3706722409953336832.000
3887640769427143168.000
5459535081238225920.000
3163653405900419072.000
2122800608207756032.000
1223539314327351808.000
1585544753544264448.000
1222356658416465664.000
1539433452024365568.000
2455716571480771584.000
4943149875392334848.000
5450590516573545472.000
7382548328598463488.000
18555445572681216000.000
12313851501769566208.000
7117384070679475200.000
9948157301242277888.000
6938649031503835136.000
3817691083272360448.000
4177650175170066432.000
8660338161128453120.000
7146857209846067200.000
15104552972258996224.000
16028589375770986496.000
24172335597040521216.000
27441398635660472320.000
30593057522888118272.000
49066895365889286144.000
52278383818211188736.000
47312973960190853120.000
103995670523080179712.000
103263162397188702208.000
99035022260248084480.000
84694520073730080768.000
48797082638383046656.000
29102543252989382656.000
17023010731048640512.000
10138297716830937088.000
5377545442252037120.000
4568509242003003392.000
9384313208092504064.000
15064769224668481536.000
23395539231755866112.000
14006368803918655488.000
16640159618769979392.000
17045282066646458368.000
22152023964538310656.000
24936504019095248896.000
25874232271308730368.000
31729653737420529664.000
22744494744486055936.000
32636679504656658432.000
22713386256775557120.000
26320671433606868992.000
14964548381879797760.000
13149510412039475200.000
6675893064308493312.000
9880791772642816000.000
5192004566429706240.000
3016441250511025152.000
3893485496704005632.000
2094018497771132160.000
3038466273094687232.000
1750481890033622784.000
956076280487803392.000
793052665929187456.000
417907133947632256.000
214626482281293696.000
249993307880086528.000
196909425397979040.000
510550967781412288.000
540602125362661824.000
708108940389672704.000
380745703404432256.000
915071487111141632.000
914930493435536384.000
1405189536787425792.000
1692046171008494592.000
1578006083259422976.000
1418706602959525888.000
1755324345378172160.000
2671430946444304896.000
2277354945985696000.000
3120245305398698496.000
4207549247308746752.000
8639976420741793792.000
6910028375229236224.000
7972303618474533888.000
3977677846332752896.000
2456831139968769024.000
2069675759136963840.000
2441279727281244160.000
2934944457863433216.000
4285251733292762112.000
2532738561561220608.000
2078704084486115328.000
3051388358857274880.000
1724504789215779840.000
1350862253859466240.000
1619009582528196096.000
923322287389330432.000
972898453794871680.000
519057884517738880.000
704858505826541952.000
429987301755553344.000
880481821184265472.000
497725466246145920.000
353170419947665216.000
541148110627810432.000
362993817484592512.000
465797210332257792.000
516511243794798400.000
276215327570428896.000
225321940516930016.000
257284349512988800.000
416409268344824192.000
238786902950286752.000
134142714924679968.000
129875030527568208.000
209418059291448832.000
268565118536885472.000
226144317732106144.000
266847002621622432.000
247777072929062208.000
205532266180187520.000
251057243069007872.000
145563833330208960.000
114083665927021280.000
299974578682259200.000
161696568506784128.000
116814081889124352.000
283032620816901536.000
260694422303313440.000
145354633082670496.000
223887916672993568.000
493224885297280064.000
470608175478695936.000
721383139470941184.000
795830063957504640.000
970527396511544320.000
649778563783068672.000
376092207299365504.000
501410530841964800.000
674776299078833408.000
359266183317402304.000
386029784765687424.000
215027164658193984.000
295449982770494656.000
297116693099995008.000
238925552686955712.000
119842611002148944.000
147867755532991648.000
89383714089425616.000
62789002333644936.000
61748861095757744.000
34550177661433692.000
75944035540854720.000
38320023305399720.000
39166144009719232.000
43100976181070568.000
47589351128536232.000
49230035724489576.000
44568747658980768.000
88665035939396896.000
92144532788610384.000
48449173767877688.000
62560633570940008.000
62577767506161984.000
75082218931034160.000
61141660936512960.000
36116364915078592.000
92951289264576656.000
49817142900620616.000
51795631169522864.000
47378596174604464.000
72083327766515888.000
88324185547587488.000
46982606415350672.000
49689537564264040.000
45253599025659840.000
26085976196019348.000
15562658767069054.000
14212643646363762.000
11427876649104886.000
14830020202513960.000
13519777761473848.000
15422136689108030.000
8872865579181055.000
13156612033951750.000
28033677394987924.000
15687961035173074.000
8294612384925468.000
4487081080849047.000
2512921385598541.500
3534198507703665.500
1842948978460066.750
2329849125771155.000
3225199479243396.000
1794846326037416.250
2186264962977569.250
2295178631692445.000
3506792706856983.000
3890754280114773.000
4341454368141206.000
7004991799251159.000
8852129331810460.000
12711052716581846.000
14958145168436616.000
8825331465833665.000
4521225266386676.000
3753677487653218.000
2235738593957954.500
2107407164471934.750
2539691256246839.000
2263238703738824.500
2719227549921450.000
3441735371242760.500
3319256714630735.000
7585294388474610.000
6818352562325515.000
3452332439046360.000
4123797356321873.000
2141424163702761.750
4907164258520980.000
4258682715443158.000
3339923278493970.000
7651195686856255.000
4391106748010439.500
2638201937416608.000
3712507107503861.500
2136862945262399.000
2550197582596815.000
4099407584558298.500
6444702205623553.000
7341050839045723.000
8479122220516576.000
7843634448859689.000
4411982009084582.000
6382856603108121.000
3370842846597669.500
4638491134648447.000
4336304488229100.000
4819296334752537.000
3660579854551949.500
8277880470476951.000
10579778316798652.000
10606337780100708.000
12964635374921356.000
13438012722394680.000
11322392543352836.000
11425565388281938.000
15596752709858594.000
24040846805552668.000
12283499124510176.000
26913323238365032.000
42015436327699528.000
49733964945359040.000
74531601272861280.000
79796504789018448.000
78317041416956752.000
90317228856689024.000
141405193996245280.000
161976649723666176.000
112850779876783296.000
279657015025093120.000
280321039785524448.000
246529570875540128.000
525908021516759488.000
436175343246183808.000
263630757362796992.000
253996000633683712.000
228814573822531552.000
246747990857418496.000
539748279260548544.000
482360038087979712.000
532408521642144000.000
379331668241717760.000
859680028195502464.000
1228637690248157696.000
739523182323319936.000
1685436539983908864.000
2299761501196205824.000
1380692647288237056.000
785748853646829440.000
892311858127080192.000
671251442665715968.000
972315691061928960.000
1424259867440184320.000
764409494301915648.000
439352079879815040.000
662561954602032000.000
1543815279479264768.000
2240831439969580288.000
5307883191540989952.000
4217127608963271168.000
9836643475402452992.000
7731605411986870272.000
4523473486377993728.000
4968057347230013440.000
2698270129514602496.000
2561054918565615616.000
1426813327477852928.000
2071208501462404608.000
2646041043820638208.000
1488214888118656512.000
1328160842591371776.000
1597856166693783040.000
831397278866803840.000
1683154980577510656.000
2319125459686530048.000
2582154784163707904.000
5592110755553375232.000
6741402852117030912.000
3747348706413456384.000
4394174646356628480.000
5569252196053142528.000
3021322300059282944.000
4856399859262557184.000
3749252970573221888.000
5464476051952592896.000
8913778618156007424.000
7092066602625676288.000
15688296726928566272.000
13639805275508383744.000
17883000069926680576.000
9816169826977460224.000
5621657763701320704.000
7139961567660432384.000
6937351050770231296.000
8759209674523985920.000
17947424829175691264.000
13912907930743828480.000
17450814369884549120.000
9511325174656362496.000
5346085213873895424.000
3853472687132007424.000
4119571587680671744.000
9375869356717651968.000
5486084165277286400.000
7285396136255222784.000
3759544595743134720.000
8835045001628717056.000
9895646568829458432.000
7103299715258296320.000
8728038526566736896.000
7737330496659829760.000
17937498729470216192.000
14282106332799418368.000
28947513489918369792.000
32560376654321307648.000
45749621529463578624.000
24175956174439170048.000
28185176753442955264.000
27833856994197024768.000
15881264344496400384.000
17957976322320373760.000
13192608653996916736.000
15823470487447265280.000
14896964462131191808.000
32440475343795027968.000
16906008558149525504.000
10182163332935458816.000
8733826588851536896.000
5284143577957563392.000
2721617104661569024.000
5564401947094471680.000
2970309044120912896.000
2387580836979479552.000
2759704374847836160.000
2738067795240073216.000
5646838121397769216.000
2931871936966029824.000
4499112381361955840.000
2542055637727662592.000
1330427817511409152.000
750292530409256832.000
420718951718786176.000
223668620211526752.000
116046145344655392.000
119896825709297024.000
155714446675129920.000
118805551182759888.000
128123161361578016.000
140457270662239824.000
79723609874808272.000
45195603957850880.000
40073143330466632.000
35217572650068752.000
38709038444673120.000
82315840345091392.000
47008652042492040.000
41275347261677504.000
46146547277301504.000
40245277831550264.000
24020122764685972.000
13630082465684360.000
7516926362837231.000
7261204178849796.000
15379902028237908.000
14939685484184320.000
24299036647422124.000
23898416802841032.000
21554030532624428.000
13133606932465142.000
14368120917724206.000
11410788974638638.000
13964999751804930.000
14818384224489696.000
13478347972020664.000
14809632921434988.000
8563589130166629.000
4384020012421821.500
2350508540732573.500
2170151916107409.500
1248754409361063.750
1504061227640604.750
1962242961950721.000
2304388116793705.500
1830842547058372.000
2271580423265210.000
1360433671793991.000
793842789918117.750
618131147523387.625
836004567228826.125
722335991665696.375
709391450801548.875
1081751650373792.750
1447005244640750.750
1866122699209109.250
2428775081078741.000
2688340660259864.500
1506603942761477.750
1146440782989460.500
2396258338413079.500
3289764598772536.500
2022924274196473.500
4806281009853933.000
3714932684585129.500
3420935368355345.000
4028400855601558.500
3947550224628558.000
2199572261526354.250
1971707038625521.500
2318711678894512.000
1847839635855915.250
2331521591874384.500
2654417289366478.500
1400228707520727.500
832012368188213.000
711021301746615.625
619930000676351.375
583428924571754.875
313753619693914.250
848423605925016.750
1190801627546515.250
727614624441470.500
841196420399745.750
724532007830958.875
1082524420008748.375
1308927527760810.500
1363461429744855.000
2131569675694332.500
1859854455239488.750
1991732146726290.500
1808378926768609.250
1093184284538443.250
1180626930204538.250
633802082544922.625
743105620421111.125
777419763992812.750
587969101571736.125
1221443177786090.250
1424013913130995.000
1899244253659626.750
4459252112733854.000
6474330758670880.000
5966162328804001.000
13362237745776038.000
12652901247674214.000
19509724867512864.000
27815250836682740.000
21257837155309364.000
47317829892272080.000
48450852049157752.000
63723880048611936.000
61368444816431568.000
81466772817621120.000
45817968843711872.000
46581547146151416.000
27643135081764648.000
43874564011287848.000
35394113876064280.000
44607455293436728.000
24874526162239124.000
51073037920742280.000
72570046526318976.000
68814506724098920.000
75331759876177392.000
93064943052091200.000
129200157889371072.000
64467205445365344.000
167430109130965920.000
89812839505302752.000
85737401021372640.000
126010241308549664.000
142159861384100848.000
72330127688645520.000
165183678336319616.000
90796976978579984.000
46682715938338568.000
93422431321746688.000
143735730229059616.000
140173916257431968.000
225454297372166912.000
205603648847802560.000
251975317777366816.000
286339172745794528.000
214027381471606368.000
113143434195778832.000
157187793803306784.000
230587704684770304.000
235753981510053504.000
263494889218599392.000
133545990377551568.000
67797905128623592.000
69176928438019184.000
42433499445204408.000
35302245399021012.000
48602701896707376.000
26270408677115652.000
13946335096027470.000
13194304873480128.000
7888542393289430.000
4311151854442151.500
3619693143568296.000
3878585703934871.500
3397511581834046.500
3934912652646135.000
8536150524464140.000
4429999427220661.500
4671962533162932.000
4679360917060480.000
2628772234476367.000
1866364360446377.250
1038204945414595.125
1280623267655426.500
1141716241542792.750
1173529658451493.250
1200071904858683.250
709156878893117.125
609767868342570.500
1314228070539791.250
1359060618632556.750
731705125602065.250
426138818739480.500
446321296970453.062
336865749918095.562
387930180404684.812
205495182771587.812
177168623521382.344
433196347765574.125
338256904193480.625
195410125936612.781
451866382416728.125
657624019648289.250
1507838743354156.750
2012393342458018.250
1905905225542570.500
2251965874044685.000
3366504986956395.500
4679980628328487.000
2524728861061464.500
1359026522465199.000
1093982444902926.000
1372497444912863.000
1521274275575690.750
1868272357837218.000
2590702872465471.000
3562123648469497.000
1928334712865826.250
2320937720365582.000
1323734659985246.250
677312184412184.500
1050628542859331.375
1306026797837790.500
1305459152365793.750
677667128173237.875
693715613178103.125
990646753102626.750
2488106522277176.500
2229824388920689.500
2741853258169208.500
2398210814874946.000
3249457205358454.500
3780036853614362.000
4630894658787491.000
6500156954649729.000
6800810006840794.000
6010735261088958.000
8565032528491765.000
8454568781716339.000
7675903204570268.000
11179908834573518.000
24676757981370024.000
27392955889423896.000
24604072075362624.000
36030416947964432.000
41392274564307720.000
84009586406718976.000
86355991079978096.000
71789024996861504.000
63212605927705008.000
166268752405451168.000
127931524403224784.000
272878466171640960.000
208614516281465760.000
114858360605371824.000
138205676661916064.000
125012875384685824.000
68103053626139040.000
39837659797151896.000
84228230986651152.000
46385595080021384.000
48137592162338184.000
76463051237824816.000
110721902028946800.000
110269003377441920.000
166118936991066304.000
134279476441857968.000
132055437147932080.000
283516035632948352.000
268162961436323360.000
249156196915752192.000
383362295603341184.000
232814652185972320.000
234781204985623712.000
120311669713624880.000
166874157743810592.000
142749204834672256.000
294591917138494912.000
395977156061676160.000
863923380880883456.000
1698368564983312896.000
926257919129161344.000
877152716366745600.000
702790774041178624.000
876326884404898432.000
1420487044525769728.000
1506429401470846464.000
3182145066315428352.000
2602204339525362688.000
2999934113722942464.000
4186060824114983424.000
10195317648043067392.000
13932132451435108352.000
12808204773552834560.000
7043859888530083840.000
3887869919766769664.000
9072911352322656256.000
10287289318099263488.000
6872597417769328640.000
7816333595602762752.000
16905761706995089408.000
14533281081158580224.000
16062903037815932928.000
9246765206311288832.000
6901153416679522304.000
17290954425909454848.000
12594125382537113600.000
7218695886254396416.000
8313389226450164736.000
12033153154338342912.000
12598933866886565888.000
6734841251350899712.000
9667207383470102528.000
8014517157505888256.000
4682550154467996672.000
3980401000136952320.000
5542240543776320512.000
8746509968183271424.000
10131950568429281280.000
12144918181272795136.000
25126392511548948480.000
30978807019219484672.000
18137133433154686976.000
17412457150092883968.000
18277366746859687936.000
17076945136359931904.000
14770594883475593216.000
13040297030132436992.000
16229795036820342784.000
13268894539159021568.000
7973323172678914048.000
6994002034410874880.000
8892928464679459840.000
7055224948883330048.000
3732289425439636480.000
4032759313118511104.000
2225543482863152128.000
2493899310483845120.000
2542733209048857600.000
1436996843406487296.000
1146345779240016128.000
1375835308044371200.000
1701019812274363392.000
1488144797414107392.000
862697278854493312.000
693990030956197120.000
384737575783923840.000
939426733933882880.000
824827840343808768.000
954287225372849408.000
533238152626176064.000
406283441295748416.000
522746795641781184.000
407413923656280384.000
443900640891149120.000
388662928098215488.000
779584362124377216.000
763818984187682048.000
1603467105166655488.000
1166859781634290176.000
2852380200253108224.000
3780355273990643712.000
4981953184463850496.000
4172577483553978880.000
9515247333556768768.000
5235717255312870400.000
2890424357055560704.000
4590615935024601600.000
5634886794815067136.000
5490042359534503936.000
5033969503686414336.000
2629508463562615296.000
2790931894121484288.000
2658660204944409088.000
3856196203626447360.000
4794803081327334400.000
5439181596296250368.000
4250641798447243776.000
5045186909621521408.000
3970523674096656384.000
4450869734117169152.000
9751632825891287040.000
9741285696781508608.000
7952329043798697984.000
4181509526077645824.000
5471359225225311232.000
5202553033807634432.000
3842317350133080064.000
4798057765112537088.000
3941005334467998208.000
4696049141254125568.000
3714549428419793920.000
4298350509657526784.000
10014043500627212288.000
9323162762920300544.000
13354610668233701376.000
16236684059488266240.000
18125549847104471040.000
16594784203045232640.000
12390986246936231936.000
14369427737098100736.000
17685195724132909056.000
15437055724054173696.000
14173254505283571712.000
17355570222826450944.000
14117983905333088256.000
7146414809282738176.000
15854057853544099840.000
8639752002459586560.000
5110144603897118720.000
7703903405207405568.000
15703345551865276416.000
8136947912733489152.000
9413023819110367232.000
13712194375100870656.000
6986669770782940160.000
3821694118065246720.000
4470171731715129856.000
5399901946431438848.000
4223973624989208064.000
2467381390082117120.000
1425642988833949440.000
1373625508187894784.000
2865836912184394752.000
2869861716736794112.000
2833166676046242816.000
1666348389104539648.000
919797936279280896.000
545632006302752064.000
412897497435732544.000
370557973467022080.000
211265407880113728.000
278110414311958784.000
240536566976351872.000
231333875702436480.000
214716501522173856.000
513912022654455040.000
429109910487587904.000
641633001566459136.000
1737379926662080512.000
1470634495409005824.000
1174896967099870976.000
644691509480400000.000
915339780498659328.000
1199826769106877184.000
708836398342955776.000
1548874713010781184.000
898898832663793024.000
747393495815789440.000
969716637492922752.000
1581329528940235776.000
1197908251321953536.000
675146602528850944.000
906206521006227072.000
1419672428521561344.000
765676937709664640.000
428040944461873664.000
659464705406540544.000
858936121312511488.000
969328141764662656.000
709558350241450880.000
848150118727265664.000
456099608234958400.000
524649592480568640.000
450288080252769600.000
672952990095611648.000
1501188460702296064.000
1148443389777240832.000
1736517490783861248.000
2134001913923655168.000
4806906272754247680.000
10207062728968495104.000
9736002914837057536.000
13003903287485179904.000
7068752534940830720.000
9404869720939853824.000
5224991286361878528.000
4377296984709363712.000
5330939452656326656.000
3062154681317955072.000
2738208994937963520.000
3169671265167951360.000
4419472591508915712.000
4908195677026344960.000
9861578466855157760.000
7036439110249208832.000
15893199201569366016.000
17781985203331553280.000
13557738494524411904.000
18010459274090041344.000
12327091149165582336.000
7119730814203493376.000
8330736494983204864.000
7178014242672961536.000
17459863563968366592.000
12162577761413744640.000
16037740025447309312.000
9270665549877448704.000
6942751093933025280.000
8177560934149313536.000
9146320944513882112.000
7507346159994312704.000
10159265385145159680.000
9581392178833541120.000
5083632586290511872.000
3057765906481402880.000
2822226457386160128.000
2552476402406705664.000
5683477468795545600.000
5442222886647491584.000
4170297799501773312.000
4788656039390767104.000
4789311524197693440.000
5569616150777127936.000
3754512392052051968.000
7857273567387458560.000
12173379855313799168.000
15940419823107028992.000
13892179478463744000.000
16161736753672615936.000
24591621871850618880.000
23158150958001422336.000
22085778208996900864.000
13274460569122375680.000
12675756479562014720.000
12708097458402062336.000
33403015027238010880.000
51364286558394441728.000
76744918728071544832.000
44296793836639707136.000
45147543063405805568.000
49338565111511842816.000
28590028431991304192.000
22027742831375618048.000
54869757407622733824.000
73698841197828931584.000
106879428821625552896.000
97823633661159505920.000
71688707104406650880.000
107563727261378625536.000
56151621485128851456.000
31552322817994321920.000
39053950328837259264.000
24119643479087497216.000
13783315360197267456.000
12333502127207415808.000
17999372303167401984.000
24745974681356046336.000
29787508269814956032.000
15081657840105031680.000
17559546665978556416.000
15314196524431568896.000
22488615700807491584.000
30959671289704689664.000
15777526424866662400.000
16528741373766541312.000
15964131980075988992.000
8135142387220590592.000
9061629200356598784.000
9989437481787092992.000
5702953997522793472.000
4282960624604858880.000
9079231960002108416.000
5184981723446583296.000
2817348712799110144.000
2531800201297534464.000
2246675731728843264.000
2850348658820582400.000
1673729300982656512.000
1245847304890120704.000
740047482294279168.000
880324136469956096.000
813241354519710080.000
659994815901882496.000
732347131508979456.000
873615410372638592.000
1272650837274783488.000
762221939280668160.000
674990010369142912.000
1567496123240213760.000
932747101775539840.000
510619584668591872.000
265736510074666784.000
217258216226367776.000
274597449351238944.000
141401461676668272.000
112376084462386720.000
129942758724658528.000
114146643955311440.000
138786853620222864.000
114546424747465392.000
255191111452438080.000
140312173508402512.000
82073413885866272.000
65243864107281864.000
34565090598699300.000
44843979213968352.000
65628060382762688.000
76159331130444576.000
40765599746098584.000
24605479173905368.000
20965364336115056.000
28275865753603296.000
36716643392719832.000
86450474309702704.000
128855941671450800.000
203661614429264352.000
238189765241651136.000
132261057984783344.000
119842867336201248.000
151101645757168512.000
78485100501263408.000
112040099338744944.000
147675014995836320.000
120304843139330752.000
161563274747189760.000
90638225226360960.000
82426688585622880.000
43352579177517664.000
34497079581650632.000
51683463835313288.000
80461322465446592.000
84415434898121056.000
110577133000991504.000
256429569732438144.000
530606642007349312.000
355065101005474176.000
204694092851780864.000
279545332084980096.000
355739519957833728.000
872935576404820992.000
875066140618564224.000
1286919629733137152.000
728438465231528448.000
417237138597389824.000
533395661340552768.000
388085400771664704.000
198158803926858048.000
271556184547329184.000
227570687718386016.000
520988190351475968.000
638146776415733632.000
962732520363591680.000
1336760800557156864.000
1303332426947446272.000
2789031935685169664.000
1602253934318301952.000
912359555591668736.000
767684261057809152.000
755836623598972800.000
461655861931464576.000
391331031638221824.000
218399920906714720.000
298176343790088832.000
430074487093331008.000
409607107562184064.000
927842292259828096.000
973900548533917056.000
703961012262840448.000
962211061636907904.000
1589562957770172928.000
1169803689701176576.000
1411797862910275584.000
1489746405488274944.000
3012410291148679168.000
2598085785996167680.000
1393501226442463744.000
1651829181665298432.000
1634561923076467712.000
1334397479809097472.000
1334143376064710912.000
763730074669349376.000
700431315548991872.000
356851589867259008.000
799131947485564288.000
417821005868803200.000
243158486450221632.000
245010233222869696.000
123535338944350512.000
68721820410026936.000
73482014024068144.000
160932980726828672.000
250373227649290976.000
214912872706337664.000
299280493123448896.000
292645408755044480.000
157385666454021792.000
128690201844979904.000
146172223111691616.000
120188199096761424.000
135052283880374640.000
68452278754451528.000
62404006509340568.000
125829724185757344.000
111202413148053168.000
234492644065802752.000
137397889820844544.000
79501109606563392.000
48172802166528056.000
74070197343940016.000
80236613806753872.000
45785727405076512.000
23151062786594616.000
26607607727101520.000
19559669424598096.000
11369775983568554.000
15143160242173002.000
8566007490977096.000
12393971028328136.000
19054506434492536.000
27493342479056496.000
34176553788058072.000
48358968456671080.000
27174077017138124.000
14339077803119086.000
8407209270996344.000
10489102679562798.000
13963820752547488.000
27624404410983212.000
24000983230143168.000
19742458783478524.000
28122939530508016.000
28808390411819532.000
15699722306469196.000
12858258369970928.000
14990558114045090.000
13570649486702158.000
13829219006103198.000
7158012595089361.000
8762999489749530.000
7496290663313812.000
7121184181220945.000
6221077312958534.000
13133917552207078.000
26479631369062796.000
13703047743995640.000
15113397941484434.000
21167876801914844.000
27481878820097924.000
15074327289833434.000
8425593972673895.000
6426724514359272.000
8129504182291089.000
4368300731886278.000
6821529821508822.000
3852653679104969.500
8751449514217513.000
10661460812175204.000
12387354141329924.000
26193056946191356.000
38570801916391528.000
22043903023633752.000
44408774664464664.000
23390490400882460.000
28419874618108008.000
34459318440431512.000
20039914838148876.000
20418780134378264.000
10410164940571526.000
12117538224618576.000
7393709936113861.000
8556917634673135.000
7343710196481217.000
7711420382829244.000
4483556418113986.500
2520854045364040.500
2535636748096721.000
1288188555235146.750
1871113093128977.750
1048892334824378.750
2124253839383533.500
1931213860793355.000
1901985016185396.000
4695342377045379.000
2459366274732305.500
2243707686521110.500
2157158667240270.000
2250704515072752.500
4846845915270951.000
6722227932930314.000
6143365356837724.000
3215907944642082.000
1843641426756466.000
2173234290304806.500
1933767504893527.750
4716998919336787.000
4842903254835815.000
3917205147208620.000
4821913628121642.000
3813077761249597.500
4830248821683805.000
4601787182214253.000
4221059876549108.000
3784667037386172.000
4688112905301045.000
2619652370702244.000
3553208792335527.500
8346016244285057.000
13036008986042176.000
7170986910353032.000
15618065554596648.000
24175083085031728.000
34930994196696972.000
42042342550929256.000
51551312365153624.000
49605593496552912.000
41178924293401008.000
38211436376496544.000
22093118305500520.000
11836370637641784.000
6199402861918294.000
3235691978386752.500
4387486530010641.500
4013521145805581.500
3724727783819739.500
3462458199295759.000
4551872331227532.000
3856267134923000.500
2323563445356618.000
1293680929191716.250
1152282766328107.750
1419012990593975.000
2317299935455611.000
3733546348923271.500
2155659941222779.500
1192590165106637.250
996109448566441.625
2191613468456888.250
2044221082781150.250
1028337612308867.750
1203068715504624.750
1151997619270520.500
1284665489319973.750
1421187616034211.750
1067103857283233.375
1046574261828992.750
1192697077967427.750
601739942062670.875
842152555043744.500
780491582895495.500
760394569266605.500
565590757940056.875
729536844081417.875
687381656886420.375
417736579986518.438
621486180612564.875
374567140464761.688
433187962261282.750
319059233079731.062
171521068151735.406
99787584058542.828
237754885781756.781
187461841896023.906
378126172537355.312
308132843336533.812
366568140154578.688
366403052624443.750
829449895651153.250
1123928304609607.000
688901938060956.375
674921678021519.250
370976499341524.250
308364368642969.312
798178358083462.500
991567741290883.125
2322738613849249.500
3474602798474351.500
7855542691455423.000
4573801299690042.000
4514915442298492.000
4022441641488650.500
4248345119455230.500
4284265560211466.000
4853380839586826.000
4588411640050049.000
4557038621766410.000
4544871316552542.000
5887454721021974.000
6952393476054457.000
8900118054595793.000
12461243155409022.000
11243038280612914.000
25427449236807088.000
28243578938572184.000
25104158717461020.000
22499222860920476.000
34181034090128656.000
43109099575142976.000
35177253480984508.000
50524558597983680.000
27313384108499840.000
26665667929024056.000
40594442714259928.000
46460304543971632.000
51026266974926904.000
50122407841693576.000
27353855025093320.000
15112377222783918.000
7970954243452291.000
11232816292152646.000
6474712649659925.000
8127367944381884.000
4520734746636635.000
2411499366439501.000
1378037204485262.500
2222083695149860.000
2603394473993900.500
4166930354056857.000
6716748136778062.000
6114728157480222.000
14665426765809666.000
14093040479921514.000
11151601211096370.000
24163412386366204.000
38156967042889184.000
34428942718947792.000
43534478701495440.000
21962728796923368.000
22153453643077160.000
51847034689019584.000
38168339755351072.000
43710174077310624.000
51850998413959872.000
35763920724695732.000
35196098031238680.000
39298115092213120.000
50214048196598048.000
40261640149194680.000
86947067498689984.000
137012454149559936.000
73832315344453984.000
157260151491421984.000
80441073879831984.000
66246220415723704.000
40070413903743952.000
43908815695794296.000
38891867367275064.000
90078061048763680.000
46498656343657776.000
70854927928313456.000
64249780201861752.000
87306385783471264.000
73061636622697280.000
162345776004326848.000
152810040986923808.000
83784720479297024.000
82563946790287824.000
42749808820675112.000
25705509452363624.000
34942320044975652.000
77336545630864960.000
40038058525004832.000
23076831364108684.000
27313159090233068.000
13980843454387284.000
8363637028995154.000
7913678011930186.000
4169681853780423.000
3496769431573883.000
7981189993805230.000
10802093628991178.000
22757464201406636.000
27175660705310980.000
20810555953849220.000
26911796732076444.000
19324584879716544.000
24183869295794460.000
20507426981369440.000
19119572176000172.000
44222407723380760.000
50368479579458352.000
70341934090900856.000
63253493671599776.000
91890055697418816.000
84640511755871952.000
125997745631453424.000
284164436431371008.000
146893742532299264.000
119507287160234784.000
68673865024685880.000
90523956865209136.000
145258670817455552.000
76561027474586640.000
86215006108402704.000
75376206209734304.000
39894677647357528.000
23508448312351768.000
20614138725609340.000
12085119870386622.000
6798547724837464.000
13737255382764526.000
21720897621747388.000
28112259558122100.000
14513655173349924.000
10618774640601564.000
26178853044597516.000
34068316088801276.000
37265410604842520.000
75150399839726112.000
86326536508793600.000
92512390695532976.000
81241838383469536.000
123902704676609856.000
117441986427576960.000
242188148405023744.000
206031979833541120.000
115837946639913136.000
146637194740563072.000
79474993540529456.000
74165453227931376.000
39096504635021464.000
79075552455706000.000
67142941882499088.000
34803536420389948.000
44733395039021544.000
44736455883470688.000
27116743153285672.000
38492386481906320.000
37464851396046920.000
18719186111811752.000
21930304097347800.000
24849043422605596.000
14173592052000946.000
15858553579590486.000
23075822348326140.000
46896157351754080.000
38639200523563432.000
49143101008020496.000
25105882008644536.000
13023879222434748.000
14096101773813060.000
12534427331770374.000
13693277826237036.000
8140379305192711.000
7471288793363382.000
7708529753808955.000
8603155394137680.000
7431668872562237.000
7578532307856953.000
6834666343274665.000
6722809437962766.000
3983982156900582.000
4457084343760988.000
2643404276439069.500
3463446586673249.000
3680310921440537.000
4027205896855277.000
4083592804034756.500
8486169353415992.000
6727852326198273.000
8447557986575035.000
10724308298132580.000
21899921354638604.000
26648053432271412.000
26720607986846808.000
33584778723010500.000
82657417488859824.000
84868760057489856.000
49147418825064496.000
41800619901420408.000
50076423626764432.000
27523958615298152.000
19477369752656988.000
11614917316973032.000
6110404106809065.000
7817314961436087.000
5826670038471552.000
7365669098398540.000
10611577041049052.000
12918417722126054.000
15061789495079458.000
7836545820250219.000
10485658963295038.000
12712730807540556.000
11514271087890850.000
14709482307911028.000
8752611182637132.000
14069315032124286.000
15947627750948158.000
21791940674420264.000
28002989578690532.000
22638038288384172.000
20698113920764052.000
28712772422726340.000
15696210444428190.000
18816139997555608.000
50473824352115760.000
40322387719911888.000
86213793340255056.000
137219463670995712.000
112872071690604480.000
141732328990723152.000
80635450817771072.000
76431812468785232.000
68603346398082184.000
34663086458786896.000
43546040116175880.000
67881270554300952.000
86147479078846880.000
49373656846711856.000
49852026112500504.000
26527125668882680.000
20430858654803900.000
50483650849044440.000
44877625286661024.000
39875842683117768.000
39444914492369616.000
50339201896949672.000
67335275211463368.000
153420235544045088.000
235037147423139488.000
295433309791405760.000
257605391443048736.000
386282795201429760.000
203555821175569824.000
453872877830428416.000
433094749428480512.000
238134526730276096.000
532928789890586496.000
735994571513717632.000
959280034772106496.000
788914249657807616.000
1618330934455160576.000
848385917441343360.000
446218707159862080.000
353711072855274304.000
403756564338356736.000
528953062869101056.000
654557825469623936.000
1752146722084659968.000
2822080171792057856.000
1543364138845909760.000
2412455051696515072.000
5388707468989409280.000
7907222271390085120.000
7626439695196321792.000
9693731679708459008.000
6905080869234942976.000
17987982671278682112.000
13065876843504633856.000
13609126427769405440.000
13848269666232344576.000
7944579522885668864.000
8647679855888785408.000
4890045734051912704.000
9929229184237969408.000
16027768256983230464.000
15805330171523004416.000
8855903840639203328.000
4941363961467564032.000
2792791150659224064.000
3125193284375355392.000
2403296327557903360.000
2711527730335691776.000
5676782681279455232.000
4292258589793113600.000
2365135403093298176.000
2137973751800418048.000
5569522482185137152.000
4575229732414787072.000
5715153296432747520.000
7368240554382636032.000
4492654663971390464.000
10058639323289739264.000
14800224984192970752.000
8676062882896110592.000
4482170538632661504.000
2458097442955719680.000
3041811254085095424.000
1578537979406109696.000
1295744950537794560.000
2685091293658262528.000
1427058453812464128.000
1281457444630202880.000
3017472353278870528.000
2288902729446862336.000
5307471710603330560.000
4808642962514194432.000
5267407425275782144.000
4453674064537953792.000
3751099462685027840.000
5481638340172160000.000
6810932633855420416.000
3897650492532276224.000
8519487392606502912.000
10188623962064640000.000
6723891323806168064.000
9024932177434392576.000
8190844456778233856.000
6820242955274450944.000
9852683099305734144.000
6909852156716215296.000
15460934070277545984.000
21655736749379215360.000
33287043253855969280.000
39004312208078864384.000
58140452821861294080.000
51797783073096089600.000
43242672148414128128.000
92883192167590871040.000
192115121901827948544.000
179294818856432631808.000
161302115010541682688.000
135725089019625701376.000
186541582097597005824.000
101040031929931726848.000
136025763006188191744.000
186411436195468738560.000
127710429989042339840.000
79395319081967566848.000
48122493216094724096.000
57217361671967981568.000
43687039512761532416.000
58542413496967921664.000
56465359789723779072.000
43050856909774774272.000
98455440626221793280.000
104350306784440123392.000
86169781974069493760.000
45663178139328299008.000
22767957706209509376.000
13816353955689656320.000
7117503138538109952.000
17099221982702446592.000
25850574952624652288.000
31818092955098144768.000
18310949347072352256.000
13647282778683328512.000
7654236211192846336.000
3995040962158542848.000
5023476137264173056.000
4891626980761573376.000
2754994240066743296.000
2318315475226371584.000
3181871811297444352.000
3037696069827304960.000
2074452243948807936.000
3057495476692059136.000
2165206403848434688.000
1298122306151668480.000
1210886357253362688.000
2555736700698894336.000
2613436284229737472.000
3801543576498036736.000
10095505952723005440.000
7045619675429155840.000
9840366157026091008.000
15187148106991343616.000
15528293618775885824.000
30688624148605132800.000
30728753301944647680.000
25920192185032085504.000
30750158916492046336.000
23680742751108608000.000
13480093260737468416.000
7556981300862136320.000
7706608867157225472.000
8057686558774944768.000
9063586777853200384.000
5307093216658655232.000
4459837478373035008.000
2727513980537806336.000
5597229141070543872.000
3016566701917135360.000
1663116135326264576.000
2146754197649540608.000
4422865782686661120.000
4865473529170935808.000
4050701106904500736.000
3882435483546952704.000
2105409957754667264.000
2727914915963397632.000
2794476692369288192.000
3148514595176460800.000
1749752151255720448.000
1323214877082711808.000
783056272482051584.000
436589921076885504.000
235233861805357216.000
122341538147324992.000
146816742255182336.000
132288851211056928.000
72380932167871296.000
146068341632865696.000
162893646966000480.000
131686040941985440.000
156547376281654464.000
109213319617161520.000
157072019568819936.000
82095317393112384.000
42379479223096904.000
38041784266054584.000
22687699513947888.000
20076328901665412.000
22394587608453500.000
11920405286218386.000
6979768082881365.000
3913532187411759.500
3266301387718288.000
3932034610928347.000
4552548444089628.000
4170646125986285.000
2149191168268057.750
2736797729825101.500
2018071654212129.250
4321308481449757.500
2499335652932523.000
1958250281875759.000
2414700967669422.500
2334271879866953.000
2391477760473897.000
1783647579009169.000
2336472324730042.000
1335438985840748.500
1429098488447985.500
1041914062045641.125
1405827401588412.750
1430689931631709.000
782881279920975.750
1130948418777517.500
2295855481593958.500
2190692512756685.750
4479161212494278.000
3940862352380090.000
4919670627422324.000
2604633444414150.500
3310840894335416.500
1944126694560915.000
4724226420052974.000
6316693495622661.000
3757998083254476.000
3392756927030633.000
3738079520825542.000
4501630342333949.500
3201558320071819.500
7487288445520515.000
3783905526166922.000
4701112193637611.000
3453410166656422.000
7450155756195902.000
11353736698081532.000
13748106967457554.000
19106106142728204.000
25375123968088868.000
20561091277845496.000
23398061058073244.000
13192395118738862.000
11309754647502980.000
11480041062386060.000
6697890174447826.000
6078415815960409.000
7490164818549503.000
4231482548037826.500
4852912062366797.000
4621415974535103.000
6209675929181274.000
15438710018563122.000
22144597286117276.000
13353226617135388.000
14332577924619904.000
11840997519862050.000
11997778687071442.000
10479210897358996.000
25960262799541940.000
25627814796458312.000
20400385931578332.000
23450332535628972.000
34554452789850588.000
48789996609748296.000
72075427040737520.000
74589246708716000.000
38320800829788712.000
83422502086267312.000
48325312225770408.000
49906321081921840.000
36441137689620688.000
38375190313363504.000
42340600234432944.000
89109083895598448.000
88198564672493696.000
45101168976507120.000
35181445108540192.000
76815829809381040.000
42728728229802216.000
35733825990619056.000
44927705501303728.000
23962641251665772.000
18998254393974608.000
28181231273352284.000
27199127975877304.000
34121081751147360.000
47107583017490552.000
64505171519724928.000
87534071896780688.000
68903876001053968.000
66637103173258552.000
63390369121306248.000
131152366923933568.000
108969581701779376.000
66034549987580736.000
35683085638900684.000
34918598048969836.000
81556677599025984.000
42626523866964480.000
23759094559812556.000
14135198255995478.000
13488107995911140.000
7191014045022344.000
8228154125239270.000
12387867618981892.000
25359883265194260.000
13508741292468726.000
15853663213650008.000
21176301004905444.000
51368742659401392.000
45586962897059864.000
26284878929152700.000
26236322494614600.000
24994756363451536.000
14799700988078682.000
10692297698678254.000
10718362255316190.000
12796921578616884.000
11341794369875990.000
14965085259589352.000
15992864534074544.000
8732578010988715.000
8232625748875689.000
6707384221981523.000
7794399530860611.000
8370170196992325.000
8356923319995346.000
8001924948874740.000
4441489785365673.500
2418611696059974.000
1955493440801958.000
2114657399292076.750
2422439699028541.500
1820089164384570.500
2276200259484803.000
1871195376381738.750
